Time [s],Phi [rad],STIM [ ],Fsee [N],Gamma [ ],Lcerel [ ],q [ ],Lmtc [m],fisomrel [ ]
0.0,1.8,1.0,17.96580263855247,1.000011543594995e-05,1.3793398980871696,0.005000026652395811,0.288653,0.5411391636454586
0.0005,1.79999375,1.0,18.275259940768397,0.005619153331491721,1.3793025526591698,0.012940517573312053,0.2886527375,0.5412295074816255
0.001,1.799975,1.0,21.61695306886517,0.011196843632926815,1.3789384480152278,0.03560858782981866,0.28865195,0.542109861657559
0.0015,1.79994375,1.0,31.067724692939784,0.01674324750267815,1.378046332489077,0.07060172414748564,0.2886506375,0.5442632987613464
0.002,1.7999,1.0,53.580586238437455,0.02225854043202843,1.3763682485665354,0.11471786009283798,0.2886488,0.5483001960170875
0.0025,1.79984375,1.0,97.1167852530659,0.027742896928175616,1.3739352709788375,0.16457469763654808,0.28864643749999996,0.5541212152996919
0.003,1.7997750000000001,1.0,160.95597307175981,0.033196490521945204,1.3712144258706684,0.2172802489119098,0.28864354999999997,0.5605862564588967
0.0035,1.79969375,1.0,237.6811967598416,0.038619493767384494,1.3685847999902694,0.27061268116466014,0.2886401375,0.5667896850004246
0.004,1.7996,1.0,321.46474716439786,0.04401207825254424,1.3661561460089013,0.3229155984756408,0.2886362,0.5724798365430743
0.0045000000000000005,1.7994937500000001,1.0,409.2658561684209,0.049374414604663075,1.363922858640603,0.3730343131863938,0.2886317375,0.5776790591800121
0.005,1.799375,1.0,499.411725547855,0.05470667248126491,1.3618583801423723,0.4202472780533776,0.28862675,0.5824569920941914
0.0055,1.79924375,1.0,590.7887419077192,0.06000902061757512,1.3599388677679551,0.4641735288630083,0.2886212375,0.5868750365750081
0.006,1.7991000000000001,1.0,682.5165389367907,0.06528162676978576,1.3581464432747703,0.5046798064314499,0.2886152,0.590979353219489
0.006500000000000001,1.79894375,1.0,773.880048741797,0.07052465777154644,1.3564672742577428,0.5418006155201012,0.2886086375,0.5948057473955841
0.007,1.798775,1.0,864.2845900196131,0.07573827951128409,1.3548904147224112,0.5756766506980538,0.28860155,0.5983826324558513
0.0075,1.79859375,1.0,953.241576475691,0.08092265695502941,1.353406804399669,0.606509802956933,0.2885939375,0.6017335159566777
0.008,1.7984,1.0,1040.3576432379168,0.08607795414635215,1.3520086582901478,0.6345319506744852,0.2885858,0.604878521966741
0.0085,1.79819375,1.0,1125.320832890035,0.09120433419838857,1.3506891479907916,0.6599842798263681,0.2885771375,0.6078352088057801
0.009000000000000001,1.797975,1.0,1207.886558323277,0.09630195930204186,1.3494422211830652,0.6831042058316622,0.28856795,0.610619049919151
0.0095,1.79774375,1.0,1287.859088482061,0.10137099014287194,1.3482625620358653,0.7041176294265761,0.2885582375,0.6132435838144614
0.01,1.7975,1.0,1365.1627121064569,0.1064115889342509,1.3471444410235218,0.7232341826575611,0.288548,0.6157230136048042
0.0105,1.79724375,1.0,1439.673249740845,0.11142391385182675,1.3460837742891933,0.7406465093211475,0.2885372375,0.6180676695591412
0.011,1.796975,1.0,1511.32598902713,0.11640812299049616,1.345076507531751,0.7565290462651364,0.28852595000000003,0.6202876401456932
0.0115,1.79669375,1.0,1580.112357971542,0.12136437444515587,1.3441185864500655,0.7710386018834444,0.2885141375,0.6223928522308954
0.012,1.7964,1.0,1646.0534081748099,0.12629282540850578,1.343206207125364,0.7843155583449205,0.28850180000000003,0.6243925363221354
0.0125,1.79609375,1.0,1709.174452854734,0.13119363208742513,1.3423360293011586,0.7964852790969906,0.2884889375,0.626294780109427
0.013000000000000001,1.7957750000000001,1.0,1769.4984930353683,0.13606694886848364,1.3415051637587267,0.8076594879664843,0.28847555,0.6281065788460626
0.0135,1.79544375,1.0,1827.0758713737605,0.14091292985362366,1.340710769025198,0.8179374952189105,0.2884616375,0.6298347317291395
0.014,1.7951000000000001,1.0,1881.9783981405153,0.14573172867210082,1.33995008165334,0.8274075530232344,0.2884472,0.6314857843873961
0.0145,1.79474375,1.0,1934.2888487860394,0.15052349884975505,1.339220496626049,0.8361481274037499,0.2884322375,0.6330658631019664
0.015,1.794375,1.0,1984.0616606419183,0.15528839077152173,1.3385199515631017,0.8442291491425272,0.28841675,0.6345798545717962
0.0155,1.79399375,1.0,2031.3693670812672,0.16002655482233627,1.337846384084275,0.85171282561924,0.2884007375,0.6360325917129483
0.016,1.7936,1.0,2076.3010586560576,0.1647381413871341,1.3371977318093453,0.8586545531013657,0.2883842,0.6374288573425793
0.0165,1.7931937500000001,1.0,2118.9404972605826,0.1694232990913916,1.3365721432379023,0.8651037861938737,0.2883671375,0.6387729349370057
0.017,1.792775,1.0,2159.3938371197087,0.17408217833211784,1.3359676707345256,0.8711046525635033,0.28834955,0.6400692736645963
0.0175,1.7923437500000001,1.0,2197.7269695428354,0.1787149249998288,1.335382897870939,0.8766967539810872,0.2883314375,0.6413211473714646
0.018000000000000002,1.7919,1.0,2234.0150122336604,0.18332168497511542,1.3348164093152792,0.8819155504230515,0.2883128,0.6425317986391053
0.0185,1.79144375,1.0,2268.3416413794343,0.1879026041385686,1.3342667897356835,0.8867928435262636,0.2882936375,0.6437044428565064
0.019,1.790975,1.0,2300.790018084228,0.1924578273357807,1.3337327064169888,0.8913572202477584,0.28827395,0.6448420939655356
0.0195,1.79049375,1.0,2331.451164961444,0.19698750021126435,1.3332128174210076,0.895634399871463,0.2882537375,0.6459477624564868
0.02,1.79,1.0,2360.403973513728,0.2014917664416555,1.3327059613625658,0.899647602080259,0.288233,0.6470240538067948
0.0205,1.78949375,1.0,2387.712463796815,0.20597076712298473,1.3322111733140045,0.9034178287214643,0.2882117375,0.6480731387925143
0.021,1.788975,1.0,2413.445098329837,0.21042464335128253,1.3317274883476649,0.9069640665042317,0.28818995000000003,0.6490971730693555
0.021500000000000002,1.78844375,1.0,2437.6744134628584,0.2148535362225794,1.3312539415358877,0.910303507987392,0.2881676375,0.6500982978856463
0.022,1.7879,1.0,2460.472046102973,0.2192575859379824,1.3307896122319218,0.9134517544259764,0.2881448,0.6510785473196901
0.0225,1.78734375,1.0,2481.9084598805293,0.22363693259583015,1.330333622601218,0.9164229857900367,0.28812143749999997,0.6520398526121051
0.023,1.786775,1.0,2502.055856506562,0.22799171664415363,1.3298851063268142,0.919230104530058,0.28809755,0.6529841091318447
0.0235,1.78619375,1.0,2520.9666763457153,0.23232207408126296,1.3294434092423744,0.9218849034968734,0.28807313749999996,0.6539127554424791
0.024,1.7856,1.0,2538.6954698571976,0.23662814090546833,1.3290078771815614,0.9243981421897066,0.2880482,0.6548272217872532
0.0245,1.78499375,1.0,2555.29872155742,0.24091005311507985,1.328577855978039,0.9267796515340204,0.2880227375,0.6557289303599332
0.025,1.784375,1.0,2570.834683470884,0.24516794670840772,1.3281526914654702,0.9290384267662907,0.28799675,0.6566192955483672
0.025500000000000002,1.78374375,1.0,2585.35435030883,0.24940195556707673,1.3277318122985993,0.9311827227841508,0.2879702375,0.6574995510442465
0.026000000000000002,1.7831000000000001,1.0,2598.915369050012,0.25361221616294555,1.327314597926042,0.933220106439642,0.2879432,0.6583710267363314
0.0265,1.78244375,1.0,2611.5704158115304,0.25779886298855276,1.3269004860606075,0.935157537794706,0.2879156375,0.6592349241496765
0.027,1.781775,1.0,2623.3582243939927,0.2619620265339305,1.3264890540552403,0.937001439122588,0.28788755,0.6600921479021504
0.0275,1.7810937500000001,1.0,2634.318415703981,0.26610183728911085,1.3260798792628854,0.9387577251731934,0.2878589375,0.660943598022647
0.028,1.7804,1.0,2644.4914217229957,0.2702184257441257,1.3256725390364874,0.9404318499911715,0.2878298,0.6617901700176263
0.0285,1.77969375,1.0,2653.9184134368193,0.27431192238900715,1.3252666107289912,0.9420288488483828,0.2878001375,0.6626327549262593
0.029,1.778975,1.0,2662.641232725317,0.2783824577137872,1.3248616716933415,0.943553375853685,0.28776995,0.6634722393641825
0.029500000000000002,1.7782437500000001,1.0,2670.6937984075084,0.28243015820294165,1.3244573776640765,0.9450097470110168,0.2877392375,0.664309343365277
0.03,1.7775,1.0,2678.1217449326323,0.28645515727457166,1.3240532814485653,0.9464019491956764,0.287708,0.665144996117401
0.0305,1.77674375,1.0,2684.95630885252,0.2904575816865815,1.323649072477152,0.9477336954418283,0.2876762375,0.6659798401934927
0.031,1.775975,1.0,2691.2248289296936,0.2944375561029042,1.3232444793762457,0.9490084370244927,0.28764395,0.6668144341606501
0.0315,1.7751937500000001,1.0,2696.9549727054255,0.29839520518747287,1.3228392307722556,0.9502293811727753,0.2876111375,0.667649333783094
0.032,1.7744,1.0,2702.1747056615636,0.3023306536042207,1.3224330552915908,0.9513995113432782,0.2875778,0.6684850920131695
0.0325,1.77359375,1.0,2706.9122620155686,0.3062440260170806,1.3220256815606604,0.9525216055743935,0.2875439375,0.6693222589776536
0.033,1.772775,1.0,2711.1961171479165,0.3101354470899859,1.3216168382058735,0.9535982531237568,0.28750955,0.6701613819593655
0.0335,1.7719437500000002,1.0,2715.0489826391727,0.3140050372974251,1.3212063083451153,0.9546318746569943,0.2874746375,0.6710028937477766
0.034,1.7711000000000001,1.0,2718.4970339489155,0.3178529209007014,1.320793845147622,0.9556247281625618,0.2874392,0.6718472860822817
0.0345,1.7702437500000001,1.0,2721.572944204299,0.32167922736366494,1.3203791441337016,0.9565789189607148,0.2874032375,0.6726951658295819
0.035,1.7693750000000001,1.0,2724.2935474329615,0.325484074656011,1.3199620463668063,0.9574964292328156,0.28736675,0.6735468395560131
0.035500000000000004,1.76849375,1.0,2726.6757850941826,0.32926758074743484,1.3195423929103884,0.9583791146928697,0.2873297375,0.6744026120315783
0.036000000000000004,1.7676,1.0,2728.7366949118104,0.3330298636076318,1.319120024827901,0.9592287141071969,0.2872922,0.6752627862048466
0.0365,1.76669375,1.0,2730.493400267617,0.3367710412062972,1.3186947831827962,0.9600468579937004,0.2872541375,0.6761276631762453
0.037,1.765775,1.0,2731.9631001543316,0.3404912315131263,1.3182665090385264,0.9608350765798568,0.28721555,0.6769975421697373
0.0375,1.76484375,1.0,2733.1630596891746,0.34419055249781455,1.3178350434585442,0.9615948070901509,0.2871764375,0.6778727205028869
0.038,1.7639,1.0,2734.110601186929,0.34786912213005705,1.3174002275063021,0.9623274004262574,0.28713679999999997,0.6787534935553177
0.0385,1.76294375,1.0,2734.823095793782,0.3515270583795493,1.3169619022452526,0.9630341272966866,0.28709663750000003,0.6796401547355579
0.039,1.761975,1.0,2735.309168864313,0.35516447279236346,1.3165199885227643,0.9637161899868836,0.28705595,0.6805328343926951
0.0395,1.7609937500000001,1.0,2735.5884242562365,0.35878148650409836,1.3160743077970443,0.9643747137937213,0.2870147375,0.6814318620874341
0.04,1.76,1.0,2735.678251234941,0.3623782169861592,1.3156247018969804,0.9650107606076196,0.286973,0.6823375240830429
0.0405,1.7589937500000001,1.0,2735.5880626522444,0.36595477527165754,1.3151710852737766,0.9656253373374467,0.2869307375,0.6832499585693554
0.041,1.757975,1.0,2735.32728914349,0.36951127239370485,1.3147133723786355,0.9662193944196831,0.28688795,0.6841693024428135
0.0415,1.75694375,1.0,2734.905376108566,0.37304781938541254,1.3142514776627607,0.9667938295702918,0.2868446375,0.6850956912843476
0.042,1.7559,1.0,2734.3317808553866,0.3765645272798922,1.3137853155773556,0.9673494912499049,0.28680079999999997,0.6860292593367965
0.0425,1.75484375,1.0,2733.61596990537,0.3800615071102552,1.313314800573623,0.9678871818669542,0.2867564375,0.6869701394818586
0.043000000000000003,1.753775,1.0,2732.767416460925,0.3835388699096131,1.3128398471027665,0.9684076607410386,0.28671155,0.6879184632165742
0.043500000000000004,1.75269375,1.0,2731.7955980361126,0.3869967267110774,1.3123603696159891,0.9689116468467167,0.28666613750000003,0.6888743606293453
0.044,1.7516,1.0,2730.7099942482705,0.39043518854775944,1.3118762825644943,0.9693998213560402,0.2866202,0.6898379603754838
0.0445,1.75049375,1.0,2729.5142168464818,0.3938543583119501,1.3113875537365558,0.9698728329413551,0.2865737375,0.6908092837307512
0.045,1.7493750000000001,1.0,2728.2225898336046,0.3972543539770095,1.3108940535611988,0.9703312916056421,0.28652675,0.691788544197342
0.0455,1.74824375,1.0,2726.8421632481236,0.4006352827608252,1.3103957185455946,0.9707757797083724,0.2864792375,0.6927758224125129
0.046,1.7471,1.0,2725.3780743997177,0.4039972491677939,1.3098925025736279,0.9712068511510797,0.2864312,0.693771163420453
0.0465,1.7459437500000001,1.0,2723.8354591973657,0.40734035770231247,1.3093843595291834,0.971625032178496,0.28638263750000004,0.6947746112203985
0.047,1.744775,1.0,2722.219451391448,0.4106647128687776,1.3088712432961456,0.9720308230187708,0.28633355,0.6957862087522106
0.0475,1.74359375,1.0,2720.535181863564,0.41397041917158606,1.308353107758399,0.972424699411445,0.28628393750000003,0.6968059978818151
0.048,1.7424,1.0,2718.787777962319,0.41725758111513467,1.3078299067998282,0.9728071140318502,0.2862338,0.6978340193865085
0.0485,1.74119375,1.0,2716.9823628877393,0.42052630320382023,1.307301594304318,0.973178497819845,0.2861831375,0.6988703129401287
0.049,1.739975,1.0,2715.1240551214582,0.42377668994203943,1.306768124155753,0.9735392612201462,0.28613195,0.6999149170980885
0.0495,1.73874375,1.0,2713.217892577342,0.42700884530692046,1.3062294509247696,0.9738897953249827,0.2860802375,0.7009678679410527
0.05,1.7375,1.0,2711.266978045753,0.43022285168480545,1.3056855467794526,0.9742304716462903,0.286028,0.7020291661037854
0.0505,1.73624375,1.0,2709.28064479071,0.4334188433072626,1.3051363270151053,0.9745616467376206,0.2859752375,0.7030989219889373
0.051000000000000004,1.734975,1.0,2707.261245652402,0.4365969172173075,1.3045817705201148,0.974883660718078,0.28592195,0.704177120748827
0.051500000000000004,1.73369375,1.0,2705.211130683498,0.4397571704579556,1.3040218561828678,0.9751968382890195,0.2858681375,0.705263746693634
0.052000000000000005,1.7324,1.0,2703.1326470094505,0.4428997000722224,1.3034565628917516,0.9755014895655019,0.2858138,0.7063587832841978
0.0525,1.73109375,1.0,2701.028138699445,0.4460246031031234,1.302885869535153,0.9757979108558793,0.28575893750000003,0.7074622131247903
0.053,1.729775,1.0,2698.8999466462765,0.44913197659367426,1.3023097550014593,0.9760863853932049,0.28570355000000003,0.70857401795586
0.0535,1.72844375,1.0,2696.750408456956,0.4522219175868904,1.3017281981790572,0.9763671840218081,0.2856476375,0.7096941786467462
0.054,1.7271,1.0,2694.581858352421,0.45529452312578733,1.301141177956334,0.9766405658421484,0.2855912,0.7108226751883661
0.0545,1.7257437500000001,1.0,2692.396627077908,0.4583498902533806,1.3005486732216764,0.9769067788168214,0.2855342375,0.7119594866858736
0.055,1.724375,1.0,2690.1970418224237,0.4613881160126857,1.2999506628634716,0.9771660603403526,0.28547675,0.7131045913512883
0.0555,1.72299375,1.0,2687.9854261488135,0.4644092974467181,1.2993471257701068,0.9774186377752381,0.2854187375,0.7142579664960965
0.056,1.7216,1.0,2685.764099933164,0.46741353159849347,1.2987380408299687,0.9776647289564885,0.2853602,0.7154195885238264
0.0565,1.72019375,1.0,2683.535379314503,0.47040091551102714,1.2981233869314444,0.9779045426667718,0.28530113749999997,0.7165894329225904
0.057,1.718775,1.0,2681.2996672724444,0.47337153282277333,1.297503160473777,0.9781382788836839,0.28524155,0.7177674410335271
0.0575,1.71734375,1.0,2679.0559732433762,0.47632545864516185,1.2968773706360097,0.978366129413672,0.2851814375,0.7189535293502849
0.058,1.7159,1.0,2676.8129318909846,0.4792628371543537,1.2962459382663616,0.9785882793745326,0.2851208,0.7201477808057497
0.0585,1.71444375,1.0,2674.5711694559677,0.482183756203325,1.2956088576176925,0.9788049056015524,0.2850596375,0.7213501380674834
0.059000000000000004,1.7129750000000001,1.0,2672.331311129844,0.4850883036450518,1.2949661229428624,0.979016177895107,0.28499795,0.722560543099669
0.059500000000000004,1.71149375,1.0,2670.0939810561385,0.4879765673325102,1.2943177284947314,0.9792222593537991,0.2849357375,0.7237789371610382
0.06,1.71,1.0,2667.8598023316213,0.4908486351186763,1.2936636685261593,0.9794233066892992,0.284873,0.7250052608027998
0.0605,1.7084937500000001,1.0,2665.6293970087595,0.49370459485652624,1.293003937290006,0.9796194705240329,0.2848097375,0.7262394538665633
0.061,1.7069750000000001,1.0,2663.4033860984214,0.49654453439903606,1.2923385290391316,0.9798108956727704,0.28474595,0.7274814554822602
0.0615,1.7054437500000001,1.0,2661.182389573663,0.49936854159918187,1.291667438026396,0.979997721409108,0.2846816375,0.7287312040660666
0.062,1.7039,1.0,2658.967026374414,0.5021767043099398,1.2909906585046589,0.9801800817177551,0.2846168,0.7299886373183195
0.0625,1.70234375,1.0,2656.75791441215,0.5049691103842858,1.2903081847267808,0.9803581055334899,0.2845514375,0.7312536922214328
0.063,1.7007750000000001,1.0,2654.555670576203,0.5077458476751961,1.289620010945621,0.9805319169675784,0.28448555,0.7325263050378137
0.0635,1.69919375,1.0,2652.3609107402185,0.5105070040356469,1.2889261314140399,0.9807016355224037,0.28441913750000003,0.7338064113077709
0.064,1.6976,1.0,2650.1742497693517,0.513252667318614,1.2882265403848971,0.9808673762950004,0.2843522,0.7350939458474275
0.0645,1.69599375,1.0,2647.996301528644,0.5159829253770737,1.287521232111053,0.9810292501701476,0.2842847375,0.7363888427466263
0.065,1.694375,1.0,2645.8276788918406,0.518697866064002,1.286810200845367,0.9811873640036253,0.28421675,0.7376910353668376
0.0655,1.69274375,1.0,2643.66899375046,0.5213975772323751,1.2860934408406994,0.9813418207962022,0.2841482375,0.73900045633906
0.066,1.6911,1.0,2641.5208570247187,0.524082146735169,1.2853709463499101,0.9814927198588911,0.2840792,0.7403170375617243
0.0665,1.6894437500000001,1.0,2639.3838786742945,0.5267516624253598,1.284642711625859,0.9816401569699628,0.2840096375,0.7416407101985909
0.067,1.687775,1.0,2637.2568701722994,0.5294061797389129,1.2839087475436262,0.9817842231483992,0.28393955,0.7429713745797499
0.0675,1.68609375,1.0,2635.1408911253134,0.5320458026657111,1.2831690441989834,0.9819250084842945,0.2838689375,0.7443089681359509
0.068,1.6844000000000001,1.0,2633.0373769303637,0.5346706390449171,1.2824235881945016,0.9820625999961266,0.2837978,0.7456534337734138
0.0685,1.68269375,1.0,2630.946232193781,0.5372807673361127,1.2816723802845185,0.9821970804358818,0.2837261375,0.7470046880894567
0.069,1.680975,1.0,2628.867361727761,0.5398762659988794,1.2809154212233707,0.9823285297213432,0.28365395,0.7483626470628069
0.0695,1.67924375,1.0,2626.800670548234,0.5424572134927987,1.280152711765395,0.9824570250511199,0.28358123749999997,0.749727226053876
0.07,1.6775,1.0,2624.7460638733214,0.5450236882774524,1.2793842526649286,0.9825826410142402,0.283508,0.7510983398050362
0.07050000000000001,1.67574375,1.0,2622.7034471214874,0.5475757688124218,1.2786100446763085,0.9827054496946017,0.2834342375,0.7524759024408973
0.07100000000000001,1.673975,1.0,2620.672725909605,0.5501135335572884,1.2778300885538716,0.9828255207705512,0.28335995,0.7538598274685838
0.07150000000000001,1.67219375,1.0,2618.653806051677,0.5526370609716341,1.2770443850519548,0.9829429216098509,0.2832851375,0.7552500277780108
0.07200000000000001,1.6704,1.0,2616.6465935566994,0.5551464295150402,1.2762529349248952,0.9830577173602758,0.2832098,0.7566464156421608
0.0725,1.66859375,1.0,2614.650994627189,0.5576417176470884,1.27545573892703,0.9831699710360706,0.2831339375,0.7580489027173594
0.073,1.6667750000000001,1.0,2612.666915657489,0.5601230038273602,1.2746527978126956,0.9832797436004785,0.28305755,0.7594574000435541
0.0735,1.66494375,1.0,2610.694263231897,0.5625903665154373,1.2738441123362294,0.9833870940445475,0.2829806375,0.7608718180445873
0.074,1.6631,1.0,2608.7329441231313,0.565043884170901,1.2730296832519685,0.9834920794624019,0.2829032,0.7622920665284749
0.0745,1.6612437500000001,1.0,2606.7828652907097,0.5674836352533331,1.2722095113142495,0.983594755123164,0.2828252375,0.7637180546876833
0.075,1.659375,1.0,2604.8439338794024,0.5699096982223151,1.2713835972774095,0.9836951745396886,0.28274675,0.7651496910994032
0.0755,1.65749375,1.0,2602.916057217352,0.5723221515374285,1.2705519418957856,0.9837933895342771,0.2826677375,0.7665868837258274
