Time [s],Phi [rad],STIM [ ],Fsee [N],Gamma [ ],Lcerel [ ],q [ ],Lmtc [m],fisomrel [ ]
0.0,1.8,1.0,17.96656073862155,1.0000847248458712e-05,1.3793398131523007,0.0050000266562756695,0.288653,0.5411393691249287
0.0005,1.79999375,1.0,18.275948187676647,0.005619154059199062,1.3793024762059505,0.012940518074068753,0.2886527375,0.5412296924235791
0.001,1.799975,1.0,21.61760055228851,0.011196844356552516,1.3789383818826364,0.035608586658896844,0.28865195,0.5421100214801315
0.0015,1.79994375,1.0,31.068368539176237,0.016743248222244614,1.3780462776345386,0.07060172083860157,0.2886506375,0.5442634310161651
0.002,1.7999,1.0,53.58124479992674,0.022258541147558954,1.3763682058418725,0.11471785571682497,0.2886488,0.5483002985694194
0.0025,1.79984375,1.0,97.1174351253615,0.02774289763969244,1.373935239662748,0.1645746937726992,0.28864643749999996,0.5541212899820256
0.003,1.7997750000000001,1.0,160.95657663904424,0.03319649122947105,1.3712144032784377,0.21728024635484308,0.28864354999999997,0.5605863099446219
0.0035,1.79969375,1.0,237.68173927176161,0.03861949447094189,1.3685847832794016,0.2706126798957477,0.2886401375,0.5667897242821319
0.004,1.7996,1.0,321.4652310423751,0.044012078952155344,1.3661561331927863,0.3229155982118188,0.2886362,0.5724798664710031
0.0045000000000000005,1.7994937500000001,1.0,409.2662886945329,0.049374415300349486,1.3639228484875454,0.3730343136447861,0.2886317375,0.5776790827446143
0.005,1.799375,1.0,499.4121104738848,0.0547066731730435,1.361858371962713,0.4202472790551276,0.28862675,0.5824570109709655
0.0055,1.79924375,1.0,590.7890901549318,0.06000902130548217,1.3599388609640404,0.46417353017444135,0.2886212375,0.5868750521935882
0.006,1.7991000000000001,1.0,682.5168488072553,0.06528162745383768,1.3581464376421442,0.5046798080090101,0.2886152,0.5909793660849546
0.006500000000000001,1.79894375,1.0,773.8799125780454,0.07052465845114274,1.3564672765821495,0.5418006217495717,0.2886086375,0.5948057421113053
0.007,1.798775,1.0,864.2848627910153,0.07573828018891202,1.3548904103162762,0.5756766522630009,0.28860155,0.5983826424283964
0.0075,1.79859375,1.0,953.2424510259906,0.08092265763003383,1.353406790948173,0.6065097986276393,0.2885939375,0.6017335462745992
0.008,1.7984,1.0,1040.3577920321818,0.08607795480470819,1.3520086560994513,0.634531952885237,0.2885858,0.604878526884752
0.0085,1.79819375,1.0,1125.3165795092377,0.09120433486577913,1.3506892082029056,0.6599843180356201,0.2885771375,0.6078350741390917
0.009000000000000001,1.797975,1.0,1207.8764664897517,0.09630195985163657,1.3494423590770397,0.6831042855752809,0.28856795,0.6106187426105654
0.0095,1.79774375,1.0,1287.8704100699297,0.10137099144948598,1.3482624122193845,0.7041175538681858,0.2885582375,0.613243916566121
0.01,1.7975,1.0,1365.159006826664,0.1064115896887878,1.3471444886464912,0.7232342102095385,0.288548,0.6157229081708104
0.0105,1.79724375,1.0,1439.651102538503,0.11142391392192566,1.3460840514781693,0.7406466478148518,0.2885372375,0.6180670577565557
0.011,1.796975,1.0,1511.311096733591,0.11640812321041082,1.3450766894477773,0.756529134032899,0.28852595000000003,0.6202872397951604
0.0115,1.79669375,1.0,1580.1157984639822,0.12136437522792541,1.344118545347989,0.7710385852775563,0.2885141375,0.6223929424348983
0.012,1.7964,1.0,1646.0578717850312,0.12629282628395241,1.343206154879564,0.7843155376758434,0.28850180000000003,0.6243926506785229
0.0125,1.79609375,1.0,1709.162789506099,0.1311936321871885,1.3423361632744353,0.7964853358996942,0.2884889375,0.6262944876101377
0.013000000000000001,1.7957750000000001,1.0,1769.4890252553946,0.13606694905896718,1.341505270642313,0.8076595316693538,0.28847555,0.6281063460571448
0.0135,1.79544375,1.0,1827.0837697598563,0.14091293093459317,1.340710681275228,0.8179374634174051,0.2884616375,0.6298349224010522
0.014,1.7951000000000001,1.0,1881.9929697760556,0.1457317302652449,1.339949922143485,0.8274074966973043,0.2884472,0.6314861302124953
0.0145,1.79474375,1.0,1934.2866639153094,0.1505234995021008,1.3392205202173877,0.836148137023098,0.2884322375,0.6330658120645564
0.015,1.794375,1.0,1984.0446910861883,0.15528839028642624,1.3385201324808595,0.8442292104679773,0.28841675,0.6345794639832312
0.0155,1.79399375,1.0,2031.361071212124,0.16002655473634056,1.3378464714930964,0.851712854333476,0.2884007375,0.6360324033790319
0.016,1.7936,1.0,2076.3096758088595,0.1647381422835938,1.3371976420033027,0.8586545259189757,0.2883842,0.6374290504700655
0.0165,1.7931937500000001,1.0,2118.961999173632,0.16942330109098055,1.336571921416219,0.8651037212234751,0.2883671375,0.6387734110784262
0.017,1.792775,1.0,2159.402017519618,0.17408217932129544,1.3359675871365861,0.8711046292700647,0.28834955,0.6400694527857793
0.0175,1.7923437500000001,1.0,2197.718559787374,0.17871492444433248,1.3353829830600905,0.8766967774212844,0.2883314375,0.6413209651585301
0.018000000000000002,1.7919,1.0,2234.004563154386,0.18332168410234498,1.3348165142992188,0.8819155780708315,0.2883128,0.6425315744659472
0.0185,1.79144375,1.0,2268.3448127188244,0.18790260458676347,1.334266758114675,0.8867928356854129,0.2882936375,0.64370451026628
0.019,1.790975,1.0,2300.8076892648037,0.1924578295161295,1.3337325314671218,0.8913571780242103,0.28827395,0.6448424663282735
0.0195,1.79049375,1.0,2331.4680540457002,0.1969875025089845,1.3332126513172216,0.8956343613301875,0.2882537375,0.6459481154405221
0.02,1.79,1.0,2360.406708892228,0.20149176718386994,1.3327059346256374,0.8996475964106305,0.288233,0.6470241105385239
0.0205,1.78949375,1.0,2387.6988427962506,0.20597076560151842,1.3322113056890115,0.9034178577461996,0.2882117375,0.6480728583303641
0.021,1.788975,1.0,2413.4323394483636,0.2104246418051349,1.3317276116813883,0.9069640925870723,0.28818995000000003,0.6490969121433738
0.021500000000000002,1.78844375,1.0,2437.6756173056506,0.21485353647520233,1.331253929956936,0.9103035056960311,0.2881676375,0.6500983223472111
0.022,1.7879,1.0,2460.4875091050917,0.21925758831777548,1.3307894641945746,0.913451725393452,0.2881448,0.6510788596232981
0.0225,1.78734375,1.0,2481.929916396216,0.22363693603890927,1.3303334180732242,0.91642294697765,0.28812143749999997,0.6520402834950907
0.023,1.786775,1.0,2502.0675541878,0.22799171834465845,1.3298849952718053,0.9192300839610541,0.28809755,0.6529843427758961
0.0235,1.78619375,1.0,2520.965699830086,0.2323220735775165,1.3294434184783561,0.9218849049346237,0.28807313749999996,0.6539127360372918
0.024,1.7856,1.0,2538.679774123198,0.2366281379189849,1.3290080251143264,0.9243981676229744,0.2880482,0.654826911385111
0.0245,1.78499375,1.0,2555.2885872551406,0.24091005138734964,1.328577951183273,0.9267796675609389,0.2880227375,0.6557287308552382
0.025,1.784375,1.0,2570.8365005351766,0.24516794743176412,1.328152674447,0.9290384242011691,0.28799675,0.6566193311647999
0.025500000000000002,1.78374375,1.0,2585.3693008196637,0.24940195950138183,1.3277316726673112,0.9311827012440399,0.2879702375,0.6574998428912193
0.026000000000000002,1.7831000000000001,1.0,2598.934082625211,0.25361222104535613,1.327314423606011,0.9332200802241853,0.2879432,0.6583713906232933
0.0265,1.78244375,1.0,2611.579136289039,0.25779886551284054,1.3269004050249031,0.9351575260350109,0.2879156375,0.6592350930948798
0.027,1.781775,1.0,2623.3538421761773,0.26196202635298843,1.326489094685792,0.9370014453601349,0.28788755,0.6600920633011862
0.0275,1.7810937500000001,1.0,2634.302443852235,0.26610183317808583,1.3260800270406772,0.938757745793852,0.2878589375,0.6609432907052017
0.028,1.7804,1.0,2644.475899085386,0.2702184222032876,1.3256726823814557,0.9404318696970734,0.2878298,0.6617898722910314
0.0285,1.77969375,1.0,2653.9088601499684,0.2743119216906359,1.3252666987926658,0.9420288612522547,0.2878001375,0.66263257224656
0.029,1.778975,1.0,2662.63613426636,0.2783824596334248,1.3248617186146576,0.9435533831763439,0.28776995,0.6634721421515657
0.029500000000000002,1.7782437500000001,1.0,2670.693088471958,0.28243016402494825,1.324457384187781,0.9450097500387985,0.2877392375,0.664309329866144
0.03,1.7775,1.0,2678.115598317033,0.28645516285850026,1.3240533378523858,0.9464019587152374,0.287708,0.6651448795495138
0.0305,1.77674375,1.0,2684.9399993970624,0.2904575841273748,1.3236492219488218,0.9477337158150798,0.2876762375,0.6659795316706705
0.031,1.775975,1.0,2691.195110722159,0.2944375511073608,1.3232447514183954,0.9490084701490898,0.28764395,0.6668138733433029
0.0315,1.7751937500000001,1.0,2696.9133773624812,0.298395191772812,1.3228396111340734,0.9502294244489382,0.2876111375,0.6676485506466845
0.032,1.7744,1.0,2702.1367884470424,0.3023306404632884,1.3224334016841983,0.9513995496545451,0.2875778,0.6684843797141468
0.0325,1.77359375,1.0,2706.886679299477,0.30624401835978016,1.322025915066618,0.952521631228473,0.2875439375,0.6693217794180718
0.033,1.772775,1.0,2711.184596284451,0.31013544664327736,1.321616943279181,0.9535982652865896,0.28750955,0.6701611664405489
0.0335,1.7719437500000002,1.0,2715.0522771436436,0.31400504649477,1.3212062783197351,0.9546318737451811,0.2874746375,0.6710029552550537
0.034,1.7711000000000001,1.0,2718.5116322904532,0.31785293909524825,1.320793712186129,0.9556247180847057,0.2874392,0.6718475581053667
0.0345,1.7702437500000001,1.0,2721.584727064243,0.3216792456257022,1.3203790368762105,0.956578911871152,0.2874032375,0.6726953849817339
0.035,1.7693750000000001,1.0,2724.293764943646,0.3254840872671219,1.3199620443878282,0.9574964321602133,0.28736675,0.6735468435942649
0.035500000000000004,1.76849375,1.0,2726.6610717193666,0.3292675852004974,1.3195425267188299,0.9583791298956441,0.2873297375,0.6744023393435775
0.036000000000000004,1.7676,1.0,2728.709080625854,0.3330298606068189,1.3191202758670642,0.959228739400975,0.2872922,0.6752622752886763
0.0365,1.76669375,1.0,2730.4584634553557,0.3367710322253761,1.3186951006884606,0.9600468882117349,0.2872541375,0.6761270178481249
0.037,1.765775,1.0,2731.9245948442926,0.3404912154033601,1.3182668588806643,0.9608351079115733,0.28721555,0.6769968320734545
0.0375,1.76484375,1.0,2733.1299625537463,0.3441905381273965,1.3178353440982433,0.9615948334420517,0.2871764375,0.6778721111031609
0.038,1.7639,1.0,2734.087065227763,0.34786911432988293,1.3174004412592806,0.9623274193492564,0.28713679999999997,0.678753060868667
0.0385,1.76294375,1.0,2734.8084454499876,0.3515270579432172,1.3169620352818585,0.9630341397667987,0.28709663750000003,0.6796398858098913
0.039,1.761975,1.0,2735.3066841311265,0.355164482899797,1.3165200110840591,0.963716194061386,0.28705595,0.6805327888499588
0.0395,1.7609937500000001,1.0,2735.594395190766,0.35878150313202006,1.3160742535839653,0.9643747120233681,0.2870147375,0.6814319713690662
0.04,1.76,1.0,2735.6842205319463,0.362378232572284,1.3156246476996594,0.9650107586434172,0.286973,0.6823376331775062
0.0405,1.7589937500000001,1.0,2735.5888253100225,0.36595478515298663,1.3151710783492239,0.9656253385123832,0.2869307375,0.6832499724878425
0.041,1.757975,1.0,2735.3208934949366,0.3695112748065256,1.3147134304507408,0.9662193998777228,0.28688795,0.6841691858862459
0.0415,1.75694375,1.0,2734.8931237268603,0.3730478154652987,1.314251588922293,0.9667938383866131,0.2868446375,0.6850954683029788
0.042,1.7559,1.0,2734.311813746327,0.3765645117895345,1.3137854969107352,0.967349503880942,0.28680079999999997,0.6860288964556218
0.0425,1.75484375,1.0,2733.585991169944,0.3800614763403376,1.3133150728645226,0.9678871993507842,0.2867564375,0.6869695953950856
0.043000000000000003,1.753775,1.0,2732.7363181640285,0.383538837687914,1.3128401296063,0.9684076786025599,0.28671155,0.6879178995788058
0.043500000000000004,1.75269375,1.0,2731.768913471954,0.3869967017802574,1.3123606120672526,0.9689116624061195,0.28666613750000003,0.6888738776434034
0.044,1.7516,1.0,2730.6898994404833,0.39043517456536136,1.3118764651785673,0.9693998336527184,0.2866202,0.6898375971547255
0.0445,1.75049375,1.0,2729.5054007464737,0.3938543619912197,1.3113876338714294,0.9698728397168899,0.2865737375,0.6908091245916856
0.045,1.7493750000000001,1.0,2728.2215431896093,0.3972543700058259,1.3108940630770252,0.9703312946486323,0.28652675,0.6917885253299065
0.0455,1.74824375,1.0,2726.844452553385,0.4006353045571738,1.3103956977265405,0.9707757812096467,0.2864792375,0.6927758636251725
0.046,1.7471,1.0,2725.380253532904,0.4039972715932569,1.3098924827511615,0.971206852766121,0.2864312,0.693771202596687
0.0465,1.7459437500000001,1.0,2723.8350687298735,0.4073403770620689,1.3093843630820738,0.9716250350494525,0.28638263750000004,0.6947746042101388
0.047,1.744775,1.0,2722.2150177147105,0.4106647269116035,1.3088712836504637,0.9720308277952954,0.28633355,0.6957861292605703
0.0475,1.74359375,1.0,2720.5262161565715,0.4139704270898543,1.308353189387517,0.9724247062704162,0.28628393750000003,0.6968058373550574
0.048,1.7424,1.0,2718.7747750195067,0.41725758354481507,1.3078300252244197,0.9728071226960181,0.2862338,0.6978337868951949
0.0485,1.74119375,1.0,2716.9667998271875,0.42052630222447934,1.3073017360923578,0.9731785075754542,0.2861831375,0.6988700350593842
0.049,1.739975,1.0,2715.1083147586005,0.4237766885281326,1.306768267608183,0.9735392709142962,0.28613195,0.6999146364434763
0.0495,1.73874375,1.0,2713.2021368213605,0.4270088276242603,1.306229594567919,0.9738898029821348,0.2860802375,0.7009675874067857
0.05,1.7375,1.0,2711.2556426935625,0.43022284900479857,1.3056856501594956,0.9742304782684641,0.286028,0.7020289645617555
0.0505,1.73624375,1.0,2709.2715294375853,0.43341885047633244,1.3051364101788898,0.9745616530643691,0.2859752375,0.7030987601503199
0.051000000000000004,1.734975,1.0,2707.2524910825855,0.4365969298454468,1.3045818504220792,0.974883667359219,0.28592195,0.7041769655403769
0.051500000000000004,1.73369375,1.0,2705.2012184433543,0.43975718491872656,1.304021946685041,0.9751968457278513,0.2858681375,0.7052635712175961
0.052000000000000005,1.7324,1.0,2703.120398952069,0.4428997135027568,1.3034566747637517,0.9755014981619357,0.2858138,0.7063585667771894
0.0525,1.73109375,1.0,2701.0127165033873,0.44602461340412236,1.302886010454189,0.9757979208494824,0.28575893750000003,0.7074619409156406
0.053,1.729775,1.0,2698.8808513120143,0.4491319824294083,1.30230992955233,0.9760863969061503,0.28570355000000003,0.7085736814224022
0.0535,1.72844375,1.0,2696.7274797837745,0.45222191838519954,1.301728407854152,0.9763671970617265,0.2856476375,0.7096937751715513
0.054,1.7271,1.0,2694.555274399547,0.45529451907808105,1.3011414211556318,0.9766405803048825,0.2855912,0.7108222081134132
0.0545,1.7257437500000001,1.0,2692.36690361173,0.45834988231463775,1.300548945252747,0.9769067944890764,0.2855342375,0.7119589652661393
0.055,1.724375,1.0,2690.165031754247,0.46138810590145457,1.2999509559414746,0.9771660769022472,0.28547675,0.7131040307072563
0.0555,1.72299375,1.0,2687.9523189654856,0.4644092876451165,1.2993474290177915,0.977418654802754,0.2854187375,0.714257387565173
0.056,1.7216,1.0,2685.731421123851,0.46741352535220854,1.2987383402776753,0.9776647459238159,0.2853602,0.7154190180106501
0.0565,1.72019375,1.0,2683.460270238239,0.47040091178237214,1.298124075471444,0.9779045822688213,0.28530113749999997,0.7165881238019667
0.057,1.718775,1.0,2681.237867710627,0.4733715440666641,1.2975037272382242,0.9781383124474108,0.28524155,0.7177663656867486
0.0575,1.71734375,1.0,2679.043577022547,0.4763255149053718,1.2968774843689561,0.9783661408616138,0.2851814375,0.7189533140139037
0.058,1.7159,1.0,2676.8458401064468,0.479262916414519,1.296245636214606,0.9785882692639045,0.2851208,0.7201483514789647
0.0585,1.7144488215139957,1.0,2674.862585685942,0.4821838407101297,1.2956084721261405,0.9788048913370919,0.28505985050358784,0.7213508648190332
0.059000000000000004,1.712997581525092,1.0,2673.424306766927,0.4850883799082277,1.2949662814545255,0.9790161930892676,0.28499889842405385,0.7225602449135511
0.059500000000000004,1.7115463415361882,1.0,2672.502088792789,0.4879766261248368,1.2943193535507274,0.9792223532265558,0.2849379463445199,0.7237758868797256
0.06,1.7100951015472847,1.0,2672.064168354164,0.4908486714759807,1.2936679777657125,0.9794235435050728,0.28487699426498597,0.724997190162618
0.0605,1.708643861558381,1.0,2672.0843605055634,0.49370460575901,1.2930123935602789,0.9796199261934925,0.284816042185452,0.7262236518497329
0.061,1.7071926215694773,1.0,2672.5069508457486,0.49654452200685995,1.292353112773734,0.9798116721393221,0.28475509010591804,0.727454264832616
0.0615,1.7057413815805735,1.0,2673.296547921541,0.49936851043257613,1.2916904613406914,0.9799989357200405,0.2846941380263841,0.728688376157062
0.062,1.70429014159167,1.0,2674.428572824572,0.5021766589515986,1.2910246664552851,0.9801818601907679,0.28463318594685016,0.7299255214113203
0.0625,1.7028389016027663,1.0,2675.8784947053923,0.5049690554793675,1.2903559553116497,0.9803605834874346,0.28457223386731617,0.731165239843939
0.063,1.7013876616138626,1.0,2677.6218155118254,0.5077457879313234,1.289684555103919,0.9805352384702553,0.28451128178778223,0.7324070744076673
0.0635,1.699936421624959,1.0,2679.634055870715,0.5105069442229061,1.2890106930262275,0.9807059531543754,0.2844503297082483,0.7336505718000628
0.064,1.6984851816360553,1.0,2681.8907421149183,0.513252612269556,1.2883345962727089,0.9808728509284516,0.2843893776287143,0.7348952825008099
0.0645,1.6970339416471516,1.0,2684.3700808064473,0.5159828788139773,1.2876564674151671,0.9810360494393648,0.28432842554918036,0.7361408059764888
0.065,1.6955827016582479,1.0,2687.052670160898,0.5186978307308734,1.2869764870102218,0.9811956610653549,0.2842674734696464,0.7373867854058418
0.0655,1.6941314616693444,1.0,2689.9171648192178,0.5213975561878236,1.2862948532729686,0.9813517951873165,0.2842065213901125,0.7386328347876576
0.066,1.6926802216804406,1.0,2692.951167907153,0.5240821390912352,1.285611682288431,0.9815045530360275,0.2841455693105785,0.7398787211108814
0.0665,1.691228981691537,1.0,2696.1422704980446,0.5267516633475159,1.2849270901416325,0.9816540323238888,0.28408461723104456,0.7411242133399937
0.067,1.6897777417026334,1.0,2699.478047805683,0.5294062128630729,1.2842411929175968,0.9818003273951389,0.2840236651515106,0.7423690824259617
0.0675,1.6883265017137297,1.0,2702.9460556756085,0.5320458715443137,1.2835541067013472,0.9819435293686622,0.2839627130719766,0.7436131013163298
0.068,1.686875261724826,1.0,2706.5338273761067,0.5346707232976458,1.2828659475779072,0.9820837262738147,0.2839017609924427,0.7448560449644537
0.0685,1.6854240217359222,1.0,2710.228870686936,0.5372808520294764,1.2821768316323,0.982221003179643,0.28384080891290875,0.7460976903378721
0.069,1.6839727817470187,1.0,2714.028624747772,0.539876332861043,1.281486784164073,0.9823554374852478,0.2837798568333748,0.747337979403599
0.0695,1.682521541758115,1.0,2717.9110572173154,0.5424572612426982,1.2807960078205152,0.9824871135840999,0.2837189047538408,0.7485765369644808
0.07,1.6810703017692112,1.0,2721.8707063177553,0.5450237164769408,1.2801045538778033,0.9826161050798133,0.2836579526743069,0.7498132617886377
0.07050000000000001,1.6796190617803075,1.0,2725.902230232067,0.5475757777378485,1.2794124724010936,0.9827424831040905,0.2835970005947729,0.7510480556974111
0.07100000000000001,1.678167821791404,1.0,2730.0002736204474,0.5501135241994994,1.2787198134555413,0.9828663164786585,0.28353604851523895,0.7522808213881003
0.07150000000000001,1.6767165818025003,1.0,2734.159466950673,0.5526370350359717,1.2780266271063025,0.9829876718070663,0.283475096435705,0.7535114624358833
0.07200000000000001,1.6752653418135965,1.0,2738.374425885542,0.5551463894213434,1.2773329634185329,0.9831066135622577,0.28341414435617107,0.7547398832955826
0.0725,1.673814101824693,1.0,2742.63975072474,0.5576416665296923,1.2766388724573883,0.9832232041701455,0.28335319227663713,0.7559659893032681
0.073,1.6723628618357893,1.0,2746.950025903195,0.5601229455350967,1.2759444042880246,0.9833375040893928,0.28329224019710314,0.7571896866777017
0.0735,1.6709116218468856,1.0,2751.2998195443247,0.5625903056116346,1.2752496089755974,0.9834495718875942,0.2832312881175692,0.7584108825216223
