Time [s],Phi [rad],STIM [ ],Fsee [N],Gamma [ ],Lcerel [ ],q [ ],Lmtc [m],fisomrel [ ]
0.0,1.8,1.0,17.96817579064093,1.0000580584214605e-05,1.3793396322135203,0.005000026654847499,0.288653,0.5411398068625993
0.0005,1.79999375,1.0,18.27741380126863,0.005619153794030002,1.3793023134045277,0.01294051407244469,0.2886527375,0.5412300862435377
0.001,1.799975,1.0,21.618977954040485,0.011196844092871323,1.3789382412010207,0.03560857465119441,0.28865195,0.5421103614651692
0.0015,1.79994375,1.0,31.069735281020932,0.01674324796004189,1.3780461611924815,0.07060170076689941,0.2886506375,0.544263711759019
0.002,1.7999,1.0,53.582637127445054,0.02225854088682752,1.3763681155144611,0.11471783097056173,0.2886488,0.5483005153829503
0.0025,1.79984375,1.0,97.11880161023487,0.0277428973804232,1.3739351738148258,0.16457466876026378,0.28864643749999996,0.5541214470155487
0.003,1.7997750000000001,1.0,160.95783898636577,0.03319649097165625,1.3712143560274352,0.21728022359437182,0.28864354999999997,0.5605864218084713
0.0035,1.79969375,1.0,237.68286844815563,0.03861949421457368,1.3685847484977065,0.2706126599721941,0.2886401375,0.5667898060423548
0.004,1.7996,1.0,321.4662335865356,0.0440120786972254,1.3661561066391779,0.32291558097519524,0.2886362,0.5724799284784408
0.0045000000000000005,1.7994937500000001,1.0,409.2671808336236,0.04937441504684857,1.3639228275456146,0.3730342987921484,0.2886317375,0.5776791313495053
0.005,1.799375,1.0,499.4129005860673,0.05470667292095261,1.361858355172878,0.42024726637972815,0.28862675,0.5824570497180461
0.0055,1.79924375,1.0,590.7898018465302,0.06000902105482418,1.359938847059301,0.46417351925689565,0.2886212375,0.5868750841123123
0.006,1.7991000000000001,1.0,682.5174786075128,0.0652816272045932,1.358146426194044,0.5046797987701209,0.2886152,0.5909793922335276
0.006500000000000001,1.79894375,1.0,773.8806993126125,0.07052465820291992,1.356467263152066,0.5418006114412561,0.2886086375,0.5948057726430986
0.007,1.798775,1.0,864.2852089815296,0.0757382799425615,1.3548904047241879,0.57567664716708,0.28860155,0.5983826550851472
0.0075,1.79859375,1.0,953.2427107597649,0.08092265738611824,1.3534067869531978,0.6065097947395816,0.2885939375,0.6017335552787533
0.008,1.7984,1.0,1040.342843928603,0.08607795410220044,1.3520088761810205,0.6345320809677778,0.2885858,0.6048780328117824
0.0085,1.79819375,1.0,1125.3124516706348,0.09120433430454647,1.350689266637916,0.6599843492069345,0.2885771375,0.607834943446941
0.009000000000000001,1.797975,1.0,1207.9001929476044,0.09630195998669236,1.349442034881607,0.683104104470105,0.28856795,0.6106194651077863
0.0095,1.79774375,1.0,1287.8941179301514,0.10137099156407861,1.3482620984997828,0.7041173849367734,0.2885582375,0.6132446133562741
0.01,1.7975,1.0,1365.1678428050434,0.10641158945214577,1.3471443750801326,0.7232341503510172,0.288548,0.6157231595989292
0.0105,1.79724375,1.0,1439.6560468781847,0.11142391368967516,1.3460839895958365,0.7406466161536286,0.2885372375,0.6180671943412912
0.011,1.796975,1.0,1511.3170502245762,0.11640812311547402,1.3450766167231147,0.7565290989238428,0.28852595000000003,0.6202873998435223
0.0115,1.79669375,1.0,1580.1171758307928,0.12136437492082519,1.3441185288931954,0.7710385768342667,0.2885141375,0.6223929785471398
0.012,1.7964,1.0,1646.0562050919846,0.12629282580186252,1.343206174387915,0.784315544980024,0.28850180000000003,0.624392607978355
0.0125,1.79609375,1.0,1709.1718112789606,0.13119363224476363,1.342336059644082,0.7964852922931721,0.2884889375,0.6262947138627661
0.013000000000000001,1.7957750000000001,1.0,1769.5024244690192,0.1360669493244098,1.3415051193761014,0.8076594710345646,0.28847555,0.6281066755099323
0.0135,1.79544375,1.0,1827.086190393985,0.14091293060792306,1.3407106543823577,0.8179374522875358,0.2884616375,0.6298349808365613
0.014,1.7951000000000001,1.0,1881.9862887955487,0.14573172944297155,1.339949995277425,0.8274075223432041,0.2884472,0.6314859716545879
0.0145,1.79474375,1.0,1934.2821922876049,0.15052349864542594,1.3392205685002323,0.8361481527401685,0.2884322375,0.6330657076096275
0.015,1.794375,1.0,1984.057979998766,0.15528839075900627,1.3385199908035275,0.8442291626000458,0.28841675,0.634579769854527
0.0155,1.79399375,1.0,2031.3746731997983,0.1600265553639507,1.3378463281768367,0.8517128080177613,0.2884007375,0.6360327121729247
0.016,1.7936,1.0,2076.3092338123915,0.1647381420404972,1.3371976466096867,0.8586545270241766,0.2883842,0.637429040564059
0.0165,1.7931937500000001,1.0,2118.9514349875744,0.1694233001931387,1.336572030400127,0.865103753260261,0.2883671375,0.6387731771439287
0.017,1.792775,1.0,2159.3876943407995,0.1740821779189631,1.3359677335095144,0.8711046704781338,0.28834955,0.6400691391596938
0.0175,1.7923437500000001,1.0,2197.7203514457183,0.17871492462197466,1.335382964910934,0.8766967724988587,0.2883314375,0.641321003978161
0.018000000000000002,1.7919,1.0,2234.0156029757786,0.18332168532924778,1.334816403379985,0.8819155492046657,0.2883128,0.6425318113127908
0.0185,1.79144375,1.0,2268.3478638500815,0.18790260506785678,1.334266727692267,0.8867928281948335,0.2882936375,0.6437045751208668
0.019,1.790975,1.0,2300.7990878687438,0.19245782886487617,1.3337326166233798,0.8913571989871284,0.28827395,0.6448422850819904
0.0195,1.79049375,1.0,2331.4521815066905,0.19698750094811013,1.3332128074232898,0.8956343981171464,0.2882537375,0.645947783702454
0.02,1.79,1.0,2360.392329909984,0.20149176559733142,1.3327060751730215,0.8996476282792737,0.288233,0.6470238123181242
0.0205,1.78949375,1.0,2387.701495263705,0.20597076642943984,1.3322112799111103,0.9034178525425127,0.2882117375,0.6480729129458607
0.021,1.788975,1.0,2413.440929285323,0.2104246436028245,1.3317275286476964,0.9069640756311672,0.28818995000000003,0.6490970878102416
0.021500000000000002,1.78844375,1.0,2437.675779913534,0.2148535372758745,1.3312539283929203,0.9103035059665666,0.2881676375,0.650098325651333
0.022,1.7879,1.0,2460.4747697213556,0.219257587606979,1.3307895861569228,0.9134517502095616,0.2881448,0.6510786023282262
0.0225,1.78734375,1.0,2481.9094048692655,0.22363693466589127,1.3303336135933694,0.9164229853889262,0.28812143749999997,0.6520398715891151
0.023,1.786775,1.0,2502.0387282933584,0.22799171571428697,1.3298852689384735,0.9192301356597299,0.28809755,0.6529837670197418
0.0235,1.78619375,1.0,2520.947321292507,0.23232207258579146,1.3294435923047223,0.9218849372336204,0.28807313749999996,0.653912370820663
0.024,1.7856,1.0,2538.683227273877,0.23662814028229776,1.3290079925682383,0.9243981630309813,0.2880482,0.6548269796754402
0.0245,1.78499375,1.0,2555.296312970436,0.2409100538056989,1.3285778786051434,0.9267796559607833,0.2880227375,0.6557288829443355
0.025,1.784375,1.0,2570.838118684049,0.2451679481578879,1.32815265929156,0.9290384219607378,0.28799675,0.6566193628822619
0.025500000000000002,1.78374375,1.0,2585.3617162759137,0.2494019583407578,1.3277317435036105,0.9311827125989327,0.2879702375,0.6574996948344505
0.026000000000000002,1.7831000000000001,1.0,2598.9201290065907,0.2536122189135477,1.327314553586204,0.9332201005097965,0.2879432,0.658371119294209
0.0265,1.78244375,1.0,2611.559404429832,0.2577988619374882,1.3269005883849079,0.9351575536444381,0.2879156375,0.6592347108214318
0.027,1.781775,1.0,2623.3405089382377,0.2619620243674189,1.3264892183076094,0.9370014636944184,0.28788755,0.6600918058956831
0.0275,1.7810937500000001,1.0,2634.3002323643314,0.2661018357581332,1.3260800475022596,0.9387577500040178,0.2878589375,0.6609432481534571
0.028,1.7804,1.0,2644.4761443206,0.27021842566442456,1.3256726801168095,0.9404318707916122,0.2878298,0.6617898769946884
0.0285,1.77969375,1.0,2653.9065270886854,0.2743119236410865,1.3252667202992094,0.94202886512239,0.2878001375,0.6626325276332776
0.029,1.778975,1.0,2662.6303119832364,0.2783824592429124,1.3248617721974107,0.9435533905545551,0.28776995,0.66347203113762
0.029500000000000002,1.7782437500000001,1.0,2670.687019189631,0.2824301620246958,1.3244574399593643,0.945009756952073,0.2877392375,0.6643092144611464
0.03,1.7775,1.0,2678.1038963971055,0.286455157455963,1.3240534452340957,0.9464019711842991,0.287708,0.6651446576272734
0.0305,1.77674375,1.0,2684.9248891702164,0.2904575774569149,1.3236493604302968,0.9477337316567547,0.2876762375,0.6659792458324613
0.031,1.775975,1.0,2691.1904100212173,0.2944375512075367,1.3232447944490147,0.9490084756800425,0.28764395,0.6668137846352495
0.0315,1.7751937500000001,1.0,2696.9247230839846,0.2983952020912175,1.3228395073846857,0.9502294147467577,0.2876111375,0.6676487642589716
0.032,1.7744,1.0,2702.1523707579936,0.30233065349134663,1.322433259331746,0.9513995362336274,0.2875778,0.668484672438479
0.0325,1.77359375,1.0,2706.89814815475,0.30624402879131324,1.322025810384632,0.9525216217859954,0.2875439375,0.6693219944072737
0.033,1.772775,1.0,2711.1870788204255,0.3101354513745065,1.3216169206377806,0.9535982639827689,0.28750955,0.670161212880968
0.0335,1.7719437500000002,1.0,2715.044391734631,0.31400504462431567,1.3212063501856273,0.9546318814610221,0.2874746375,0.6710028080370798
0.034,1.7711000000000001,1.0,2718.495499584873,0.3178529319241299,1.3207938591226092,0.955624732659012,0.2874392,0.6718472574911467
0.0345,1.7702437500000001,1.0,2721.565437025476,0.3216792359110959,1.3203792124704719,0.9565789286679609,0.2874032375,0.6726950262015314
0.035,1.7693750000000001,1.0,2724.2761278684975,0.3254840746543959,1.3199622048555466,0.9574964463009986,0.28736675,0.6735465161478866
0.035500000000000004,1.76849375,1.0,2726.653019214598,0.32926757613243457,1.3195425999512034,0.9583791354400577,0.2873297375,0.6744021901033967
0.036000000000000004,1.7676,1.0,2728.712061274797,0.33302985743796143,1.319120248770173,0.9592287358538679,0.2872922,0.6752623304364251
0.0365,1.76669375,1.0,2730.4692868579937,0.3367710356637259,1.3186950023251864,0.9600468789990135,0.2872541375,0.6761272177708846
0.037,1.765775,1.0,2731.940802041169,0.3404912279024777,1.3182667116289744,0.9608350959825186,0.28721555,0.6769971309594365
0.0375,1.76484375,1.0,2733.1427773316987,0.34419055124696624,1.317835227694268,0.9615948248535552,0.2871764375,0.6778723470552706
0.038,1.7639,1.0,2734.0914393221738,0.34786912278994103,1.3174004015337977,0.9623274172875993,0.28713679999999997,0.6787531412824745
0.0385,1.76294375,1.0,2734.8030628368433,0.3515270596241516,1.3169620841602947,0.9630341447197759,0.28709663750000003,0.6796397870049817
0.039,1.761975,1.0,2735.293963570428,0.3551644788423474,1.3165201265864899,0.9637162039782835,0.28705595,0.6805325556941085
0.0395,1.7609937500000001,1.0,2735.567771592141,0.35878147758891127,1.3160744953132906,0.9643747291861122,0.2870147375,0.6814314840958184
0.04,1.76,1.0,2735.6544393553318,0.362378197881811,1.3156249180938955,0.9650107764359827,0.286973,0.6823370888973909
0.0405,1.7589937500000001,1.0,2735.565015111376,0.3659547532477501,1.3151712945344103,0.9656253517988397,0.2869307375,0.6832495379512246
0.041,1.757975,1.0,2735.3079343855165,0.3695112530391139,1.3147135481188863,0.9662194062472429,0.28688795,0.6841689497143542
0.0415,1.75694375,1.0,2734.8916470625027,0.37304780660828757,1.3142516023313753,0.966793838011999,0.2868446375,0.6850954414290917
0.042,1.7559,1.0,2734.3246148692056,0.37656452330765644,1.3137853806559288,0.9673494960481861,0.28680079999999997,0.686029129102723
0.0425,1.75484375,1.0,2733.6153089869113,0.3800615124896058,1.3133148065765983,0.967887183239136,0.2867564375,0.6869701274868266
0.043000000000000003,1.753775,1.0,2732.7722077925296,0.3835388835065209,1.3128398035774358,0.9684076593606553,0.28671155,0.6879185500562226
0.043500000000000004,1.75269375,1.0,2731.8037947314224,0.386996745710787,1.3123602951424926,0.9689116438256664,0.28666613750000003,0.6888745089875474
0.044,1.7516,1.0,2730.7185563180633,0.39043520845478935,1.3118762047558206,0.9693998182275828,0.2866202,0.6898381151374537
0.0445,1.75049375,1.0,2729.524980268182,0.3938543810909133,1.3113874559014709,0.9698728286990258,0.2865737375,0.6908094780204386
0.045,1.7493750000000001,1.0,2728.2315537593386,0.39725437297154415,1.3108939720634956,0.9703312881009883,0.28652675,0.6917887057862961
0.0455,1.74824375,1.0,2726.8467618221875,0.4006352934490671,1.3103956767259461,0.9707757780561709,0.2864792375,0.6927759051972
0.046,1.7471,1.0,2725.379085861422,0.4039972518758675,1.3098924933728742,0.9712068508389907,0.2864312,0.6937711816044105
0.0465,1.7459437500000001,1.0,2723.8308073573608,0.4073403404169334,1.309384401856613,0.9716250329581928,0.28638263750000004,0.6947745277035262
0.047,1.744775,1.0,2722.2126099129614,0.41066468263883227,1.3088713055657417,0.972030823545734,0.28633355,0.6957860860909255
0.0475,1.74359375,1.0,2720.530890255993,0.41397038771765676,1.3083531468317249,0.9724246981474095,0.28628393750000003,0.6968059210426426
0.048,1.7424,1.0,2718.7894021034417,0.41725755661207636,1.3078298920079465,0.9728071098937578,0.2862338,0.6978340484259439
0.0485,1.74119375,1.0,2716.9918965304328,0.42052629028076066,1.3073015074477914,0.9731784901718603,0.2861831375,0.6988704831642698
0.049,1.739975,1.0,2715.142121572357,0.42377668968237914,1.3067679595046435,0.9735392498655041,0.28613195,0.6999152392262673
0.0495,1.73874375,1.0,2713.243821853409,0.42700885577560144,1.3062292145318875,0.9738897805136565,0.2860802375,0.7009683296147425
0.05,1.7375,1.0,2711.300738239662,0.43022288951909704,1.3056852388829072,0.9742304553933178,0.286028,0.7020297663555484
0.0505,1.73624375,1.0,2709.3166075171225,0.4334188918715355,1.3051359989110876,0.9745616305323346,0.2859752375,0.7030995604863928
0.051000000000000004,1.734975,1.0,2707.2951620953017,0.4365969637915863,1.3045814609698125,0.9748836456572829,0.28592195,0.7041777220455823
0.051500000000000004,1.73369375,1.0,2705.2401297355977,0.4397572062379191,1.3040215914124664,0.9751968250811285,0.2858681375,0.7052642600606867
0.052000000000000005,1.7324,1.0,2703.155233304612,0.44289972016920337,1.303456356592434,0.9755014785349849,0.2858138,0.7063591825371351
0.0525,1.73109375,1.0,2701.044190553254,0.44602460654410864,1.302885722863099,0.9757979019479489,0.28575893750000003,0.7074624964467411
0.053,1.729775,1.0,2698.9107139199655,0.44913196632130453,1.3023096565778463,0.976086378178677,0.28570355000000003,0.7085742077161501
0.0535,1.72844375,1.0,2696.7529726046273,0.45222188226948706,1.3017281747308342,0.9763671789831756,0.2856476375,0.7096942237678545
0.054,1.7271,1.0,2694.575265038775,0.4552944621473117,1.3011412382741612,0.976640563443225,0.2855912,0.71082255934536
0.0545,1.7257437500000001,1.0,2692.385582674884,0.4583498221798312,1.3005487743005864,0.9769067782554697,0.2855342375,0.711959292941375
0.055,1.724375,1.0,2690.1852036500995,0.46138805474754424,1.299950771251288,0.977166060924129,0.28547675,0.7131043840107061
0.0555,1.72299375,1.0,2687.975404117477,0.4644092522309493,1.299347217567444,0.9774186389302087,0.2854187375,0.7142577912456292
0.056,1.7216,1.0,2685.7574582199113,0.4674135070105451,1.2987381016902333,0.977664730235044,0.2853602,0.7154194725717979
0.0565,1.72019375,1.0,2683.532638067921,0.47040091146683016,1.2981234120608334,0.9779045437545437,0.28530113749999997,0.7165893851441536
0.057,1.718775,1.0,2681.302213719635,0.473371557980303,1.2975031371204226,0.9781382798060658,0.28524155,0.7177674853428158
0.0575,1.71734375,1.0,2679.0674531636473,0.47632553893146223,1.2968772653101794,0.9783661305297127,0.2851814375,0.7189537287689711
0.058,1.7159,1.0,2676.829622305649,0.4792629467008065,1.296245785071282,0.9785882802857034,0.2851208,0.7201480702407518
0.0585,1.71444375,1.0,2674.5899849574052,0.4821838736688343,1.2956086848449084,0.978804906029362,0.2850596375,0.721350463789106
0.059000000000000004,1.7129750000000001,1.0,2672.349802828559,0.48508841221604426,1.294965953072237,0.9790161776651481,0.28499795,0.722560862653657
0.059500000000000004,1.71149375,1.0,2670.110335522052,0.487976654722935,1.294317578194446,0.9792222583810589,0.2849357375,0.7237792192785591
0.06,1.71,1.0,2667.8728405317293,0.49084869357000493,1.2936635486527137,0.9794233049646327,0.284873,0.7250054853083394
0.0605,1.7084937500000001,1.0,2665.638573243744,0.4937046211377529,1.2930038528882182,0.9796194681017029,0.2848097375,0.7262396115837353
0.061,1.7069750000000001,1.0,2663.408786939989,0.49654452980667724,1.2923384793421375,0.9798108926589693,0.28474595,0.7274815481375212
0.0615,1.7054437500000001,1.0,2661.1847328051394,0.49936851195727666,1.2916674164556503,0.9799977179513794,0.2846816375,0.7287312441903261
0.062,1.7039,1.0,2658.954248310138,0.5021766574439481,1.2909907761829877,0.980180084272851,0.2846168,0.7299884189299182
0.0625,1.70234375,1.0,2656.744960898799,0.5049690528936737,1.2903083040704797,0.9803581073681159,0.2845514375,0.7312534712618683
0.063,1.7007809702079728,1.0,2654.825194060923,0.507745785871707,1.2896202230229654,0.9805319232688193,0.28448580074873486,0.732525913316734
0.0635,1.6992181872124876,1.0,2653.4729688312245,0.5105069433792325,1.2889269145256272,0.9807016710744267,0.28442016386292446,0.733804968312184
0.064,1.6976554042170027,1.0,2652.6466344469563,0.5132526124174349,1.2882287600636468,0.9808674848577676,0.2843545269771141,0.7350898656638161
0.0645,1.6960926212215175,1.0,2652.3045736126905,0.5159828799874987,1.2875261411222063,0.981029493894744,0.28428889009130376,0.7363798411076948
0.065,1.6945298382260325,1.0,2652.406728664204,0.5186978327709137,1.2868194261989208,0.981187822210963,0.28422325320549335,0.7376741605705417
0.0655,1.6929670552305476,1.0,2652.916142790412,0.5213975567524025,1.2861089562668486,0.9813425880676743,0.284157616319683,0.7389721465047656
0.066,1.6914042722350624,1.0,2653.7940022069215,0.5240821386129331,1.2853950902056308,0.9814939065406486,0.2840919794338726,0.7402730946636475
0.0665,1.6898414892395774,1.0,2655.0143531589874,0.5267516622400464,1.284678068895681,0.9816418827954295,0.28402634254806225,0.7415765213323532
0.067,1.6882787062440923,1.0,2656.551287580251,0.5294062115212833,1.2839581332174117,0.9817866183887526,0.28396070566225184,0.7428819470015391
0.0675,1.6867159232486073,1.0,2658.378926885052,0.5320458703441845,1.2832355240512365,0.9819282114242849,0.2838950687764415,0.7441888964139713
0.068,1.6851531402531221,1.0,2660.471407046652,0.534670722596291,1.2825104822775684,0.9820667567006515,0.28382943189063115,0.7454968986074482
0.0685,1.6835903572576372,1.0,2662.8064140981505,0.5372808510397333,1.2817832161150042,0.9822023442299457,0.28376379500482074,0.746805545650143
0.069,1.6820275742621522,1.0,2665.359915478712,0.5398763397588857,1.281053949547773,0.9823350618671818,0.2836981581190104,0.7481144051135136
0.0695,1.680464791266667,1.0,2668.1146593210256,0.5424572704087571,1.2803228440560863,0.982464991505388,0.28363252123320004,0.7494231603963875
0.07,1.678902008271182,1.0,2671.055479287444,0.5450237238746772,1.2795900418431643,0.9825922114151119,0.28356688434738964,0.7507315322134491
0.07050000000000001,1.677339225275697,1.0,2674.167195215846,0.5475757810419758,1.278855685112227,0.9827167973241692,0.2835012474615793,0.752039243879434
0.07100000000000001,1.675776442280212,1.0,2677.434607994279,0.5501135227959826,1.2781199160664949,0.9828388225209926,0.2834356105757689,0.7533460213238706
0.07150000000000001,1.6742136592847268,1.0,2680.8450838184613,0.5526370282120777,1.2773828531641627,0.9829583567614852,0.28336997368995853,0.7546516351100401
0.07200000000000001,1.6726508762892418,1.0,2684.387507650596,0.5551463758812482,1.2766446007501702,0.9830754669185263,0.2833043368041481,0.7559558828947033
0.0725,1.6710880932937568,1.0,2688.040041595012,0.5576416528617896,1.2759053612010356,0.9831902226681745,0.2832386999183378,0.7572583917746367
0.073,1.6695253102982717,1.0,2691.7955403815495,0.5601229359644512,1.2751652019290765,0.9833026848931565,0.28317306303252743,0.7585590294876613
0.0735,1.6679625273027867,1.0,2695.646844093393,0.562590301999982,1.2744241903466107,0.983412912577027,0.283107426146717,0.7598576650274464
0.074,1.6663997443073018,1.0,2699.586776843097,0.5650438277791309,1.2736823938659558,0.9835209628774334,0.2830417892609067,0.7611541686473209
