Time [s],Phi [rad],STIM [ ],Fsee [N],Gamma [ ],Lcerel [ ],q [ ],Lmtc [m],fisomrel [ ]
0.0,1.8,1.0,17.965848325480746,1.0004953742061235e-05,1.3793398929685157,0.005000026678090063,0.288653,0.5411391760288109
0.0005,1.79999375,1.0,18.275303032623782,0.005619158142658747,1.379302547872312,0.012940530913172914,0.2886527375,0.5412295190611367
0.001,1.799975,1.0,21.616997276709395,0.011196848417107011,1.3789384434999004,0.03560861274125249,0.28865195,0.5421098725697475
0.0015,1.79994375,1.0,31.067776264272585,0.01674325226002286,1.3780463280952715,0.07060175814646619,0.2886506375,0.5442633093548545
0.002,1.7999,1.0,53.580653838588425,0.022258545162688215,1.3763682441809135,0.1147179003327688,0.2886488,0.5483002065439293
0.0025,1.79984375,1.0,97.11687163071042,0.027742901632300133,1.37393526681646,0.16457474147043638,0.28864643749999996,0.5541212252260934
0.003,1.7997750000000001,1.0,160.95607105744114,0.03319649519968331,1.3712144222029468,0.21728029422163322,0.28864354999999997,0.5605862651420038
0.0035,1.79969375,1.0,237.68129916726627,0.03861949841888419,1.368584796835836,0.270612726309177,0.2886401375,0.5667896924154512
0.004,1.7996,1.0,321.4648505503539,0.04401208287795272,1.3661561432705938,0.32291564224770053,0.2886362,0.5724798429375141
0.0045000000000000005,1.7994937500000001,1.0,409.2659591334761,0.04937441920412665,1.363922856223615,0.373034354781487,0.2886317375,0.5776790647896878
0.005,1.799375,1.0,499.4118272335226,0.054706677054928834,1.3618583779815567,0.42024731700406953,0.28862675,0.5824569970808573
0.0055,1.79924375,1.0,590.7888421125868,0.06000902516558486,1.3599388658101923,0.4641735649487911,0.2886212375,0.5868750410691084
0.006,1.7991000000000001,1.0,682.5166369534589,0.06528163129228494,1.3581464414930862,0.504679839616569,0.2886152,0.5909793572890287
0.006500000000000001,1.79894375,1.0,773.880124039799,0.07052466226866383,1.3564672729723557,0.5418006461009057,0.2886086375,0.5948057503177681
0.007,1.798775,1.0,864.2846791320575,0.07573828398323294,1.3548904132829587,0.5756766784180872,0.28860155,0.59838263571381
0.0075,1.79859375,1.0,953.2416559653028,0.08092266140187958,1.3534068031770357,0.6065098282446364,0.2885939375,0.6017335187123342
0.008,1.7984,1.0,1040.3577811308805,0.08607795856819482,1.352008656259951,0.6345319731212046,0.2885858,0.6048785265244379
0.0085,1.79819375,1.0,1125.3209450405213,0.09120433859575962,1.3506891464031576,0.6599843004028911,0.2885771375,0.6078352123565838
0.009000000000000001,1.797975,1.0,1207.886361875527,0.09630196367435853,1.3494422238673054,0.6831042268696217,0.28856795,0.610619043937092
0.0095,1.79774375,1.0,1287.8582376674512,0.10137099445486351,1.3482625732945643,0.7041176531226044,0.2885582375,0.6132435588081895
0.01,1.7975,1.0,1365.1626971119624,0.10641159324816443,1.3471444412162419,0.7232341988919694,0.288548,0.6157230131781352
0.0105,1.79724375,1.0,1439.6742245532923,0.11142391817267802,1.3460837620887278,0.7406465180488969,0.2885372375,0.6180676964876048
0.011,1.796975,1.0,1511.3276599148198,0.11640812730023309,1.3450764871211667,0.7565290500582614,0.28852595000000003,0.6202876850641432
0.0115,1.79669375,1.0,1580.1139423058228,0.1213643787026585,1.344118567522703,0.7710386055122695,0.2885141375,0.6223928937695247
0.012,1.7964,1.0,1646.0539349118512,0.1262928296297194,1.3432062009599928,0.7843155668786816,0.28850180000000003,0.6243925498169932
0.0125,1.79609375,1.0,1709.1745935459835,0.13119363628013037,1.3423360276850844,0.7964852887212329,0.2884889375,0.6262947836377459
0.013000000000000001,1.7957750000000001,1.0,1769.498848609817,0.13606695305098626,1.341505159744584,0.8076594958425589,0.28847555,0.6281065875887315
0.0135,1.79544375,1.0,1827.0769895665283,0.1409129340779248,1.3407107566022205,0.8179374992781229,0.2884616375,0.6298347587230309
0.014,1.7951000000000001,1.0,1881.9798275076798,0.1457317328805097,1.3399500660066033,0.8274075553999222,0.2884472,0.6314858183102873
0.0145,1.79474375,1.0,1934.288029389089,0.15052350297497344,1.33922050547356,0.836148138040594,0.2884322375,0.6330658439612962
0.015,1.794375,1.0,1984.0581161427422,0.15528839480417683,1.3385199893520556,0.8442291689194438,0.28841675,0.634579772988151
0.0155,1.79399375,1.0,2031.3648203025768,0.1600265588109808,1.3378464319910557,0.8517128476964998,0.2884007375,0.6360324884914318
0.016,1.7936,1.0,2076.29606127013,0.1647381451194137,1.337197783891071,0.8586545751008855,0.2883842,0.6374287453410417
0.0165,1.7931937500000001,1.0,2118.9406280634375,0.16942330304425085,1.3365721418884886,0.8651037912017032,0.2883671375,0.6387729378335303
0.017,1.792775,1.0,2159.3966861727185,0.17408218238507026,1.3359676416191877,0.8711046492123106,0.28834955,0.6400693360486003
0.0175,1.7923437500000001,1.0,2197.7306735003403,0.17871492906015357,1.3353828603506375,0.8766967482517087,0.2883314375,0.6413212276244413
0.018000000000000002,1.7919,1.0,2234.018392781517,0.1833216889877824,1.3348163753503075,0.8819155456969149,0.2883128,0.6425318711648023
0.0185,1.79144375,1.0,2268.3442339333064,0.18790260808623824,1.3342667638856676,0.8867928409256186,0.2882936375,0.6437044979636588
0.019,1.790975,1.0,2300.7923903770143,0.19245783127602772,1.3337326829305558,0.8913572182333551,0.28827395,0.644842143953996
0.0195,1.79049375,1.0,2331.453142441128,0.19698750410434818,1.3332127979725057,0.8956343987825571,0.2882537375,0.6459478037861419
0.02,1.79,1.0,2360.405662222715,0.2014917702982405,1.332705944856296,0.899647601611746,0.288233,0.6470240888306104
0.0205,1.78949375,1.0,2387.7139598040403,0.20597077095186922,1.3322111587751566,0.9034178286221866,0.2882117375,0.6480731695958791
0.021,1.788975,1.0,2413.44648718479,0.21042464715939885,1.3317274749223187,0.9069640665711258,0.28818995000000003,0.6490972014721379
0.021500000000000002,1.78844375,1.0,2437.6757697150742,0.2148535400149939,1.3312539284910125,0.9103035080602575,0.2881676375,0.6500983254441044
0.022,1.7879,1.0,2460.4733444549106,0.2192575896968565,1.3307895998019388,0.9134517545434863,0.2881448,0.6510785735423252
0.0225,1.78734375,1.0,2481.9098558258056,0.2236369363511268,1.3303336092947489,0.916422985673095,0.28812143749999997,0.6520398806451027
0.023,1.786775,1.0,2502.0572171749586,0.22799172038572185,1.3298850934089381,0.9192301044354321,0.28809755,0.6529841363092352
0.0235,1.78619375,1.0,2520.967913259961,0.2323220778022134,1.329443397543519,0.9218849035785835,0.28807313749999996,0.653912780022267
0.024,1.7856,1.0,2538.696539782015,0.23662814460217318,1.3290078670975043,0.9243981425103577,0.2880482,0.6548272429462723
0.0245,1.78499375,1.0,2555.2996272227383,0.24091005678717295,1.3285778474699068,0.9267796520748677,0.2880227375,0.6557289481889116
0.025,1.784375,1.0,2570.835474181644,0.24516795035878447,1.3281526840597395,0.9290384274361896,0.28799675,0.6566193110471581
0.025500000000000002,1.78374375,1.0,2585.3550480738704,0.24940195918150235,1.3277318057817675,0.9311827235342538,0.2879702375,0.6574995646652482
0.026000000000000002,1.7831000000000001,1.0,2598.9160507535476,0.2536122197597733,1.3273145915758504,0.9332201071577172,0.2879432,0.6583710399921372
0.0265,1.78244375,1.0,2611.5710721540972,0.2577988665719488,1.3269004799614894,0.9351575384991186,0.2879156375,0.6592349368652675
0.027,1.781775,1.0,2623.358849709675,0.26196203010568264,1.3264890482575118,0.9370014398237453,0.28788755,0.6600921599741841
0.0275,1.7810937500000001,1.0,2634.3190079995397,0.26610184084862876,1.3260798737827448,0.938757725874417,0.2878589375,0.6609436094190982
0.028,1.7804,1.0,2644.4919827102926,0.27021842928844114,1.3256725338560158,0.9404318506894718,0.2878298,0.6617901807774307
0.0285,1.77969375,1.0,2653.9189485595216,0.27431192591277365,1.3252666057961522,0.9420288495351442,0.2878001375,0.6626327651589622
0.029,1.778975,1.0,2662.6417511804684,0.27838246120928023,1.324861666921981,0.9435533765152754,0.28776995,0.6634722492495914
0.029500000000000002,1.7782437500000001,1.0,2670.694297292408,0.28243016168467144,1.3244573730797486,0.945009747658337,0.2877392375,0.6643093528513674
0.03,1.7775,1.0,2678.1221151026393,0.2864551607060925,1.324053278051738,0.9464019499511337,0.287708,0.6651450031375095
0.0305,1.77674375,1.0,2684.9565837189816,0.2904575850914022,1.3236490699580803,0.9477336962688565,0.2876762375,0.6659798453930792
0.031,1.775975,1.0,2691.2250290647576,0.2944375594968231,1.3232444775442032,0.9490084379012995,0.28764395,0.6668144379374208
0.0315,1.7751937500000001,1.0,2696.955105763385,0.2983952085785779,1.3228392295555336,0.9502293820912047,0.2876111375,0.6676493362882319
0.032,1.7744,1.0,2702.1747663143833,0.3023306569928892,1.322433054737499,0.9513995123077642,0.2875778,0.668485093152567
0.0325,1.77359375,1.0,2706.912231901361,0.3062440293959797,1.3220256818355267,0.9525216066010052,0.2875439375,0.669322258413151
0.033,1.772775,1.0,2711.1959648308325,0.31013545044407204,1.321616839595044,0.9535982542393197,0.28750955,0.6701613791099991
0.0335,1.7719437500000002,1.0,2715.0489882145102,0.314005040769108,1.321206308294303,0.9546318756048489,0.2874746375,0.6710028938518658
0.034,1.7711000000000001,1.0,2718.49705083667,0.3178529242729083,1.3207938449938084,0.9556247290413522,0.2874392,0.6718472863969658
0.0345,1.7702437500000001,1.0,2721.5729652012783,0.3216792306604967,1.3203791439425692,0.9565789197875431,0.2874032375,0.6726951662201102
0.035,1.7693750000000001,1.0,2724.293566752876,0.325484077898027,1.319962046191028,0.9574964300212393,0.28736675,0.6735468399147018
0.035500000000000004,1.76849375,1.0,2726.6757983728576,0.3292675839516531,1.3195423927896277,0.9583791154532268,0.2873297375,0.6744026122776763
0.036000000000000004,1.7676,1.0,2728.7366992117177,0.33302986678752877,1.3191200247888109,0.9592287148468986,0.2872922,0.675262786284403
0.0365,1.76669375,1.0,2730.4933940809274,0.3367710443718078,1.3186947832390203,0.9600468587174952,0.2872541375,0.6761276630619701
0.037,1.765775,1.0,2731.9630834054037,0.34049123467064407,1.318266509190699,0.960835077290068,0.28721555,0.6769975418608631
0.0375,1.76484375,1.0,2733.163033736077,0.3441905556501914,1.3178350436942898,0.9615948077868925,0.2871764375,0.6778727200250283
0.038,1.7639,1.0,2734.1105688223843,0.34786912527660363,1.3174002278002352,0.962327401107627,0.28713679999999997,0.6787534929603278
0.0385,1.76294375,1.0,2734.8230612454245,0.35152706151603447,1.3169619025589783,0.9630341279589405,0.28709663750000003,0.67964015410138
0.039,1.761975,1.0,2735.3076263841876,0.3551644759344987,1.3165200025284314,0.9637161919020243,0.28705595,0.6805328061205415
0.0395,1.7609937500000001,1.0,2735.5859350571254,0.3587814896523681,1.3160743303977362,0.964374716454303,0.2870147375,0.6814318165294091
0.04,1.76,1.0,2735.6764669516924,0.36237822012101095,1.3156247180971194,0.9650107626411201,0.286973,0.6823374914735775
0.0405,1.7589937500000001,1.0,2735.587992163337,0.3659547783786743,1.3151710859137806,0.9656253379551489,0.2869307375,0.6832499572829347
0.041,1.757975,1.0,2735.3292983781125,0.3695112754636051,1.3147133541349192,0.9662193933784676,0.28688795,0.6841693390597862
0.0415,1.75694375,1.0,2734.9091880708093,0.3730478224140505,1.3142514430477348,0.9667938271374364,0.2868446375,0.6850957606582153
0.042,1.7559,1.0,2734.3364758437033,0.3765645302682573,1.3137852729394264,0.9673494881706453,0.28680079999999997,0.6860293446630412
0.0425,1.75484375,1.0,2733.619985906743,0.38006151006447264,1.3133147640971938,0.9678871793345829,0.2867564375,0.6869702123683668
0.043000000000000003,1.753775,1.0,2732.768549697402,0.3835388728409435,1.3128398368082363,0.9684076603693377,0.28671155,0.6879184837557273
0.043500000000000004,1.75269375,1.0,2731.791003643057,0.38699672963591697,1.3123604113597533,0.9689116506445383,0.28666613750000003,0.6888742774718293
0.044,1.7516010160048758,1.0,2730.7466780025316,0.3904351914876399,1.3118764080389445,0.9693998317038662,0.28662024267220476,0.689837710805886
0.0445,1.7505060558582364,1.0,2730.1137292116937,0.3938543612018054,1.3113876621934477,0.969872841802759,0.28657425434604594,0.6908090683472554
0.045,1.749411095711597,1.0,2729.918966916804,0.39725435694671457,1.3108949342109468,0.9703313595315364,0.28652826601988707,0.6917867980930199
0.0455,1.7483161355649575,1.0,2730.1278202747485,0.400635285755945,1.3103985378640908,0.9707759931467747,0.2864822776937282,0.6927702413642686
0.046,1.7472211754183182,1.0,2730.7150895247946,0.40399725214669835,1.30989870257859,0.9712073134548025,0.2864362893675694,0.6937589098855441
0.0465,1.7461262152716788,1.0,2731.6556463239276,0.4073403606361765,1.309395657780155,0.9716258626851355,0.2863903010414105,0.6947523180701057
0.047,1.7450312551250393,1.0,2732.924416837764,0.41066471574158114,1.308889632894497,0.9720321561987108,0.2863443127152516,0.6957499830685678
0.0475,1.7439362949783999,1.0,2734.4963659981186,0.413970421980114,1.3083808573473263,0.9724266840786568,0.2862983243890928,0.6967514248141835
0.048,1.7428413348317604,1.0,2736.346482927504,0.417257583868977,1.3078695605643536,0.9728099126126948,0.28625233606293393,0.69775616606477
0.0485,1.741746374685121,1.0,2738.4497675310063,0.4205263059253717,1.3073559719712893,0.9731822856754765,0.28620634773677506,0.6987637324412757
0.049,1.7406514145384815,1.0,2740.781218255159,0.4237766926665,1.3068403209938442,0.9735442260184685,0.28616035941061624,0.6997736524629932
0.0495,1.739556454391842,1.0,2743.3161850929528,0.4270088484087715,1.3063228337567234,0.9738961362264322,0.28611437108445736,0.7007854640282232
0.05,1.7384614942452026,1.0,2746.0404323668145,0.4302228735732784,1.3058036418109162,0.9742383933103901,0.2860683827582985,0.7017988923953471
0.0505,1.7373665340985631,1.0,2748.9334216960465,0.4334188733396372,1.305282933717195,0.9745713612159969,0.2860223944321396,0.7028135535109145
0.051000000000000004,1.7362715739519237,1.0,2751.9833233413983,0.4365969470581819,1.3047608189558593,0.9748953814166926,0.2859764061059808,0.7038292194813583
0.051500000000000004,1.7351766138052844,1.0,2755.1782946201283,0.4397571940792465,1.3042374070072087,0.9752107799491482,0.285930417779822,0.7048456638314096
0.052000000000000005,1.734081653658645,1.0,2758.506476624869,0.44289971375316506,1.3037128073515425,0.9755178682495411,0.2858844294536631,0.7058626615135359
0.0525,1.7329866935120055,1.0,2761.955991207518,0.44602460543027134,1.3031871294691604,0.9758169439375309,0.28583844112750423,0.7068799889166154
0.053,1.731891733365366,1.0,2765.5149382292066,0.4491319684608996,1.3026604828403616,0.976108291551636,0.28579245280134535,0.7078974238738494
0.0535,1.7307967732187266,1.0,2769.17385265317,0.45222189934505186,1.302132954749544,0.9763921815799959,0.28574646447518653,0.7089147884384887
0.054,1.7297018130720871,1.0,2772.9250449898786,0.4552944937529102,1.3016046162881736,0.9766688717785498,0.28570047614902766,0.7099319369695904
0.0545,1.7286068529254477,1.0,2776.750877414696,0.45834986022714364,1.3010756280510576,0.9769386155586667,0.2856544878228688,0.7109485529134605
0.055,1.7275118927788082,1.0,2780.646259180521,0.4613880925810576,1.300546037226025,0.9772016473762614,0.28560849949670997,0.7119645392465972
0.0555,1.7264169326321688,1.0,2784.6060874001596,0.4644092846279578,1.3000158910009045,0.9774581918600441,0.2855625111705511,0.7129797995756804
0.056,1.7253219724855293,1.0,2788.625246441324,0.46741353018114973,1.2994852365635257,0.9777084643059405,0.2855165228443922,0.7139942381393147
0.0565,1.7242270123388899,1.0,2792.6986073696507,0.4704009230539389,1.298954121101717,0.9779526711427307,0.28547053451823334,0.7150077598096298
0.057,1.7231320521922506,1.0,2796.821027442111,0.47337155705963097,1.2984225918033079,0.9781910103708048,0.2854245461920745,0.7160202700937381
0.0575,1.7220370920456112,1.0,2800.9873496489913,0.47632552601153144,1.2978906958561267,0.978423671975793,0.28537855786591565,0.717031675135053
0.058,1.7209421318989717,1.0,2805.19240230585,0.4792629237229459,1.2973584804480032,0.978650838318697,0.28533256953975683,0.7180418817144596
0.0585,1.7198471717523323,1.0,2809.4309986944995,0.48218384400717984,1.2968259927667658,0.9788726845040366,0.28528658121359796,0.7190507972513518
0.059000000000000004,1.7187522116056928,1.0,2813.6979367535,0.4850883806775389,1.2962932800002436,0.9790893787274172,0.2852405928874391,0.7200583298045193
0.059500000000000004,1.7176572514590533,1.0,2817.9911839401047,0.4879766178407343,1.2957603608428996,0.9793010802475814,0.2851946045612802,0.7210644418178502
0.06,1.716562291312414,1.0,2822.306594140935,0.49084865129246785,1.295227272827993,0.9795079441308226,0.2851486162351214,0.722069060518322
0.0605,1.7154673311657744,1.0,2826.6374436187616,0.4937045849789476,1.2946940763995423,0.9797101213509252,0.2851026279089625,0.7230720705836121
0.061,1.714372371019135,1.0,2830.9821380912945,0.49654450586863813,1.2941607860359263,0.9799077533254125,0.2850566395828037,0.7240734437459375
0.0615,1.7132774108724955,1.0,2835.339078360187,0.49936850093000407,1.2936274162155244,0.980100976129013,0.2850106512566448,0.725073151934296
0.062,1.712182450725856,1.0,2839.706660283612,0.5021766571315099,1.293093981416715,0.9802899207365638,0.28496466293048595,0.7260711672745481
0.0625,1.7110874905792168,1.0,2844.0832747527766,0.5049690614416202,1.2925604961178776,0.980474713253107,0.28491867460432707,0.7270674620894813
0.063,1.7099925304325774,1.0,2848.46730767359,0.5077458008287997,1.2920269747973905,0.9806554751319414,0.28487268627816825,0.7280620088988656
0.0635,1.708897570285938,1.0,2852.857139952438,0.5105069622615127,1.2914934319336329,0.9808323233813535,0.2848266979520094,0.7290547804194916
0.064,1.7078026101392985,1.0,2857.251147487518,0.513252632708224,1.2909598820049837,0.9810053707606858,0.28478070962585056,0.7300457495651976
0.0645,1.706707649992659,1.0,2861.6477011634724,0.5159828991373979,1.2904263394898219,0.9811747259663721,0.2847347212996917,0.7310348894468837
0.065,1.7056126898460195,1.0,2866.045166852318,0.5186978485174993,1.2898928188665262,0.9813404938085226,0.2846887329735328,0.732022173372511
0.0655,1.70451772969938,1.0,2870.441905417512,0.5213975678169925,1.2893593346134757,0.9815027753786003,0.28464274464737394,0.7330075748470873
0.066,1.7034227695527406,1.0,2874.836272723505,0.5240821440043422,1.2888259012090493,0.9816616682087039,0.2845967563212151,0.733991067572642
0.0665,1.7023278094061012,1.0,2879.22661964974,0.5267516640480129,1.2882925331316257,0.981817266422931,0.28455076799505624,0.734972625448184
0.067,1.7012328492594617,1.0,2883.614194034555,0.5294061857984612,1.2877592191967202,0.9819696577133455,0.2845047796688974,0.7359522696661158
0.0675,1.7001378891128223,1.0,2887.995695904915,0.5320458270901122,1.2872259884416033,0.9821189326379868,0.28445879134273855,0.7369299475884693
0.068,1.6990429289661828,1.0,2892.3701163507203,0.5346706752649021,1.2866928495857237,0.9822651756906523,0.2844128030165797,0.7379056441212296
0.0685,1.6979479688195434,1.0,2896.737137529026,0.5372808095952195,1.2861598052251122,0.9824084676953921,0.2843668146904208,0.7388793554640494
0.069,1.6968530086729041,1.0,2901.0964407679885,0.5398763093534533,1.2856268579557986,0.9825488867621629,0.284320826364262,0.7398510778517158
0.0695,1.6957580485262647,1.0,2905.4477065718715,0.5424572538119918,1.2850940103738129,0.9826865083968642,0.2842748380381031,0.7408208075541336
0.07,1.6946630883796252,1.0,2909.79061462708,0.5450237222432237,1.2845612650751859,0.9828214056061891,0.2842288497119443,0.7417885408763067
0.07050000000000001,1.6935681282329857,1.0,2914.1248438078737,0.5475757939195377,1.2840286246559474,0.9829536489975707,0.2841828613857854,0.7427542741583258
0.07100000000000001,1.6924731680863463,1.0,2918.4500721823606,0.5501135481133222,1.2834960917121279,0.9830833068744826,0.28413687305962654,0.7437180037753469
0.07150000000000001,1.6913782079397068,1.0,2922.7659770185765,0.5526370640969659,1.2829636688397572,0.983210445327342,0.28409088473346766,0.7446797261375773
0.07200000000000001,1.6902832477930674,1.0,2927.072234790812,0.5551464211428574,1.282431358634866,0.9833351283202442,0.28404489640730884,0.7456394376902544
