Time [s],Phi [rad],STIM [ ],Fsee [N],Gamma [ ],Lcerel [ ],q [ ],Lmtc [m],fisomrel [ ]
0.0,1.8,1.0,17.967197748664223,1.0041575383489803e-05,1.3793397417853184,0.0050000268729646965,0.288653,0.5411395417801275
0.0005,1.79999375,1.0,18.276540009863734,0.005619194558881245,1.3793024104651261,0.012940629857626753,0.2886527375,0.5412298514519929
0.001,1.799975,1.0,21.6181880119358,0.011196884629063689,1.3789383218816038,0.035608794700346204,0.28865195,0.5421101664845472
0.0015,1.79994375,1.0,31.069016380625204,0.016743288268858632,1.3780462224401888,0.07060200419740702,0.2886506375,0.5442635640902529
0.002,1.7999,1.0,53.58203170054859,0.022258580969543307,1.376368154791458,0.11471819093516074,0.2886488,0.5483004211061007
0.0025,1.79984375,1.0,97.11837622275796,0.027742937238306856,1.3739351943132698,0.16457505923369903,0.28864643749999996,0.5541213981310495
0.003,1.7997750000000001,1.0,160.9575992986456,0.033196530605968604,1.3712143649991873,0.21728062460328118,0.28864354999999997,0.5605864005683998
0.0035,1.79969375,1.0,237.68277840729138,0.03861953362656858,1.3685847512712064,0.27061305719476825,0.2886401375,0.5667897995227772
0.004,1.7996,1.0,321.46625866218403,0.044012117888150015,1.3661561059750191,0.32291596436516096,0.2886362,0.5724799300293705
0.0045000000000000005,1.7994937500000001,1.0,409.2672955406009,0.049374454017943714,1.3639228248530029,0.37303466182601397,0.2886317375,0.5776791375988859
0.005,1.799375,1.0,499.4130906155476,0.054706711673458315,1.3618583511347653,0.4202476052932042,0.28862675,0.5824570590370821
0.0055,1.79924375,1.0,590.7900455818791,0.060009059589946886,1.3599388422973016,0.46417383254580746,0.2886212375,0.586875095043617
0.006,1.7991000000000001,1.0,682.5177730053565,0.06528166552355953,1.358146420842673,0.5046800862001539,0.2886152,0.5909794044565784
0.006500000000000001,1.79894375,1.0,773.8812492099617,0.07052469630664844,1.3564672537649556,0.5418008715102056,0.2886086375,0.594805793983644
0.007,1.798775,1.0,864.285485699933,0.07573831783266555,1.3548904002542976,0.575676886896426,0.28860155,0.5983826652019912
0.0075,1.79859375,1.0,953.2423047558849,0.0809226950641695,1.3534067931979594,0.6065100192247326,0.2885939375,0.6017335412038736
0.008,1.7984,1.0,1040.3557743969345,0.08607799200111035,1.352008685805089,0.6345321697324309,0.2885858,0.6048784601969839
0.0085,1.79819375,1.0,1125.3179850320155,0.09120437190426128,1.3506891883058978,0.6599844875621375,0.2885771375,0.6078351186395108
0.009000000000000001,1.797975,1.0,1207.8785068436837,0.09630199674175531,1.3494423311977666,0.6831044347569564,0.28856795,0.6106188047419338
0.0095,1.79774375,1.0,1287.869708841644,0.10137102793466467,1.3482624214985897,0.704117707938997,0.2885582375,0.6132438959564371
0.01,1.7975,1.0,1365.1622178953785,0.10641162612332224,1.3471444473754806,0.7232343250456764,0.288548,0.6157229995420033
0.0105,1.79724375,1.0,1439.6565077162088,0.11142395028542512,1.3460839838280887,0.740646738736262,0.2885372375,0.6180672070716813
0.011,1.796975,1.0,1511.3019623542596,0.11640815879856602,1.3450768010287495,0.756529299438671,0.28852595000000003,0.620286994233944
0.0115,1.79669375,1.0,1580.1070507625661,0.12136441062381144,1.344118649853086,0.7710387356730628,0.2885141375,0.6223927130844682
0.012,1.7964,1.0,1646.0643766885357,0.12629286208603543,1.3432060787408988,0.7843155995555872,0.28850180000000003,0.6243928173319386
0.0125,1.79609375,1.0,1709.1798495129046,0.1311936683586259,1.3423359673115707,0.7964853420893563,0.2884889375,0.626294915449143
0.013000000000000001,1.7957750000000001,1.0,1769.4957093298685,0.1360669846149708,1.3415051951844832,0.8076595818918235,0.28847555,0.6281065104018114
0.0135,1.79544375,1.0,1827.0673765037927,0.14091296522876026,1.3407108634022327,0.8179376062569915,0.2884616375,0.6298345266572232
0.014,1.7951000000000001,1.0,1881.9791139749052,0.14573176458264084,1.3399500738173735,0.8274076201307565,0.2884472,0.6314858013761553
0.0145,1.79474375,1.0,1934.2860975303975,0.15052353432477036,1.3392205263329822,0.8361482022883313,0.2884322375,0.6330657988341026
0.015,1.794375,1.0,1984.051855347262,0.1552884255475037,1.33852005610033,0.8442292436632051,0.28841675,0.6345796288833845
0.0155,1.79399375,1.0,2031.3583381012743,0.1600265893231522,1.337846500290359,0.851712918169058,0.2884007375,0.6360323413314938
0.016,1.7936,1.0,2076.2932622080157,0.16473817549610145,1.3371978130623465,0.8586546289025317,0.2883842,0.6374286826083253
0.0165,1.7931937500000001,1.0,2118.9515726549776,0.16942333443893481,1.336572028979899,0.865103799780958,0.2883671375,0.6387731801924554
0.017,1.792775,1.0,2159.401622869264,0.17408221318523928,1.3359675911696318,0.8711046739342113,0.28834955,0.6400694441443723
0.0175,1.7923437500000001,1.0,2197.7225383363034,0.17871495876860197,1.3353829427581603,0.8766968073460397,0.2883314375,0.6413210513612136
0.018000000000000002,1.7919,1.0,2234.001802483279,0.1833217180277149,1.3348165420362617,0.8819156240026171,0.2883128,0.6425315152387763
0.0185,1.79144375,1.0,2268.321435325889,0.18790263626464623,1.3342669912081078,0.8867929306922281,0.2882936375,0.6437040133567564
0.019,1.790975,1.0,2300.7824294499483,0.19245786119974748,1.3337327815468987,0.8913572732416511,0.28827395,0.6448419340592156
0.0195,1.79049375,1.0,2331.4492933118854,0.19698753519919554,1.3332128358286786,0.8956344374373509,0.2882537375,0.6459477233386802
0.02,1.79,1.0,2360.392160441811,0.20149180062916736,1.332706076829491,0.8996476599233599,0.288233,0.6470238088033446
0.0205,1.78949375,1.0,2387.6863268042994,0.2059707998558398,1.3322114273253804,0.9034179144873449,0.2882117375,0.6480726006200047
0.021,1.788975,1.0,2413.411813888449,0.21042467524538977,1.3317278100923906,0.9069641632327853,0.28818995000000003,0.6490964923829937
0.021500000000000002,1.78844375,1.0,2437.635944430019,0.21485356673048495,1.331254311545077,0.9103036104019838,0.2881676375,0.6500975162078988
0.022,1.7879,1.0,2460.4455722891234,0.2192576178624732,1.33078986568399,0.9134518299774708,0.2881448,0.6510780126299995
0.0225,1.78734375,1.0,2481.898575268518,0.2236369667272539,1.3303337168237037,0.9164230280278625,0.28812143749999997,0.6520396541117255
0.023,1.786775,1.0,2502.0501767006795,0.22799175052731813,1.3298851602496369,0.9192301370242627,0.28809755,0.6529839956858144
0.0235,1.78619375,1.0,2520.958006023162,0.23232210646515702,1.3294434912472082,0.9218849390115303,0.28807313749999996,0.6539125831468453
0.024,1.7856,1.0,2538.6818974547455,0.23662817174326164,1.3290080051018358,0.9243981838371692,0.2880482,0.6548269533766276
0.0245,1.78499375,1.0,2555.2832405492945,0.2409100834391789,1.328578001412202,0.9267796945060104,0.2880227375,0.655728625599372
0.025,1.784375,1.0,2570.813739532609,0.24516797538291607,1.3281528876250566,0.9290384761516514,0.28799675,0.656618885023396
0.025500000000000002,1.78374375,1.0,2585.34366173798,0.2494019870055506,1.3277319121254634,0.931182755708951,0.2879702375,0.6574993423934552
0.026000000000000002,1.7831000000000001,1.0,2598.914455638357,0.25361225012839816,1.327314606434638,0.9332201244567124,0.2879432,0.6583710089749302
0.0265,1.78244375,1.0,2611.5686925895516,0.25779889657277416,1.3269005020737956,0.9351575560832875,0.2879156375,0.6592348907649884
0.027,1.781775,1.0,2623.3499725101774,0.2619620581599943,1.326489130564152,0.9370014652130354,0.28788755,0.6600919885952301
0.0275,1.7810937500000001,1.0,2634.302834426956,0.2661018667113741,1.3260800234269223,0.9387577596742552,0.2878589375,0.6609432982203374
0.028,1.7804,1.0,2644.472671886248,0.27021845404822903,1.3256727121833225,0.9404318872453662,0.2878298,0.6617898103927258
0.0285,1.77969375,1.0,2653.89385071043,0.27431194722171737,1.3252668371523195,0.9420288912976852,0.2878001375,0.6626322852325461
0.029,1.778975,1.0,2662.619024800089,0.27838248231247814,1.3248618760740702,0.9435534139364652,0.28776995,0.6634718159235824
0.029500000000000002,1.7782437500000001,1.0,2670.684389548843,0.2824301882263563,1.3244574641235638,0.9450097698661667,0.2877392375,0.6643091644595227
0.03,1.7775,1.0,2678.119321797343,0.2864551907159839,1.3240533036842228,0.9464019639656646,0.287708,0.6651449501637146
0.0305,1.77674375,1.0,2684.953617844385,0.2904576155339931,1.3236490971394694,0.9477337101624783,0.2876762375,0.6659797892882854
0.031,1.775975,1.0,2691.217455518709,0.2944375884330158,1.323244546872726,0.9490084562309955,0.28764395,0.6668142950160906
0.0315,1.7751937500000001,1.0,2696.941358215111,0.2983952351656842,1.322839355267415,0.9502294061859917,0.2876111375,0.667649077457015
0.032,1.7744,1.0,2702.1561608941197,0.3023306814846303,1.3224332247069583,0.9513995405306156,0.2875778,0.6684847436386228
0.0325,1.77359375,1.0,2706.8929780457534,0.30624405314248626,1.3220258575747788,0.9525216345875421,0.2875439375,0.6693218974911617
0.033,1.772775,1.0,2711.1665946697863,0.31013547468507174,1.3216171074590919,0.9535982924578867,0.28750955,0.6701608296863741
0.0335,1.7719437500000002,1.0,2715.034239134796,0.3140050694559687,1.3212064427143537,0.9546318988781246,0.2874746375,0.6710026184910415
0.034,1.7711000000000001,1.0,2718.5067936660357,0.31785295918545403,1.3207937562562138,0.9556247283656617,0.2874392,0.671847467943332
0.0345,1.7702493094886413,1.0,2721.8498739621978,0.3216792648922315,1.3203791340845703,0.9565789275075165,0.2874034709985229,0.6726951863623116
0.035,1.7693985987725904,1.0,2725.397346021085,0.32548410759500457,1.319962662199322,0.9574965037581303,0.28736774114844876,0.6735455829028145
0.035500000000000004,1.7685478880565395,1.0,2729.1413830980955,0.32926760788152304,1.3195444244643029,0.9583793357434797,0.28733201129837466,0.6743984719189331
0.036000000000000004,1.7676971773404884,1.0,2733.0581832871426,0.3330298861716225,1.3191246407209036,0.9592291973669987,0.2872962814483005,0.6752533918518947
0.0365,1.7668464666244375,1.0,2737.125152007577,0.33677106171440696,1.3187035193807612,0.9600477501422856,0.2872605515982264,0.676109906678306
0.037,1.7659957559083865,1.0,2741.326723921494,0.3404912519727914,1.3182812046012125,0.960836546138407,0.2872248217481522,0.6769677130025546
0.0375,1.7651450451923356,1.0,2745.6472952347904,0.3441905744096905,1.317857840539593,0.9615970427903667,0.28718909189807806,0.6778265089525084
0.038,1.7642943344762847,1.0,2750.0712549450895,0.3478691464590078,1.3174335710378136,0.9623306096868027,0.28715336204800396,0.6786859948283845
0.0385,1.7634436237602338,1.0,2754.592635406532,0.35152707783484577,1.3170084522757768,0.9630385250389133,0.2871176321979298,0.6795460496993513
0.039,1.7625929130441829,1.0,2759.183797392222,0.35516449760675606,1.3165827362180087,0.9637220139628216,0.2870819023478557,0.6804061579359653
0.0395,1.761742202328132,1.0,2763.837826747846,0.3587815178825019,1.3161564868100686,0.9643822097108229,0.2870461724977815,0.6812661857395247
0.04,1.7608914916120808,1.0,2768.54778752052,0.3623782507698465,1.315729767997515,0.9650201805001749,0.28701044264770736,0.6821260000007503
0.0405,1.7600407808960299,1.0,2773.3067212477267,0.3659548083765531,1.3153026437259074,0.9656369339382592,0.28697471279763326,0.6829854683018288
0.041,1.759190070179979,1.0,2778.107646337067,0.36951130281038497,1.3148751779408046,0.9662334211019846,0.2869389829475591,0.6838444589181973
0.0415,1.758339359463928,1.0,2782.9435575371404,0.3730478461791053,1.3144474345877655,0.9668105403017773,0.286903253097485,0.6847028408200668
0.042,1.7574886487478771,1.0,2787.8074254980606,0.37656455059047733,1.3140194776123495,0.9673691405575577,0.2868675232474108,0.6855604836736835
0.0425,1.7566379380318262,1.0,2792.6921964240178,0.38006152815226435,1.313591370960115,0.9679100248114819,0.28683179339733667,0.6864172578423327
0.043000000000000003,1.7557872273157753,1.0,2797.5907918151474,0.3835388909722295,1.3131631785766216,0.968433952899856,0.28679606354726256,0.687273034387076
0.043500000000000004,1.7549365165997244,1.0,2802.501798413261,0.38699673933821865,1.3127349133645092,0.9689416383892252,0.28676033369718845,0.6881277868714698
0.044,1.7540858058836732,1.0,2807.415859554321,0.3904351964745827,1.3123066593750923,0.9694337665379247,0.2867246038471143,0.6889813472894455
0.0445,1.7532350951676223,1.0,2812.3281553942984,0.3938543742337939,1.3118784597394892,0.9699109820333499,0.28668887399704013,0.6898336299442723
0.045,1.7523843844515714,1.0,2817.2368073578846,0.3972543775409283,1.3114503311228949,0.9703738933837815,0.28665314414696597,0.690684602179334
0.0455,1.7515336737355205,1.0,2822.139930405208,0.40063531132106195,1.311022290190504,0.9708230781812092,0.28661741429689186,0.6915342315199424
0.046,1.7506829630194696,1.0,2827.035633060657,0.4039972804992709,1.3105943536075113,0.9712590849719186,0.28658168444681775,0.6923824856732533
0.0465,1.7498322523034187,1.0,2831.9220174486554,0.40734039000063127,1.3101665380391116,0.9716824349965865,0.2865459545967436,0.6932293325281642
0.047,1.7489815415873677,1.0,2836.7971793354673,0.4106647447502191,1.3097388601504996,0.9720936238101519,0.28651022474666943,0.6940747401551954
0.0475,1.7481308308713168,1.0,2841.6592081767185,0.41397044967311036,1.30931133660687,0.9724931227908274,0.2864744948965953,0.6949186768063506
0.048,1.7472801201552657,1.0,2846.506187171217,0.4172576096943812,1.3088839840734179,0.9728813805468188,0.28643876504652116,0.6957611109149635
0.0485,1.7464294094392148,1.0,2851.336193321529,0.42052632973910764,1.3084568192153376,0.9732588242285694,0.286403035196447,0.6966020110955247
0.049,1.7455786987231638,1.0,2856.147297499808,0.4237767147323658,1.3080298586978243,0.973625860753701,0.2863673053463729,0.6974413461434898
0.0495,1.744727988007113,1.0,2860.937564520419,0.4270088695992317,1.3076031191860724,0.9739828779512023,0.28633157549629873,0.6982790850350731
0.05,1.743877277291062,1.0,2865.7086198773886,0.43022287261282827,1.3071765857055249,0.9743302404327097,0.28629584564622457,0.6991152589103837
0.0505,1.743026566575011,1.0,2870.4563876074835,0.43341886057907775,1.3067502938697095,0.9746683061211224,0.28626011579615046,0.6999497997794861
0.051000000000000004,1.7421758558589602,1.0,2875.1805213971084,0.43659693269023203,1.3063242461464208,0.9749974101502061,0.28622438594607635,0.7007827047921779
0.051500000000000004,1.7413251451429093,1.0,2879.880945842072,0.43975718567156163,1.3058984426015203,0.9753178721202284,0.2861886560960022,0.7016139758098354
0.052000000000000005,1.7404744344268581,1.0,2884.557585910655,0.44289971624833685,1.3054728833008689,0.9756299973640049,0.28615292624592803,0.7024436146934112
0.0525,1.7396237237108072,1.0,2889.2103669435983,0.4460246211458282,1.3050475683103278,0.9759340777083697,0.28611719639585387,0.7032716233034308
0.053,1.7387730129947563,1.0,2893.839214654559,0.44913199708930607,1.304622497695758,0.9762303921886332,0.28608146654577976,0.7040980034999931
0.0535,1.7379223022787054,1.0,2898.4440551304356,0.45222194080404093,1.304197671523021,0.9765192077193158,0.28604573669570565,0.7049227571427685
0.054,1.7370715915626544,1.0,2903.0248148316205,0.4552945490153032,1.3037730898579778,0.9768007797241782,0.2860100068456315,0.705745886090998
0.0545,1.7362208808466035,1.0,2907.5814205927977,0.4583499184483632,1.3033487527664898,0.9770753527283521,0.28597427699555733,0.706567392203492
0.055,1.7353701701305526,1.0,2912.113799622863,0.46138814582849147,1.3029246603144178,0.9773431609151422,0.2859385471454832,0.7073872773386307
0.0555,1.7345194594145017,1.0,2916.6218795052423,0.4644093278809584,1.3025008125676232,0.9776044286498966,0.28590281729540906,0.7082055433543613
0.056,1.7336687486984506,1.0,2921.105588198693,0.46741356133103434,1.302077209591967,0.9778593709731425,0.2858670874453349,0.7090221921081978
0.0565,1.7328180379823996,1.0,2925.564854037287,0.4704009429039898,1.3016538514533107,0.9781081940650318,0.2858313575952608,0.7098372254572194
0.057,1.7319673272663487,1.0,2929.9996057306666,0.47337156932509517,1.3012307382175154,0.9783510956829923,0.28579562774518663,0.7106506452580698
0.0575,1.7311166165502978,1.0,2934.4099299282357,0.47632551310538596,1.300807868569162,0.9785882633750578,0.2857598978951125,0.7114624560168297
0.058,1.7302659058342469,1.0,2938.7963146806756,0.4792628545988071,1.3003852376839864,0.9788198776935436,0.28572416804503836,0.7122726689462213
0.0585,1.729415195118196,1.0,2943.1587925631993,0.4821837467468385,1.2999628447424814,0.9790461184066561,0.28568843819496426,0.7130812875446366
0.059000000000000004,1.728564484402145,1.0,2947.4976546060343,0.4850882763320328,1.2995406866701529,0.979267152419472,0.2856527083448901,0.7138883196083332
0.059500000000000004,1.727713773686094,1.0,2951.8131932449205,0.4879765301369425,1.2991187603925076,0.9794831401211602,0.28561697849481593,0.714693772899393
0.06,1.7268630629700432,1.0,2956.1057023050707,0.49084859494412014,1.2986970628350518,0.9796942356902223,0.2855812486447418,0.7154976551457688
0.0605,1.726012352253992,1.0,2960.3754769852344,0.49370455753611825,1.2982755909232915,0.9799005873831514,0.28554551879466766,0.7162999740413306
0.061,1.7251616415379412,1.0,2964.622813842723,0.4965445046954895,1.2978543415827333,0.9801023378075282,0.28550978894459356,0.7171007372459071
0.0615,1.7243109308218902,1.0,2968.8480107774194,0.49936852320478625,1.2974333117388834,0.980299624180508,0.2854740590945194,0.7178999523853322
0.062,1.7234602201058393,1.0,2973.051367017492,0.5021766998465611,1.297012498317248,0.9804925785735858,0.28543832924444523,0.7186976270514884
0.0625,1.7226095093897884,1.0,2977.233183104062,0.5049691214033667,1.2965918982433335,0.9806813281444637,0.2854025993943711,0.7194937688023473
0.063,1.7217587986737375,1.0,2981.393760876452,0.5077458746577556,1.2961715084426464,0.980865995356793,0.28536686954429696,0.7202883851620135
0.0635,1.7209080879576866,1.0,2985.533403458296,0.5105070463922801,1.2957513258406927,0.9810466981885122,0.28533113969422286,0.7210814836207666
0.064,1.7200573772416354,1.0,2989.652415242658,0.5132527233894929,1.2953313473629788,0.9812235503294503,0.2852954098441487,0.7218730716351005
0.0645,1.7192066665255845,1.0,2993.751101878495,0.5159829924319466,1.294911569935011,0.9813966613688253,0.28525967999407453,0.7226631566277648
0.065,1.7183559558095336,1.0,2997.829770256639,0.5186979403021936,1.294491990482296,0.9815661369732233,0.2852239501440004,0.7234517459878038
0.0655,1.7175052450934827,1.0,3001.8887284961666,0.5213976537827866,1.2940726059303396,0.981732079055608,0.28518822029392626,0.7242388470705969
0.066,1.7166545343774318,1.0,3005.928285931313,0.5240822196562781,1.293653413204648,0.9818945859358732,0.28515249044385216,0.7250244671978963
0.0665,1.7158038236613808,1.0,3009.9487530976076,0.5267517247052206,1.2932344092307282,0.9820537524934204,0.285116760593778,0.725808613657863
0.067,1.71495311294533,1.0,3013.950441719794,0.5294062557121666,1.2928155909340857,0.9822096703122091,0.28508103074370383,0.726591293705109
0.0675,1.7141024022292788,1.0,3017.9336646983825,0.5320458994596687,1.2923969552402275,0.9823624278187045,0.28504530089362967,0.7273725145607284
0.068,1.7132516915132279,1.0,3021.8987360975107,0.5346707427302795,1.2919784990746594,0.9825121104131165,0.28500957104355557,0.7281522834123377
0.0685,1.712400980797177,1.0,3025.8455634797856,0.5372808343254747,1.2915602228821692,0.9826587983564928,0.28497384119348146,0.7289306008702163
0.069,1.711550270081126,1.0,3029.7746924954317,0.5398762739500746,1.2911421216031753,0.9828025721697303,0.2849381113434073,0.7297074777691386
0.0695,1.7106995593650751,1.0,3033.686801927316,0.5424571787908532,1.2907241890451495,0.9829435106869315,0.28490238149333313,0.730482926989924
0.07,1.7098488486490242,1.0,3037.5821088957046,0.5450236255209325,1.29030642301105,0.9830816878046303,0.28486665164325903,0.731256953949392
0.07050000000000001,1.7089981379329733,1.0,3041.4608313607773,0.5475756908134352,1.2898888213038353,0.983217174991053,0.28483092179318487,0.7320295640404115
0.07100000000000001,1.7081474272169224,1.0,3045.323188115194,0.5501134513414834,1.2894713817264642,0.9833500413823838,0.28479519194311076,0.7328007626319248
