Time [s],Phi [rad],STIM [ ],Fsee [N],Gamma [ ],Lcerel [ ],q [ ],Lmtc [m],fisomrel [ ]
0.0,1.8,1.0,17.967049440328545,1.0029507299958113e-05,1.3793397584008278,0.005000026808666552,0.288653,0.5411395015829134
0.0005,1.79999375,1.0,18.276401351360597,0.005619182558490169,1.3793024258675022,0.012940596653483908,0.2886527375,0.5412298141933292
0.001,1.799975,1.0,21.61804844233787,0.011196872695985275,1.378938336136671,0.035608732789975076,0.28865195,0.5421101320343475
0.0015,1.79994375,1.0,31.068858663646374,0.016743276402715404,1.3780462358771985,0.07060191978078775,0.2886506375,0.5442635316935
0.002,1.7999,1.0,53.58183344085284,0.022258569169959722,1.3763681676535802,0.11471809104387573,0.2886488,0.5483003902330568
0.0025,1.79984375,1.0,97.11813165251144,0.027742925504909623,1.3739352060985677,0.16457495037958558,0.28864643749999996,0.5541213700255796
0.003,1.7997750000000001,1.0,160.95732797342052,0.03319651893838643,1.3712143751551709,0.21728051201849252,0.28864354999999997,0.5605863765247323
0.0035,1.79969375,1.0,237.6824988770821,0.03861952202443228,1.3685847598814886,0.27061294496200494,0.2886401375,0.5667897792828616
0.004,1.7996,1.0,321.46597937945575,0.04401210635109251,1.3661561133721594,0.3229158555002501,0.2886362,0.5724799127557219
0.0045000000000000005,1.7994937500000001,1.0,409.2670196519681,0.04937444254560004,1.3639228313291654,0.3730345583430054,0.2886317375,0.5776791225681246
0.005,1.799375,1.0,499.41282008745856,0.05470670026546642,1.361858356883468,0.4202475083629221,0.28862675,0.5824570457703979
0.0055,1.79924375,1.0,590.7897804141614,0.06000904824594326,1.3599388474780378,0.46417374272743445,0.2886212375,0.58687508315109
0.006,1.7991000000000001,1.0,682.5175150429719,0.06528165424318617,1.3581464255317441,0.5046800035845255,0.2886152,0.5909793937462846
0.006500000000000001,1.79894375,1.0,773.8810323839773,0.07052468508950503,1.3564672574663177,0.5418007955488549,0.2886086375,0.5948057855690114
0.007,1.798775,1.0,864.285358994431,0.07573830667843592,1.354890402300998,0.5756768167839265,0.28860155,0.5983826605696294
0.0075,1.79859375,1.0,953.2419944530833,0.0809226839725346,1.35340679797074,0.6065099572114414,0.2885939375,0.6017335304466471
0.008,1.7984,1.0,1040.3565197109228,0.0860779809865892,1.35200867483183,0.6345321042160214,0.2885858,0.6048784848314379
0.0085,1.79819375,1.0,1125.3183266184353,0.09120436092655844,1.3506891834702983,0.6599844310875846,0.2885771375,0.6078351294545136
0.009000000000000001,1.797975,1.0,1207.8781463791308,0.09630198568990117,1.349442336123131,0.683104388143088,0.28856795,0.6106187937653342
0.0095,1.79774375,1.0,1287.8725439336522,0.10137101709145004,1.3482623839824337,0.7041176433813825,0.2885582375,0.6132439792821172
0.01,1.7975,1.0,1365.1659751580723,0.10641161539234734,1.347144399084446,0.7232342598342464,0.288548,0.6157231064550346
0.0105,1.79724375,1.0,1439.65911239623,0.11142393959444716,1.3460839512285,0.7406466858252441,0.2885372375,0.6180672790244552
0.011,1.796975,1.0,1511.3070660056612,0.11640814831518011,1.3450767386850757,0.7565292366059425,0.28852595000000003,0.620287131436454
0.0115,1.79669375,1.0,1580.1105420944514,0.12136440010955542,1.3441186081435825,0.7710386861012642,0.2885141375,0.6223928046215673
0.012,1.7964,1.0,1646.065335418087,0.12629285147683475,1.3432060675191635,0.7843155663450699,0.28850180000000003,0.6243928418942328
0.0125,1.79609375,1.0,1709.178614142633,0.13119365772150784,1.3423359815018425,0.7964853219317756,0.2884889375,0.6262948844680171
0.013000000000000001,1.7957750000000001,1.0,1769.4937029385521,0.13606697412234808,1.3415052178350138,0.8076595672260928,0.28847555,0.628106461069706
0.0135,1.79544375,1.0,1827.0730111693551,0.1409129549059849,1.3407108008017177,0.8179375602405973,0.2884616375,0.6298346626819269
0.014,1.7951000000000001,1.0,1881.985917001716,0.14573175444364728,1.3399499993473023,0.8274075726120721,0.2884472,0.6314859628308966
0.0145,1.79474375,1.0,1934.2851676562698,0.1505235241041511,1.3392205363733871,0.8361481873657154,0.2884322375,0.6330657771127282
0.015,1.794375,1.0,1984.04447528466,0.15528841525631215,1.338520134781592,0.8442292533439035,0.28841675,0.6345794590161122
0.0155,1.79399375,1.0,2031.3464680474706,0.16002657845486973,1.3378466253587118,0.8517129423753595,0.2884007375,0.6360320718550072
0.016,1.7936,1.0,2076.286360330064,0.16473816490353474,1.3371978849924469,0.8586546361939651,0.2883842,0.6374285279228973
0.0165,1.7931937500000001,1.0,2118.95186157143,0.16942332434526694,1.3365720259993308,0.8651037850317551,0.2883671375,0.6387731865902608
0.017,1.792775,1.0,2159.408950220199,0.17408220357561463,1.3359675162893812,0.8711046395941031,0.28834955,0.6400696045865575
0.0175,1.7923437500000001,1.0,2197.7342844402283,0.1787149493901262,1.3353828237726149,0.8766967623795765,0.2883314375,0.6413213058619489
0.018000000000000002,1.7919,1.0,2234.0143111646066,0.18332170858434993,1.3348164163590492,0.8819155790440956,0.2883128,0.6425317835984814
0.0185,1.79144375,1.0,2268.3368763296457,0.18790262706928654,1.3342668372474105,0.8867928804139081,0.2882936375,0.643704341570833
0.019,1.790975,1.0,2300.792792216439,0.1924578509945181,1.3337326789522224,0.891357236976739,0.28827395,0.6448421524214696
0.0195,1.79049375,1.0,2331.462933522062,0.19698752489535334,1.3332127016773996,0.895634394822555,0.2882537375,0.6459480084210725
0.02,1.79,1.0,2360.4131318231766,0.20149179071545495,1.3327058718448275,0.8996476025355461,0.288233,0.6470242437499147
0.0205,1.78949375,1.0,2387.7142580789537,0.2059707903984856,1.3322111558763923,0.9034178443607576,0.2882117375,0.6480731757374726
0.021,1.788975,1.0,2413.441803823341,0.21042466588810788,1.3317275201939796,0.9069640915518351,0.28818995000000003,0.6490971056950028
0.021500000000000002,1.78844375,1.0,2437.669082485861,0.2148535578737555,1.3312539928109948,0.9103035353639244,0.2881676375,0.6500981895624153
0.022,1.7879,1.0,2460.47216478352,0.21925760811651168,1.3307896110957143,0.9134517701131538,0.2881448,0.6510785497166649
0.0225,1.78734375,1.0,2481.9193760787693,0.2236369568109949,1.3303335185456235,0.9164229813628495,0.28812143749999997,0.6520400718280236
0.023,1.786775,1.0,2502.0661647670104,0.22799174087572135,1.3298850084626226,0.9192301011454109,0.28809755,0.6529843150242839
0.0235,1.78619375,1.0,2520.9703867930007,0.23232209722920721,1.3294433741486118,0.9218849111401319,0.28807313749999996,0.6539128291759495
0.024,1.7856,1.0,2538.6921039296453,0.23662816278996862,1.3290079089054911,0.9243981608910058,0.2880482,0.6548271552220537
0.0245,1.78499375,1.0,2555.293393129358,0.2409100744765218,1.3285779060351606,0.9267796724520742,0.2880227375,0.6557288254641238
0.025,1.784375,1.0,2570.8254502211553,0.24516796610094527,1.3281527779433981,0.9290384521531978,0.28799675,0.6566191145664249
0.025500000000000002,1.78374375,1.0,2585.3542197424076,0.24940197681026663,1.3277318135180347,0.9311827338592059,0.2879702375,0.6574995484954723
0.026000000000000002,1.7831000000000001,1.0,2598.926859552734,0.2536122400621343,1.327314490890045,0.933220100570802,0.2879432,0.658371250170251
0.0265,1.78244375,1.0,2611.5842705296573,0.2577988872334919,1.3269003573146427,0.9351575285894179,0.2879156375,0.659235192562369
0.027,1.781775,1.0,2623.368363684701,0.26196204970128334,1.326488960047041,0.9370014348989231,0.28788755,0.6600923436460511
0.0275,1.7810937500000001,1.0,2634.321973757031,0.2661018588424523,1.3260798463424541,0.9387577294589664,0.2878589375,0.6609436664836783
0.028,1.7804,1.0,2644.4887773526325,0.2702184460339425,1.3256725634560953,0.9404318619740414,0.2878298,0.661790119298264
0.0285,1.77969375,1.0,2653.913215627826,0.27431194265269776,1.325266658643178,0.9420288637817416,0.2878001375,0.6626326555328517
0.029,1.778975,1.0,2662.6310679964854,0.27838247497788304,1.324861765239781,0.9435533955724859,0.28776995,0.663472045552594
0.029500000000000002,1.7782437500000001,1.0,2670.6923020809236,0.2824301788980212,1.3244573914140476,0.9450097564795275,0.2877392375,0.6643093149132382
0.03,1.7775,1.0,2678.1265312743317,0.2864551805497305,1.3240532375272107,0.946401951524516,0.287708,0.6651450868881797
0.0305,1.77674375,1.0,2684.962471056919,0.2904576053671674,1.3236490160023628,0.9477336961002899,0.2876762375,0.6659799567624436
0.031,1.775975,1.0,2691.2292110062,0.2944375787844883,1.3232444392625968,0.9490084393231445,0.28764395,0.6668145168552595
0.0315,1.7751937500000001,1.0,2696.95618015149,0.2983952262358494,1.3228392197310062,0.9502293864375848,0.2876111375,0.6676493565161834
0.032,1.7744,1.0,2702.1731141618698,0.3023306731554071,1.322433069830683,0.9513995190745111,0.2875778,0.6684850621159499
0.0325,1.77359375,1.0,2706.9100243678645,0.30624404497731783,1.3220257019847208,0.9525216135916263,0.2875439375,0.6693222170320401
0.033,1.772775,1.0,2711.195482861345,0.3101354666944952,1.3216168439907283,0.953598259371093,0.28750955,0.6701613700938889
0.0335,1.7719437500000002,1.0,2715.055294190416,0.31400506135868217,1.321206250823059,0.9546318746795486,0.2874746375,0.6710030115822514
0.034,1.7711000000000001,1.0,2718.5124783249194,0.3178529508601342,1.3207937044804698,0.9556247203465629,0.2874392,0.6718475738702072
0.0345,1.7702437500000001,1.0,2721.5866949376496,0.3216792564296206,1.3203790189629958,0.9565789126811621,0.2874032375,0.672695421582616
0.035,1.7693750000000001,1.0,2724.297734603533,0.32548409929791045,1.3199620082706718,0.9574964312665516,0.28736675,0.6735469172940005
0.035500000000000004,1.7684947682679995,1.0,2726.7204796799083,0.3292675985335337,1.3195424463077863,0.9583791246223037,0.287329780267256,0.6744025032131236
0.036000000000000004,1.7676123137313071,1.0,2729.307478881254,0.33302987761397,1.319120397202979,0.959228755943378,0.2872927171767149,0.6752620283450668
0.0365,1.7667298591946146,1.0,2732.147070617701,0.3367710539088761,1.3186960643317196,0.9600469910266098,0.2872556540861738,0.6761250592457668
0.037,1.765847404657922,1.0,2735.2172899652996,0.34049124471302383,1.318269650696973,0.9608353926946089,0.28721859099563274,0.6769911653227894
0.0375,1.7649649501212297,1.0,2738.496152558191,0.344190567321185,1.317841359301706,0.961595428368585,0.28718152790509166,0.6778599181034561
0.038,1.7640824955845371,1.0,2741.9616456803465,0.3478691390281314,1.3174113931488838,0.9623284769546617,0.2871444648145506,0.6787308912604744
0.0385,1.7632000410478446,1.0,2745.5935778066105,0.3515270759501706,1.3169799384067267,0.9630358333344057,0.28710740172400945,0.679603694667308
0.039,1.762317586511152,1.0,2749.3779906825735,0.35516449115765797,1.3165471244434912,0.9637187102652414,0.28707033863346837,0.6804780548678473
0.0395,1.7614351319744597,1.0,2753.285575681515,0.3587815087679603,1.3161132193149183,0.9643782647405188,0.2870332755429273,0.6813534201988468
0.04,1.760552677437767,1.0,2757.3063860449283,0.36237824050421813,1.3156783152982312,0.9650155689667236,0.2869962124523862,0.6822295958242046
0.0405,1.7596702229010746,1.0,2761.430452309588,0.3659547980895723,1.3152425046706533,0.9656316342753276,0.28695914936184513,0.6831063879112664
0.041,1.758787768364382,1.0,2765.647780357996,0.3695112932471636,1.3148058797094078,0.966227415222425,0.28692208627130406,0.6839836036364346
0.0415,1.7579053138276897,1.0,2769.9483496581547,0.37304783770013256,1.3143685326917176,0.9668038133712997,0.286885023180763,0.6848610511902311
0.042,1.757022859290997,1.0,2774.3221116917307,0.3765645431716201,1.313930555894806,0.9673616807854666,0.28684796009022184,0.6857385397818179
0.0425,1.7561404047543046,1.0,2778.7589885713073,0.38006152138476673,1.3134920415958966,0.967901823257093,0.28681089699968076,0.686615879642974
0.043000000000000003,1.755257950217612,1.0,2783.2488718463032,0.38353888406271336,1.313053082072212,0.9684250032933372,0.2867738339091397,0.6874928820315336
0.043500000000000004,1.7543754956809197,1.0,2787.783300299604,0.3869967406319363,1.3126137545016523,0.968931941316449,0.2867367708185986,0.6883693893379486
0.044,1.753493041144227,1.0,2792.356067057513,0.3904352002198414,1.312174115561313,0.9694233182349542,0.28669970772805753,0.6892452856298216
0.0445,1.7526105866075345,1.0,2796.957537398486,0.39385437751757935,1.3117342525290965,0.9698997827705785,0.28666264463751645,0.6901203947708084
0.045,1.7517281320708422,1.0,2801.5839219661025,0.3972543782187664,1.3112941999555816,0.9703619448995716,0.28662558154697537,0.6909946462819336
0.0455,1.7508456775341497,1.0,2806.2314189507115,0.40063530801701897,1.3108539923913467,0.9708103835878793,0.2865885184564343,0.6918679700713029
0.046,1.749963222997457,1.0,2810.8962139575297,0.4039972726059535,1.3104136643869708,0.9712456486688162,0.2865514553658932,0.6927402964344804
0.0465,1.7490807684607645,1.0,2815.5744799012505,0.40734037767918624,1.3099732504930324,0.9716682625896821,0.28651439227535214,0.6936115560547953
0.047,1.7481983139240722,1.0,2820.262376926814,0.4106647289303337,1.30953278526011,0.9720787220376346,0.28647732918481106,0.6944816800035671
0.0475,1.7473158593873797,1.0,2824.956052356879,0.4139704320530121,1.3090923032387827,0.9724774994542345,0.2864402660942699,0.6953505997402565
0.048,1.746433404850687,1.0,2829.651640666096,0.41725759274083796,1.3086518389796287,0.972865044447261,0.28640320300372885,0.6962182471125427
0.0485,1.7455509503139948,1.0,2834.3475115307833,0.4205263079843249,1.3082114069808033,0.9732417826413599,0.28636613991318777,0.697084593772046
0.049,1.7446684957773022,1.0,2839.0404315861447,0.42377668518433353,1.3077710359796593,0.9736081217693252,0.2863290768226467,0.6979495835842069
0.0495,1.7437860412406097,1.0,2843.7252243646544,0.4270088403444878,1.3073307719224607,0.9739644526027447,0.2862920137321056,0.6988131270074759
0.05,1.742903586703917,1.0,2848.4009408174015,0.4302228721409832,1.3068906229895727,0.9743111431706696,0.28625495064156453,0.6996752089319898
0.0505,1.7420211321672248,1.0,2853.0666289599617,0.4334188792500155,1.3064505973613605,0.9746485445930363,0.28621788755102345,0.700535814339494
0.051000000000000004,1.7411386776305322,1.0,2857.7213338941156,0.43659696034778017,1.3060107032181891,0.9749769920088233,0.2861808244604823,0.7013949283032825
0.051500000000000004,1.7402562230938396,1.0,2862.3640978311255,0.439757214110473,1.305570948740424,0.975296805445317,0.28614376136994124,0.7022525359881289
0.052000000000000005,1.739373768557147,1.0,2866.993960115987,0.44289973921428955,1.3051313421084298,0.9756082906327151,0.28610669827940016,0.7031086226502179
0.0525,1.7384913140204548,1.0,2871.609957253739,0.4460246343354254,1.3046918915025723,0.9759117397679489,0.2860696351888591,0.7039631736370687
0.053,1.7376088594837622,1.0,2876.2111229368843,0.44913199815007626,1.3042526051032162,0.9762074322313086,0.286032572098318,0.7048161743874567
0.0535,1.7367264049470696,1.0,2880.796488074566,0.4522219293344378,1.3038134910907266,0.9764956352591689,0.2859955090077769,0.7056676104313296
0.054,1.7358439504103773,1.0,2885.3650808230223,0.45529452656470554,1.3033745576454692,0.9767766045758584,0.28595844591723585,0.7065174673897191
0.0545,1.7349614958736848,1.0,2889.915926617564,0.4583498885170752,1.3029358129478086,0.9770505849874798,0.28592138282669477,0.7073657309746504
0.055,1.7340790413369922,1.0,2894.4480482060626,0.4613881138677423,1.3024972651781104,0.977317810940275,0.2858843197361537,0.7082123869890433
0.0555,1.7331965868002996,1.0,2898.962175281148,0.4644092698487308,1.3020589074381774,0.9775785032047741,0.2858472566456126,0.7090574503738984
0.056,1.7323141322636073,1.0,2903.4570876851963,0.4674134777739169,1.3016207500377164,0.977832879450651,0.28581019355507153,0.7099009028912162
0.0565,1.7314316777269148,1.0,2907.931605145611,0.47040085375261836,1.3011828029055559,0.9780811478189582,0.2857731304645304,0.7107427271490852
0.057,1.7305492231902222,1.0,2912.3858077996942,0.47337148745471314,1.300745064851387,0.9783235049085182,0.2857360673739893,0.711582927192395
0.0575,1.7296667686535296,1.0,2916.8197764901925,0.4763254685500792,1.3003075346849016,0.9785601393740565,0.28569900428344824,0.7124215070519025
0.058,1.7287843141168373,1.0,2921.233592760267,0.47926288670859446,1.2998702112157907,0.978791232311082,0.28566194119290717,0.7132584707442509
0.0585,1.7279018595801447,1.0,2925.627338847959,0.4821838316001369,1.299433093253746,0.9790169576191549,0.2856248781023661,0.7140938222719819
0.059000000000000004,1.7270194050434522,1.0,2930.001097680545,0.48508839289458444,1.2989961796084588,0.9792374823449161,0.285587815011825,0.7149275656235531
0.059500000000000004,1.7261369505067599,1.0,2934.354952869299,0.4879766602618151,1.2985594690896207,0.9794529670061615,0.28555075192128393,0.7157597047733539
0.06,1.7252544959700673,1.0,2938.6889887041143,0.49084872337170665,1.2981229605069229,0.9796635658981426,0.2855136888307428,0.7165902436817211
0.0605,1.7243720414333747,1.0,2943.0032901482314,0.49370467189413725,1.2976866526700568,0.979869427383205,0.2854766257402017,0.7174191862949522
0.061,1.7234895868966822,1.0,2947.297942832681,0.4965445954989848,1.297250544388714,0.9800706941647865,0.28543956264966064,0.7182465365453228
0.0615,1.7226071323599899,1.0,2951.573033051141,0.4993685838561272,1.2968146344725857,0.9802675035467392,0.28540249955911956,0.7190722983511012
0.062,1.7217246778232973,1.0,2955.8286477546844,0.5021767266354423,1.2963789217313637,0.9804599876788639,0.2853654364685785,0.7198964756165631
0.0625,1.7208422232866047,1.0,2960.064874546629,0.5049691135068083,1.295943404974739,0.9806482737894863,0.2853283733780374,0.7207190722320079
0.063,1.7199597687499124,1.0,2964.2818016772476,0.507745834140103,1.2955080830124033,0.9808324844058595,0.2852913102874963,0.721540092073771
0.0635,1.7190773142132199,1.0,2968.479518038608,0.5105069782052043,1.2950729546540478,0.9810127375631049,0.28525424719695525,0.7223595390042419
0.064,1.7181948596765273,1.0,2972.6581131595913,0.5132526353719902,1.294638018709364,0.9811891470023779,0.28521718410641417,0.7231774168718765
0.0645,1.7173124051398347,1.0,2976.8176772005504,0.5159828953103387,1.2942032739880434,0.981361822358884,0.2851801210158731,0.7239937295112127
0.065,1.7164299506031424,1.0,2980.95825437555,0.5186978197521276,1.2937687197048595,0.9815308674151808,0.285143057925332,0.7248084799839531
0.0655,1.7155474960664499,1.0,2985.0802522495915,0.5213974936800838,1.2933343519206963,0.9816963837469095,0.2851059948347909,0.7256216772425544
0.066,1.7146650415297573,1.0,2989.184079853063,0.5240820486009066,1.2929001666966262,0.9818584725005148,0.2850689317442498,0.7264333301947978
0.0665,1.7137825869930647,1.0,2993.269944097013,0.5267515643335016,1.2924661618608562,0.9820172278562421,0.2850318686537087,0.7272434444080978
0.067,1.7129001324563724,1.0,2997.3380527941263,0.5294061206967744,1.292032335241594,0.9821727407337675,0.28499480556316764,0.7280520254251952
0.0675,1.7120176779196798,1.0,3001.388614649952,0.5320457975096305,1.2915986846670473,0.9823250989281568,0.28495774247262656,0.7288590787641833
0.068,1.7111352233829873,1.0,3005.421839254239,0.5346706745909758,1.2911652079654234,0.9824743872392403,0.28492067938208543,0.7296646099185322
0.0685,1.7102527688462947,1.0,3009.4379370729575,0.5372808317597157,1.2907319029649302,0.9826206875947641,0.28488361629154435,0.7304686243571122
0.069,1.7093703143096024,1.0,3013.43711943943,0.5398763488347559,1.2902987674937747,0.9827640791676568,0.28484655320100327,0.7312711275242199
0.0695,1.7084878597729098,1.0,3017.419598546352,0.542457305635002,1.289865799380165,0.9829046384877337,0.2848094901104622,0.732072124839598
0.07,1.7076054052362173,1.0,3021.385587437757,0.5450237819793597,1.2894329964523081,0.983042439548136,0.2847724270199211,0.7328716216984636
0.07050000000000001,1.706722950699525,1.0,3025.335300000901,0.5475758576867347,1.289000356538412,0.9831775539067885,0.28473536392938004,0.7336696234715265
0.07100000000000001,1.7058404961628324,1.0,3029.2689509584325,0.5501136125760323,1.288567877466684,0.9833100507831428,0.28469830083883896,0.7344661355050155
0.07150000000000001,1.7049580416261398,1.0,3033.1867558605254,0.5526371264661584,1.2881355570653317,0.9834399971504489,0.2846612377482979,0.7352611631206983
