Time [s],Phi [rad],STIM [ ],Fsee [N],Gamma [ ],Lcerel [ ],q [ ],Lmtc [m],fisomrel [ ]
0.0,1.8,1.0,17.96801716331447,1.0320794480325516e-05,1.3793396499846218,0.005000028382068196,0.288653,0.5411397638697215
0.0005,1.79999375,1.0,18.2773776960918,0.0056194722117795665,1.3793023174150385,0.01294140339502765,0.2886527375,0.5412300765420325
0.001,1.799975,1.0,21.619189120221236,0.011197160724549007,1.3789382196338538,0.035610244308530346,0.28865195,0.5421104135864963
0.0015,1.79994375,1.0,31.07045391993484,0.016743562815666416,1.3780460999677597,0.07060398674121027,0.2886506375,0.5442638593723426
0.002,1.7999,1.0,53.584364548098385,0.022258853976360616,1.3763680034494745,0.1147205385046865,0.2886488,0.5483007843732663
0.0025,1.79984375,1.0,97.12182062289011,0.027743208713771797,1.37393502833684,0.16457761428217463,0.28864643749999996,0.5541217939500216
0.003,1.7997750000000001,1.0,160.96182983762802,0.03319680055867087,1.3712142066468485,0.21728326219783048,0.28864354999999997,0.5605867754577516
0.0035,1.79969375,1.0,237.68741341536665,0.03861980206504969,1.3685846085012265,0.270615682076223,0.2886401375,0.5667901351275433
0.004,1.7996,1.0,321.4710923342019,0.04401238482090351,1.3661559779498889,0.3229185071065408,0.2886362,0.5724802289909455
0.0045000000000000005,1.7994937500000001,1.0,409.27222900442445,0.04937471945341558,1.3639227090460868,0.37303707638951245,0.2886317375,0.577679406379328
0.005,1.799375,1.0,499.4180649055598,0.054706975620043514,1.3618582454317352,0.42024986496558364,0.28862675,0.5824573029753384
0.0055,1.79924375,1.0,590.7950226126889,0.060009322056005704,1.359938745058363,0.4641759250862545,0.2886212375,0.586875318258325
0.006,1.7991000000000001,1.0,682.5227157113537,0.06528192651739337,1.3581463309975745,0.5046820096388044,0.2886152,0.590979609671479
0.006500000000000001,1.79894375,1.0,773.885917833762,0.0705249558368118,1.356467174068604,0.5418026328118122,0.2886086375,0.5948059751643608
0.007,1.798775,1.0,864.2903602259352,0.0757385759069686,1.3548903215151793,0.5756784893288193,0.28860155,0.5983828434147087
0.0075,1.79859375,1.0,953.2477714954356,0.08092295169041007,1.353406709113936,0.6065114702372942,0.2885939375,0.6017337307182968
0.008,1.7984,1.0,1040.3490498287672,0.08607824681192847,1.3520087848110947,0.6345335926265142,0.2885858,0.6048782379330883
0.0085,1.79819375,1.0,1125.3189842695297,0.0912046253893644,1.350689174160395,0.6599857185925158,0.2885771375,0.6078351502764673
0.009000000000000001,1.797975,1.0,1207.9047262412034,0.0963022493615906,1.3494419729395972,0.6831053625409931,0.28856795,0.6106196031507711
0.0095,1.79774375,1.0,1287.8967201943879,0.10137127924290137,1.3482620640649108,0.7041185416534398,0.2885582375,0.6132446898381632
0.01,1.7975,1.0,1365.1713150418445,0.10641187554759111,1.3471443304525448,0.7232351971905129,0.288548,0.6157232584013215
0.0105,1.79724375,1.0,1439.6633013849857,0.1114241982371267,1.3460838988001222,0.7406475463655168,0.2885372375,0.6180673947426873
0.011,1.796975,1.0,1511.325995246686,0.11640840608271022,1.3450765074557767,0.7565299371236682,0.28852595000000003,0.6202876403128932
0.0115,1.79669375,1.0,1580.1246804647626,0.12136465626175066,1.3441184392387702,0.7710393497081794,0.2885141375,0.622393175305717
0.012,1.7964,1.0,1646.0607719299705,0.1262931054209413,1.3432061209338975,0.7843162665371817,0.28850180000000003,0.6243927249792951
0.0125,1.79609375,1.0,1709.1775054456643,0.13119391038386424,1.3423359942370665,0.7964859483991827,0.2884889375,0.6262948566636453
0.013000000000000001,1.7957750000000001,1.0,1769.5100655643178,0.13606722602796625,1.3415050331146134,0.8076600646823998,0.28847555,0.6281068633845242
0.0135,1.79544375,1.0,1827.0948148170303,0.140913205817621,1.3407105585664985,0.8179379938157039,0.2884616375,0.6298351890347724
0.014,1.7951000000000001,1.0,1881.9957606769738,0.14573200321720226,1.3399498915926815,0.8274080175819442,0.2884472,0.6314861964480998
0.0145,1.79474375,1.0,1934.2823416567458,0.15052377062998232,1.3392205668874033,0.8361486448363458,0.2884322375,0.633065711098816
0.015,1.794375,1.0,1984.054824686816,0.15528866108569922,1.338520024443271,0.8442296297779681,0.28841675,0.6345796972287223
0.0155,1.79399375,1.0,2031.3748783502883,0.16002682427053866,1.3378463260152886,0.8517132297182917,0.2884007375,0.6360327168302657
0.016,1.7936,1.0,2076.314534103407,0.16473840956260888,1.3371975913713237,0.858654901796487,0.2883842,0.6374291593538834
0.0165,1.7931937500000001,1.0,2118.960170713772,0.16942356634001804,1.3365719402792429,0.8651040906624811,0.2883671375,0.6387733705888577
0.017,1.792775,1.0,2159.393444135181,0.17408244264935852,1.3359676747505553,0.871104993109227,0.28834955,0.6400692650596462
0.0175,1.7923437500000001,1.0,2197.7215028178857,0.1787151876392319,1.335382953247758,0.8766970859013302,0.2883314375,0.6413210289247839
0.018000000000000002,1.7919,1.0,2234.014393539704,0.18332194669414728,1.3348164155314113,0.8819158480976852,0.2883128,0.6425317853657441
0.0185,1.79144375,1.0,2268.3464795972436,0.1879028648920742,1.334266741494458,0.8867931081862078,0.2882936375,0.6437045456973125
0.019,1.790975,1.0,2300.799652855937,0.1924580873109822,1.3337326110298415,0.8913574564681014,0.28827395,0.6448422969872593
0.0195,1.79049375,1.0,2331.454152753094,0.196987757914088,1.3332127880360962,0.8956346361286661,0.2882537375,0.6459478249018228
0.02,1.79,1.0,2360.399337468531,0.20149202177488099,1.3327060066775762,0.8996478405934083,0.288233,0.6470239576551677
0.0205,1.78949375,1.0,2387.70750815917,0.20597102111110116,1.3322112214750752,0.9034180539743113,0.2882117375,0.6480730367539494
0.021,1.788975,1.0,2413.4433094095743,0.21042489644829265,1.3317275056402422,0.906964272412666,0.28818995000000003,0.6490971364850225
0.021500000000000002,1.78844375,1.0,2437.6753648926338,0.2148537883119997,1.3312539323847261,0.9103036967782615,0.2881676375,0.6500983172182886
0.022,1.7879,1.0,2460.4759434365287,0.21925783722776637,1.3307895749201764,0.9134519270916776,0.2881448,0.6510786260335748
0.0225,1.78734375,1.0,2481.910422827507,0.22363718164959498,1.3303336038899605,0.9164231518667352,0.28812143749999997,0.6520398920314754
0.023,1.786775,1.0,2502.055098829394,0.22799196325163507,1.3298851135200307,0.9192302658459538,0.28809755,0.6529840939983306
0.0235,1.78619375,1.0,2520.96792498334,0.2323223193604693,1.329443397432638,0.9218850526551597,0.28807313749999996,0.6539127802552325
0.024,1.7856,1.0,2538.7007663439417,0.2366283854454539,1.3290078272621177,0.9243982768312343,0.2880482,0.6548273265314429
0.0245,1.78499375,1.0,2555.307379457186,0.24091029697594518,1.3285777746428045,0.9267797737981455,0.2880227375,0.6557291007996888
0.025,1.784375,1.0,2570.843252466716,0.24516818942129937,1.3281526112090336,0.929038542809584,0.28799675,0.6566194635098623
0.025500000000000002,1.78374375,1.0,2585.365453974317,0.2494021982508727,1.3277317085951401,0.931182829463604,0.2879702375,0.6574997677975452
0.026000000000000002,1.7831000000000001,1.0,2598.892783659219,0.2536124555481513,1.3273148083135078,0.9332202581047825,0.2879432,0.6583705875596035
0.0265,1.78244375,1.0,2611.5427530178054,0.2577990992864419,1.3269007431201298,0.9351576895330759,0.2879156375,0.6592343882254683
0.027,1.781775,1.0,2623.358674817925,0.261962261400411,1.3264890498790527,0.9370015438679602,0.28788755,0.6600921565978107
0.0275,1.7810937500000001,1.0,2634.356956664744,0.2661020717204584,1.3260795226687534,0.9387577720120575,0.2878589375,0.6609443395922129
0.028,1.7804,1.0,2644.554605257794,0.2702186600769837,1.3256719555677094,0.940431860576521,0.2878298,0.6617913818772445
0.0285,1.7796980339444153,1.0,2654.17907519011,0.2743121563003867,1.3252661426543986,0.9420288741865896,0.2878003174256654,0.6626337259015576
0.029,1.7789958827902632,1.0,2663.6436729202915,0.27838269022106704,1.3248618780072983,0.9435534934247294,0.28777082707719104,0.6634718119182758
0.029500000000000002,1.7782937316361112,1.0,2672.9789718483885,0.28243039166942446,1.324458955704886,0.9450100489084795,0.28774133672871666,0.6643060780066798
0.03,1.777591580481959,1.0,2682.1955254155273,0.28645538926501585,1.3240572719518569,0.9464025651823283,0.2877118463802423,0.6651367490278071
0.0305,1.7768894293278068,1.0,2691.270583224249,0.2904578106727614,1.3236570286253126,0.9477348135118882,0.2876823560317679,0.6659634177979387
0.031,1.7761872781736547,1.0,2700.201345418126,0.29443778172800167,1.3232582440327494,0.9490102695933793,0.2876528656832935,0.6667860576047941
0.0315,1.7754851270195027,1.0,2708.9869289377184,0.2983954278632605,1.3228609189999179,0.9502321604189361,0.2876233753348191,0.6676046778779607
0.032,1.7747829758653504,1.0,2717.6264643003606,0.30233087451106183,1.3224650543525691,0.9514034873133024,0.2875938849863447,0.6684192880146513
0.0325,1.7740808247111983,1.0,2726.122673709749,0.306244233519376,1.3220706183728834,0.9525270366005398,0.2875643946378703,0.6692299642248358
0.033,1.7733786735570463,1.0,2734.4709718084264,0.31013564974734203,1.3216776460282533,0.9536054223513915,0.28753490428939593,0.6700366455539597
0.0335,1.7726765224028942,1.0,2742.6728365448153,0.3140052457650514,1.321286117219212,0.9546410700335843,0.28750541394092155,0.6708393841906974
0.034,1.771974371248742,1.0,2750.7306897501835,0.31785314053617136,1.3208960035467256,0.9556362423613843,0.28747592359244717,0.6716382490680479
0.0345,1.7712722200945898,1.0,2758.646985145179,0.32167945302436907,1.3205072766117596,0.95659305395925,0.2874464332439728,0.6724333087975543
0.035,1.7705700689404378,1.0,2766.424207457531,0.3254843021933116,1.32011990801528,0.9575134827929094,0.28741694289549835,0.6732246316718391
0.035500000000000004,1.7698679177862857,1.0,2774.0648715583325,0.32926780700666614,1.3197338693582525,0.9583993805917401,0.287387452547024,0.6740122856670916
0.036000000000000004,1.7691657666321334,1.0,2781.571521614872,0.3330300864280999,1.319349132241643,0.959252482361944,0.2873579621985496,0.6747963384455025
0.0365,1.7684636154779814,1.0,2788.946730263207,0.33677125942127994,1.3189656682664173,0.9600744150792225,0.2873284718500752,0.6755768573576463
0.037,1.7677614643238293,1.0,2796.1930977966967,0.3404914449498735,1.3185834490335413,0.9608667056401522,0.2872989815016008,0.6763539094448119
0.0375,1.767059313169677,1.0,2803.313251373806,0.3441907619775477,1.3182024461439807,0.9616307881430464,0.28726949115312644,0.6771275614412853
0.038,1.766357162015525,1.0,2810.309844243197,0.3478693294679697,1.3178226311987014,0.9623680105616449,0.28724000080465206,0.6778978797765761
0.0385,1.7656550108613729,1.0,2817.1841448302866,0.3515272493407606,1.3174439884154032,0.963079638623804,0.2872105104561776,0.6786649050348257
0.039,1.7649528597072208,1.0,2823.9399635990612,0.35516463945224436,1.3170664794546483,0.9637668650123085,0.2871810201077033,0.679428723234168
0.0395,1.7642507085530685,1.0,2830.583270921229,0.3587816451742048,1.3166900469593943,0.964430816779648,0.28715152975922886,0.6801894584083439
0.04,1.7635485573989165,1.0,2837.1166542043193,0.3623783757611161,1.316314664073927,0.9650725521757523,0.2871220394107545,0.6809471724866032
0.0405,1.7628464062447644,1.0,2843.542722191297,0.3659549404674524,1.315940303942532,0.9656930695693942,0.2870925490622801,0.6817019271195809
0.041,1.7621442550906123,1.0,2849.8641043436887,0.36951144854768797,1.3155669397094951,0.9662933114679223,0.2870630587138057,0.682453783681071
0.0415,1.76144210393646,1.0,2856.0834502409,0.373048009256297,1.3151945445191022,0.9668741682267737,0.28703356836533134,0.6832028032697567
0.042,1.760739952782308,1.0,2862.2034289948506,0.3765647318477536,1.314823091515639,0.9674364814756803,0.2870040780168569,0.6839490467108917
0.0425,1.760037801628156,1.0,2868.226728681341,0.38006172557653206,1.314452553843391,0.9679810472859035,0.2869745876683826,0.6846925745579375
0.043000000000000003,1.7593356504740036,1.0,2874.1560557865027,0.38353909969710653,1.3140829046466447,0.9685086191005224,0.28694509731990814,0.6854334470941541
0.043500000000000004,1.7586334993198516,1.0,2879.9941346704823,0.3869969634639512,1.313714117069685,0.9690199104477265,0.28691560697143376,0.6861717243341452
0.044,1.7579313481656995,1.0,2885.743707045838,0.39043542613154025,1.3133461642567985,0.9695155974552023,0.2868861166229594,0.6869074660253554
0.0445,1.7572291970115475,1.0,2891.4075314727024,0.39385459695434794,1.3129790193522703,0.9699963211820405,0.286856626274485,0.6876407316495254
0.045,1.7565270458573952,1.0,2896.9883828697975,0.3972545851868485,1.3126126555003867,0.9704626897830814,0.2868271359260106,0.6883715804240961
0.0455,1.755824894703243,1.0,2902.489052041212,0.40063550008351595,1.312247045845433,0.9709152805192691,0.2867976455775362,0.6891000713035718
0.046,1.755122743549091,1.0,2907.9123452197323,0.40399745089882466,1.3118821635316953,0.9713546416263644,0.28676815522906185,0.6898262629808318
0.0465,1.754420592394939,1.0,2913.2610836249255,0.40734054688724874,1.3115179817034592,0.9717812940532722,0.2867386648805874,0.6905502138884032
0.047,1.7537184412407867,1.0,2918.5346599456234,0.4106648612240662,1.3111545037709134,0.9721957305277582,0.28670917453211303,0.6912719221399128
0.0475,1.7530162900866346,1.0,2923.7360413689103,0.41397050597574375,1.310791701767726,0.972598422671658,0.28667968418363865,0.6919914480622478
0.048,1.7523141389324826,1.0,2928.872251319286,0.4172576373728529,1.3104295122617649,0.9729898223653304,0.28665019383516427,0.692708921928963
0.0485,1.7516119877783303,1.0,2933.9447460058764,0.4205263532248046,1.3100679208756667,0.9733703558787279,0.2866207034866899,0.6934243764153103
0.049,1.7509098366241782,1.0,2938.954989728976,0.42377675134100995,1.3097069132320676,0.9737404293404442,0.28659121313821545,0.6941378440569661
0.0495,1.7502076854700261,1.0,2943.9044546917153,0.42700892953088004,1.309346474953604,0.9741004298731145,0.2865617227897411,0.6948493572505718
0.05,1.749505534315874,1.0,2948.7946208155536,0.4302229856038259,1.3089865916629118,0.9744507266548688,0.2865322324412667,0.6955589482542635
0.0505,1.7488033831617218,1.0,2953.626975562237,0.43341901736925853,1.3086272489826274,0.9747916719122771,0.2865027420927923,0.6962666491881866
0.051000000000000004,1.7481012320075697,1.0,2958.4030137582236,0.436597122636589,1.308268432535387,0.9751236018497869,0.2864732517443179,0.6969724920349984
0.051500000000000004,1.7473990808534177,1.0,2963.1242374250196,0.43975739921522833,1.3079101279438272,0.9754468375202399,0.28644376139584354,0.697676508640357
0.052000000000000005,1.7466969296992654,1.0,2967.792155613758,0.4428999449145876,1.3075523208305841,0.9757616856406954,0.28641427104736916,0.6983787307133975
0.0525,1.7459947785451133,1.0,2972.4082842441576,0.44602485754407784,1.3071949968182939,0.9760684393574434,0.2863847806988947,0.6990791898271953
0.053,1.7452926273909612,1.0,2976.9741459486113,0.4491322349131101,1.3068381415295927,0.9763673789637861,0.2863552903504204,0.6997779174192145
0.0535,1.7445904762368092,1.0,2981.49126991976,0.4522221748310954,1.3064817405871172,0.9766587725738917,0.28632580000194596,0.7004749447917442
0.054,1.743888325082657,1.0,2985.9611917642274,0.45529477510744487,1.3061257796135033,0.9769428767557548,0.2862963096534716,0.701170303112324
0.0545,1.7431861739285048,1.0,2990.3854533594285,0.45835013355156945,1.3057702442313874,0.9772199371260792,0.2862668193049972,0.7018640234141509
0.055,1.7424840227743528,1.0,2994.7656027159237,0.46138834797288025,1.3054151200634057,0.9774901889096729,0.2862373289565228,0.7025561365964781
0.0555,1.7417818716202007,1.0,2999.1031938440437,0.4644095161807883,1.3050603927321947,0.97775385746575,0.28620783860804844,0.7032466734249974
0.056,1.7410797204660484,1.0,3003.3997866248233,0.46741373598470465,1.3047060478603905,0.9780111587833626,0.286178348259574,0.7039356645322112
0.0565,1.7403775693118964,1.0,3007.656946686383,0.4704011051940403,1.3043520710706291,0.9782622999480064,0.2861488579110997,0.7046231404177894
0.057,1.7396754181577443,1.0,3011.876245283371,0.47337172161820634,1.3039984479855473,0.9785074795813051,0.28611936756262524,0.705309131448911
0.0575,1.738973267003592,1.0,3016.0592591830955,0.4763256830666138,1.3036451642277809,0.9787468882555324,0.28608987721415086,0.7059936678605994
0.058,1.73827111584944,1.0,3020.2042300539624,0.4792630297587485,1.3032922342855662,0.9789807055486837,0.2860603868656765,0.7066767239224148
0.0585,1.7375689646952879,1.0,3024.315168619902,0.4821839178841046,1.3029396227972443,0.9792091110478026,0.2860308965172021,0.7073583703426765
0.059000000000000004,1.7368668135411358,1.0,3028.393210584047,0.4850884429724664,1.3025873193132713,0.9794322734373017,0.2860014061687277,0.7080386294349758
0.059500000000000004,1.7361646623869835,1.0,3032.439042741455,0.48797669191520776,1.302235317289029,0.979650354299822,0.2859719158202533,0.7087175158903058
0.06,1.7354625112328315,1.0,3036.4533545265845,0.4908487516037025,1.3018836101798996,0.9798635089580454,0.28594242547177895,0.7093950443391276
0.0605,1.7347603600786794,1.0,3040.436837969125,0.4937047089293245,1.301532191441265,0.9800718867656573,0.2859129351233045,0.7100712293514935
0.061,1.7340582089245271,1.0,3044.3901876528216,0.4965446507834475,1.301181054528507,0.9802756313826241,0.28588344477483013,0.7107460854371701
0.0615,1.733356057770375,1.0,3048.314100673173,0.4993686640574454,1.3008301928970076,0.9804748810357432,0.28585395442635575,0.7114196270457563
0.062,1.732653906616223,1.0,3052.2092765974253,0.5021768356426919,1.3004796000021492,0.9806697687653614,0.28582446407788137,0.7120918685667997
0.0625,1.731951755462071,1.0,3056.0764174250335,0.5049692524305609,1.3001292692993134,0.9808604226590913,0.285794973729407,0.7127628243299114
0.063,1.7312496043079186,1.0,3059.9162275491076,0.5077460013124262,1.2997791942438823,0.9810469660733082,0.28576548338093255,0.7134325086048746
0.0635,1.7305474531537666,1.0,3063.72941371912,0.5105071691796615,1.299429368291238,0.9812295178431478,0.2857359930324582,0.7141009356017546
0.064,1.7298453019996145,1.0,3067.5166850036258,0.5132528429236409,1.2990797848967621,0.9814081924816855,0.2857065026839838,0.7147681194710029
0.0645,1.7291431508454624,1.0,3071.278752755353,0.515983109435738,1.298730437515837,0.9815831003689272,0.2856770123355094,0.7154340743035605
0.065,1.7284409996913102,1.0,3075.0163305760325,0.5186980556073266,1.2983813196038445,0.9817543479312075,0.285647521987035,0.7160988141309579
0.0655,1.727738848537158,1.0,3078.7301342825917,0.5213977683297807,1.2980324246161667,0.9819220378115451,0.28561803163856064,0.716762352925411
0.066,1.727036697383006,1.0,3082.420881874712,0.524082334494474,1.2976837460081856,0.9820862690314702,0.28558854129008626,0.7174247045999173
0.0665,1.7263345462288537,1.0,3086.089293502437,0.5267518409927802,1.297335277235283,0.9822471371448179,0.2855590509416118,0.7180858830083461
0.067,1.7256323950747017,1.0,3089.7360914359124,0.5294063747160733,1.296987011752841,0.9824047343839304,0.2855295605931375,0.7187459019455289
0.0675,1.7249302439205496,1.0,3093.362000034502,0.5320460225557271,1.2966389430162417,0.9825591497987011,0.28550007024466306,0.7194047751473434
0.068,1.7242280927663975,1.0,3096.9674380818656,0.5346708600201658,1.296291067106038,0.9827104687882221,0.2854705798961887,0.7200625113302466
0.0685,1.7235259416122453,1.0,3100.552052955903,0.5372809419964085,1.2959433866929015,0.9828587728720376,0.2854410895477143,0.72071910673704
0.069,1.7228237904580932,1.0,3104.1176692132785,0.53987640533302,1.2955958858862795,0.9830041450735701,0.2854115991992399,0.721374592624699
0.0695,1.7221216393039411,1.0,3107.6646142431714,0.5424573273703651,1.295248561587885,0.9831466625247325,0.28538210885076554,0.7220289760213165
0.07,1.721419488149789,1.0,3111.1932164748364,0.5450237854488089,1.2949014106994314,0.9832863998018031,0.28535261850229116,0.7226822639269301
0.07050000000000001,1.7207173369956368,1.0,3114.70380536576,0.5475758569087162,1.294554430122632,0.9834234290275016,0.2853231281538168,0.7233344633135572
