Time [s],Phi [rad],STIM [ ],Fsee [N],Gamma [ ],Lcerel [ ],q [ ],Lmtc [m],fisomrel [ ]
0.0,1.8,1.0,17.96848789562971,1.0244891280802164e-05,1.3793395972484659,0.005000027967762742,0.288653,0.5411398914520782
0.0005,1.79999375,1.0,18.27777933177944,0.005619396734336765,1.3793022728021498,0.012941191711783522,0.2886527375,0.5412301844614908
0.001,1.799975,1.0,21.61950853760193,0.011197085670475128,1.3789381870107995,0.03560984568318646,0.28865195,0.5421104924265572
0.0015,1.79994375,1.0,31.070650294624567,0.016743488182586343,1.3780460832376649,0.07060344000055002,0.2886506375,0.5442638997087391
0.002,1.7999,1.0,53.58432888739543,0.022258779761913337,1.376368005762915,0.1147198906793413,0.2886488,0.5483007788203008
0.0025,1.79984375,1.0,97.12147216479008,0.02774313491560875,1.3739350451279702,0.1645769100270026,0.28864643749999996,0.5541217539067058
0.003,1.7997750000000001,1.0,160.96122330267832,0.03319672717445722,1.3712142293497918,0.2172825365041496,0.28864354999999997,0.5605867217099496
0.0035,1.79969375,1.0,237.68663993821232,0.038619729092463626,1.3685846323261837,0.2706149610512718,0.2886401375,0.5667900791229976
0.004,1.7996,1.0,321.4702105861402,0.04401231225763606,1.3661560013038863,0.32291780953041277,0.2886362,0.5724801744551928
0.0045000000000000005,1.7994937500000001,1.0,409.27127279001996,0.04937464729717026,1.363922731491974,0.3730364146281285,0.2886317375,0.5776793542838667
0.005,1.799375,1.0,499.41705381736716,0.05470690386853352,1.3618582669171881,0.42024924618104703,0.28862675,0.5824572533918655
0.0055,1.79924375,1.0,590.7939771279206,0.06000925070697165,1.3599387654845296,0.4641753524209418,0.2886212375,0.5868752713694922
0.006,1.7991000000000001,1.0,682.5216443793045,0.06528185556857363,1.3581463504714817,0.5046814835936281,0.2886152,0.5909795651911945
0.006500000000000001,1.79894375,1.0,773.8848293892826,0.07052488528595899,1.356467192649016,0.5418021520498495,0.2886086375,0.594805932923882
0.007,1.798775,1.0,864.2892813806119,0.07573850575184438,1.354890338941948,0.57567805121993,0.28860155,0.5983828039721597
0.0075,1.79859375,1.0,953.2467078794457,0.08092288192878978,1.3534067254734146,0.6065110717919232,0.2885939375,0.601733693846169
0.008,1.7984,1.0,1040.3467778015017,0.08607817738652593,1.3520088182622882,0.6345332411462441,0.2885858,0.6048781628366944
0.0085,1.79819375,1.0,1125.3162957600766,0.09120455633681575,1.3506892122197465,0.6599854030975686,0.2885771375,0.6078350651552731
0.009000000000000001,1.797975,1.0,1207.9038931912883,0.09630218077198388,1.3494419843222145,0.6831050624958405,0.28856795,0.6106195777836518
0.0095,1.79774375,1.0,1287.8976717727323,0.10137121110938474,1.348262051473009,0.7041182564955576,0.2885582375,0.6132447178055205
0.01,1.7975,1.0,1365.1713054794145,0.10641180776637284,1.3471443305754478,0.7232349437490325,0.288548,0.6157232581292227
0.0105,1.79724375,1.0,1439.6594711000737,0.11142413078052232,1.346083946739046,0.7406473390187023,0.2885372375,0.6180672889334349
0.011,1.796975,1.0,1511.3204142149366,0.11640833898913484,1.3450765756304703,0.7565297586120557,0.28852595000000003,0.6202874902778963
0.0115,1.79669375,1.0,1580.120402253352,0.12136458958283662,1.3441184903485766,0.7710391802442463,0.2885141375,0.6223930631384459
0.012,1.7964,1.0,1646.0592380276687,0.1262930392565129,1.3432061388879397,0.7843160981359888,0.28850180000000003,0.6243926856812252
0.0125,1.79609375,1.0,1709.174743193194,0.13119384450296862,1.342336025966136,0.7964857998464684,0.2884889375,0.6262947873906664
0.013000000000000001,1.7957750000000001,1.0,1769.5053688757164,0.13606716039604186,1.341505086136224,0.8076599370558257,0.28847555,0.628106747905262
0.0135,1.79544375,1.0,1827.0890727968458,0.1409131404977813,1.3407106223593317,0.8179378812273821,0.2884616375,0.6298350504193778
0.014,1.7951000000000001,1.0,1881.9890671002393,0.1457319381693818,1.3399499648644526,0.8274079180368592,0.2884472,0.6314860375913821
0.0145,1.79474375,1.0,1934.2844870672004,0.15052370618296962,1.3392205437221143,0.83614851981188,0.2884322375,0.633065761214519
0.015,1.794375,1.0,1984.0601506024843,0.1552885971274741,1.3385199676620747,0.8442295024759018,0.28841675,0.6345798198152676
0.0155,1.79399375,1.0,2031.376905417386,0.1600267605771838,1.3378463046573,0.8517131226160529,0.2884007375,0.636032762848874
0.016,1.7936,1.0,2076.31152986613,0.16473834610638724,1.337197622680756,0.8586548186780077,0.2883842,0.6374290920231074
0.0165,1.7931937500000001,1.0,2118.9537043848864,0.16942350312334115,1.3365720069881926,0.865104024349854,0.2883671375,0.638773227397768
0.017,1.792775,1.0,2159.3896699557877,0.17408237970010929,1.335967713320074,0.8711049236195204,0.28834955,0.6400691824186242
0.0175,1.7923437500000001,1.0,2197.7221473213162,0.17871512526859595,1.335382946719065,0.8766970089523107,0.2883314375,0.641321042889148
0.018000000000000002,1.7919,1.0,2234.0172915196763,0.18332188485240913,1.33481638641488,0.8819157702190568,0.2883128,0.6425318475385258
0.0185,1.79144375,1.0,2268.3494740460364,0.18790280347515678,1.334266711637234,0.8867930350068541,0.2882936375,0.6437046093470353
0.019,1.790975,1.0,2300.800603737114,0.19245802616044694,1.333732601615842,0.891357392820502,0.28827395,0.6448423170239852
0.0195,1.79049375,1.0,2331.4536252563835,0.19698769714327852,1.3332127932240219,0.8956345799883262,0.2882537375,0.6459478138770576
0.02,1.79,1.0,2360.393584536601,0.2014919606804399,1.3327060629096545,0.8996477994080423,0.288233,0.6470238383391487
0.0205,1.78949375,1.0,2387.702634387825,0.2059709604156409,1.3322112688405818,0.9034180136254201,0.2882117375,0.6480729364009269
0.021,1.788975,1.0,2413.4419943971893,0.21042483650354352,1.331727518351799,0.906964227366995,0.28818995000000003,0.649097109592337
0.021500000000000002,1.78844375,1.0,2437.6767795284377,0.21485372909880981,1.3312539187783015,0.9103036490552409,0.2881676375,0.6500983459630691
0.022,1.7879,1.0,2460.475678657012,0.21925777835610177,1.3307895774550846,0.913451885351144,0.2881448,0.6510786206858628
0.0225,1.78734375,1.0,2481.910279481078,0.2236371243617844,1.3303336052563708,0.9164231130743312,0.28812143749999997,0.6520398891528323
0.023,1.786775,1.0,2502.0395770983114,0.2279919043261557,1.3298852608800844,0.9192302563922211,0.28809755,0.6529837839734651
0.0235,1.78619375,1.0,2520.9481841347992,0.2323222601319288,1.3294435841438446,0.9218850514480326,0.28807313749999996,0.6539123879670204
0.024,1.7856,1.0,2538.6841208786805,0.23662832677698498,1.3290079841459796,0.9243982711625203,0.2880482,0.6548269973475728
0.0245,1.78499375,1.0,2555.297230577913,0.24091023925920552,1.328577869984818,0.9267797584446833,0.2880227375,0.6557289010084184
0.025,1.784375,1.0,2570.8390297403857,0.24516813257647177,1.3281526507586883,0.929038519231934,0.28799675,0.6566193807399439
0.025500000000000002,1.78374375,1.0,2585.3625661753845,0.24940214172666503,1.3277317355659184,0.9311828050917551,0.2879702375,0.6574997114252263
0.026000000000000002,1.7831000000000001,1.0,2598.918668608724,0.2536124012885882,1.3273145671900644,0.9332201919865961,0.2879432,0.6583710908966227
0.0265,1.78244375,1.0,2611.545057920177,0.25779904323977226,1.3269007217015216,0.9351576598596724,0.2879156375,0.6592344328795419
0.027,1.781775,1.0,2623.3338511206816,0.261962204641045,1.3264892800370314,0.9370015541910172,0.28788755,0.6600916773625667
0.0275,1.7810937500000001,1.0,2634.3109113012865,0.2661020150341222,1.3260799486964856,0.938757812168806,0.2878589375,0.6609434536291369
0.028,1.7804,1.0,2644.502776546778,0.2702186039607193,1.325672434179777,0.9404319080851591,0.2878298,0.6617903878042692
0.0285,1.77969375,1.0,2653.936610423148,0.2743121009625521,1.3252664429867975,0.9420288954932784,0.2878001375,0.662633102891315
0.029,1.778976584779374,1.0,2662.7179234945875,0.2783826355813363,1.32486168161744,0.9435534450183749,0.2877700165607337,0.6634722188032178
0.029500000000000002,1.7782578791804058,1.0,2671.33611762844,0.28243033735878753,1.3244578565715965,0.945009878317641,0.28773983092557703,0.6643083523882822
0.03,1.7775391735814376,1.0,2679.8938671699084,0.2864553337480147,1.3240547137344703,0.9464022031589525,0.28770964529042037,0.6651420360537963
0.0305,1.7768204679824693,1.0,2688.3635658623098,0.2904577544229261,1.3236525026831878,0.9477342026258991,0.2876794596552637,0.6659727599072357
0.031,1.7761017623835011,1.0,2696.732554926369,0.294437726843337,1.3232513347780677,0.9490093688388833,0.28764927402010704,0.6668003015439976
0.0315,1.7753830567845328,1.0,2704.9983287402088,0.2983953751273986,1.3228512280449143,0.9502309333510213,0.28761908838495037,0.667624631855519
0.032,1.7746643511855646,1.0,2713.1583770135803,0.30233082339326217,1.322452200509532,0.9514019016936239,0.2875889027497937,0.6684457218959201
0.0325,1.7739456455865965,1.0,2721.2101852155074,0.3062441957590788,1.3220542701977247,0.9525250719562223,0.28755871711463704,0.6692635428807747
0.033,1.7732269399876281,1.0,2729.151235008907,0.3101356163429998,1.321657455135297,0.9536030516267473,0.2875285314794804,0.6700780661858556
0.0335,1.77250823438866,1.0,2736.9790046931635,0.3140052092631764,1.3212617733480532,0.9546382728732928,0.2874983458443237,0.6708892633458677
0.034,1.7717895287896919,1.0,2744.6949018770133,0.3178530875323648,1.3208672072184284,0.9556329994811514,0.28746816020916705,0.6716971789918562
0.0345,1.7710708231907235,1.0,2752.2942810180984,0.3216793894568649,1.320473794096095,0.9565893596752508,0.2874379745740104,0.6725017452093547
0.035,1.7703521175917554,1.0,2759.777954254233,0.3254842346039977,1.3200815218674493,0.9575093337068397,0.2874077889388537,0.6733029954050305
0.035500000000000004,1.769633411992787,1.0,2767.1474004565434,0.32926774035116274,1.31969037254427,0.9583947742551141,0.28737760330369705,0.6741009748166643
0.036000000000000004,1.7689147063938189,1.0,2774.404117593658,0.33303002407575927,1.3193003281383362,0.9592474172181829,0.2873474176685404,0.6748957284781596
0.0365,1.7681960007948507,1.0,2781.5496222874835,0.3367712031551867,1.318911370661427,0.9600688904092719,0.2873172320333837,0.6756873012208224
0.037,1.7674772951958824,1.0,2788.5854493762863,0.34049139496684466,1.3185234821253216,0.9608607215114563,0.28728704639822705,0.6764757376746173
0.0375,1.7667585895969142,1.0,2795.5131514845198,0.34419071688813235,1.3181366445417986,0.9616243453617095,0.2872568607630704,0.6772610822694047
0.038,1.766039883997946,1.0,2802.334298600288,0.3478692862964492,1.3177508399226372,0.9623611106276141,0.2872266751279137,0.6780433792361562
0.0385,1.7653211783989777,1.0,2809.0504776596895,0.35152722056919466,1.3173660502796167,0.9630722859334938,0.28719648949275706,0.6788226726081499
0.039,1.7646024728000096,1.0,2815.663292138493,0.35516463708376816,1.3169822576245158,0.9637590654868808,0.2871663038576004,0.6795990062221464
0.0395,1.7638837672010412,1.0,2822.1736267396723,0.35878163421472475,1.316599450538584,0.964422571229267,0.2871361182224437,0.680372410454932
0.04,1.763165061602073,1.0,2828.5842289356087,0.3623783296397221,1.3162176010811903,0.9650638630685792,0.28710593258728706,0.6811429488726313
0.0405,1.762446356003105,1.0,2834.8989779745543,0.36595487024423573,1.3158366713993934,0.9656839452398854,0.2870757469521304,0.6819107047173201
0.041,1.7617276504041366,1.0,2841.1199153385155,0.36951136384741623,1.3154566402335037,0.9662837600260076,0.28704556131697373,0.6826757274636155
0.0415,1.7610089448051685,1.0,2847.2490984208216,0.37304791826841427,1.3150774863238306,0.9668641975797803,0.28701537568181706,0.6834380663643378
0.042,1.7602902392062003,1.0,2853.2886001074066,0.37656464132638046,1.3146991884106844,0.9674260993480888,0.2869851900466604,0.6841977704517109
0.0425,1.759571533607232,1.0,2859.2405083684835,0.3800616408404653,1.314321725234375,0.9679702612371697,0.28695500441150373,0.6849548885385397
0.043000000000000003,1.7588528280082638,1.0,2865.1069258599064,0.3835390246298194,1.3139450755352127,0.9684974365411706,0.28692481877634707,0.6857094692193546
0.043500000000000004,1.7581341224092955,1.0,2870.8899695350574,0.3869969005135934,1.3135692180535068,0.9690083386538977,0.2868946331411904,0.6864615608715317
0.044,1.7574154168103273,1.0,2876.5917702658408,0.3904353763109379,1.3131941315295679,0.9695036435818228,0.28686444750603374,0.6872112116563767
0.0445,1.7566967112113592,1.0,2882.2144724748864,0.3938545598410035,1.3128197947037057,0.9699839922747525,0.28683426187087707,0.6879584695201895
0.045,1.7559780056123908,1.0,2887.760233776819,0.3972545589229407,1.3124461863162302,0.9704499927890667,0.2868040762357204,0.6887033821952919
0.0455,1.7552593000134227,1.0,2893.2312246298616,0.4006354813759002,1.3120732851074512,0.9709022222970791,0.28677389060056374,0.6894459972010314
0.046,1.7545405944144545,1.0,2898.6296279977587,0.4039974350190326,1.311701069817679,0.9713412289548596,0.2867437049654071,0.6901863618447526
0.0465,1.7538218888154862,1.0,2903.9576390210786,0.4073405276714885,1.3113295191872234,0.9717675336397615,0.2867135193302504,0.6909245232227432
0.047,1.753103183216518,1.0,2909.217464699284,0.41066486715241834,1.3109586119563945,0.9721816315679034,0.28668333369509374,0.6916605282211494
0.0475,1.7523844776175497,1.0,2914.411323582243,0.4139705612809729,1.310588326865502,0.9725839938009665,0.2866531480599371,0.6923944235168624
0.048,1.7516657720185815,1.0,2919.5414454719357,0.4172577178763027,1.3102186426548563,0.9729750686508526,0.2866229624247804,0.6931262555783755
0.0485,1.7509470664196134,1.0,2924.6055975495656,0.4205263857483824,1.3098495773481815,0.9733552784556111,0.28659277678962375,0.6938559930393918
0.049,1.750228360820645,1.0,2929.6106679505915,0.4237767341790678,1.309481068904223,0.9737250348321594,0.2865625911544671,0.6945837627228943
0.0495,1.749509655221677,1.0,2934.559010577616,0.42700887439346347,1.3091130952615195,0.9740847256829976,0.2865324055193104,0.6953096120466924
0.05,1.7487909496227088,1.0,2939.451872612057,0.43022290303340244,1.3087456441438747,0.9744347198444244,0.28650221988415375,0.6960335689482904
0.0505,1.7480722440237404,1.0,2944.290507748093,0.43341891674071786,1.308378703275092,0.9747753692229857,0.2864720342489971,0.6967556612448111
0.051000000000000004,1.7473535384247723,1.0,2949.076176051909,0.43659701215724295,1.3080122603789746,0.975107009723384,0.2864418486138404,0.6974759166334017
0.051500000000000004,1.746634832825804,1.0,2953.810143824757,0.43975728592481067,1.307646303179326,0.9754299621175849,0.28641166297868376,0.6981943626916272
0.052000000000000005,1.7459161272268358,1.0,2958.493683468987,0.4428998346852542,1.3072808193999492,0.9757445328593422,0.2863814773435271,0.6989110268778564
0.0525,1.7451974216278676,1.0,2963.1280733572476,0.4460247550804066,1.3069157967646479,0.9760510148480092,0.2863512917083704,0.6996259365316371
0.053,1.7444787160288993,1.0,2967.71459770581,0.4491321437521011,1.3065512229972251,0.976349688145216,0.28632110607321376,0.7003391188740611
0.0535,1.7437600104299311,1.0,2972.2545464502823,0.4522220973421707,1.3061870858214846,0.9766408206476962,0.2862909204380571,0.7010506010081213
0.054,1.743041304830963,1.0,2976.749215125344,0.4552947124924487,1.3058233729612292,0.976924668719302,0.28626073480290043,0.7017604099190591
0.0545,1.7423225992319946,1.0,2981.199904747482,0.45835008584476794,1.3054600721402627,0.9772014777850113,0.28623054916774376,0.7024685724746986
0.055,1.7416038936330265,1.0,2985.607921701274,0.4613883140409617,1.3050971710823882,0.9774714828895105,0.2862003635325871,0.7031751154257779
0.0555,1.7408851880340581,1.0,2989.97457762877,0.46440949372286305,1.3047346575114092,0.9777349092227456,0.28617017789743043,0.7038800654062634
0.056,1.74016648243509,1.0,2994.3011893224275,0.46741372153230515,1.3043725191511288,0.9779919726146568,0.28613999226227377,0.7045834489336598
0.0565,1.7394477768361218,1.0,2998.5890786213113,0.4704010941111211,1.3040107437253505,0.978242880001138,0.2861098066271171,0.7052852924093088
0.057,1.7387290712371535,1.0,3002.8395723107437,0.47337170810114393,1.3036493189578777,0.9784878298631222,0.28607962099196044,0.7059856221186769
0.0575,1.7380103656381853,1.0,3007.054002024916,0.47632566014420685,1.3032882325725137,0.9787270126405444,0.28604943535680377,0.7066844642316354
0.058,1.7372916600392172,1.0,3011.233704153425,0.4792630468821429,1.3029274722930617,0.9789606111228135,0.2860192497216471,0.7073818448027307
0.0585,1.7365729544402488,1.0,3015.3798028198657,0.4821839602137049,1.3025670277193453,0.979188800520368,0.28598906408649044,0.708077786151406
0.059000000000000004,1.7358542488412807,1.0,3019.4908063343314,0.48508844109859234,1.3022069110918175,0.9794117461362334,0.2859588784513338,0.7087722668633365
0.059500000000000004,1.7351355432423123,1.0,3023.5708229641064,0.48797665589608125,1.301847086260752,0.9796296145408567,0.2859286928161771,0.7094653587879276
0.06,1.7344168376433442,1.0,3027.6204611646854,0.4908486905250408,1.3014875473844343,0.9798425608414182,0.28589850718102044,0.7101570751661942
0.0605,1.733698132044376,1.0,3031.640331754181,0.4937046309043405,1.30112828862115,0.980050734187315,0.2858683215458638,0.7108474291839841
0.061,1.7329794264454077,1.0,3035.6310478767678,0.4965445629528496,1.3007693041291843,0.980254278044787,0.2858381359107071,0.7115364339720862
0.0615,1.7322607208464396,1.0,3039.5932249667826,0.49936857258943745,1.3004105880668233,0.9804533304568561,0.28580795027555045,0.712224102606331
0.062,1.7315420152474714,1.0,3043.5274807134065,0.5021767457329733,1.3000521345923524,0.9806480242894734,0.2857777646403938,0.7129104481076941
0.0625,1.730823309648503,1.0,3047.434435026619,0.5049691683023265,1.2996939378640568,0.9808384874647026,0.2857475790052371,0.7135954834423943
0.063,1.730104604049535,1.0,3051.3147100031556,0.5077459262163665,1.2993359920402225,0.9810248431817145,0.28571739337008045,0.7142792215219893
0.0635,1.7293858984505666,1.0,3055.1689298939737,0.5105071053939625,1.2989782912791348,0.9812072101263174,0.2856872077349238,0.7149616752034721
0.064,1.7286671928515984,1.0,3058.9977210719994,0.5132527917539838,1.2986208297390793,0.9813857026696956,0.2856570220997671,0.7156428572893616
0.0645,1.7279484872526303,1.0,3062.8017120006225,0.5159830712152997,1.2982636015783415,0.9815604310569901,0.28562683646461046,0.7163227805277945
0.065,1.727229781653662,1.0,3066.5815332034435,0.5186980296967797,1.297906600955207,0.9817315015863085,0.2855966508294538,0.7170014576126119
0.0655,1.7265110760546938,1.0,3070.337817234073,0.5213977531172931,1.2975498220279613,0.9818990167787164,0.2855664651942971,0.7176789011834457
0.066,1.7257923704557256,1.0,3074.0711986471433,0.5240823273957089,1.29719325895489,0.9820630755397283,0.28553627955914046,0.7183551238258026
0.0665,1.7250736648567573,1.0,3077.782313970116,0.5267518384508969,1.2968369058942788,0.9822237733127762,0.2855060939239838,0.719030138071145
0.067,1.7243549592577891,1.0,3081.47180167556,0.529406372201726,1.296480757004413,0.9823812022251147,0.28547590828882713,0.7197039563969714
0.0675,1.7236362536588208,1.0,3085.1403021543665,0.5320460145670659,1.2961248064435782,0.9825354512265799,0.28544572265367046,0.720376591226892
0.068,1.7229175480598526,1.0,3088.788457689645,0.5346708514657856,1.29576904837006,0.9826866062216043,0.2854155370185138,0.7210480549307052
0.0685,1.7221988424608845,1.0,3092.4169124314876,0.5372809688167546,1.295413476942144,0.9828347501948592,0.28538535138335713,0.7217183598244687
0.069,1.7214801368619161,1.0,3096.026226756466,0.5398764489156426,1.2950580870488164,0.9829799631401046,0.28535516574820047,0.7223875167955774
0.0695,1.720761431262948,1.0,3099.6156837361464,0.5424573267530188,1.2947028844879018,0.9831223199801823,0.2853249801130438,0.7230555161814745
0.07,1.7200427256639799,1.0,3103.1871783203947,0.5450237508344928,1.2943478527800463,0.9832618990434441,0.28529479447788714,0.7237223901906129
0.07050000000000001,1.7193240200650115,1.0,3106.74100491541,0.5475757975023897,1.2939929891220658,0.9833987723180015,0.28526460884273047,0.7243881452393905
