Time [s],Phi [rad],STIM [ ],Fsee [N],Gamma [ ],Lcerel [ ],q [ ],Lmtc [m],fisomrel [ ]
0.0,1.8,1.0,17.967766281722874,1.0380576694975596e-05,1.3793396780911764,0.005000028710514766,0.288653,0.5411396958727126
0.0005,1.79999375,1.0,18.27717015022714,0.005619531658663385,1.37930234046901,0.01294156987899963,0.2886527375,0.5412300207740156
0.001,1.799975,1.0,21.619039797285744,0.011197219837982733,1.3789382348847352,0.0356105574838938,0.28865195,0.5421103767297234
0.0015,1.79994375,1.0,31.0704007453479,0.016743621597520637,1.378046104497965,0.07060441601302514,0.2886506375,0.5442638484499799
0.002,1.7999,1.0,53.58449609021882,0.02225891242849497,1.3763679949158623,0.11472104707057403,0.2886488,0.5483008048565481
0.0025,1.79984375,1.0,97.12219669126381,0.027743266838035983,1.3739350102152892,0.16457816728737187,0.28864643749999996,0.5541218371661083
0.003,1.7997750000000001,1.0,160.96240149869917,0.03319685835690386,1.371214185249293,0.21728383226087186,0.28864354999999997,0.5605868261151263
0.0035,1.79969375,1.0,237.68810670906,0.03861985953908018,1.3685845871461457,0.27061624867148487,0.2886401375,0.5667901853262287
0.004,1.7996,1.0,321.4718615225569,0.04401244197255008,1.3661559575771764,0.322919055426609,0.2886362,0.5724802765648628
0.0045000000000000005,1.7994937500000001,1.0,409.2730486609863,0.049374776284486846,1.3639226898057382,0.37303759666914604,0.2886317375,0.5776794510349378
0.005,1.799375,1.0,499.4189202136551,0.054707032132339815,1.3618582272566,0.4202503515466791,0.28862675,0.5824573449193586
0.0055,1.79924375,1.0,590.7958991937172,0.06000937825130884,1.3599387279321689,0.46417637546188284,0.2886212375,0.5868753575719774
0.006,1.7991000000000001,1.0,682.5236065632065,0.06528198239748374,1.3581463148043191,0.5046824234085454,0.2886152,0.590979646658436
0.006500000000000001,1.79894375,1.0,773.886871061948,0.07052501140337822,1.3564671577964276,0.5418030104185095,0.2886086375,0.5948060121573241
0.007,1.798775,1.0,864.2910942409147,0.075738631161905,1.3548903096585192,0.5756788355637826,0.28860155,0.5983828702502563
0.0075,1.79859375,1.0,953.2483274759262,0.08092300663558609,1.353406700562403,0.6065117867258708,0.2885939375,0.6017337499923341
0.008,1.7984,1.0,1040.3559398931307,0.08607830172041535,1.3520086833684881,0.6345338256906006,0.2885858,0.6048784656670392
0.0085,1.79819375,1.0,1125.3228599140714,0.0912046799806791,1.3506891192956811,0.659985953635451,0.2885771375,0.6078352729834806
0.009000000000000001,1.797975,1.0,1207.8919165445634,0.09630230322254561,1.349442147969009,0.6831057012674092,0.28856795,0.6106192130829247
0.0095,1.79774375,1.0,1287.8760968516956,0.10137133263801477,1.3482623369675002,0.704118907157446,0.2885582375,0.613244083705151
0.01,1.7975,1.0,1365.1628417176973,0.10641192887148629,1.3471444393576644,0.7232354531772468,0.288548,0.6157230172928982
0.0105,1.79724375,1.0,1439.6637967453821,0.11142425157361475,1.3460838926003154,0.7406477261231894,0.2885372375,0.6180674084267008
0.011,1.796975,1.0,1511.3182508944574,0.11640845886583034,1.3450766020563907,0.7565301485136295,0.28852595000000003,0.6202874321212226
0.0115,1.79669375,1.0,1580.1026530205395,0.12136470808248054,1.3441187023911632,0.7710396204646963,0.2885141375,0.6223925977825959
0.012,1.7964,1.0,1646.0535828413942,0.12629315764797147,1.34320620508092,0.7843164427509396,0.28850180000000003,0.6243925407970458
0.0125,1.79609375,1.0,1709.1810197223283,0.13119396286713364,1.3423359538697832,0.7964860603713187,0.2884889375,0.6262949447961278
0.013000000000000001,1.7957750000000001,1.0,1769.506300757863,0.1360672779367113,1.3415050756160631,0.8076601998058107,0.28847555,0.6281067708178157
0.0135,1.79544375,1.0,1827.082338341783,0.1409132570534487,1.3407106971780696,0.8179381553834546,0.2884616375,0.629834887845771
0.014,1.7951000000000001,1.0,1881.9809091600846,0.1457320538778551,1.3399500541661713,0.8274081769460423,0.2884472,0.6314858439809222
0.0145,1.79474375,1.0,1934.2840132388326,0.15052382175992327,1.3392205488383238,0.8361487309975054,0.2884322375,0.6330657501461301
0.015,1.794375,1.0,1984.0593744739783,0.155288711923262,1.3385199759366102,0.8442296988007023,0.28841675,0.634579801951138
0.0155,1.79399375,1.0,2031.3737332137416,0.16002687439449897,1.3378463380809096,0.85171331243796,0.2884007375,0.6360326908332901
0.016,1.7936,1.0,2076.310070387048,0.16473845920026203,1.3371976378911012,0.8586549893475534,0.2883842,0.6374290593133347
0.0165,1.7931937500000001,1.0,2118.9496862397446,0.1694236152225911,1.3365720484408588,0.8651041907015748,0.2883671375,0.6387731384194013
0.017,1.792775,1.0,2159.3987040359393,0.1740824924631337,1.335967620998042,0.8711050412726556,0.28834955,0.6400693802325128
0.0175,1.7923437500000001,1.0,2197.7299730454292,0.17871523733331401,1.3353828674460941,0.8766971214562639,0.2883314375,0.6413212124478178
0.018000000000000002,1.7919,1.0,2234.017628304031,0.18332199561974657,1.334816383031148,0.8819158945631749,0.2883128,0.6425318547638382
0.0185,1.79144375,1.0,2268.3443228255046,0.18790291310904594,1.3342667629993354,0.8867931651284818,0.2882936375,0.6437044998531445
0.019,1.790975,1.0,2300.7939438600692,0.19245813475606907,1.3337326675505992,0.8913575183432579,0.28827395,0.6448421766886521
0.0195,1.79049375,1.0,2331.4553741575455,0.19698780596819782,1.333212776023597,0.8956346785824529,0.2882537375,0.6459478504293629
0.02,1.79,1.0,2360.4066686167366,0.20149207034885833,1.3327059350193096,0.8996478669561353,0.288233,0.647024109703211
0.0205,1.78949375,1.0,2387.7131170188136,0.20597106912397728,1.332211166965709,0.9034180819904549,0.2882117375,0.6480731522426078
0.021,1.788975,1.0,2413.4444835146896,0.2104249435194813,1.3317274942907678,0.9069643074814775,0.28818995000000003,0.6490971604960736
0.021500000000000002,1.78844375,1.0,2437.674633192328,0.21485383476129702,1.3312539394224578,0.910303733434673,0.2881676375,0.6500983023504548
0.022,1.7879,1.0,2460.4723087763505,0.21925788232857885,1.3307896097171754,0.9134519666976462,0.2881448,0.6510785526248686
0.0225,1.78734375,1.0,2481.914777605189,0.22363722813791842,1.3303335623792538,0.9164231752155649,0.28812143749999997,0.6520399794828815
0.023,1.786775,1.0,2502.0643904019644,0.22799201077776002,1.3298850253080112,0.9192302794501425,0.28809755,0.6529842795839694
0.0235,1.78619375,1.0,2520.974826854742,0.23232236645351292,1.3294433321541206,0.9218850693630842,0.28807313749999996,0.6539129174081307
0.024,1.7856,1.0,2538.7019009706687,0.23662843137058648,1.3290078165682555,0.9243983018747536,0.2880482,0.654827348969991
0.0245,1.78499375,1.0,2555.3033814848914,0.24091034173438997,1.3285778122010892,0.9267798056084655,0.2880227375,0.6557290220954903
0.025,1.784375,1.0,2570.838822114344,0.24516823375033273,1.328152652703295,0.9290385737452751,0.28799675,0.6566193766702509
0.025500000000000002,1.78374375,1.0,2585.333917180933,0.2494022403673172,1.3277320031358062,0.9311829006962986,0.2879702375,0.6574991521702549
0.026000000000000002,1.7831000000000001,1.0,2598.8998932382406,0.2536125001576831,1.3273147420862481,0.9332202690668474,0.2879432,0.6583707258068012
0.0265,1.78244375,1.0,2611.5812595243833,0.2577991457423731,1.3269003852945966,0.9351576541457034,0.2879156375,0.6592351342290952
0.027,1.781775,1.0,2623.3992595729915,0.2619623077395298,1.3264886735915529,0.9370015061432648,0.28788755,0.660092940103407
0.0275,1.7810937500000001,1.0,2634.3758558685504,0.2661021167672956,1.326079347807818,0.9387577649009775,0.2878589375,0.6609447032309567
0.028,1.780402548851881,1.0,2644.6583360963987,0.27021870344381305,1.3256721487740932,0.9404319070116673,0.287829907051779,0.6617909805894926
0.0285,1.7797105314139403,1.0,2654.718212676636,0.27431219838722476,1.3252668173210793,0.9420289880214356,0.2878008423193855,0.6626323263705856
0.029,1.7790185139759993,1.0,2664.6223485156934,0.2783827322156731,1.3248630942794775,0.943553680279755,0.28777177758699196,0.6634692920126382
0.029500000000000002,1.7783264965380583,1.0,2674.3799756419257,0.28243043392938055,1.3244608859137772,0.9450103290214767,0.28774271285459846,0.6643020839032107
0.03,1.7776344791001175,1.0,2683.967994456585,0.28645543225250975,1.3240603956813595,0.9464029984831174,0.2877136481222049,0.6651302932105891
0.0305,1.7769424616621765,1.0,2693.3858973801907,0.2904578535576635,1.3236616190280397,0.9477354282784961,0.2876845833898114,0.6659539425004722
0.031,1.7762504442242357,1.0,2702.633971295256,0.294437823961777,1.3232645443530149,0.9490110883874375,0.2876555186574179,0.6667730687635129
0.0315,1.7755584267862947,1.0,2711.712531138755,0.29839546958178526,1.3228691600554814,0.9502332028849595,0.2876264539250244,0.6675877088171809
0.032,1.7748664093483537,1.0,2720.62428560121,0.30233090375888866,1.3224754329922959,0.9514047638893582,0.28759738919263084,0.6683979436110692
0.0325,1.774174391910413,1.0,2729.3678573701363,0.3062442686605655,1.322083367546671,0.9525285703403952,0.28756832446023733,0.6692037766256251
0.033,1.773482374472472,1.0,2737.945053466781,0.3101356912526536,1.3216929393404062,0.9536072225297286,0.28753925972784383,0.6700052703396995
0.0335,1.7727903570345311,1.0,2746.3590517314665,0.3140052909779141,1.321304111889183,0.9546431425302138,0.2875101949954503,0.6708025117445897
0.034,1.7720983395965901,1.0,2754.6130719994885,0.3178531872791078,1.3209168487086829,0.955638591871197,0.28748113026305677,0.6715955874199246
0.0345,1.7714063221586493,1.0,2762.7103748207037,0.32167949959899567,1.320531113314587,0.956595684082007,0.28745206553066327,0.6723845835373452
0.035,1.7707143047207083,1.0,2770.65426020919,0.32548434738033877,1.320146869222577,0.9575163961157079,0.28742300079826977,0.6731695858641012
0.035500000000000004,1.7700222872827673,1.0,2778.4480664219304,0.329267850065898,1.3197640799483346,0.9584025787647784,0.2873939360658762,0.6739506797665661
0.036000000000000004,1.7693302698448266,1.0,2786.09516876763,0.33303012709843427,1.3193827090075407,0.9592559661681488,0.2873648713334827,0.6747279502136625
0.0365,1.7686382524068855,1.0,2793.5989784441263,0.3367712979207085,1.319002719915877,0.9600781844982638,0.2873358066010892,0.675501481780206
0.037,1.7679462349689448,1.0,2800.962941406163,0.3404914819754818,1.3186240761890249,0.9608707599073126,0.28730674186869565,0.676271358650161
0.0375,1.7672542175310038,1.0,2808.1905372624583,0.34419079870551506,1.3182467413426657,0.9616351258033778,0.28727767713630215,0.6770376646198164
0.038,1.7665622000930628,1.0,2815.2852782018085,0.3478693675535692,1.317870678892481,0.962372629519806,0.28724861240390864,0.6778004831008713
0.0385,1.765870182655122,1.0,2822.245350988153,0.35152725915094934,1.3174959002401219,0.9630845331147322,0.28721954767151514,0.6785598001617175
0.039,1.765178165217181,1.0,2829.083099463528,0.35516465566878164,1.3171222904307733,0.9637720352349045,0.2871904829391216,0.6793158574998095
0.0395,1.7644861477792402,1.0,2835.801482937556,0.3587816672998821,1.3167498188393099,0.9644362584213003,0.2871614182067281,0.6800687253356645
0.04,1.7637941303412992,1.0,2842.403366298471,0.3623784032741543,1.316378455904819,0.9650782608835458,0.2871323534743346,0.6808184714262834
0.0405,1.7631021129033582,1.0,2848.8916381826875,0.36595497282150186,1.3160081720663883,0.9656990409564323,0.287103288741941,0.6815651632246809
0.041,1.7624100954654174,1.0,2855.2692102579636,0.36951148517182814,1.3156389377631055,0.9662995411189698,0.2870742240095475,0.6823088678819466
0.0415,1.7617180780274764,1.0,2861.5390165256376,0.37304804955503673,1.315270723434058,0.966880651703279,0.287045159277154,0.6830496522492531
0.042,1.7610260605895356,1.0,2867.70401264244,0.37656477520103115,1.3149034995183335,0.9674432143202419,0.2870160945447605,0.6837875828798052
0.0425,1.7603340431515946,1.0,2873.767175261711,0.38006177133971486,1.3145372364550196,0.9679880250262347,0.28698702981236696,0.6845227260307368
0.043000000000000003,1.7596420257136538,1.0,2879.7315013942653,0.38353914720099147,1.3141719046832039,0.9685158372529602,0.28695796507997345,0.6852551476649485
0.043500000000000004,1.7589500082757128,1.0,2885.6000077877197,0.38699701201476444,1.313807474641974,0.9690273645203292,0.28692890034757995,0.6859849134528919
0.044,1.7582579908377718,1.0,2891.37573032631,0.3904354750109373,1.3134439167704175,0.9695232829504793,0.2868998356151864,0.6867120887742972
0.0445,1.757565973399831,1.0,2897.0617234495053,0.39385464541941356,1.3130812015076219,0.9700042335993441,0.2868707708827929,0.6874367387198466
0.045,1.75687395596189,1.0,2902.6610595897646,0.3972546324700968,1.3127192992926748,0.9704708246206977,0.2868417061503994,0.6881589280927884
0.0455,1.7561819385239492,1.0,2908.1768286302386,0.4006355453928904,1.312358180564664,0.9709236332762333,0.2868126414180059,0.6888787214104999
0.046,1.7554899210860082,1.0,2913.6121373814763,0.4039974934176981,1.311997815762677,0.9713632078040314,0.28678357668561233,0.6895961829059906
0.0465,1.7547979036480672,1.0,2918.970109077811,0.40734058577442317,1.3116381753258015,0.97179006915666,0.2867545119532188,0.6903113765293527
0.047,1.7541058862101264,1.0,2924.2538828925767,0.41066493169296925,1.3112792296931248,0.9722047126191771,0.2867254472208253,0.6910243659491544
0.0475,1.7534138687721854,1.0,2929.4614134757635,0.41397059575129747,1.3109209949280567,0.9726076068286473,0.28669638248843177,0.6917351240846535
0.048,1.7527218513342446,1.0,2934.600728022621,0.41725773578240255,1.3105633987676237,0.9729992035019827,0.28666731775603826,0.6924437989346363
0.0485,1.7520298338963036,1.0,2939.673847870825,0.4205264540930541,1.3102064218307548,0.9733799293679092,0.28663825302364476,0.6931504332109689
0.049,1.7513378164583626,1.0,2944.682401355133,0.4237768493673612,1.3098500482652882,0.9737501907768179,0.28660918829125126,0.6938550624681078
0.0495,1.7506457990204218,1.0,2949.628025439507,0.4270090202894329,1.3094942622190615,0.9741103750583259,0.2865801235588577,0.6945577221093074
0.05,1.7499537815824808,1.0,2954.512365507767,0.43022306554337825,1.3091390478399132,0.97446085158381,0.2865510588264642,0.695258447387219
0.0505,1.74926176414454,1.0,2959.3370751598823,0.4334190838133064,1.3087843892756807,0.9748019727603423,0.2865219940940707,0.6959572734044798
0.051000000000000004,1.748569746706599,1.0,2964.103816013734,0.43659717378332646,1.3084302706742026,0.9751340749610397,0.28649292936167714,0.6966542351142797
0.051500000000000004,1.7478777292686583,1.0,2968.8142575128572,0.4397574341375474,1.3080766761833162,0.9754574793964205,0.28646386462928364,0.6973493673209188
0.052000000000000005,1.7471857118307172,1.0,2973.470076739073,0.4428999635600784,1.3077235899508601,0.9757724929310005,0.28643479989689014,0.6980427046803408
0.0525,1.7464936943927762,1.0,2978.0729582312715,0.44602486073502845,1.307370996124672,0.976079408849018,0.28640573516449663,0.6987342817006597
0.053,1.7458016769548355,1.0,2982.6245938094935,0.44913222434650674,1.3070188788525898,0.9763785075728746,0.2863766704321031,0.6994241327426619
0.0535,1.7451096595168945,1.0,2987.1266824048234,0.4522221530786223,1.3066672222824518,0.9766700573375914,0.2863476056997096,0.7001122920202976
0.054,1.7444176420789537,1.0,2991.5809298945114,0.45529474561548416,1.3063160105620955,0.9769543148243338,0.28631854096731607,0.700798793601155
0.0545,1.7437256246410127,1.0,2995.98904894263,0.4583501006412015,1.3059652278393592,0.9772315257558098,0.2862894762349225,0.7014836714069166
0.055,1.7430336072030717,1.0,3000.352758847131,0.46138831683988335,1.3056148582620808,0.9775019254561428,0.286260411502529,0.7021669592138019
0.0555,1.7423415897651309,1.0,3004.673785391198,0.4644094928956388,1.3052648859780982,0.9777657393776177,0.2862313467701355,0.7028486906529934
0.056,1.7416495723271899,1.0,3008.9538607011027,0.467413727492577,1.3049152951352496,0.9780231835965211,0.28620228203774195,0.7035288992110447
0.0565,1.740957554889249,1.0,3013.1911862322636,0.4704010652981851,1.3045661004794338,0.9782744621574491,0.28617321730534845,0.7042075587970391
0.057,1.740265537451308,1.0,3017.3906326597844,0.4733716639508959,1.304217259067581,0.978519777645311,0.28614415257295495,0.7048847553743889
0.0575,1.739573520013367,1.0,3021.553495472934,0.47632562014360735,1.3038687589705438,0.9787593207146755,0.2861150878405614,0.7055605144186913
0.058,1.7388815025754263,1.0,3025.6805698690187,0.47926302236078766,1.3035205926180435,0.9789932738998405,0.2860860231081679,0.7062348528596674
0.0585,1.7381894851374853,1.0,3029.772654190532,0.482183959086905,1.3031727524398011,0.9792218124821414,0.2860569583757744,0.7069077875576373
0.059000000000000004,1.7374974676995445,1.0,3033.8305498695345,0.48508851880642745,1.302825230865538,0.9794451048354572,0.2860278936433809,0.7075793353036788
0.059500000000000004,1.7368054502616035,1.0,3037.8550613738835,0.4879767900038232,1.3024780203249746,0.9796633127526362,0.2859988289109873,0.708249512819784
0.06,1.7361134328236627,1.0,3041.846996154467,0.4908488611635605,1.3021311132478322,0.9798765917540314,0.2859697641785938,0.7089183367590103
0.0605,1.7354214153857217,1.0,3045.8071645930067,0.4937048207701076,1.301784502063832,0.9800850913792629,0.2859406994462003,0.7095858237056283
0.061,1.7347293979477807,1.0,3049.7363799524524,0.49654475730793246,1.3014381792026946,0.980288955463239,0.28591163471380676,0.7102519901752685
0.0615,1.73403738050984,1.0,3053.635458327678,0.49936875926150337,1.3010921370941413,0.9804883223973986,0.28588256998141326,0.7109168526150601
0.062,1.733345363071899,1.0,3057.505218597651,0.5021769151152885,1.300746368167893,0.9806833253770727,0.28585350524901976,0.7115804274037696
0.0625,1.7326533456339581,1.0,3061.3464823789463,0.504969313353756,1.300400864853671,0.9808740926358059,0.28582444051662625,0.7122427308519341
0.063,1.7319613281960171,1.0,3065.160073980669,0.5077460424613741,1.300055619581196,0.9810607476674104,0.2857953757842327,0.7129037792019915
0.0635,1.731269310758076,1.0,3068.9468203605074,0.5105071909226109,1.2997106247801893,0.9812434094364887,0.2857663110518392,0.7135635886284075
0.064,1.7305772933201353,1.0,3072.707551081919,0.5132528472219345,1.2993658728803716,0.9814221925781005,0.2857372463194457,0.7142221752377971
0.0645,1.7298852758821943,1.0,3076.4430982727245,0.5159830998438133,1.299021356311464,0.9815972075872101,0.28570818158705213,0.7148795550690448
0.065,1.7291932584442535,1.0,3080.1542965852523,0.5186980372727152,1.298677067503188,0.9817685609985105,0.28567911685465863,0.7155357440934187
0.0655,1.7285012410063125,1.0,3083.8419831570227,0.5213977479931087,1.2983329988852639,0.9819363555571746,0.28565005212226513,0.7161907582146847
0.066,1.7278092235683715,1.0,3087.5069975735382,0.5240823204894617,1.2979891428874133,0.9821006903810587,0.28562098738987163,0.7168446132692117
0.0665,1.7271172061304307,1.0,3091.1491129767837,0.5267518105519006,1.297645501068839,0.9822616593878825,0.28559192265747807,0.7174973076960451
0.067,1.7264251886924897,1.0,3094.769332692362,0.5294063229137653,1.2973020644863607,0.9824193559655527,0.28556285792508457,0.7181488598601653
0.0675,1.725733171254549,1.0,3098.368888129105,0.5320459650884067,1.2969588222743031,0.982573870345444,0.28553379319269107,0.7187992916883255
0.068,1.725041153816608,1.0,3101.948157471733,0.5346708160047411,1.2966157708694588,0.9827252881674977,0.2855047284602975,0.7194486111974385
0.0685,1.7243491363786672,1.0,3105.5075201151003,0.5372809545916849,1.2962729067086198,0.9828736921697574,0.285475663727904,0.7200968263725301
0.069,1.7236571189407262,1.0,3109.047356648706,0.5398764597781543,1.2959302262285788,0.9830191623068187,0.2854465989955105,0.7207439451667799
0.0695,1.7229651015027851,1.0,3112.568048842531,0.5424574104930657,1.2955877258661281,0.9831617758626576,0.285417534263117,0.7213899755015647
0.07,1.7222730840648444,1.0,3116.069979632419,0.5450238856653354,1.2952454020580597,0.9833016075581477,0.28538846953072344,0.7220349252665008
0.07050000000000001,1.7215810666269034,1.0,3119.55353310624,0.5475759642238798,1.2949032512411662,0.9834387296535441,0.28535940479832994,0.7226788023194821
