Time [s],Phi [rad],STIM [ ],Fsee [N],Gamma [ ],Lcerel [ ],q [ ],Lmtc [m],fisomrel [ ]
0.0,1.8,1.0,17.970928312243984,6.809100505894683e-05,1.3793393238595895,0.005001217111918928,0.288653,0.5411405528499666
0.0005,1.79999375,1.0,18.299630720162657,0.005676918377180906,1.3792998463319837,0.01310257382627638,0.2886527375,0.5412360541215995
0.001,1.799975,1.0,21.684481768663534,0.011254284662383466,1.3789315561027737,0.03591192737457121,0.28865195,0.5421265171860027
0.0015,1.79994375,1.0,31.227480489202495,0.01680036633339999,1.3780327389654368,0.07101654370228899,0.2886506375,0.5442960722904655
0.002,1.7999,1.0,53.924391541020235,0.02231533887122467,1.3763459795409185,0.11520888490702891,0.2886488,0.5483536469495744
0.0025,1.79984375,1.0,97.69433203802882,0.027799376773073387,1.373907481323845,0.16510874277167684,0.28864643749999996,0.554187485363707
0.003,1.7997750000000001,1.0,161.70722532604165,0.033252653559562785,1.3711863383282594,0.2178311125297549,0.28864354999999997,0.5606527494848819
0.0035,1.79969375,1.0,238.52987781517493,0.03867534177473288,1.368558681545656,0.27116052328140566,0.2886401375,0.5668510786266827
0.004,1.7996,1.0,322.3675415188799,0.04406761299670975,1.3661322511241225,0.3234460233751653,0.2886362,0.5725356335675462
0.0045000000000000005,1.7994937500000001,1.0,410.200614845971,0.04942963784292499,1.3639009287554338,0.37353780100315603,0.2886317375,0.5777299555195559
0.005,1.799375,1.0,500.3654378114433,0.054761585961521184,1.361838123466163,0.42071831170645024,0.28862675,0.58250373854109
0.0055,1.79924375,1.0,591.7507818765309,0.060063626075567464,1.3599200794589228,0.4646096226288423,0.2886212375,0.5869181645480954
0.006,1.7991000000000001,1.0,683.4796502500444,0.06533592593402092,1.3581289426262195,0.5050805661996779,0.2886152,0.5910193254254654
0.006500000000000001,1.79894375,1.0,774.8383548197123,0.07057865236399694,1.356450920392692,0.5421670298400418,0.2886086375,0.5948429252270496
0.007,1.798775,1.0,865.218690315072,0.07579197097456808,1.3548753300735163,0.5760106925948706,0.28860155,0.5984167732946838
0.0075,1.79859375,1.0,954.1662145338124,0.08097604729830178,1.3533925859456593,0.6068135554724852,0.2885939375,0.6017655618579076
0.008,1.7984,1.0,1041.2857030167602,0.08613104542474447,1.3519949975202368,0.6348077469879616,0.2885858,0.6049091891604863
0.0085,1.79819375,1.0,1126.2262777610247,0.09125712769569586,1.3506763328353475,0.6602348210102066,0.2885771375,0.6078638698633693
0.009000000000000001,1.797975,1.0,1208.7547873936956,0.09635445645295569,1.349430359929091,0.6833319828951617,0.28856795,0.610645483290261
0.0095,1.79774375,1.0,1288.7190659827802,0.1014231934089533,1.3482511839865732,0.7043246655305302,0.2885582375,0.6132688547574935
0.01,1.7975,1.0,1365.9776315422953,0.10646349888827687,1.3471339686518362,0.72342280439694,0.288548,0.6157461983674298
0.0105,1.79724375,1.0,1440.4395623159214,0.11147553209322691,1.3460741846209592,0.7408186086854265,0.2885372375,0.6180888352644716
0.011,1.796975,1.0,1512.046172584663,0.11645945085203814,1.3450677112369531,0.7566862957283104,0.28852595000000003,0.6203069982834526
0.0115,1.79669375,1.0,1580.8329666768152,0.1214154154365844,1.3441099786258182,0.7711822702790772,0.2885141375,0.6224117430170248
0.012,1.7964,1.0,1646.7674774789714,0.12634358106338694,1.3431978499659023,0.7844470698908236,0.28850180000000003,0.6244108283762182
0.0125,1.79609375,1.0,1709.8558331548468,0.1312441028940764,1.3423282032897375,0.796605991792159,0.2884889375,0.6263118661748093
0.013000000000000001,1.7957750000000001,1.0,1770.1405049563411,0.13611713609028334,1.3414979166298546,0.8077705159566244,0.28847555,0.6281223626832553
0.0135,1.79544375,1.0,1827.690544628864,0.14096283548763638,1.3407039406577748,0.8180397488966764,0.2884616375,0.6298495689421668
0.014,1.7951000000000001,1.0,1882.5739469495672,0.1457813548857221,1.339943562922225,0.8275018607009299,0.2884472,0.631499917180304
0.0145,1.79474375,1.0,1934.8514834428634,0.15057284630584358,1.3392144219710727,0.8362353096757027,0.2884322375,0.6330790048687216
0.015,1.794375,1.0,1984.5915926724601,0.15533746091334594,1.3385143021807449,0.8443098841593387,0.28841675,0.6345920510812607
0.0155,1.79399375,1.0,2031.8746909088754,0.1600753492634139,1.3378410601130524,0.8517876904236626,0.2884007375,0.6360440628242632
0.016,1.7936,1.0,2076.794285236278,0.16478666245553766,1.337192591811951,0.8587240498504032,0.2883842,0.637439910800826
0.0165,1.7931937500000001,1.0,2119.4304279656276,0.16947154959508984,1.3365670892109427,0.8651683769774772,0.2883671375,0.6387837833548258
0.017,1.792775,1.0,2159.8550999730724,0.17413015785344818,1.3359629571994829,0.8711648497527514,0.28834955,0.6400793730541404
0.0175,1.7923437500000001,1.0,2198.151204459298,0.17876263440199042,1.3353786006670267,0.8767529669264629,0.2883314375,0.6413303386946014
0.018000000000000002,1.7919,1.0,2234.4042535696444,0.18336912609957692,1.334812498706481,0.8819681181827334,0.2883128,0.6425401489474573
0.0185,1.79144375,1.0,2268.6932620258926,0.187949778651922,1.334263283907047,0.886842082761845,0.2882936375,0.6437119165550922
0.019,1.790975,1.0,2301.1564828698774,0.1925047391733813,1.3337290784456939,0.8914032795003153,0.28827395,0.6448498156880993
0.0195,1.7904939214581261,1.0,2331.8346865625563,0.19703415012016132,1.3332091230751537,0.895677552903887,0.2882537447012413,0.6459556131998949
0.02,1.7900084918332502,1.0,2361.134281310126,0.20153815394846875,1.3327026585481574,0.8996881900535434,0.2882333566569965,0.6470310618462634
0.0205,1.789523062208374,1.0,2389.3061412267402,0.2060168931145102,1.3322089256174363,0.9034562079353342,0.2882129686127517,0.6480779009569793
0.021,1.7890376325834978,1.0,2416.4056119004917,0.21047051007449236,1.331727165035722,0.9070006055370781,0.2881925805685069,0.6490978570706722
0.021500000000000002,1.7885522029586218,1.0,2442.4764391863705,0.21489914599137813,1.3312567555627455,0.9103386138452845,0.2881721925242621,0.650092352978455
0.022,1.7880667733337456,1.0,2467.551253924522,0.21930294134816306,1.330797203946915,0.913485884455222,0.2881518044800173,0.6510625314442066
0.0225,1.7875813437088697,1.0,2491.665301290697,0.22368203466797323,1.3303480097577587,0.9164566292872598,0.2881314164357725,0.6520095422483667
0.023,1.7870959140839935,1.0,2514.8555145655796,0.22803656444770265,1.3299086732239087,0.919263775687903,0.2881110283915277,0.6529345259299753
0.0235,1.7866104844591173,1.0,2537.1477419565663,0.2323666638275709,1.3294788145852843,0.9219191196051162,0.28809064034728293,0.6538383633274103
0.024,1.7861250548342413,1.0,2558.5987519919227,0.2366724785774807,1.3290577762146016,0.9244333788635049,0.2880702523030381,0.6547225124767256
0.0245,1.7856396252093651,1.0,2579.242564947154,0.2409541449140384,1.328645129288673,0.9268163817142003,0.2880498642587933,0.6555879432233146
0.025,1.785154195584489,1.0,2599.106341287384,0.24521179574543248,1.3282405202494216,0.9290771315940155,0.28802947621454855,0.6564354619463937
0.025500000000000002,1.784668765959613,1.0,2618.2182653709083,0.2494455639798512,1.327843595538771,0.9312238772710184,0.28800908817030374,0.6572658701027126
0.026000000000000002,1.7841833363347368,1.0,2636.6074838270797,0.25365558252548304,1.3274540015986447,0.933264186358178,0.2879887001260589,0.65807996440381
0.0265,1.7836979067098608,1.0,2654.3040467046785,0.25784198429051636,1.327071384870966,0.93520501077072,0.28796831208181417,0.6588785369852945
0.027,1.7832124770849846,1.0,2671.3388513926316,0.2620049021831396,1.3266953917976585,0.9370527450957555,0.28794792403756936,0.6596623755681582
0.0275,1.7827270474601085,1.0,2687.743589312149,0.26614446911154105,1.3263256688206453,0.9388132787177436,0.28792753599332455,0.6604322636121127
0.028,1.7822416178352325,1.0,2703.5453899776285,0.2702608149345174,1.325961910836857,0.9404920483249203,0.2879071479490798,0.6611888797308192
0.0285,1.7817561882103563,1.0,2718.7720974659856,0.2743540711456378,1.3256038120279137,0.9420940737991387,0.287886759904835,0.6619329004875354
0.029,1.7812707585854803,1.0,2733.4566386507277,0.27842437232121725,1.325251025835745,0.9436239905288584,0.28786637186059016,0.6626650835229448
0.029500000000000002,1.7807853289606042,1.0,2747.618288096693,0.28247184448472495,1.3249033348826644,0.9450861025614046,0.28784598381634535,0.6633859151215664
0.03,1.780299899335728,1.0,2761.27674572529,0.2864966136596301,1.3245605217909846,0.946484397104474,0.28782559577210054,0.6640958791287112
0.0305,1.779814469710852,1.0,2774.452112781305,0.2904988058694019,1.324222369183019,0.9478225718851847,0.2878052077278558,0.6647954570196113
0.031,1.7793290400859758,1.0,2787.164868847136,0.29447854713750954,1.3238886596810808,0.9491040598235764,0.28778481968361097,0.6654851279655389
0.0315,1.7788436104610998,1.0,2799.4358499056016,0.2984359634874222,1.3235591759074832,0.9503320513133514,0.28776443163936616,0.666165368896908
0.032,1.7783581808362237,1.0,2811.2862274493564,0.302371180942609,1.3232337004845391,0.9515095143678187,0.2877440435951214,0.6668366545633649
0.0325,1.7778727512113475,1.0,2822.7374886384423,0.30628432552653917,1.322912016034562,0.9526392128586567,0.2877236555508766,0.6674994575908635
0.033,1.7773873215864715,1.0,2833.8011710282735,0.310175514496649,1.322593996586325,0.9537237312212338,0.2877032675066318,0.6681540604797902
0.0335,1.7769018919615953,1.0,2844.505950623784,0.31404488254227075,1.3222793653648381,0.9547654682801121,0.287682879462387,0.6688010544006288
0.034,1.7764164623367191,1.0,2854.866724698445,0.3178925510970706,1.3219679708561123,0.9557666746520613,0.2876624914181422,0.6694407708635128
0.0345,1.7759310327118432,1.0,2864.8960004416385,0.3217186392024258,1.3216596844883322,0.9567294558512758,0.2876421033738974,0.6700734929045491
0.035,1.775445603086967,1.0,2874.6064526592054,0.32552326589971375,1.3213543776896828,0.9576557815969923,0.28762171532965264,0.670699502358663
0.035500000000000004,1.774960173462091,1.0,2884.0109150959297,0.3293065502303117,1.3210519218883496,0.9585474961534125,0.2876013272854078,0.671319079884557
0.036000000000000004,1.7744747438372148,1.0,2893.1223721259184,0.333068611235597,1.3207521885125177,0.9594063277685606,0.287580939241163,0.671932504988617
0.0365,1.7739893142123386,1.0,2901.953950808341,0.3368095679569469,1.3204550489903717,0.9602338972999268,0.2875605511969182,0.672540056047763
0.037,1.7735038845874627,1.0,2910.5189133100585,0.3405295394357388,1.3201603747500972,0.9610317261053388,0.28754016315267344,0.6731420103312415
0.0375,1.7730184549625865,1.0,2918.830649694653,0.34422864471335013,1.3198680372198788,0.9618012432691715,0.28751977510842863,0.673738644021372
0.038,1.7725330253377105,1.0,2926.8996698988885,0.34790699822245574,1.3195779341715141,0.9625437937894772,0.2874993870641838,0.6743301785416689
0.0385,1.7720475957128343,1.0,2934.7356433880236,0.35156471508267645,1.3192899716078896,0.9632606439283677,0.287478999019939,0.6749168176997227
0.039,1.7715621660879581,1.0,2942.3562246478396,0.355201923520688,1.3190039864020549,0.9639529820116021,0.28745861097569425,0.6754989051645333
0.0395,1.7710767364630822,1.0,2949.768727290368,0.35881873514740414,1.3187199069289735,0.9646219326676753,0.28743822293144944,0.6760765973443448
0.04,1.770591306838206,1.0,2956.9805308969444,0.3624152615737386,1.318437661563609,0.9652685561994208,0.2874178348872046,0.6766500500570802
0.0405,1.77010587721333,1.0,2963.9990780487424,0.3659916144106051,1.3181571786809254,0.9658938529471653,0.28739744684295987,0.677219418538883
0.041,1.7696204475884538,1.0,2970.831871470543,0.3695479052689173,1.317878386655886,0.9664987673116964,0.28737705879871506,0.677784857452331
0.0415,1.7691350179635776,1.0,2977.486471289194,0.3730842457595889,1.3176012138634545,0.9670841914668482,0.28735667075447024,0.6783465208943247
0.042,1.7686495883387017,1.0,2983.9704924052785,0.3766007474935336,1.3173255886785946,0.9676509687886394,0.2873362827102255,0.678904562403646
0.0425,1.7681641587138255,1.0,2990.291601978174,0.3800975220816652,1.3170514394762698,0.9681998970252996,0.2873158946659807,0.6794591349681927
0.043000000000000003,1.7676787290889493,1.0,2996.457517025919,0.3835746811348973,1.316778694631444,0.9687317312302169,0.28729550662173586,0.6800103910318827
0.043500000000000004,1.7671932994640733,1.0,3002.4760021375914,0.38703233626414363,1.3165072825190804,0.9692471864777694,0.2872751185774911,0.6805584825012341
0.044,1.7667078698391971,1.0,3008.3530356536025,0.3904705938922065,1.3162371473727352,0.9697469408380351,0.2872547305332463,0.6811035287677135
0.0445,1.7662224402143212,1.0,3014.092016354535,0.39388955572198875,1.3159682560531878,0.970231638296825,0.2872343424890015,0.6816456032101632
0.045,1.765737010589445,1.0,3019.705822083146,0.3972893516880141,1.3157004937215033,0.9707018876952265,0.28721395444475667,0.6821849434438745
0.0455,1.7652515809645688,1.0,3025.1983856861884,0.4006700853822935,1.3154338232747114,0.971158268986326,0.28719356640051186,0.6827216298925324
0.046,1.7647661513396928,1.0,3030.573663734739,0.4040318603968376,1.3151682076098414,0.9716013330014757,0.2871731783562671,0.6832557427040813
0.0465,1.7642807217148166,1.0,3035.8356356407535,0.4073747803236572,1.3149036096239233,0.9720316031914359,0.2871527903120223,0.6837873617532645
0.047,1.7637952920899407,1.0,3040.9883028053623,0.4106989487547631,1.3146399922139866,0.9724495772474142,0.2871324022677775,0.6843165666440767
0.0475,1.7633098624650645,1.0,3046.035687796613,0.41400446928216605,1.3143773182770608,0.9728557286113508,0.2871120142235327,0.6848434367121288
0.048,1.7628244328401883,1.0,3050.9818335578725,0.41729144549787683,1.3141155507101756,0.9732505078839887,0.2870916261792879,0.6853680510269231
0.0485,1.7623390032153123,1.0,3055.8308026472746,0.4205599809939062,1.3138546524103607,0.9736343441385367,0.2870712381350431,0.6858904883940423
0.049,1.7618535735904362,1.0,3060.586676507406,0.42381017936226495,1.3135945862746454,0.9740076461470711,0.28705085009079834,0.6864108273572511
0.0495,1.76136814396556,1.0,3065.2535547649995,0.42704214419496384,1.3133353152000597,0.9743708035262247,0.2870304620465535,0.6869291462005077
0.05,1.760882714340684,1.0,3069.8355545623267,0.43025597908401364,1.3130768020836332,0.9747241878081617,0.2870100740023087,0.6874455229498901
0.0505,1.7603972847158078,1.0,3074.3368099180025,0.43345178762142517,1.3128190098223953,0.9750681534423428,0.28698968595806396,0.6879600353754343
0.051000000000000004,1.7599118550909318,1.0,3078.7604984500804,0.4366296678298303,1.3125619096379921,0.9754030386547412,0.28696929791381914,0.6884727443987616
0.051500000000000004,1.7594264254660557,1.0,3083.10645299863,0.43978970211225227,1.3123055014689697,0.9757291665596682,0.28694890986957433,0.6889836535466051
0.052000000000000005,1.7589409958411795,1.0,3087.3836797274107,0.4429320274758695,1.3120497068807193,0.97604684675431,0.2869285218253295,0.6894929223075803
0.0525,1.7584555662163035,1.0,3091.594103064972,0.4460567388210991,1.3117945081625255,0.9763563744008241,0.28690813378108476,0.690000588902069
0.053,1.7579701365914273,1.0,3095.7396554991237,0.44916393104835817,1.311539887603672,0.9766580317265042,0.28688774573683995,0.6905066914282254
0.0535,1.7574847069665513,1.0,3099.8222773465013,0.45225369905806373,1.311285827493443,0.9769520887012523,0.28686735769259514,0.6910112678626356
0.054,1.7569992773416752,1.0,3103.843916529226,0.45532613775063285,1.3110323101211223,0.9772388036739897,0.2868469696483503,0.691514356060963
0.0545,1.756513847716799,1.0,3107.806528357851,0.45838134202648256,1.3107793177759945,0.9775184239708271,0.28682658160410557,0.6920159937585695
0.055,1.756028418091923,1.0,3111.712075322038,0.46141940678603,1.3105268327473432,0.9777911864575866,0.28680619355986076,0.6925162185711211
0.0555,1.7555429884670468,1.0,3115.5625268877975,0.46444042692969206,1.3102748373244526,0.9780573180690877,0.28678580551561594,0.6930150679951674
0.056,1.7550575588421709,1.0,3119.3598593018296,0.46744449735788596,1.3100233137966069,0.9783170363074181,0.2867654174713712,0.6935125794087074
0.0565,1.7545721292172947,1.0,3123.1060554026044,0.47043171297102865,1.30977224445309,0.9785705497112462,0.2867450294271264,0.6940087900717318
0.057,1.7540866995924185,1.0,3126.8031044385384,0.47340216866953727,1.309521611583186,0.9788180582980828,0.28672464138288156,0.6945037371267453
0.0575,1.7536012699675425,1.0,3130.453001893406,0.4763559593538288,1.3092713974761792,0.9790597539812579,0.2867042533386368,0.6949974575992705
0.058,1.7531158403426663,1.0,3134.0577493180413,0.4792931799243203,1.309021584421353,0.9792958209632525,0.286683865294392,0.6954899883983309
0.0585,1.7526304107177901,1.0,3137.619354169551,0.48221392528142887,1.3087721547079922,0.9795264361068995,0.2866634772501472,0.6959813663169123
0.059000000000000004,1.7521449810929142,1.0,3141.139829657523,0.4851182903255716,1.3085230906253806,0.9797517692858713,0.2866430892059024,0.6964716280324081
0.059500000000000004,1.751659551468038,1.0,3144.6184486398947,0.48800633490629425,1.308274397716764,0.9799719821250432,0.2866227011616576,0.6969607643889237
0.06,1.751174121843162,1.0,3148.0578993947524,0.4908781710404563,1.308026052613327,0.9801872326501594,0.2866023131174128,0.6974488230594769
0.0605,1.7506886922182858,1.0,3151.461787131165,0.4937339210840175,1.3077780242478845,0.980397673163583,0.286581925073168,0.6979358666775148
0.061,1.7502032625934096,1.0,3154.8309517316347,0.4965736702557992,1.307530305006437,0.9806034484446429,0.2865615370289232,0.6984219116793615
0.0615,1.7497178329685337,1.0,3158.1662356486545,0.4993975037746228,1.307282887274986,0.9808046977964505,0.2865411489846784,0.6989069744513656
0.062,1.7492324033436575,1.0,3161.468483853198,0.5022055068593096,1.3070357634395326,0.9810015552944483,0.2865207609404336,0.699391071330049
0.0625,1.7487469737187815,1.0,3164.738543784888,0.5049977647286811,1.3067889258860779,0.981194150021872,0.2865003728961888,0.6998742186022533
0.063,1.7482615440939053,1.0,3167.977265302603,0.5077743626015585,1.306542367000623,0.9813826062929066,0.28647998485194404,0.7003564325052785
0.0635,1.7477761144690291,1.0,3171.1855006368946,0.5105353856967634,1.3062960791691691,0.9815670438642674,0.2864595968076992,0.700837729227022
0.064,1.7472906848441532,1.0,3174.364104343696,0.5132809192331169,1.306050054777717,0.9817475781358863,0.2864392087634544,0.7013181249061111
0.0645,1.746805255219277,1.0,3177.513933259206,0.5160110484294406,1.3058042862122683,0.9819243203413414,0.28641882071920965,0.7017976356320316
0.065,1.746319825594401,1.0,3180.6358464557757,0.5187258585045557,1.3055587658588237,0.982097377728622,0.28639843267496484,0.7022762774452569
0.0655,1.7458343959695248,1.0,3183.730705199754,0.5214254346772836,1.3053134861033846,0.982266853731791,0.28637804463072003,0.7027540663373673
0.066,1.7453489663446486,1.0,3186.7993729100517,0.5241098621664458,1.305068439331952,0.9824328481340593,0.2863576565864753,0.7032310182511705
0.0665,1.7448635367197727,1.0,3189.842715117955,0.5267792261908636,1.3048236179305273,0.9825954572227639,0.28633726854223046,0.7037071490808162
0.067,1.7443781070948965,1.0,3192.861599428935,0.5294336119693583,1.304579014285111,0.9827547739367062,0.28631688049798565,0.7041824746719074
0.0675,1.7438926774700203,1.0,3195.856895484852,0.5320731047207514,1.3043346207817048,0.9829108880062762,0.28629649245374084,0.7046570108216069
0.068,1.7434072478451443,1.0,3198.8294749278753,0.5346977896638642,1.3040904298063096,0.9830638860867651,0.2862761044094961,0.7051307732787433
0.0685,1.7429218182202681,1.0,3201.780211365793,0.537307752017518,1.3038464337449265,0.9832138518852421,0.28625571636525127,0.7056037777439095
0.069,1.7424363885953922,1.0,3204.7099803382516,0.5399030770005343,1.3036026249835568,0.9833608662813506,0.28623532832100645,0.7060760398695591
0.0695,1.741950958970516,1.0,3207.619659284956,0.5424838498317344,1.3033589959082015,0.98350500744235,0.28621494027676164,0.7065475752601014
0.07,1.7414655293456398,1.0,3210.508582848991,0.5450501108943822,1.3031155518508364,0.9836463488542094,0.2861945522325169,0.7070183744456726
