Time [s],Phi [rad],STIM [ ],Fsee [N],Gamma [ ],Lcerel [ ],q [ ],Lmtc [m],fisomrel [ ]
0.0,1.8,1.0,17.969755324115106,4.44625340171602e-05,1.3793394552618468,0.005000520715522464,0.288653,0.5411402349542263
0.0005,1.79999375,1.0,18.290508565226396,0.005653422443168925,1.3793008591182236,0.013036463892242875,0.2886527375,0.5412336041842394
0.001,1.799975,1.0,21.657719574261737,0.011230920521983144,1.378934286140415,0.03578837665279799,0.28865195,0.5421199196022133
0.0015,1.79994375,1.0,31.16310659133961,0.016777133247344395,1.3780382123089292,0.07084768530325358,0.2886506375,0.5442828763847862
0.002,1.7999,1.0,53.78505198069027,0.0222922361044316,1.376354996290566,0.11500907132086967,0.2886488,0.5483320049972198
0.0025,1.79984375,1.0,97.45991681839334,0.027776403594520088,1.373918750683878,0.16489146755721276,0.28864643749999996,0.5541606118845918
0.003,1.7997750000000001,1.0,161.40220115543696,0.03322980924238034,1.3711977345755606,0.2176070259919035,0.28864354999999997,0.5606257711925118
0.0035,1.79969375,1.0,238.18522422525592,0.038652625596121724,1.368569282763419,0.27093768856972694,0.2886401375,0.5668261600869224
0.004,1.7996,1.0,322.00084407615685,0.04404502423790732,1.3661419527196075,0.3232302894471744,0.2886362,0.5725129797789309
0.0045000000000000005,1.7994937500000001,1.0,409.8208743151694,0.04940717578915804,1.3639098346330727,0.3733330343597725,0.2886317375,0.5777092865348523
0.005,1.799375,1.0,499.9779280861662,0.054739249901786136,1.3618463517723167,0.4205267521722573,0.28862675,0.5824847503477832
0.0055,1.79924375,1.0,591.3599073156932,0.0600414153039337,1.359927711261003,0.4644322769669437,0.2886212375,0.586900646257704
0.006,1.7991000000000001,1.0,683.0883689262375,0.06531383974737381,1.3581360510919327,0.5049175925001895,0.2886152,0.591003089630984
0.006500000000000001,1.79894375,1.0,774.4494699558409,0.07055669004722365,1.3564575556438319,0.5420180200623592,0.2886086375,0.5948278412768639
0.007,1.798775,1.0,864.8514568454273,0.07577013214824489,1.354881259501219,0.5758747299453189,0.28860155,0.5984033534911624
0.0075,1.79859375,1.0,953.7926884313991,0.0809543308284573,1.3533983289457907,0.6066900142760968,0.2885939375,0.6017526182982229
0.008,1.7984,1.0,1040.9009301825222,0.08610945045225663,1.3520006605253405,0.6346956617897457,0.2885858,0.6048964763702933
0.0085,1.79819375,1.0,1125.8509950794005,0.09123565383570029,1.3506816437491984,0.6601329986802243,0.2885771375,0.6078519921471948
0.009000000000000001,1.797975,1.0,1208.3955764987886,0.09633310310064512,1.3494352667481533,0.6832394060093737,0.28856795,0.6106345483183896
0.0095,1.79774375,1.0,1288.3740960115185,0.10140196002374585,1.3482557477025694,0.7042404434131815,0.2885582375,0.6132587187248864
0.01,1.7975,1.0,1365.6463371353937,0.10644238458320023,1.3471382256750974,0.723346102366464,0.288548,0.6157367738365598
0.0105,1.79724375,1.0,1440.1206765854392,0.11145453614059972,1.3460781748606252,0.7407486699837144,0.2885372375,0.6180800283327121
0.011,1.796975,1.0,1511.760794323781,0.11643857352214913,1.3450711965856297,0.7566223079754644,0.28852595000000003,0.6202993280834239
0.0115,1.79669375,1.0,1580.5515072975563,0.12139465478182548,1.344113340484424,0.7711237850834288,0.2885141375,0.6224043651168712
0.012,1.7964,1.0,1646.4793992199427,0.12632293605236422,1.343201221291637,0.7843935784289816,0.28850180000000003,0.6244034493109973
0.0125,1.79609375,1.0,1709.5689924279507,0.1312235732031473,1.3423314976163945,0.7965569492720697,0.2884889375,0.6263046739149123
0.013000000000000001,1.7957750000000001,1.0,1769.8730607530827,0.13609672177518825,1.3415009354212417,0.8077253935157066,0.28847555,0.6281157879668906
0.0135,1.79544375,1.0,1827.4508110758848,0.14094253669265455,1.3407066037064803,0.8179981233436302,0.2884616375,0.6298437824961587
0.014,1.7951000000000001,1.0,1882.3446764733442,0.1457611701445879,1.3399460723385117,0.8274634584240186,0.2884472,0.6314944767271027
0.0145,1.79474375,1.0,1934.6209226255692,0.15055277432002995,1.339216911183738,0.8361998630429552,0.2884322375,0.6330736197926149
0.015,1.794375,1.0,1984.362978871447,0.15531750103627642,1.3385167392437467,0.8442770992444146,0.28841675,0.634586789705935
0.0155,1.79399375,1.0,2031.6581957330282,0.16005550155710446,1.3378433409734782,0.8517572829123422,0.2884007375,0.6360391484689991
0.016,1.7936,1.0,2076.59650879911,0.1647669268121246,1.3371946528002545,0.8586957790342139,0.2883842,0.6374354787082774
0.0165,1.7931937500000001,1.0,2119.2431451439534,0.16945192453053162,1.3365690211140184,0.86514207344215,0.2883671375,0.6387796365636207
0.017,1.792775,1.0,2159.675512154588,0.17411064244152033,1.3359647923047124,0.8711403456884363,0.28834955,0.6400754411085825
0.0175,1.7923437500000001,1.0,2197.9821755545663,0.17874322827428546,1.3353803127622794,0.8767300962936251,0.2883314375,0.6413266766947565
0.018000000000000002,1.7919,1.0,2234.2434277978937,0.18334982830212943,1.3348141144408479,0.8819467459418096,0.2883128,0.6425366988877259
0.0185,1.79144375,1.0,2268.568099224413,0.18793059042289278,1.334264531809829,0.8868220116444818,0.2882936375,0.6437092562945022
0.019,1.790975,1.0,2301.026509898698,0.19248565869439738,1.3337303651343773,0.8913845013002204,0.28827395,0.644847077127791
0.0195,1.79049375,1.0,2331.6826085526463,0.1970151761535335,1.3332105412305508,0.8956599836911664,0.2882537375,0.6459525995307507
0.02,1.79,1.0,2360.6059779081206,0.20151928583719148,1.3327039869144075,0.899671680245577,0.288233,0.6470282432756944
0.0205,1.7894988754021153,1.0,2388.1095616728494,0.20599813078226156,1.3322096290020058,0.9034405511212,0.2882119527668888,0.6480764107090232
0.021,1.788997695077591,1.0,2414.5975248930754,0.21045185231341698,1.3317265991507996,0.9069855901928267,0.2881909031932588,0.649099054259709
0.021500000000000002,1.788496514753067,1.0,2440.099077911849,0.2148805936172988,1.3312544553604784,0.9103240887534363,0.2881698536196288,0.6500972123846711
0.022,1.7879953344285429,1.0,2464.6452489559038,0.21928449368993025,1.3307927305766123,0.9134717171824798,0.2881488040459988,0.6510719687425663
0.0225,1.7874941541040188,1.0,2488.2681463804565,0.22366369084988258,1.3303409638278962,0.9164427077939431,0.28812775447236877,0.6520243865346191
0.023,1.7869929737794945,1.0,2511.001480526609,0.228018323415727,1.3298986941430258,0.9192500059923521,0.2881067048987388,0.6529555216923673
0.0235,1.7864917934549704,1.0,2532.8804643015487,0.23234852970603473,1.329465460550696,0.9219054044139885,0.28808565532510877,0.6538664231636411
0.024,1.7859906131304464,1.0,2553.929369101559,0.2366544422060253,1.3290409181248002,0.9244196793842137,0.28806460575147874,0.6547578896670554
0.0245,1.785489432805922,1.0,2574.1999606832946,0.24093620629713733,1.3286244751014724,0.9268026393320337,0.2880435561778487,0.6556312320289597
0.025,1.784988252481398,1.0,2593.7216840704973,0.24519395661889984,1.32821576142305,0.9290632911797224,0.2880225066042187,0.6564872893924982
0.025500000000000002,1.784487072156874,1.0,2612.51982821041,0.24942782540404798,1.3278144550190691,0.9312098936515605,0.2880014570305887,0.6573267955374704
0.026000000000000002,1.78398589183235,1.0,2630.620557569333,0.2536379448853168,1.3274202338190664,0.9332500233084515,0.2879804074569587,0.6581504798656502
0.0265,1.7834847115078256,1.0,2648.050860389466,0.2578244472954414,1.327032775752578,0.9351906401113981,0.28795935788332866,0.6589590675496304
0.027,1.7829835311833016,1.0,2664.8384992442816,0.26198746486715696,1.3266517587491404,0.9370381458856266,0.2879383083096987,0.6597532796750426
0.0275,1.7824823508587775,1.0,2681.0119638944952,0.26612712983319853,1.3262768607382902,0.9387984365302332,0.28791725873606866,0.6605338333761683
0.028,1.7819811705342532,1.0,2696.600426444045,0.2702435744263012,1.3259077596495634,0.940476948710008,0.28789620916243863,0.6613014419649312
0.0285,1.7814799902097291,1.0,2711.6269591007717,0.27433692660150033,1.3255441948752957,0.9420787088196518,0.2878751595888086,0.6620566874457764
0.029,1.780978809885205,1.0,2726.1202900830654,0.2784073192565218,1.3251858591634125,0.9436083580727475,0.2878541100151786,0.6628002455362031
0.029500000000000002,1.7804776295606808,1.0,2740.1091364047666,0.2824548852090851,1.3248324503429394,0.9450701919112076,0.2878330604415486,0.6635327780746232
0.03,1.7799764492361567,1.0,2753.6113089358105,0.2864797497246285,1.3244837695449494,0.9464682007425802,0.2878120108679186,0.6642547299167736
0.0305,1.7794752689116327,1.0,2766.644987263092,0.29048203806858997,1.3241396179005158,0.9478060852038055,0.28779096129428855,0.6649665437095269
0.031,1.7789740885871086,1.0,2779.2286992822515,0.2944618755064077,1.323799796540712,0.949087280862265,0.2877699117206586,0.6656686599495967
0.0315,1.7784729082625843,1.0,2791.3813016656513,0.2984193873035198,1.323464106596611,0.9503149805213311,0.28774886214702855,0.6663615170397201
0.032,1.7779717279380602,1.0,2803.1219612078094,0.30235469872536436,1.3231323491992864,0.9514921543886596,0.2877278125733985,0.6670455513423166
0.0325,1.7774705476135362,1.0,2814.4701370477214,0.3062679350373796,1.3228043254798107,0.9526215683351031,0.2877067629997685,0.6677211972306263
0.033,1.776969367289012,1.0,2825.445563767311,0.3101592215050036,1.3224798365692578,0.9537058004455534,0.28768571342613847,0.6683888871373239
0.0335,1.7764681869644878,1.0,2836.060483994058,0.31402867585006244,1.3221587527193819,0.954747261863883,0.2876646638525085,0.6690489095863908
0.034,1.7759670066399638,1.0,2846.3381356870505,0.31787642891006984,1.321840847985826,0.9557481969533698,0.28764361427887847,0.6697017492594531
0.0345,1.7754658263154397,1.0,2856.2954684665356,0.3217026047579665,1.321525954556704,0.956710708080653,0.2876225647052485,0.6703477695994908
0.035,1.7749646459909154,1.0,2865.94386304694,0.32550732151393025,1.321213955744229,0.95763676600625,0.28760151513161847,0.6709872277906392
0.035500000000000004,1.7744634656663913,1.0,2875.294846047265,0.32929069729813865,1.320904734860614,0.9585282159561109,0.28758046555798844,0.6716203799235938
0.036000000000000004,1.7739622853418673,1.0,2884.3600826530737,0.33305285023076947,1.3205981752180715,0.9593867870669366,0.2875594159843584,0.6722474810167178
0.0365,1.773461105017343,1.0,2893.1513695802632,0.33679389843200025,1.3202941601288152,0.9602141010177447,0.2875383664107284,0.6728687850362784
0.037,1.772959924692819,1.0,2901.680628341498,0.34051396002200884,1.319992572905057,0.9610116799261711,0.28751731683709836,0.673484544915822
0.0375,1.7724587443682949,1.0,2909.9598988136568,0.3442131531209728,1.3196932968590107,0.9617809535796537,0.2874962672634684,0.6740950125746699
0.038,1.7719575640437708,1.0,2918.0013331075047,0.3478915958490699,1.3193962153028884,0.9625232660642881,0.28747521768983836,0.674700438935558
0.0385,1.7714563837192465,1.0,2925.8171897395914,0.3515494063264778,1.3191012115489038,0.9632398818476086,0.28745416811620833,0.6753010739413958
0.039,1.7709552033947225,1.0,2933.412149186772,0.35518669010184556,1.3188082362380307,0.9639319951142665,0.28743311854257836,0.6758970296772833
0.0395,1.7704540230701984,1.0,2940.8037735474145,0.3588035775744014,1.3185171277060515,0.9646007255407335,0.28741206896894833,0.6764886459116293
0.04,1.769952842745674,1.0,2948.0015261614176,0.36240018439621835,1.3182277961498725,0.965247132336685,0.2873910193953183,0.6770761152984541
0.0405,1.76945166242115,1.0,2955.0120256463933,0.3659766211062537,1.3179401772456945,0.9658722160988183,0.2873699698216883,0.6776595781026034
0.041,1.768950482096626,1.0,2961.841945585067,0.36953299824346475,1.3176542066697183,0.9664769214713547,0.2873489202480583,0.6782391740594129
0.0415,1.768449301772102,1.0,2968.4980121285403,0.37306942634680895,1.3173698200981452,0.9670621408592904,0.2873278706744283,0.6788150423816038
0.042,1.7679481214475776,1.0,2974.98700169172,0.37658601595524355,1.3170869532071756,0.9676287178581804,0.28730682110079825,0.6793873217659134
0.0425,1.7674469411230536,1.0,2981.315738739883,0.3800828776077259,1.3168055416730107,0.9681774504247889,0.2872857715271683,0.6799561503994589
0.043000000000000003,1.7669457607985295,1.0,2987.491093667238,0.38356012184321336,1.3165255211718512,0.9687090938106385,0.28726472195353825,0.6805216659658418
0.043500000000000004,1.7664445804740052,1.0,2993.519980767334,0.38701785920066334,1.3162468273798982,0.9692243632784202,0.2872436723799082,0.681084005650985
0.044,1.7659434001494811,1.0,2999.4093562951302,0.39045620021903304,1.3159693959733523,0.9697239366193549,0.2872226228062782,0.6816433061487084
0.0445,1.765442219824957,1.0,3005.1662166206347,0.3938752554372799,1.3156931626284145,0.9702084564879409,0.28720157323264817,0.6821997036660378
0.045,1.764941039500433,1.0,3010.794696250991,0.39727512621517574,1.3154180881215434,0.9706785331554776,0.2871805236590182,0.6827532834367038
0.0455,1.7644398591759087,1.0,3016.2999152923967,0.4006559203807839,1.3151441249326141,0.9711347462299786,0.28715947408538817,0.6833041470677835
0.046,1.7639386788513847,1.0,3021.692183213426,0.40401776291685604,1.3148711809571292,0.9715776452594339,0.28713842451175814,0.6838524853401238
0.0465,1.7634374985268606,1.0,3026.9749956028645,0.4073607561923619,1.3145992232960895,0.9720077536554307,0.28711737493812817,0.684398369583856
0.047,1.7629363182023363,1.0,3032.1518679761834,0.4106850025762712,1.314328219050496,0.9724255690771071,0.28709632536449814,0.6849418708818351
0.0475,1.7624351378778123,1.0,3037.2263350685103,0.41399060443755376,1.3140581353213496,0.9728315649407079,0.2870752757908681,0.6854830600716737
0.048,1.7619339575532882,1.0,3042.201950150809,0.4172776641451793,1.3137889392096518,0.9732261918269983,0.2870542262172381,0.6860220077477087
0.0485,1.7614327772287641,1.0,3047.082284370641,0.4205462840681176,1.3135205978164033,0.9736098787943388,0.28703317664360806,0.686558784262899
0.049,1.7609315969042398,1.0,3051.8709261166496,0.42379656657533843,1.3132530782426053,0.9739830346045616,0.2870121270699781,0.6870934597306512
0.0495,1.7604304165797158,1.0,3056.571480407004,0.42702861403581155,1.3129863475892585,0.9743460488681855,0.28699107749634806,0.6876261040265813
0.05,1.7599292362551917,1.0,3061.1875683021226,0.43024252881850666,1.3127203729573642,0.9746992931149676,0.28697002792271803,0.688156786790201
0.0505,1.7594280559306674,1.0,3065.722826341281,0.4334384132923936,1.3124551214479232,0.9750431217952866,0.28694897834908806,0.6886855774265419
0.051000000000000004,1.7589268756061434,1.0,3070.180906002672,0.43661636982644203,1.3121905601619368,0.9753778732174153,0.28692792877545803,0.6892125451077045
0.051500000000000004,1.7584256952816193,1.0,3074.5654731886366,0.4397765007896218,1.311926656200406,0.9757038704253156,0.286906879201828,0.6897377587743423
0.052000000000000005,1.7579245149570952,1.0,3078.8802077337127,0.44291890855090266,1.3116633766643315,0.9760214220212261,0.286885829628198,0.6902612871370759
0.0525,1.757423334632571,1.0,3083.122703377391,0.4460436561464049,1.3114007408210417,0.9763308220864925,0.28686478005456795,0.6907830950768699
0.053,1.7569221543080469,1.0,3087.302138974162,0.4491508899288924,1.3111386688935018,0.9766323543263264,0.286843730480938,0.6913033441300378
0.0535,1.7564209739835228,1.0,3091.4213370464563,0.45224071122976883,1.3108771356298388,0.9769262887712561,0.28682268090730795,0.6918220871893713
0.054,1.7559197936589985,1.0,3095.4819333422593,0.4553132131998909,1.310616125992034,0.9772128836194318,0.2868016313336779,0.6923393567401177
0.0545,1.7554186133344745,1.0,3099.485570092419,0.4583684889901152,1.310355624942068,0.9774923860586486,0.28678058176004795,0.6928551851620485
0.055,1.7549174330099504,1.0,3103.4338958384596,0.46140663175129837,1.3100956174419223,0.9777650328279237,0.2867595321864179,0.6933696047299522
0.0555,1.7544162526854263,1.0,3107.3285652660793,0.46442773463429715,1.3098360884535776,0.9780310507459095,0.2867384826127879,0.6938826476141162
0.056,1.753915072360902,1.0,3111.1712390424714,0.46743189078996816,1.3095770229390151,0.9782906572083625,0.28671743303915787,0.6943943458807924
0.0565,1.753413892036378,1.0,3114.963583659879,0.47041919336916804,1.3093184058602156,0.9785440606567178,0.2866963834655279,0.6949047314926496
0.057,1.752912711711854,1.0,3118.7072712828412,0.47338973552275343,1.3090602221791603,0.978791461019671,0.28667533389189787,0.6954138363092095
0.0575,1.7524115313873296,1.0,3122.403979601882,0.4763436104015811,1.30880245685783,0.9790330501295295,0.28665428431826784,0.6959216920872705
0.058,1.7519103510628056,1.0,3126.055391691204,0.4792809111565075,1.308545094858206,0.9792690121149643,0.2866332347446378,0.6964283304813159
0.0585,1.7514091707382815,1.0,3129.663195871774,0.4822017309383895,1.308288121142269,0.9794995237716818,0.28661218517100784,0.6969337830439084
0.059000000000000004,1.7509079904137574,1.0,3133.229085579183,0.4851061628980836,1.3080315206720001,0.9797247549124186,0.2865911355973778,0.6974380812260688
0.059500000000000004,1.7504068100892332,1.0,3136.7547592368687,0.4879943001864465,1.3077752784093803,0.9799448686975691,0.2865700860237478,0.6979412563776417
0.06,1.749905629764709,1.0,3140.2419201342814,0.4908662359543349,1.3075193793163906,0.9801600219476596,0.28654903645011776,0.6984433397476463
0.0605,1.749404449440185,1.0,3143.6922763097477,0.4937220633526054,1.307263808355012,0.9803703654388007,0.2865279868764878,0.6989443624846123
0.061,1.7489032691156607,1.0,3147.1075404384205,0.4965618755321147,1.3070085504872258,0.9805760441821688,0.28650693730285776,0.6994443556369023
0.0615,1.7484020887911367,1.0,3150.487397880189,0.49938573547984766,1.3067536078655388,0.9807771962854109,0.28648588772922773,0.6999433165225613
0.062,1.7479009084666126,1.0,3153.83365915431,0.5021937482817981,1.3064989646729286,0.9809739569342943,0.28646483815559776,0.7004412775970117
0.0625,1.7473997281420885,1.0,3157.1491021265074,0.504986030677018,1.3062445969555072,0.9811664566921094,0.28644378858196773,0.7009382871031855
0.063,1.7468985478175643,1.0,3160.4344400740706,0.5077626662039127,1.3059904982542425,0.9813548197160411,0.2864227390083377,0.7014343589863534
0.0635,1.7463973674930402,1.0,3163.6903883536033,0.5105237384008879,1.3057366621101028,0.9815391656153145,0.2864016894347077,0.7019295071485104
0.064,1.7458961871685161,1.0,3166.917664362892,0.5132693308063488,1.3054830820640557,0.9817196096512903,0.28638063986107765,0.7024237454484866
0.0645,1.7453950068439918,1.0,3170.1169875038754,0.5159995269587011,1.3052297516570697,0.9818962629273432,0.2863595902874477,0.7029170877020523
0.065,1.7448938265194678,1.0,3173.289079146217,0.5187144103963501,1.3049766644301122,0.9820692325691126,0.28633854071381765,0.7034095476820241
0.0655,1.7443926461949437,1.0,3176.434662592197,0.5214140646577013,1.3047238139241517,0.9822386218956822,0.2863174911401876,0.703901139118364
0.066,1.7438914658704197,1.0,3179.55446304249,0.5240985732811603,1.3044711936801563,0.9824045305822067,0.28629644156655765,0.7043918756982805
0.0665,1.7433902855458954,1.0,3182.6492075622677,0.5267680198051323,1.3042187972390935,0.9825670548144694,0.2862753919929276,0.7048817710663244
0.067,1.7428891052213713,1.0,3185.719625049183,0.5294224877680229,1.3039666181419316,0.9827262874358268,0.2862543424192976,0.7053708388244807
0.0675,1.7423879248968472,1.0,3188.7664462015323,0.5320620607082377,1.3037146499296388,0.9828823180869661,0.28623329284566756,0.7058590925322608
0.068,1.741886744572323,1.0,3191.790403487561,0.534686822164182,1.3034628861431827,0.983035233338873,0.28621224327203754,0.7063465457067912
0.0685,1.741385564247799,1.0,3194.792231115934,0.5372968556742612,1.3032113203235316,0.9831851168193874,0.28619119369840756,0.7068332118228977
0.069,1.7408843839232748,1.0,3197.772665006574,0.539892244776881,1.3029599460116534,0.9833320493336976,0.28617014412477754,0.7073191043131889
0.0695,1.7403832035987508,1.0,3200.732442763086,0.5424730730104467,1.302708756748516,0.9834761089790997,0.2861490945511475,0.707804236568137
0.07,1.7398820232742265,1.0,3203.672303645839,0.5450394239133638,1.3024577460750877,0.9836173712543377,0.28612804497751754,0.7082886219361537
