Time [s],Phi [rad],STIM [ ],Fsee [N],Gamma [ ],Lcerel [ ],q [ ],Lmtc [m],fisomrel [ ]
0.0,1.8,1.0,17.96774092379036,1.7446314720037532e-05,1.3793396809320657,0.005000080765534954,0.288653,0.5411396889998679
0.0005,1.79999375,1.0,18.279529372187096,0.005626557763488496,1.3793020784168832,0.012961198866853825,0.2886527375,0.5412306546831396
0.001,1.799975,1.0,21.62666813140856,0.011204206531914724,1.3789374558432608,0.03564738729158441,0.28865195,0.5421122594357042
0.0015,1.79994375,1.0,31.089210701313714,0.016750569101627078,1.3780445022268106,0.07065482635539505,0.2886506375,0.5442677115308769
0.002,1.7999,1.0,53.625630114279,0.022265820962590513,1.3763653269167668,0.1147807472629936,0.2886488,0.5483072088483267
0.0025,1.79984375,1.0,97.19177661316883,0.0277501366207221,1.373931657981466,0.1646431162856769,0.28864643749999996,0.5541298315026529
0.003,1.7997750000000001,1.0,161.05319661162903,0.03320368960554006,1.37121078722563,0.21735083833470434,0.28864354999999997,0.5605948706866328
0.0035,1.79969375,1.0,237.79083831419211,0.03862665246980834,1.3685814231145839,0.27068289536400375,0.2886401375,0.5667976228789162
0.004,1.7996,1.0,321.5812424887209,0.04401919680030535,1.366153060762493,0.3229835890565988,0.2886362,0.5724870411168945
0.0045000000000000005,1.7994937500000001,1.0,409.38637081753905,0.04938149322301227,1.3639200299041054,0.3730988570484394,0.2886317375,0.5776856244725606
0.005,1.799375,1.0,499.5345852108637,0.05471371139421509,1.3618557695406341,0.42030766594861063,0.28862675,0.5824630167415672
0.0055,1.79924375,1.0,590.9126393964507,0.0600160200476969,1.3599364472349507,0.4642294398865387,0.2886212375,0.5868805929588061
0.006,1.7991000000000001,1.0,682.6405292007013,0.06528858693860191,1.3581441895615631,0.5047311891863236,0.2886152,0.5909845009033519
0.006500000000000001,1.79894375,1.0,774.0051477689796,0.07053157889677958,1.3564651388198972,0.5418475766973548,0.2886086375,0.5948106020603044
0.007,1.798775,1.0,864.4107725681158,0.07574516182112703,1.354888376542873,0.5757194206194209,0.28860155,0.598387245519018
0.0075,1.79859375,1.0,953.3676307573346,0.08092950066126396,1.3534048656169728,0.6065486832088104,0.2885939375,0.6017378857087035
0.008,1.7984,1.0,1040.4804027928635,0.0860847594585354,1.3520068509556373,0.6345672835811335,0.2885858,0.6048825793376778
0.0085,1.79819375,1.0,1125.4381536309886,0.09121110134121024,1.3506874872086094,0.6600163973353912,0.2885771375,0.6078389231993349
0.009000000000000001,1.797975,1.0,1207.993492583255,0.09630868827825906,1.349440760077616,0.6831334470490155,0.28856795,0.6106223061108995
0.0095,1.79774375,1.0,1287.9841376669394,0.10137768205705781,1.3482609073196312,0.7041440741844905,0.2885582375,0.6132472590335052
0.01,1.7975,1.0,1365.278162149713,0.10641824305395733,1.3471429572073923,0.7232582975717136,0.288548,0.6157262986648808
0.0105,1.79724375,1.0,1439.7698388328067,0.11143053012693795,1.3460825654286306,0.7406685873597625,0.2885372375,0.6180703377115359
0.011,1.796975,1.0,1511.4149460431422,0.11641470200123681,1.345075420900681,0.7565492292723889,0.28852595000000003,0.6202900315376845
0.0115,1.79669375,1.0,1580.2100315708046,0.12137091682270108,1.3441174196031738,0.771056994987194,0.2885141375,0.622395413028231
0.012,1.7964,1.0,1646.1600102859438,0.1262993315869898,1.3432049593850963,0.7843323449123157,0.28850180000000003,0.6243952673899056
0.0125,1.79609375,1.0,1709.2704201869342,0.1312001015174965,1.3423349269714613,0.796500716020253,0.2884889375,0.6262971867839422
0.013000000000000001,1.7957750000000001,1.0,1769.582218093288,0.13607338177535028,1.341504218582915,0.8076737178270246,0.28847555,0.6281086374045686
0.0135,1.79544375,1.0,1827.1556330017297,0.1409193265521869,1.3407098828933275,0.8179506020095465,0.2884616375,0.6298366572028542
0.014,1.7951000000000001,1.0,1882.0681359282748,0.14573809041930097,1.3399490993395455,0.827419592111138,0.2884472,0.6314879140887494
0.0145,1.79474375,1.0,1934.3684821841798,0.15052982464018616,1.3392196367863503,0.8361592778946599,0.2884322375,0.6330677232733948
0.015,1.794375,1.0,1984.1261434675143,0.15529468047833606,1.3385192640985226,0.8442395135429153,0.28841675,0.6345813387569985
0.0155,1.79399375,1.0,2031.426487062115,0.16003280893086425,1.3378457822485987,0.8517224508659609,0.2884007375,0.636033888446532
0.016,1.7936,1.0,2076.357004788628,0.16474436010232385,1.3371971487545653,0.8586634869585628,0.2883842,0.6374301111983149
0.0165,1.7931937500000001,1.0,2119.0155665994025,0.16942948457383322,1.3365713687997474,0.8651120303083396,0.2883671375,0.6387745972712515
0.017,1.792775,1.0,2159.4679026309245,0.17408832913617536,1.335966913842813,0.8711123270697722,0.28834955,0.6400708954175252
0.0175,1.7923437500000001,1.0,2197.790399588838,0.17872104058013333,1.3353822553424302,0.8767039357167069,0.2883314375,0.6413225216882175
0.018000000000000002,1.7919,1.0,2234.0692126286744,0.18332776569649026,1.3348158647572672,0.8819222783385817,0.2883128,0.6425329614376383
0.0185,1.79144375,1.0,2268.3890456163517,0.18790865009976834,1.3342663170765696,0.886799149711749,0.2882936375,0.64370545047215
0.019,1.790975,1.0,2300.844576506714,0.19246384050425855,1.3337321662747805,0.8913631066654526,0.28827395,0.6448432436018567
0.0195,1.79049375,1.0,2331.51249272974,0.19699348086838295,1.3332122142665783,0.8956399019364911,0.2882537375,0.6459490442077931
0.02,1.79,1.0,2360.4594983613674,0.20149771322323645,1.3327054186385607,0.8996527784674188,0.288233,0.6470252053843752
0.0205,1.78949375,1.0,2387.75736183843,0.20597667959991392,1.332210736977326,0.9034227155206205,0.2882117375,0.6480740632556823
0.021,1.788975,1.0,2413.48249346595,0.2104305220295103,1.3317271268694721,0.9069686799468685,0.28818995000000003,0.64909793781545
0.021500000000000002,1.78844375,1.0,2437.6951629658934,0.21485938105250696,1.3312537419608115,0.910307887757672,0.2881676375,0.6500987195056127
0.022,1.7879,1.0,2460.4964172516134,0.21926339888568322,1.3307893789113225,0.9134558792489956,0.2881448,0.6510790395390991
0.0225,1.7873469771522594,1.0,2482.0945476820134,0.22364271515154133,1.3303333062264022,0.9164268654087528,0.2881215730403949,0.6520405191247896
0.023,1.7867934592904504,1.0,2502.9247140421467,0.22799746684868258,1.3298851947596864,0.9192338503763448,0.2880983252901989,0.6529839230815173
0.0235,1.7862399414286414,1.0,2523.0345901367814,0.23232779097570838,1.3294447153648112,0.9218886793195783,0.28807507754000294,0.6539100112187453
0.024,1.7856864235668324,1.0,2542.44945349659,0.23663382453122003,1.3290115388954125,0.9244021576700205,0.2880518297898069,0.6548195385002312
0.0245,1.7851329057050234,1.0,2561.1954820667434,0.24091570451381888,1.3285853362051263,0.9267841566665764,0.28802858203961096,0.6557132552007785
0.025,1.7845793878432143,1.0,2579.297076316137,0.2451735665930223,1.3281658027002048,0.9290437104622492,0.288005334289415,0.6565918556700583
0.025500000000000002,1.7840258699814053,1.0,2596.7773497441767,0.2494075464791764,1.3277526528914028,0.9311890985310479,0.28798208653921903,0.6574559901870143
0.026000000000000002,1.7834723521195963,1.0,2613.657683811887,0.25361777716870537,1.3273456238103094,0.9332279183124397,0.28795883878902306,0.658306258202294
0.0265,1.7829188342577873,1.0,2629.9596683257673,0.2578043912947267,1.3269444563259134,0.9351671489343855,0.28793559103882704,0.6591432476969161
0.027,1.7823653163959783,1.0,2645.7054759675134,0.26196752149035807,1.3265488913072039,0.9370132094296711,0.2879123432886311,0.6599675433228187
0.0275,1.7818117985341695,1.0,2660.9065396900537,0.26610729041132086,1.3261587735561569,0.9387720226035233,0.2878890955384351,0.6607795103072182
0.028,1.7812582806723605,1.0,2675.5998615511553,0.27022384279098716,1.325773716749127,0.9404490245487386,0.28786584778823915,0.6615799919498073
0.0285,1.7807047628105515,1.0,2689.808882495487,0.2743173119489536,1.3253934646138419,0.9420492478536748,0.2878426000380432,0.6623695573552311
0.029,1.7801512449487424,1.0,2703.549011574226,0.27838782391063377,1.3250178383921938,0.943577351948559,0.28781935228784716,0.6631486120116894
0.029500000000000002,1.7795977270869334,1.0,2716.8360031093553,0.2824355047014413,1.3246466593260753,0.9450376482004211,0.2877961045376512,0.6639175592742961
0.03,1.7790442092251244,1.0,2729.6859387133563,0.28646048034678967,1.3242797486573792,0.946434130379538,0.28777285678745523,0.6646768004167952
0.0305,1.7784906913633154,1.0,2742.1152100181343,0.2904628768720926,1.3239169276279978,0.947770502097737,0.2877496090372592,0.665426734681245
0.031,1.7779371735015064,1.0,2754.14050211249,0.2944428203027636,1.3235580174798236,0.9490502015524439,0.28772636128706325,0.6661677593256574
0.0315,1.7773836556396974,1.0,2765.7787776869827,0.29840043666421623,1.3232028394547495,0.9502764238702779,0.2877031135368673,0.6669002696696028
0.032,1.7768301377778883,1.0,2777.0472618887884,0.3023358519818641,1.3228512147946674,0.951452141309056,0.2876798657866713,0.6676246591377792
0.0325,1.7762766199160795,1.0,2787.9634278836807,0.3062491922811208,1.3225029647414703,0.9525801215465919,0.28765661803647535,0.6683413193015368
0.033,1.7757231020542705,1.0,2798.5449831274886,0.31014058358739993,1.3221579105370507,0.9536629442580677,0.28763337028627933,0.6690506399183727
0.0335,1.7751695841924615,1.0,2808.797930011074,0.31401013825926566,1.32181598028785,0.9547030246261305,0.28761012253608337,0.6697527896408488
0.034,1.7746160663306525,1.0,2818.7486359107347,0.3178579959984556,1.3214769210580946,0.9557026050122777,0.2875868747858874,0.6704483074840806
0.0345,1.7740625484688435,1.0,2828.4081349652984,0.3216842763104308,1.321140619130481,0.9566637912323603,0.28756362703569144,0.6711374449760564
0.035,1.7735090306070345,1.0,2837.7863752453854,0.32548909716677427,1.3208069717090292,0.9575885540192224,0.2875403792854955,0.6718204301750069
0.035500000000000004,1.7729555127452254,1.0,2846.8934292033186,0.32927257653906894,1.3204758759977595,0.9584787385354958,0.28751713153529945,0.6724974901258567
0.036000000000000004,1.7724019948834164,1.0,2855.739487740972,0.33303483239889775,1.3201472292006922,0.9593360738240255,0.2874938837851035,0.6731688508772943
0.0365,1.7718484770216074,1.0,2864.334854510572,0.3367759827178437,1.3198209285218474,0.9601621814439378,0.2874706360349075,0.6738347374981613
0.037,1.7712949591597984,1.0,2872.6899404507135,0.3404961454674898,1.3194968711652455,0.9609585833709076,0.2874473882847115,0.6744953740931714
0.0375,1.7707414412979896,1.0,2880.8152585565745,0.344195438619419,1.3191749543349065,0.9617267092318436,0.2874241405345156,0.6751509838179539
0.038,1.7701879234361806,1.0,2888.7214188835655,0.3478739801452142,1.3188550752348507,0.9624679029368292,0.2874008927843196,0.6758017888934238
0.0385,1.7696344055743716,1.0,2896.4191237866517,0.35153188801645846,1.3185371310690983,0.9631834287646225,0.2873776450341236,0.6764480106194773
0.039,1.7690808877125626,1.0,2903.9172387617355,0.3551692762331075,1.3182210360023268,0.963874477741386,0.28735439728392764,0.6770898349668555
0.0395,1.7685273698507535,1.0,2911.2208861345366,0.35878625320136975,1.3179067377936886,0.9645421739490044,0.2873311495337316,0.6777273790349966
0.04,1.7679738519889445,1.0,2918.3467264194655,0.36238295239557544,1.3175940832290027,0.9651875728129995,0.28730790178353566,0.6783609639602337
0.0405,1.7674203341271355,1.0,2925.300457762797,0.3659594837523015,1.3172830162610967,0.9658116742188435,0.2872846540333397,0.678990712985525
0.041,1.7668668162653265,1.0,2932.087825842962,0.36951595720812463,1.3169734808427984,0.9664154221354365,0.2872614062831437,0.6796167488596943
0.0415,1.7663132984035175,1.0,2938.7146219328088,0.3730524826996218,1.3166654209269357,0.9669997083262624,0.28723815853294776,0.6802391938430058
0.042,1.7657597805417085,1.0,2945.1866810309116,0.37656917016336994,1.316358780466336,0.9675653757772209,0.28721491078275174,0.6808581697125404
0.0425,1.7652062626798997,1.0,2951.5098800632986,0.3800661295359459,1.3160535034138272,0.9681132218654666,0.2871916630325558,0.6814737977673658
0.043000000000000003,1.7646527448180906,1.0,2957.6901361538808,0.38354347075392636,1.315749533722237,0.9686440012912697,0.2871684152823598,0.682086198833514
0.043500000000000004,1.7640992269562816,1.0,2963.7334049652045,0.3870013037538884,1.3154468153443932,0.969158428792851,0.2871451675321638,0.682695493268751
0.044,1.7635457090944726,1.0,2969.645679109093,0.39043973847240876,1.3151452922331235,0.9696571816622757,0.2871219197819678,0.6833018009671531
0.0445,1.7629921912326636,1.0,2975.4329866259095,0.3938588848460644,1.3148449083412554,0.9701409020788326,0.28709867203177186,0.6839052413634772
0.045,1.7624386733708546,1.0,2981.1013895343895,0.3972588528114322,1.314545607621617,0.9706101992748092,0.2870754242815759,0.6845059334373332
0.0455,1.7618851555090456,1.0,2986.656192061848,0.4006397492678177,1.3142473408951199,0.9710656516356021,0.28705217653137993,0.685103981952635
0.046,1.7613316376472365,1.0,2992.097531615722,0.4040016639040017,1.3139501040854862,0.9715078094589419,0.2870289287811839,0.6856994009716595
0.0465,1.7607781197854275,1.0,2997.4377098417226,0.4073447351885166,1.313653787681639,0.9719371946097701,0.28700568103098795,0.6862924154112288
0.047,1.7602246019236185,1.0,3002.6797103425242,0.410669064550807,1.3133583633682104,0.9723543040939703,0.286982433280792,0.6868830870765198
0.0475,1.7596710840618097,1.0,3007.826533541186,0.4139747534203175,1.3130638028298316,0.9727596107112302,0.286959185530596,0.6874714775437638
0.048,1.7591175662000007,1.0,3012.8811961294386,0.4172619032264928,1.3127700777511346,0.9731535644601141,0.28693593778040005,0.6880576481618279
0.0485,1.7585640483381917,1.0,3017.8467305347835,0.4205306153987775,1.312477159816751,0.9735365938489637,0.28691269003020403,0.6886416600537519
0.049,1.7580105304763827,1.0,3022.7261844046757,0.4237809913666163,1.3121850207113124,0.973909107119762,0.28688944228000807,0.6892235741182318
0.0495,1.7574570126145737,1.0,3027.5226201085884,0.4270131325594538,1.3118936321194503,0.9742714933914803,0.2868661945298121,0.6898034510310491
0.05,1.7569034947527646,1.0,3032.2391142579904,0.4302271404067346,1.3116029657257968,0.9746241237288972,0.2868429467796161,0.6903813512464537
0.0505,1.7563499768909556,1.0,3036.878757244448,0.4334231163379034,1.3113129932149832,0.9749673521423714,0.2868196990294201,0.6909573349984944
0.051000000000000004,1.7557964590291466,1.0,3041.4446527945306,0.4366011617824048,1.3110236862716411,0.975301516523618,0.28679645127922415,0.6915314623022952
0.051500000000000004,1.7552429411673376,1.0,3045.9399175433973,0.4397613781696835,1.3107350165804026,0.9756269395221103,0.2867732035290282,0.6921037929552836
0.052000000000000005,1.7546894233055286,1.0,3050.367680625876,0.4429038669291841,1.3104469558258989,0.9759439293663716,0.2867499557788322,0.6926743865383687
0.0525,1.7541359054437198,1.0,3054.731083285154,0.4460287294903511,1.310159475692762,0.9762527806340754,0.2867267080286362,0.6932433024170632
0.053,1.7535823875819108,1.0,3059.0332784995844,0.4491360672826294,1.3098725478656232,0.9765537749745615,0.28670346027844024,0.6938105997425608
0.0535,1.7530288697201017,1.0,3063.2721469003077,0.45222594283303624,1.3095861893642298,0.9768471806439629,0.28668021252824427,0.6943762479430333
0.054,1.7524753518582927,1.0,3067.4557379671933,0.45529850323697124,1.3093003299886234,0.9771332575185754,0.2866569647780483,0.6949403886126551
0.0545,1.7519218339964837,1.0,3071.5858599078756,0.45835384391013234,1.3090149532243593,0.9774122524396422,0.28663371702785234,0.6955030570272545
0.055,1.7513683161346747,1.0,3075.6639384033056,0.46139205717420484,1.3087300458904778,0.977684401712403,0.2866104692776563,0.6960642817744371
0.0555,1.7508147982728657,1.0,3079.6914047115606,0.4644132353508739,1.3084455948060194,0.9779499317439685,0.28658722152746036,0.6966240913417121
0.056,1.7502612804110567,1.0,3083.669695532229,0.4674174707618248,1.3081615867900247,0.9782090595395136,0.2865639737772644,0.6971825141168817
0.0565,1.7497077625492476,1.0,3087.6002528751455,0.47040485572874285,1.3078780086615343,0.9784619931696591,0.28654072602706837,0.6977395783884192
0.057,1.7491542446874386,1.0,3091.4845239331457,0.4733754825733132,1.3075948472395884,0.9787089322109366,0.2865174782768724,0.6982953123458364
0.0575,1.7486007268256298,1.0,3095.323960957766,0.4763294436172211,1.3073120893432277,0.9789500681610953,0.28649423052667644,0.6988497440800383
0.058,1.7480472089638208,1.0,3099.120021139849,0.47926683118215185,1.3070297217914928,0.9791855848308777,0.2864709827764805,0.6994029015836688
0.0585,1.7474936911020118,1.0,3102.8741664934337,0.4821877375897906,1.3067477314034242,0.9794156587137731,0.2864477350262845,0.6999548127514438
0.059000000000000004,1.7469401732402028,1.0,3106.5878637433984,0.4850922551618227,1.3064661049980621,0.9796404593351566,0.2864244872760885,0.7005055053804743
0.059500000000000004,1.7463866553783938,1.0,3110.2625842176185,0.48798047621993335,1.3061848293944474,0.9798601495821092,0.2864012395258925,0.7010550071705777
0.06,1.7458331375165848,1.0,3113.8998037420315,0.49085249308580775,1.3059038914116203,0.980074886015139,0.28637799177569656,0.7016033457245778
0.0605,1.7452796196547757,1.0,3117.501002540324,0.4937083980811312,1.3056232778686214,0.9802848191629232,0.2863547440255006,0.7021505485485952
0.061,1.7447261017929667,1.0,3121.0676651370854,0.49654828352758895,1.3053429755844912,0.9804900938011243,0.28633149627530463,0.702696643052324
0.0615,1.7441725839311577,1.0,3124.6012802648497,0.4993722417468662,1.3050629713782704,0.9806908492162528,0.2863082485251086,0.7032416565493003
0.062,1.743619066069349,1.0,3128.1027328195614,0.5021803539698015,1.304783257231011,0.9808872188894449,0.28628500077491265,0.7037856062233909
0.0625,1.74306554820754,1.0,3131.5707066992877,0.5049726676462583,1.3045038438243506,0.9810793297943043,0.2862617530247167,0.7043284728832765
0.063,1.7425120303457309,1.0,3135.0100345583232,0.5077493452658364,1.30422468967113,0.9812673100095692,0.28623850527452066,0.7048703386304357
0.0635,1.7419585124839219,1.0,3138.4213277963927,0.510510469224499,1.303945789162124,0.981451278847083,0.2862152575243247,0.7054112157226201
0.064,1.7414049946221128,1.0,3141.8051996863055,0.5132561219182092,1.3036671366881079,0.9816313512850362,0.28619200977412873,0.7059511163764223
0.0645,1.7408514767603038,1.0,3145.1622653429354,0.5159863857429301,1.303388726639856,0.9818076381570882,0.28616876202393277,0.7064900527673683
0.065,1.7402979588984948,1.0,3148.4931416926524,0.5187013430946247,1.303110553408144,0.9819802463319104,0.2861455142737368,0.7070280370300023
0.0655,1.7397444410366858,1.0,3151.7984474434543,0.5214010763692561,1.3028326113837465,0.982149278883698,0.2861222665235408,0.7075650812579743
0.066,1.7391909231748768,1.0,3155.078803056071,0.5240856679627874,1.3025548949574384,0.9823148352541679,0.2860990187733448,0.7081011975041245
0.0665,1.7386374053130678,1.0,3158.3348307153506,0.5267552002711817,1.3022773985199947,0.9824770114065254,0.28607577102314885,0.7086363977805623
0.067,1.7380838874512587,1.0,3161.567154302481,0.529409755690402,1.3020001164621904,0.9826358999718506,0.28605252327295283,0.7091706940587483
0.0675,1.73753036958945,1.0,3164.7763993684366,0.5320494166164116,1.3017230431748006,0.982791590388332,0.2860292755227569,0.7097040982695708
0.068,1.736976851727641,1.0,3167.9631931069266,0.5346742654451734,1.3014461730485998,0.9829441690337384,0.2860060277725609,0.7102366223034235
0.0685,1.736423333865832,1.0,3171.1281643296984,0.5372843845726505,1.3011695004743633,0.9830937193515078,0.28598278002236494,0.7107682780102758
0.069,1.735869816004023,1.0,3174.271943440662,0.539879856394806,1.300893019842866,0.9832403219708015,0.28595953227216897,0.7112990771997468
0.0695,1.7353162981422139,1.0,3177.395162412385,0.542460763307603,1.3006167255448828,0.9833840548208478,0.28593628452197295,0.7118290316411754
0.07,1.7347627802804049,1.0,3180.4984547623153,0.5450271877070045,1.3003406119711889,0.9835249932398887,0.285913036771777,0.7123581530636854
