Time [s],Phi [rad],STIM [ ],Fsee [N],Gamma [ ],Lcerel [ ],q [ ],Lmtc [m],fisomrel [ ]
0.0,1.8,1.0,17.968345669383734,1.8820451590386165e-05,1.3793396131820037,0.005000093933139843,0.288653,0.5411398529047442
0.0005,1.79999375,1.0,18.280542083017945,0.005627924192537983,1.3793019659345511,0.012965017787780236,0.2886527375,0.5412309267799255
0.001,1.799975,1.0,21.628672896763362,0.011205565296377742,1.378937251129963,0.03565454819848978,0.28865195,0.5421127541647559
0.0015,1.79994375,1.0,31.09338752809182,0.016751920244496205,1.3780441465017939,0.07066462495467721,0.2886506375,0.5442685691828133
0.002,1.7999,1.0,53.63416016475711,0.02226716452661548,1.376364773776206,0.11479235028844678,0.2886488,0.5483085365445961
0.0025,1.79984375,1.0,97.2058292342275,0.027751472648415966,1.373930981097455,0.1646557395425639,0.28864643749999996,0.5541314457126748
0.003,1.7997750000000001,1.0,161.0713346069412,0.03320501813917481,1.3712101085226411,0.21736386212641845,0.28864354999999997,0.5605964774572991
0.0035,1.79969375,1.0,237.81124651085688,0.03862797355141915,1.368580794643744,0.27069585002700747,0.2886401375,0.5667991001906447
0.004,1.7996,1.0,321.6028955910574,0.044020510471692476,1.3661524873662518,0.3229961335458044,0.2886362,0.5724883800877131
0.0045000000000000005,1.7994937500000001,1.0,409.40874849479826,0.049382799525743766,1.3639195046980082,0.3731107656791666,0.2886317375,0.5776868434322591
0.005,1.799375,1.0,499.5573798327158,0.05471501036962902,1.3618552852210457,0.4203188078641429,0.28862675,0.5824641344311086
0.0055,1.79924375,1.0,590.9356133529151,0.06001731173687188,1.359935998430339,0.46423975584768534,0.2886212375,0.5868816231950096
0.006,1.7991000000000001,1.0,682.6635074422638,0.06528987138241633,1.3581437719192624,0.5047406697291819,0.2886152,0.5909854548324087
0.006500000000000001,1.79894375,1.0,774.0279400304852,0.07053285613558531,1.356464749775043,0.5418562456284852,0.2886086375,0.5948114865045152
0.007,1.798775,1.0,864.4333868771274,0.07574643189650962,1.354888011278113,0.5757273197455973,0.28860155,0.5983880722291643
0.0075,1.79859375,1.0,953.3897321447016,0.08093076361089163,1.3534045256989464,0.6065558687244139,0.2885939375,0.6017386518351491
0.008,1.7984,1.0,1040.5029084666114,0.08608601532664081,1.3520065196261442,0.6345738048443048,0.2885858,0.6048833231527073
0.0085,1.79819375,1.0,1125.4614167314116,0.09121235016262977,1.350687157908472,0.6600223106921851,0.2885771375,0.60783965968775
0.009000000000000001,1.797975,1.0,1208.013912892071,0.09630992998985924,1.3494404810703258,0.6831388373425388,0.28856795,0.6106229278996789
0.0095,1.79774375,1.0,1287.9857058220236,0.10137891614632709,1.3482608865694927,0.704149104208989,0.2885582375,0.6132473051206344
0.01,1.7975,1.0,1365.2923583808595,0.1064194707136725,1.3471427747553457,0.7232627937813954,0.288548,0.61572670259936
0.0105,1.79724375,1.0,1439.8051450371113,0.11143175165288154,1.3460821235640301,0.7406725541607558,0.2885372375,0.6180713129764395
0.011,1.796975,1.0,1511.4566955400035,0.1164159169249403,1.3450749109316906,0.7565528081067967,0.28852595000000003,0.6202911538440236
0.0115,1.79669375,1.0,1580.2355467805266,0.1213721244908349,1.3441171147944728,0.7710603489242199,0.2885141375,0.622396081969157
0.012,1.7964,1.0,1646.1649118674343,0.12630053188345364,1.343204902014778,0.7843355176730178,0.28850180000000003,0.6243953929624573
0.0125,1.79609375,1.0,1709.2755961567252,0.13120129525906157,1.3423348675185136,0.7965036250309945,0.2884889375,0.626297316585082
0.013000000000000001,1.7957750000000001,1.0,1769.59534099937,0.13607456911635074,1.3415040704398855,0.8076763547630624,0.28847555,0.6281089600541765
0.0135,1.79544375,1.0,1827.1705580204155,0.1409205075808378,1.3407097170822262,0.8179530209264404,0.2884616375,0.6298370174928234
0.014,1.7951000000000001,1.0,1882.0717131529289,0.14573926408075832,1.3399490601819768,0.8274218659680777,0.2884472,0.6314879989840265
0.0145,1.79474375,1.0,1934.374639734224,0.15053099165163303,1.339219570301089,0.8361613678236762,0.2884322375,0.633067867106966
0.015,1.794375,1.0,1984.1392230430945,0.1552958411525059,1.3385191246558574,0.8442414217132056,0.28841675,0.634581639803036
0.0155,1.79399375,1.0,2031.4432393135096,0.16003396339874132,1.3378456057427466,0.8517242059382161,0.2884007375,0.6360342687510097
0.016,1.7936,1.0,2076.365789777881,0.16474550768093926,1.3371970572006042,0.8586651405799817,0.2883842,0.6374303080843509
0.0165,1.7931937500000001,1.0,2119.021723965159,0.1694306257008643,1.336571305279096,0.8651135753621494,0.2883671375,0.6387747336183852
0.017,1.792775,1.0,2159.474308080308,0.17408946405249381,1.3359668483847298,0.8711137648599319,0.28834955,0.6400710356710204
0.0175,1.7923437500000001,1.0,2197.7973513101488,0.1787221693298051,1.3353821849240144,0.8767052748117342,0.2883314375,0.6413226723073795
0.018000000000000002,1.7919,1.0,2234.07433391096,0.18332888812677553,1.334815813303458,0.8819235335541302,0.2883128,0.6425330713072193
0.0185,1.79144375,1.0,2268.393842865012,0.18790976657654562,1.3342662692443419,0.8868003245633466,0.2882936375,0.6437055524409092
0.019,1.790975,1.0,2300.841739562965,0.19246494998024202,1.3337321943610845,0.8913642251280657,0.28827395,0.6448431838231357
0.0195,1.79049375,1.0,2331.5078199477603,0.1969945839783868,1.3332122602227918,0.8956409552542343,0.2882537375,0.6459489465472528
0.02,1.79,1.0,2360.456188347954,0.20149881033858946,1.3327054509918925,0.8996537647823023,0.288233,0.6470251367355913
0.0205,1.78949375,1.0,2387.755936339711,0.20597777082845956,1.3322107508308154,0.9034236390154511,0.2882117375,0.6480740339044193
0.021,1.788975,1.0,2413.4807314353675,0.21043160721560653,1.331727143901989,0.906969550088744,0.28818995000000003,0.6490979017813425
0.021500000000000002,1.78844375,1.0,2437.705031879045,0.21486046073191442,1.3312536470388798,0.910308684324952,0.2881676375,0.6500989200364835
0.022,1.7879003005134992,1.0,2460.5144103110297,0.21926447150917,1.330789342368768,0.9134566416947362,0.288144812621567,0.6510791166302232
0.0225,1.7873530414690773,1.0,2482.363807138522,0.22364378148271685,1.3303334784729592,0.9164276272026162,0.28812182774170125,0.6520401562498565
0.023,1.786805782424655,1.0,2503.4543812425354,0.2279985273760956,1.3298857326443696,0.9192346429832802,0.2880988428618355,0.6529827914467077
0.0235,1.786258523380233,1.0,2523.809439796434,0.23232884591284697,1.3294457821759151,0.9218895323850284,0.2880758579819698,0.6539077697911335
0.024,1.785711264335811,1.0,2543.4532573421775,0.23663487381651163,1.3290133043605117,0.924403099186218,0.28805287310210403,0.6548158340362797
0.0245,1.785164005291389,1.0,2562.411021169869,0.24091674781063022,1.3285879764910755,0.9267852131220439,0.28802988822223835,0.6557077222751926
0.025,1.7846167462469669,1.0,2580.706522252947,0.24517460295976737,1.3281694969566118,0.9290449062000928,0.2880069033423726,0.656584123938917
0.025500000000000002,1.7840694872025449,1.0,2598.3666335182747,0.24940857596462915,1.3277575426970003,0.9311904499444401,0.28798391846250687,0.6574457691493114
0.026000000000000002,1.783522228158123,1.0,2615.416234899265,0.25361880171872836,1.3273518162619116,0.9332294355925884,0.2879609335826412,0.6582933303253434
0.0265,1.7829749691137007,1.0,2631.8760664439787,0.25780541166552673,1.3269520648607083,0.935168841728991,0.28793794870277545,0.6591273829187475
0.027,1.7824277100692787,1.0,2647.767454622475,0.26196853724848607,1.3265580357027529,0.9370150869302053,0.2879149638229097,0.6599484991006364
0.0275,1.7818804510248567,1.0,2663.11227954646,0.2661083099110681,1.326169475997408,0.9387740821689453,0.28789197894304397,0.6607572478557916
0.028,1.7813331919804347,1.0,2677.9329436060907,0.27022486109673466,1.3257861329540364,0.9404512776792939,0.28786899406317823,0.6615541950728794
0.0285,1.7807859329360125,1.0,2692.247809461146,0.27431831825285535,1.3254077952607386,0.9420517093147676,0.2878460091833125,0.6623398175495703
0.029,1.7802386738915905,1.0,2706.0760168556812,0.2783888093997428,1.3250342483210447,0.9435800312228807,0.2878230243034468,0.6631145963596092
0.029500000000000002,1.7796914148471685,1.0,2719.4524630371243,0.28243647702174884,1.324665137667409,0.9450405360651903,0.28780003942358107,0.6638792996919718
0.03,1.7791441558027463,1.0,2732.3916253937236,0.2864614454872536,1.324300299080746,0.9464372193945156,0.2877770545437153,0.6646342985208505
0.0305,1.7785968967583243,1.0,2744.9082772791166,0.2904638391646372,1.3239395683419712,0.9477737864931763,0.28775406966384964,0.6653799619337288
0.031,1.7780496377139023,1.0,2757.0174727566564,0.2944437824222798,1.3235827812319994,0.9490536771233881,0.2877310847839839,0.666116657175268
0.0315,1.7775023786694804,1.0,2768.734531942056,0.2984013996285616,1.3232297735317455,0.950280087877082,0.28770809990411816,0.6668447496894658
0.032,1.7769551196250581,1.0,2780.0750269435584,0.30233681515186267,1.322880381022125,0.9514559923839567,0.2876851150242524,0.6675646031601001
0.0325,1.7764078605806362,1.0,2791.0547683999544,0.3062501533605632,1.3225344394840524,0.9525841596061143,0.2876621301443867,0.6682765795494521
0.033,1.7758606015362142,1.0,2801.6897926170877,0.31014153862304333,1.3221917846984428,0.9536671704210226,0.287639145264521,0.668981039135307
0.0335,1.775313342491792,1.0,2811.9963493011815,0.3140110953076832,1.3218522524462115,0.954707432671282,0.28761616038465526,0.6696783405462376
0.034,1.77476608344737,1.0,2821.9908898915774,0.3178589477828629,1.3215156785082733,0.9557071948392999,0.2875931755047895,0.6703688407951678
0.0345,1.774218824402948,1.0,2831.68243914993,0.32168521079120704,1.3211819666435092,0.9566685634676588,0.28757019062492384,0.6710527560682646
0.035,1.773671565358526,1.0,2841.089901611775,0.3254900148192714,1.3208509337433318,0.957593503804025,0.2875472057450581,0.6717304793240819
0.035500000000000004,1.7731243063141038,1.0,2850.2279540678855,0.32927348401002177,1.3205224359613799,0.9584838584214403,0.28752422086519236,0.6724023215732882
0.036000000000000004,1.7725770472696818,1.0,2859.105724173118,0.3330357347868022,1.3201963800504148,0.9593413573355272,0.2875012359853266,0.673068489166487
0.0365,1.7720297882252598,1.0,2867.7324455257944,0.336776883572957,1.3198726727631984,0.9601676230283339,0.2874782511054609,0.673729187561632
0.037,1.7714825291808376,1.0,2876.1174527157946,0.3404970467918303,1.319551220852492,0.9609641783510333,0.2874552662255952,0.6743846213382714
0.0375,1.7709352701364156,1.0,2884.27017656492,0.3441963408667663,1.3192319310710572,0.9617324537609873,0.28743228134572946,0.6750349942112366
0.038,1.7703880110919936,1.0,2892.2001395610537,0.3478748822211093,1.3189147101716558,0.9624737939560076,0.2874092964658637,0.6756805090437779
0.0385,1.7698407520475716,1.0,2899.9169514841296,0.3515327872782033,1.3185994649070492,0.9631894639621009,0.28738631158599803,0.6763213678601465
0.039,1.7692934930031494,1.0,2907.430305225178,0.35517017246139254,1.318286102029999,0.9638806547252031,0.2873633267061323,0.6769577718576183
0.0395,1.7687462339587274,1.0,2914.749972798433,0.3587871541940213,1.317974528293267,0.9645484882522555,0.28734034182626655,0.6775899214179669
0.04,1.7681989749143054,1.0,2921.885801546081,0.36238384889943365,1.3176646504496143,0.9651940223423985,0.2873173569464008,0.6782180161183813
0.0405,1.7676517158698832,1.0,2928.840111821828,0.3659603567678741,1.3173564419293082,0.9658182578637227,0.2872943720665351,0.6788421197894439
0.041,1.7671044568254612,1.0,2935.628435871993,0.3695168108115235,1.3170497606545664,0.9664221355708114,0.28727138718666934,0.6794625295563845
0.0415,1.7665571977810393,1.0,2942.258111195859,0.3730533244748853,1.3167445370924145,0.9670065468744159,0.28724840230680365,0.6800793948409186
0.042,1.7660099387366173,1.0,2948.7343153560105,0.37657000613782976,1.3164407210397542,0.9675723351797959,0.2872254174269379,0.6806928254714302
0.0425,1.765462679692195,1.0,2955.0622646409442,0.380066964180227,1.3161382622934874,0.9681202982697017,0.2872024325470722,0.681302930848387
0.043000000000000003,1.764915420647773,1.0,2961.2472125264044,0.38354430698194736,1.3158371106505162,0.968651191236419,0.2871794476672065,0.6819098199487678
0.043500000000000004,1.764368161603351,1.0,2967.2944481921954,0.387002142922861,1.315537215907742,0.9691657291968416,0.28715646278734075,0.6825136013303283
0.044,1.7638209025589289,1.0,2973.209295095486,0.39044058038283813,1.315238527862067,0.9696645898086468,0.287133477907475,0.6831143831357039
0.0445,1.7632736435145069,1.0,2978.9971095997207,0.3938597277417491,1.314940996310393,0.9701484156039872,0.28711049302760927,0.6837122730963552
0.045,1.762726384470085,1.0,2984.663279659275,0.3972596933794641,1.314644571049622,0.9706178161556093,0.28708750814774353,0.6843073785363502
0.0455,1.762179125425663,1.0,2990.213223560365,0.4006405856758533,1.3143492018766552,0.9710733700889576,0.28706452326787785,0.6848998063759882
0.046,1.7616318663812407,1.0,2995.652388717018,0.404002513010787,1.3140548385883952,0.9715156269526144,0.2870415383880121,0.6854896631352584
0.0465,1.7610846073368187,1.0,3000.986250524361,0.40734558376413543,1.3137614309817434,0.9719451089583204,0.28701855350814637,0.6860770549371451
0.047,1.7605373482923967,1.0,3006.216848098194,0.41066989182040614,1.3134689588487267,0.9723623128539254,0.2869955686282807,0.6866620275455845
0.0475,1.7599900892479745,1.0,3011.3495561141963,0.41397554954486526,1.3131773732374952,0.9727677115573611,0.28697258374841494,0.6872446839670365
0.048,1.7594428302035525,1.0,3016.391951182502,0.41726267848988025,1.312886606370747,0.9731617549703941,0.2869495988685492,0.6878251643934862
0.0485,1.7588955711591305,1.0,3021.3466882013754,0.4205313784585258,1.3125966332593892,0.9735448717079199,0.28692661398868347,0.6884035231980068
0.049,1.7583483121147085,1.0,3026.2164358397044,0.4237817492538765,1.3123074289143293,0.9739174701206281,0.2869036291088177,0.6889798145565089
0.0495,1.7578010530702863,1.0,3031.00387610429,0.42701389067900725,1.3120189683464742,0.974279939437781,0.28688064422895204,0.6895540924489857
0.05,1.7572537940258643,1.0,3035.711703920383,0.43022790253699256,1.3117312265667316,0.9746326508355296,0.2868576593490863,0.6901264106607177
0.0505,1.7567065349814424,1.0,3040.3426267271448,0.4334238846309072,1.311444178586008,0.9749759584362534,0.28683467446922056,0.6906968227834398
0.051000000000000004,1.7561592759370201,1.0,3044.8993640858785,0.43660193676382586,1.311157799415211,0.9753102002439519,0.2868116895893548,0.6912653822164646
0.051500000000000004,1.7556120168925982,1.0,3049.384647302762,0.43976215873882324,1.3108720640652478,0.9756356990203208,0.28678870470948914,0.6918321421677693
0.052000000000000005,1.7550647578481762,1.0,3053.801219064976,0.4429046503589741,1.3105869475470255,0.9759527631057567,0.2867657198296234,0.6923971556550421
0.0525,1.7545174988037542,1.0,3058.1518330912686,0.4460295114273529,1.3103024248714514,0.9762616871892111,0.28674273494975766,0.6929604755066876
0.053,1.753970239759332,1.0,3062.4392537958074,0.4491368417470346,1.3100184710494327,0.9765627530304951,0.2867197500698919,0.6935221543627936
0.0535,1.75342298071491,1.0,3066.6662559661904,0.45222674112109384,1.3097350610918765,0.9768562301383604,0.28669676519002624,0.6940822446760571
0.054,1.752875721670488,1.0,3070.835624454885,0.4552993093526052,1.3094521700096902,0.9771423764074152,0.2866737803101605,0.6946407987126717
0.0545,1.7523284626260658,1.0,3074.9501538852764,0.45835464624464345,1.3091697728137808,0.9774214387167086,0.28665079543029476,0.6951978685531734
0.055,1.7517812035816438,1.0,3079.007864305,0.46139281138304417,1.3088878854579897,0.9776936520865902,0.286627810550429,0.6957534254377928
0.0555,1.7512339445372218,1.0,3083.0158307423126,0.4644139505123266,1.3086064464246823,0.9779592452914728,0.28660482567056333,0.6963075931923779
0.056,1.7506866854927998,1.0,3086.9758416478003,0.46741815922291663,1.3083254395537571,0.9782184354879481,0.2865818407906976,0.6968604060075971
0.0565,1.7501394264483776,1.0,3090.8891431245293,0.4704055281337697,1.308044853370027,0.9784714307040736,0.28655885591083186,0.6974118887507605
0.057,1.7495921674039556,1.0,3094.756985877124,0.47337614786384097,1.3077646763983055,0.9787184304804066,0.2865358710309661,0.6979620662035915
0.0575,1.7490449083595336,1.0,3098.5806251063323,0.4763301090320859,1.3074848971634057,0.9789596262847287,0.2865128861511004,0.6985109630625315
0.058,1.7484976493151114,1.0,3102.3613204064795,0.47926750225745973,1.3072055041901403,0.9791952019032867,0.2864899012712347,0.6990586039390361
0.0585,1.7479503902706894,1.0,3106.10033566542,0.48218841815891783,1.3069264860033225,0.9794253338100615,0.28646691639136895,0.6996050133598606
0.059000000000000004,1.7474031312262674,1.0,3109.7989389681074,0.4850929473554154,1.3066478311277658,0.979650191515455,0.2864439315115032,0.700150215767338
0.059500000000000004,1.7468558721818452,1.0,3113.4584025025615,0.4879811804659079,1.3063695280882832,0.979869937895706,0.28642094663163753,0.7006942355196513
0.06,1.7463086131374232,1.0,3117.0800024686464,0.4908532081093505,1.3060915654096876,0.9800847295042323,0.2863979617517718,0.7012370968910935
0.0605,1.7457613540930013,1.0,3120.665018990404,0.49370912090469865,1.3058139316167925,0.9802947168660309,0.28637497687190605,0.7017788240723206
0.061,1.7452140950485793,1.0,3124.214736030669,0.4965490094709076,1.3055366152344108,0.9805000447561778,0.2863519919920403,0.7023194411705983
0.0615,1.744666836004157,1.0,3127.7304413089623,0.49937296442693263,1.3052596047873557,0.9807008524634023,0.28632900711217457,0.7028589722100365
0.062,1.744119576959735,1.0,3131.2134262222617,0.502181076391729,1.3049828888004402,0.9808972740396447,0.2863060222323089,0.7033974411318187
0.0625,1.743572317915313,1.0,3134.66498576824,0.5049734359842523,1.3047064557984775,0.9810894385364407,0.28628303735244315,0.7039348717944212
0.063,1.743025058870891,1.0,3138.086418472298,0.5077501338234576,1.3044302943062807,0.9812774702289231,0.2862600524725774,0.7044712879738244
0.0635,1.7424777998264689,1.0,3141.479026316784,0.5105112605283002,1.3041543928486632,0.9814614888281765,0.2862370675927117,0.7050067133637152
0.064,1.741930540782047,1.0,3144.841710337045,0.5132568579845124,1.3038787603106878,0.9816416072556684,0.286214082712846,0.705541132117473
0.0645,1.741383281737625,1.0,3148.176996129375,0.5159870531836549,1.3036033748853744,0.9818179388241682,0.28619109783298025,0.7060745878769479
0.065,1.7408360226932027,1.0,3151.486888000738,0.5187019585449477,1.303328219225276,0.9819905919436529,0.2861681129531145,0.7066071155026241
0.0655,1.7402887636487807,1.0,3154.7719177110744,0.5214016547531722,1.3030532884725907,0.9821596695913534,0.28614512807324877,0.7071387255929487
0.066,1.7397415046043587,1.0,3158.0326185585545,0.5240862224931101,1.3027785777695164,0.9823252711184913,0.2861221431933831,0.7076694287113166
0.0665,1.7391942455599365,1.0,3161.2695253554066,0.5267557424495425,1.3025040822582514,0.9824874924038226,0.28609915831351734,0.7081992353861386
0.067,1.7386469865155145,1.0,3164.483174405004,0.5294102953072511,1.3022297970809935,0.9826464259996319,0.2860761734336516,0.7087281561109104
0.0675,1.7380997274710925,1.0,3167.674103478459,0.5320499617510174,1.3019557173799405,0.9828021612705968,0.28605318855378586,0.7092562013442777
0.068,1.7375524684266705,1.0,3170.8428517924767,0.5346748224656227,1.3016818382972908,0.9829547845259188,0.2860302036739202,0.7097833815100998
0.0685,1.7370052093822483,1.0,3173.9899599872365,0.5372849581358485,1.3014081549752423,0.9831043791450927,0.28600721879405444,0.7103097069975137
0.069,1.7364579503378264,1.0,3177.115970105473,0.5398804494464764,1.3011346625559927,0.9832510256976592,0.2859842339141887,0.7108351881609962
0.0695,1.7359106912934044,1.0,3180.221425571262,0.5424613770822877,1.3008613561817406,0.9833948020572724,0.28596124903432296,0.7113598353204204
0.07,1.7353634322489822,1.0,3183.3068711699,0.545027821728064,1.3005882309946835,0.9835357835103844,0.2859382641544572,0.7118836587611187
