Time [s],Phi [rad],STIM [ ],Fsee [N],Gamma [ ],Lcerel [ ],q [ ],Lmtc [m],fisomrel [ ]
0.0,1.8,1.0,17.968434780933155,3.9186486330293935e-05,1.3793396031988723,0.00500040487210948,0.288653,0.5411398770565119
0.0005,1.79999375,1.0,18.287517406885204,0.005648175989935896,1.3793011912662285,0.01302174013122536,0.2886527375,0.5412328007143493
0.001,1.799975,1.0,21.650853693523075,0.011225703497204257,1.3789349868074643,0.03576082597105767,0.28865195,0.5421182263176878
0.0015,1.79994375,1.0,31.147866224259992,0.016771945485947723,1.3780395089373627,0.07081001503215817,0.2886506375,0.5442797502627477
0.002,1.7999,1.0,53.753077244648644,0.022287077442278563,1.3763570670426641,0.11496448363512715,0.2886488,0.548327034716338
0.0025,1.79984375,1.0,97.4067264967688,0.027771273868379773,1.3739213096600629,0.16484297395101857,0.28864643749999996,0.5541545095092583
0.003,1.7997750000000001,1.0,161.33329292350328,0.033224708289948335,1.3712003106008341,0.21755700464546968,0.28864354999999997,0.5606196728630238
0.0035,1.79969375,1.0,238.10754025174722,0.038647553256002574,1.3685716733078324,0.2708879409176647,0.2886401375,0.5668205409281394
0.004,1.7996,1.0,321.91831361176236,0.04403998034960729,1.3661441369628082,0.32318212285324605,0.2886362,0.5725078793614806
0.0045000000000000005,1.7994937500000001,1.0,409.73549975555187,0.0494021601930746,1.3639118374508463,0.3732873134425108,0.2886317375,0.577704638275347
0.005,1.799375,1.0,499.8908848995137,0.05473426243916865,1.361848200468937,0.4204839780023081,0.28862675,0.5824804841115818
0.0055,1.79924375,1.0,591.2721517462542,0.06003645581713319,1.3599294250298386,0.4643926753732714,0.2886212375,0.5868967123650823
0.006,1.7991000000000001,1.0,683.0005534614912,0.06530890807939882,1.3581376467281872,0.504881199343879,0.2886152,0.590999445140294
0.006500000000000001,1.79894375,1.0,774.3607027059469,0.07055178602397937,1.3564590704464428,0.5419847609826062,0.2886086375,0.5948243976290113
0.007,1.798775,1.0,864.7646343333417,0.07576525567013714,1.3548826615394782,0.5758444123735317,0.28860155,0.5984001802890822
0.0075,1.79859375,1.0,953.7067985921514,0.08094948173300485,1.3533996496694294,0.6066624457433527,0.2885939375,0.6017496416247595
0.008,1.7984,1.0,1040.8157167993238,0.08610462848439836,1.3520019148194324,0.6346706221058889,0.2885858,0.6048936605977457
0.0085,1.79819375,1.0,1125.7685387519136,0.09123085893304794,1.3506828107707063,0.660110246431092,0.2885771375,0.6078493821108323
0.009000000000000001,1.797975,1.0,1208.3149366508105,0.09632833500152209,1.349436368388316,0.6832187325324761,0.28856795,0.6106320932639833
0.0095,1.79774375,1.0,1288.2968041812087,0.10139721869389368,1.3482567703042243,0.7042216344930309,0.2885582375,0.6132564475040522
0.01,1.7975,1.0,1365.574227952044,0.10643767001227208,1.347139152322614,0.7233289593928576,0.288548,0.6157347223365339
0.0105,1.79724375,1.0,1440.0513294644716,0.11144984803944782,1.3460790426645282,0.7407330385845707,0.2885372375,0.6180781129732261
0.011,1.796975,1.0,1511.6853725670096,0.11643391145079277,1.3450721177728406,0.7566080842228134,0.28852595000000003,0.620297300815583
0.0115,1.79669375,1.0,1580.474714010894,0.12139001878296476,1.3441142577848224,0.7711107985578778,0.2885141375,0.6224023520063802
0.012,1.7964,1.0,1646.4126441560913,0.12631832639211188,1.3432020025556957,0.7843816447552104,0.28850180000000003,0.6244017392913275
0.0125,1.79609375,1.0,1709.5103342138636,0.1312189896914559,1.3423321713320255,0.7965459715582152,0.2884889375,0.6263032030328467
0.013000000000000001,1.7957750000000001,1.0,1769.8122193841903,0.13609216385172537,1.3415016222034377,0.8077153221060865,0.28847555,0.6281142921952185
0.0135,1.79544375,1.0,1827.3830706375495,0.14093800361712966,1.3407073562238994,0.8179888870490433,0.2884616375,0.6298421473690081
0.014,1.7951000000000001,1.0,1882.285689224132,0.14575666265714335,1.3399467179917735,0.8274549128468083,0.2884472,0.6314930769343803
0.0145,1.79474375,1.0,1934.5741345959182,0.15054829250122734,1.3392174163412556,0.836191928645755,0.2884322375,0.633072526947587
0.015,1.794375,1.0,1984.3235002886408,0.1553130446788425,1.3385171601065409,0.8442697358109154,0.28841675,0.6345858811014113
0.0155,1.79399375,1.0,2031.6152229919355,0.1600510697513212,1.3378437937223837,0.8517504733117819,0.2884007375,0.6360381729696029
0.016,1.7936,1.0,2076.5476992981426,0.1647625193165701,1.3371951614493043,0.8586894796358427,0.2883842,0.6374343848698266
0.0165,1.7931937500000001,1.0,2119.1966255002653,0.16944754200331302,1.3365695009974408,0.8651362133017911,0.2883671375,0.6387786064997887
0.017,1.792775,1.0,2159.6330834090445,0.1741062849798504,1.3359652258709447,0.8711348804168434,0.28834955,0.6400745121348378
0.0175,1.7923437500000001,1.0,2197.9390517742636,0.17873889541448268,1.335380749573967,0.8767250044944679,0.2883314375,0.6413257423954213
0.018000000000000002,1.7919,1.0,2234.2064833894447,0.18334552047551034,1.3348144856106587,0.8819419771295988,0.2883128,0.6425359063305804
0.0185,1.79144375,1.0,2268.5090375475843,0.1879263052430069,1.3342651206806933,0.8868176101620071,0.2882936375,0.643708000944903
0.019,1.790975,1.0,2300.9668279806415,0.19248139729328817,1.33373095597746,0.8913803837790145,0.28827395,0.6448458195866413
0.0195,1.79049375,1.0,2331.6352649962646,0.19701093910697873,1.333211006833523,0.8956560962383069,0.2882537375,0.6459516100924423
0.02,1.79,1.0,2360.574563784091,0.2015150731262627,1.332704293959405,0.8996679960082269,0.288233,0.6470275917760646
0.0205,1.7894952328856506,1.0,2387.9187708654817,0.20599394179332425,1.332209838065628,0.9034370668909232,0.2882117997811973,0.6480759677691621
0.021,1.7889888215752685,1.0,2414.1765014166162,0.21044768750864232,1.3317266607866245,0.9069822795977299,0.2881905305061613,0.6490989238627416
0.021500000000000002,1.7884824102648864,1.0,2439.471823155347,0.21487645081577036,1.3312541161221976,0.9103208821866713,0.28816926123112524,0.6500979290564466
0.022,1.7879759989545043,1.0,2463.8287848795826,0.2192803738155055,1.3307918090059119,0.9134685688794871,0.2881479919560892,0.6510739129291975
0.0225,1.7874695876441222,1.0,2487.2775225728205,0.22365959436531696,1.3303393010150453,0.9164395804849067,0.2881267226810531,0.6520278896839646
0.023,1.7869631763337401,1.0,2509.849700589122,0.22801425032267392,1.3298961537268754,0.9192468699899347,0.28810545340601706,0.6529608665695593
0.0235,1.7864567650233583,1.0,2531.5784185313123,0.23234447954504556,1.3294619287186804,0.9219022368002461,0.288084184130981,0.6538738441484923
0.024,1.7859503537129762,1.0,2552.49249111726,0.23665041707426562,1.329036240498918,0.9244164534634431,0.288062914855945,0.6547677054793948
0.0245,1.785443942402594,1.0,2572.6273196030115,0.2409322007496506,1.3286186528919661,0.9267993543337583,0.28804164558090894,0.6556434342202471
0.025,1.784937531092212,1.0,2592.0257677603145,0.2451899721623766,1.3282086711516858,0.9290599288125689,0.2880203763058729,0.6565021306787135
0.025500000000000002,1.7844311197818299,1.0,2610.7118292765695,0.24942386313473996,1.3278059870411527,0.9312064393680474,0.28799910703083687,0.6573444989157387
0.026000000000000002,1.7839247084714478,1.0,2628.7103378532124,0.25363400548903714,1.327410292323443,0.9332464659334235,0.2879778377558008,0.658171238777671
0.0265,1.7834182971610657,1.0,2646.046918386462,0.2578205310475644,1.327021278761633,0.9351869715083976,0.2879565684807648,0.6589830460366913
0.027,1.7829118858506836,1.0,2662.747940254655,0.2619835716326183,1.3266386381187985,0.9370343606572336,0.2879352992057287,0.6597806125251806
0.0275,1.7824054745403015,1.0,2678.8404727120965,0.26612325906649514,1.3262620621580157,0.9387945317488221,0.28791402993069265,0.6605646262640279
0.028,1.7818990632299194,1.0,2694.3522423887716,0.27023972517149125,1.3258912426423608,0.9404729236757483,0.2878927606556566,0.6613357715848786
0.0285,1.7813926519195376,1.0,2709.3115928976526,0.2743331017699031,1.3255258713349098,0.9420745576957796,0.28787149138062057,0.6620947292463257
0.029,1.7808862406091555,1.0,2723.7352312823145,0.2784035128866913,1.3251657511481971,0.9436040875872641,0.28785022210558453,0.6628419460466478
0.029500000000000002,1.7803798292987734,1.0,2737.659663615833,0.2824510974128249,1.3248105090890272,0.9450658010249073,0.2878289528305485,0.663578230820558
0.03,1.7798734179883913,1.0,2751.104687159442,0.286475982160448,1.324459928741912,0.9464636867724772,0.28780768355551245,0.664304064543346
0.0305,1.7793670066780092,1.0,2764.0875291566354,0.2904782919112222,1.324113820365116,0.9478014467366276,0.28778641428047635,0.6650198706898258
0.031,1.778860595367627,1.0,2776.625751277881,0.29445815144680915,1.3237719942169026,0.9490825176456412,0.2877651450054403,0.6657260706658481
0.0315,1.778354184057245,1.0,2788.7372312063503,0.29841568554887044,1.3234342605555365,0.950310093364703,0.2877438757304043,0.666423083861267
0.032,1.777847772746863,1.0,2800.4401450224145,0.30235101899906774,1.3231004296392814,0.9514871450730316,0.28772260645536823,0.6671113277006115
0.0325,1.7773413614364808,1.0,2811.752950386335,0.30626427657906263,1.3227703117264016,0.9526164395308173,0.2877013371803322,0.6677912176914591
0.033,1.7768349501260987,1.0,2822.6943705189674,0.3101555830705168,1.322443717075161,0.9537005556373555,0.28768006790529616,0.668463167470515
0.0335,1.7763285388157168,1.0,2833.283378980913,0.3140250632550919,1.3221204559438235,0.9547418994585375,0.2876587986302601,0.6691275888473955
0.034,1.7758221275053347,1.0,2843.528665621434,0.3178728314531607,1.3218004322731713,0.9557427255824502,0.2876375293552241,0.6697846995816329
0.0345,1.7753157161949527,1.0,2853.4572392489,0.3216990233868299,1.321483388472041,0.9567051291392501,0.28761626008018804,0.6704350476292564
0.035,1.7748093048845706,1.0,2863.0815189281884,0.3255037584416285,1.3211691987805236,0.9576310801670186,0.28759499080515194,0.6710789086564939
0.035500000000000004,1.7743028935741885,1.0,2872.412386841132,0.32928715418343657,1.3208577523957687,0.9585224243449059,0.2875737215301159,0.6717165265546414
0.036000000000000004,1.7737964822638064,1.0,2881.460857911632,0.3330493281781341,1.3205489385149267,0.9593808912317462,0.28755245225507986,0.6723481441867147
0.0365,1.7732900709534243,1.0,2890.2380732028396,0.33679039799160104,1.3202426463351475,0.960208102899876,0.2875311829800438,0.6729740034064464
0.037,1.7727836596430422,1.0,2898.7552935859067,0.34051048118971755,1.319938765053581,0.9610055818335296,0.2875099137050078,0.6735943450764972
0.0375,1.77227724833266,1.0,2907.0238936812148,0.3442096953383636,1.319637183867377,0.961774758161969,0.28748864442997174,0.6742094090858821
0.038,1.771770837022278,1.0,2915.0553560714984,0.34788815800341916,1.319337791973686,0.9625169762901461,0.2874673751549357,0.6748194343666163
0.0385,1.7712644257118961,1.0,2922.86126578762,0.3515459867507643,1.3190404785696574,0.9632335009831623,0.2874461058798996,0.6754246589095789
0.039,1.770758014401514,1.0,2930.453305066347,0.35518329914627894,1.3187451328524415,0.9639255229549939,0.2874248366048636,0.6760253197795899
0.0395,1.770251603091132,1.0,2937.8347590175013,0.3588001982128913,1.318451718397865,0.9645941679787915,0.2874035673298275,0.6766215020709403
0.04,1.7697451917807498,1.0,2945.0241401518715,0.36239681731070117,1.3181600659338957,0.965240491261215,0.2873822980547915,0.6772135600922805
0.0405,1.7692387804703678,1.0,2952.0292781015482,0.36597326935185237,1.3178701005787092,0.96586549280463,0.28736102877975545,0.6778016554785755
0.041,1.7687323691599857,1.0,2958.856440526694,0.3695296642510525,1.3175817616123164,0.9664701173742478,0.2873397595047194,0.6783859205714854
0.0415,1.7682259578496036,1.0,2965.511945242238,0.3730661119230092,1.317294988314728,0.9670552574916629,0.28731849022968337,0.6789664872141474
0.042,1.7677195465392215,1.0,2972.0021580692196,0.3765827222824301,1.3170097199659547,0.9676217568647143,0.28729722095464727,0.6795434867573564
0.0425,1.7672131352288394,1.0,2978.3334907680724,0.38007960524402284,1.316725895846007,0.9681704135582377,0.2872759516796113,0.6801170500655112
0.043000000000000003,1.7667067239184573,1.0,2984.51239905281,0.3835568707224951,1.316443455234896,0.9687019829277311,0.2872546824045752,0.6806873075223225
0.043500000000000004,1.7662003126080754,1.0,2990.54538068845,0.3870146286325545,1.3161623374126323,0.9692171803358851,0.28723341312953915,0.681254389036291
0.044,1.7656939012976933,1.0,2996.438973668824,0.39045298888890856,1.3158824816592265,0.9697166836700795,0.2872121438545031,0.6818184240459453
0.0445,1.7651874899873112,1.0,3002.1997544766346,0.39387206140626513,1.3156038272546893,0.9702011356772683,0.28719087457946707,0.6823795415248478
0.045,1.7646810786769291,1.0,3007.8343364254033,0.39727195609933175,1.3153263134790316,0.9706711461311757,0.28716960530443103,0.6829378699863632
0.0455,1.764174667366547,1.0,3013.347189744874,0.40065277549332845,1.315049898456911,0.971127294218242,0.287148336029395,0.6834934996246496
0.046,1.763668256056165,1.0,3018.7417408784922,0.4040146216914514,1.3147745495589906,0.9715701306694016,0.28712706675435895,0.6840465017536178
0.0465,1.7631618447457829,1.0,3024.0288723863982,0.4073576232745938,1.3145001699507788,0.97200017772554,0.28710579747932286,0.6845970762147042
0.047,1.7626554334354008,1.0,3029.2118640505446,0.41068188191414495,1.3142267287925438,0.9724179330263545,0.2870845282042868,0.6851452898990343
0.0475,1.7621490221250187,1.0,3034.294013877475,0.41398749928149425,1.3139541952445537,0.9728238699728978,0.2870632589292508,0.6856912094653848
0.048,1.7616426108146366,1.0,3039.2786374672655,0.41727457704803106,1.3136825384670772,0.9732184391345436,0.28704198965421474,0.6862349013419984
0.0485,1.7611361995042547,1.0,3044.1690674036104,0.4205432168851447,1.3134117276203827,0.9736020695616578,0.2870207203791787,0.6867764317283388
0.049,1.7606297881938726,1.0,3048.968652664831,0.4237935204642245,1.3131417318647385,0.9739751700111112,0.28699945110414266,0.6873158665967865
0.0495,1.7601233768834905,1.0,3053.680758055967,0.4270255894566599,1.3128725203604128,0.9743381300911719,0.2869781818291066,0.68785327169427
0.05,1.7596169655731084,1.0,3058.308763661747,0.4302395255338402,1.3126040622676745,0.9746913213317631,0.2869569125540705,0.688388712543839
0.0505,1.7591105542627263,1.0,3062.8560643217243,0.4334354303671548,1.3123363267467916,0.9750350981855879,0.28693564327903454,0.6889222544461782
0.051000000000000004,1.7586041429523442,1.0,3067.326069124275,0.436613405627993,1.3120692829580327,0.9753697989651652,0.28691437400399844,0.6894539624810565
0.051500000000000004,1.7580977316419621,1.0,3071.722200924567,0.4397735529877442,1.3118029000616662,0.9756957467204146,0.2868931047289624,0.68998390150872
0.052000000000000005,1.75759132033158,1.0,3076.0478958810813,0.4429159741177977,1.3115371472179602,0.9760132500610557,0.28687183545392636,0.6905121361712212
0.0525,1.757084909021198,1.0,3080.3066030146074,0.44604077068954284,1.3112719935871835,0.9763226039277451,0.2868505661788903,0.6910387308936875
0.053,1.7565784977108159,1.0,3084.4979024611766,0.4491480168324768,1.3110074415171573,0.9766240895441847,0.2868292969038543,0.6915636840591581
0.0535,1.756072086400434,1.0,3088.626549570348,0.45223783001416035,1.3107434491483716,0.9769179776321416,0.28680802762881824,0.6920870816689203
0.054,1.755565675090052,1.0,3092.69780427515,0.45531033045784447,1.3104799704431493,0.9772045272130075,0.2867867583537822,0.692609017709251
0.0545,1.7550592637796698,1.0,3096.7131878462014,0.45836561054426217,1.310216991405473,0.9774839854014933,0.2867654890787461,0.6931295224596195
0.055,1.7545528524692877,1.0,3100.674227500875,0.46140376265414634,1.309954498039326,0.9777565888693831,0.28674421980371007,0.6936486261007315
0.0555,1.7540464411589056,1.0,3104.5824562503444,0.46442487916823005,1.3096924763486915,0.9780225643735078,0.286722950528674,0.6941663587149719
0.056,1.7535400298485235,1.0,3108.4394127511528,0.4674290524672463,1.309430912337552,0.9782821292528091,0.286701681253638,0.6946827502868309
0.0565,1.7530336185381414,1.0,3112.2466411609807,0.47041637493192795,1.3091697920098908,0.9785354918965397,0.28668041197860195,0.6951978307033191
0.057,1.7525272072277593,1.0,3116.0056909988302,0.4733869389430081,1.3089091013696907,0.9787828521855031,0.2866591427035659,0.6957116297543691
0.0575,1.7520207959173772,1.0,3119.718117009376,0.47634083688121964,1.308648826420935,0.9790244019080865,0.28663787342852987,0.6962241771332255
0.058,1.7515143846069952,1.0,3123.385479031936,0.4792781611272956,1.3083889531676067,0.9792603251527209,0.28661660415349377,0.6967355024368229
0.0585,1.7510079732966133,1.0,3127.0093418739007,0.48219900406196897,1.3081294676136883,0.9794907986782831,0.2865953348784578,0.6972456351661511
0.059000000000000004,1.7505015619862312,1.0,3130.5912751873343,0.4851034580659727,1.3078703557631632,0.9797159922638407,0.2865740656034217,0.697754604726605
0.059500000000000004,1.749995150675849,1.0,3134.132853352176,0.4879916155200398,1.3076116036200145,0.979936069039051,0.28655279632838565,0.6982624404283262
0.06,1.749488739365467,1.0,3137.6356553613227,0.49086356880490317,1.3073531971882248,0.980151185796421,0.2865315270533496,0.6987691714865312
0.0605,1.748982328055085,1.0,3141.1012647116686,0.4937194103012959,1.3070951224717775,0.9803614932865659,0.28651025777831357,0.6992748270218239
0.061,1.7484759167447028,1.0,3144.5312692990724,0.4965592323899509,1.3068373654746552,0.9805671364975049,0.28648898850327753,0.6997794360605002
0.0615,1.7479695054343207,1.0,3147.9272613171293,0.49938312745160124,1.3065799122008412,0.9807682549189857,0.28646771922824144,0.7002830275348357
0.062,1.7474630941239386,1.0,3151.290837161567,0.5021911878669798,1.3063227486543185,0.9809649827927363,0.28644644995320545,0.7007856302833648
0.0625,1.7469566828135565,1.0,3154.6201664758373,0.5049834535608977,1.3060658898470094,0.9811574469565809,0.28642518067816936,0.7012872164290762
0.063,1.7464502715031744,1.0,3157.91969545551,0.507760075495549,1.3058092977236435,0.9813457750185489,0.2864039114031333,0.7017878616893238
0.0635,1.7459438601927926,1.0,3161.190382872428,0.5105211414500234,1.3055529637683707,0.9815300867590417,0.2863826421280973,0.7022875839679998
0.064,1.7454374488824105,1.0,3164.432890955274,0.5132667341578998,1.3052968819901682,0.981710497367383,0.28636137285306124,0.7027863961960501
0.0645,1.7449310375720284,1.0,3167.6478838173884,0.5159969363527576,1.3050410463980122,0.9818871178792009,0.2863401035780252,0.703284311264049
0.065,1.7444246262616463,1.0,3170.8360274234556,0.5187118307681758,1.3047854510008796,0.9820600553564179,0.28631883430298916,0.7037813420222909
0.0655,1.7439182149512642,1.0,3173.9979895572055,0.5214115001377337,1.304530089807747,0.9822294130581815,0.2862975650279531,0.7042775012808851
0.066,1.743411803640882,1.0,3177.1344397899716,0.5240960271950104,1.3042749568275913,0.9823952906032604,0.286276295752917,0.7047728018098451
0.0665,1.7429053923305,1.0,3180.246049450233,0.5267654946735851,1.304020046069389,0.982557784124387,0.286255026477881,0.7052672563391793
0.067,1.742398981020118,1.0,3183.3334915931277,0.5294199853070369,1.3037653515421168,0.9827169864149996,0.28623375720284494,0.7057608775589739
0.0675,1.7418925697097358,1.0,3186.397440971795,0.5320595818289451,1.3035108672547517,0.9828729870688119,0.2862124879278089,0.7062536781194786
0.068,1.7413861583993537,1.0,3189.438574008947,0.5346843669728888,1.3032565872162702,0.9830258726126031,0.28619121865277286,0.7067456706311884
0.0685,1.7408797470889719,1.0,3192.457568769194,0.5372944234724472,1.3030025054356489,0.98317572663261,0.2861699493777368,0.7072368676649221
0.069,1.7403733357785898,1.0,3195.455104932529,0.5398898340611994,1.3027486159218646,0.983322629894864,0.2861486801027008,0.7077272817518983
0.0695,1.7398669244682077,1.0,3198.4318637681768,0.5424706814727247,1.302494912683894,0.9834666604598075,0.2861274108276647,0.7082169253838115
0.07,1.7393605131578256,1.0,3201.3885281097714,0.5450370484406022,1.3022413897307141,0.9836078937914969,0.2861061415526287,0.7087058110129036
