Time [s],Phi [rad],STIM [ ],Fsee [N],Gamma [ ],Lcerel [ ],q [ ],Lmtc [m],fisomrel [ ]
0.0,1.8,1.0,17.967961513360727,1.0549764492499166e-05,1.3793396562191333,0.005000029650233294,0.288653,0.5411397487868296
0.0005,1.79999375,1.0,18.277404318317263,0.005619699897451154,1.3793023144578798,0.01294203922108059,0.2886527375,0.5412300836954582
0.001,1.799975,1.0,21.61938941099252,0.01119738713308397,1.3789381991775287,0.03561143784770637,0.28865195,0.5421104630232514
0.0015,1.79994375,1.0,31.071016727863725,0.01674378795422864,1.3780460520196138,0.07060562070341915,0.2886506375,0.5442639749757126
0.002,1.7999,1.0,53.58564965265924,0.0222590778520733,1.3763679200805505,0.11472247374318853,0.2886488,0.5483009844841847
0.0025,1.79984375,1.0,97.12402839760655,0.027743431333718902,1.3739349219516293,0.1645797196864683,0.28864643749999996,0.5541220476563423
0.003,1.7997750000000001,1.0,160.96472881603106,0.033197021929896056,1.3712140981370509,0.21728543423935742,0.28864354999999997,0.5605870323478827
0.0035,1.79969375,1.0,237.6907038564658,0.03862002219455717,1.3685845071481575,0.27061784241750025,0.2886401375,0.5667903733748401
0.004,1.7996,1.0,321.4746026179461,0.04401260371565842,1.366155884976759,0.32292059891320385,0.2886362,0.5724804460997654
0.0045000000000000005,1.7994937500000001,1.0,409.2758707885346,0.04937493712034442,1.3639226235601905,0.37303906206587306,0.2886317375,0.5776796047865687
0.005,1.799375,1.0,499.42178609359104,0.05470719206603548,1.3618581663573068,0.42025172271094574,0.28862675,0.5824574854608663
0.0055,1.79924375,1.0,590.7987813542238,0.06000953728790259,1.3599386716220718,0.4641776450573386,0.2886212375,0.5868754868333494
0.006,1.7991000000000001,1.0,682.5264831993343,0.06528214054200782,1.358146262514997,0.5046835902569532,0.2886152,0.5909797660922798
0.006500000000000001,1.79894375,1.0,773.8897567924254,0.07052516866078935,1.3564671085353395,0.5418040770215835,0.2886086375,0.5948061241468576
0.007,1.798775,1.0,864.2937946264798,0.07573878753724772,1.3548902660388067,0.5756798090978206,0.28860155,0.5983829689761002
0.0075,1.79859375,1.0,953.2508454501174,0.08092316213387189,1.3534066618334872,0.6065126734621079,0.2885939375,0.6017338372822424
0.008,1.7984,1.0,1040.3591235121246,0.08607845638804258,1.3520086364960917,0.6345346252892451,0.2885858,0.6048785708933749
0.0085,1.79819375,1.0,1125.3249937410192,0.09120483375480169,1.350689089088667,0.6599866878725609,0.2885771375,0.6078353405426054
0.009000000000000001,1.797975,1.0,1207.8929818580464,0.09630245607185933,1.3494421334127202,0.6831063759630247,0.28856795,0.6106192455228527
0.0095,1.79774375,1.0,1287.8782071533437,0.10137148458744177,1.3482623090424029,0.704119512864243,0.2885582375,0.6132441457284883
0.01,1.7975,1.0,1365.1671300681944,0.10641208014052009,1.3471443842407265,0.7232359903082836,0.288548,0.6157231393180066
0.0105,1.79724375,1.0,1439.6653653863534,0.11142440189386454,1.3460838729676043,0.7406482316630422,0.2885372375,0.6180674517593849
0.011,1.796975,1.0,1511.3170570851341,0.11640860828138759,1.3450766166393098,0.7565306257043011,0.28852595000000003,0.6202874000279555
0.0115,1.79669375,1.0,1580.1134583510539,0.12136485717320811,1.344118573304302,0.7710399925778494,0.2885141375,0.6223928810810324
0.012,1.7964,1.0,1646.0673359654502,0.12629330593866328,1.3432060441031723,0.7843167670218819,0.28850180000000003,0.6243928931474851
0.0125,1.79609375,1.0,1709.1826431372153,0.13119410971056128,1.342335935222191,0.7964864134662084,0.2884889375,0.6262949855087621
0.013000000000000001,1.7957750000000001,1.0,1769.499459545128,0.13606742362171032,1.3415051528476285,0.8076605620133761,0.28847555,0.6281066026100699
0.0135,1.79544375,1.0,1827.0708150986295,0.14091340164968905,1.3407108251998108,0.8179385091642984,0.2884616375,0.629834609667296
0.014,1.7951000000000001,1.0,1881.9871621372617,0.14573219874597926,1.3399499857173056,0.8274084339400838,0.2884472,0.6314859923813894
0.0145,1.79474375,1.0,1934.2955192890593,0.15052396614541455,1.3392204246007742,0.8361489481017875,0.2884322375,0.6330660189211432
0.015,1.794375,1.0,1984.0609456921848,0.15528885494047495,1.3385199591853896,0.8442299340948238,0.28841675,0.6345798381158233
0.0155,1.79399375,1.0,2031.367210556354,0.16002701622364054,1.3378464068063254,0.8517135579132517,0.2884007375,0.6360325427552771
0.016,1.7936,1.0,2076.2940677593097,0.16473859974310207,1.337197804667047,0.8586552483625388,0.2883842,0.6374287006623853
0.0165,1.7931937500000001,1.0,2118.949824496384,0.16942375630090062,1.336572047014552,0.8651043836968675,0.2883671375,0.6387731414809766
0.017,1.792775,1.0,2159.403383998644,0.17408263294576443,1.3359675731721459,0.8711052075897782,0.28834955,0.6400694827066926
0.0175,1.7923437500000001,1.0,2197.7294608518814,0.1787153763923204,1.3353828726345047,0.8766972903671957,0.2883314375,0.6413212013502155
0.018000000000000002,1.7919,1.0,2234.012466145133,0.18332213335519557,1.3348164348963052,0.8819160644746373,0.2883128,0.642531744015715
0.0185,1.79144375,1.0,2268.3369319143053,0.18790304953805748,1.334266836693182,0.8867933296244083,0.2882936375,0.6437043427523392
0.019,1.790975,1.0,2300.795319021041,0.19245827146750413,1.33373265393609,0.8913576518389715,0.28827395,0.6448422056657332
0.0195,1.79049375,1.0,2331.462732223249,0.1969879429105603,1.333212703657168,0.8956347902185856,0.2882537375,0.6459480042139043
0.02,1.79,1.0,2360.4077576191216,0.201492206083864,1.3327059243748716,0.8996479855236763,0.288233,0.6470241322891015
0.0205,1.78949375,1.0,2387.7040989133543,0.20597120320405327,1.3322112546076574,0.9034182151459249,0.2882117375,0.6480729665561422
0.021,1.788975,1.0,2413.430147076606,0.21042507648776612,1.3317276328739822,0.9069644443408429,0.28818995000000003,0.6490968673081138
0.021500000000000002,1.78844375,1.0,2437.652596770633,0.21485396576629534,1.3312541513764329,0.9103038780068059,0.2881676375,0.6500978545786967
0.022,1.7879,1.0,2460.4609372080863,0.2192580147582705,1.3307897185848636,0.9134520843825462,0.2881448,0.6510783229545496
0.0225,1.78734375,1.0,2481.912128585844,0.22363736136651124,1.330333587630289,0.9164232711522271,0.28812143749999997,0.6520399262860399
0.023,1.786775,1.0,2502.0619278805552,0.22799214286020814,1.3298850486865983,0.9192303696607227,0.28809755,0.6529842303987268
0.0235,1.78619375,1.0,2520.968507019958,0.2323224965085519,1.3294433919276802,0.9218851609541533,0.28807313749999996,0.6539127918213803
0.024,1.7856,1.0,2538.6922501433482,0.23662855958073317,1.329007907527424,0.9243983939943309,0.2880482,0.6548271581136036
0.0245,1.78499375,1.0,2555.28690830255,0.24091046871501293,1.328577966955968,0.9267799044597521,0.2880227375,0.6557286978031975
0.025,1.784375,1.0,2570.799478281882,0.24516835897476014,1.328153021195476,0.9290387047275421,0.28799675,0.6566186054855916
0.025500000000000002,1.78374375,1.0,2585.3415448418873,0.24940236864414334,1.3277319318964287,0.9311829543138761,0.2879702375,0.6574993010696257
0.026000000000000002,1.7831000000000001,1.0,2598.937290430484,0.2536126296297727,1.3273143937248404,0.9332202752599036,0.2879432,0.6583714529991715
0.0265,1.78244375,1.0,2611.611816071816,0.25779927383825835,1.326900101346725,0.9351576687979265,0.2879156375,0.6592357262101434
0.027,1.7817755536015807,1.0,2623.4180456710137,0.26196243317621054,1.326488749428097,0.93700157422595,0.2878875732512664,0.660092782196675
0.0275,1.7811042738219396,1.0,2634.8155354683813,0.26610223955023943,1.32608003263497,0.9387579214853409,0.28785937950052143,0.660943279071355
0.028,1.7804329940422985,1.0,2645.98536224451,0.27021882486695514,1.3256736456333587,0.9404321781827238,0.2878311857497765,0.6617878716195075
0.0285,1.7797617142626574,1.0,2656.9437168952686,0.2743123196701981,1.3252694245202634,0.9420294115281094,0.2878029919990316,0.6626269179600022
0.029,1.7790904344830163,1.0,2667.6725250103564,0.2783828541633606,1.3248675220915356,0.9435543487295464,0.28777479824828667,0.6634601182720206
0.029500000000000002,1.7784191547033752,1.0,2678.1735403821126,0.28243055622498864,1.3244679082793325,0.9450113365721364,0.28774660449754175,0.6642875526047025
0.03,1.777747874923734,1.0,2688.449624478771,0.2864555534102923,1.3240705434283404,0.9464043995542756,0.2877184107467968,0.6651093204147326
0.0305,1.777076595144093,1.0,2698.5037059406786,0.29045797327448153,1.3236753878832455,0.9477372691832631,0.2876902169960519,0.6659255206588987
0.031,1.776405315364452,1.0,2708.3393296170357,0.29443792737330676,1.3232823969608534,0.9490134031166543,0.287662023245307,0.6667362621659606
0.0315,1.7757340355848108,1.0,2717.9601144159014,0.29839556439184545,1.3228915259154732,0.9502360261479064,0.28763382949456207,0.6675416533545195
0.032,1.7750627558051697,1.0,2727.3705885269947,0.30233101186706784,1.3225027223253354,0.9514081297959697,0.28760563574381715,0.6683418178977922
0.0325,1.7743914760255284,1.0,2736.57552104015,0.3062443903713383,1.3221159322057732,0.9525324970282601,0.28757744199307217,0.669136882076549
0.033,1.7737201962458873,1.0,2745.5797485395415,0.3101358204770214,1.3217311015721191,0.9536117215313605,0.28754924824232725,0.6699269715599195
0.0335,1.7730489164662462,1.0,2754.3881727253965,0.3140054227564813,1.3213481764397061,0.9546482228678359,0.28752105449158233,0.6707122114122306
0.034,1.772377636686605,1.0,2763.005758101383,0.3178533177820825,1.3209671028238674,0.9556442602479993,0.2874928607408374,0.6714927260996586
0.0345,1.771706356906964,1.0,2771.4375297259826,0.32167962612618933,1.3205878267399356,0.9566019450578223,0.2874646669900925,0.6722686394966998
0.035,1.7710350771273229,1.0,2779.688571028809,0.3254844683611662,1.3202102942032434,0.9575232522684225,0.28743647323934757,0.6730400748924499
0.035500000000000004,1.7703637973476818,1.0,2787.7640216912487,0.3292679650593775,1.3198344512291242,0.9584100308386762,0.28740827948860265,0.6738071549966995
0.036000000000000004,1.7696925175680407,1.0,2795.6690755921086,0.3330302367931876,1.3194602438329106,0.9592640132102833,0.2873800857378577,0.674570001945846
0.0365,1.7690212377883996,1.0,2803.40897881742,0.33677140413496087,1.3190876180299353,0.9600868239838618,0.28735189198711275,0.6753287373086163
0.037,1.7683499580087585,1.0,2810.989027735253,0.3404915876570618,1.3187165198355317,0.9608799878551232,0.28732369823636783,0.6760834820916044
0.0375,1.7676786782291174,1.0,2818.408696147169,0.3441908763938225,1.3183469477816006,0.9616449352820035,0.2872955044856229,0.6768342501216165
0.038,1.7670073984494763,1.0,2825.674516974022,0.34786939250193993,1.317978837482896,0.9623830119778437,0.287267310734878,0.6775811827583738
0.0385,1.766336118669835,1.0,2832.8009413407854,0.35152730310094865,1.3176120543666436,0.9630954862352387,0.28723911698413307,0.6783245628858425
0.039,1.7656648388901939,1.0,2839.791318139426,0.35516471747395023,1.3172465635845032,0.9637835494592221,0.28721092323338815,0.6790644703246931
0.0395,1.7649935591105528,1.0,2846.6490268372863,0.35878174490404635,1.3168823302881343,0.9644483240966263,0.28718272948264323,0.6798009845381434
0.04,1.7643222793309117,1.0,2853.3774764919003,0.3623784946743385,1.316519319629197,0.9650908683670902,0.2871545357318983,0.6805341846347901
0.0405,1.7636509995512706,1.0,2859.9801047928745,0.3659550760679284,1.316157496759351,0.9657121806211897,0.2871263419811534,0.6812641493713678
0.041,1.7629797197716295,1.0,2866.460377130892,0.3695115983679175,1.3157968268302562,0.9663132033587024,0.28709814823040847,0.6819909571554246
0.0415,1.7623084399919884,1.0,2872.821785693138,0.3730481708574076,1.3154372749935723,0.9668948269367987,0.2870699544796635,0.6827146860479255
0.042,1.7616371602123473,1.0,2879.0678485863928,0.3765649028195001,1.3150788064009593,0.967457892995057,0.28704176072891857,0.6834354137657743
0.0425,1.7609658804327062,1.0,2885.2021089860377,0.38006190353729674,1.314721386204077,0.968003197621627,0.28701356697817365,0.684153217684261
0.043000000000000003,1.760294600653065,1.0,2891.2281343131003,0.383539282293899,1.3143649795545849,0.9685314942825538,0.28698537322742873,0.6848681748394306
0.043500000000000004,1.759623320873424,1.0,2897.149515437277,0.3869971483724086,1.314009551604143,0.9690434965341996,0.2869571794766838,0.6855803619303733
0.044,1.758952041093783,1.0,2902.9698659075275,0.390435611055927,1.3136550675044114,0.9695398805368507,0.2869289857259389,0.6862898553214385
0.0445,1.7582807613141416,1.0,2908.692821209251,0.39385477962755594,1.3133014924070496,0.970021287385918,0.2869007919751939,0.6869967310443732
0.045,1.7576094815345005,1.0,2914.3220380487305,0.397254763370397,1.3129487914637175,0.970488325275652,0.286872598224449,0.6877010648003785
0.0455,1.7569382017548594,1.0,2919.8611936637203,0.4006356715675517,1.312596929826075,0.9709415715089242,0.2868444044737041,0.6884029319620919
0.046,1.7562669219752183,1.0,2925.3139851621136,0.4039976135021217,1.3122458726457815,0.9713815743654296,0.28681621072295915,0.6891024075754923
0.0465,1.7555956421955772,1.0,2930.6841288865153,0.40734069845720855,1.3118955850744975,0.9718088548395535,0.28678801697221423,0.6897995663617247
0.047,1.754924362415936,1.0,2935.9753598062853,0.41066503571591395,1.3115460322638823,0.9722239082581587,0.2867598232214693,0.6904944827188519
0.0475,1.754253082636295,1.0,2941.190755287324,0.4139707294565629,1.3111971852818525,0.9726272055530102,0.2867316294707244,0.6911872189816721
0.048,1.7535818028566539,1.0,2946.3290999038004,0.417257857803533,1.310849052885297,0.9730191943033394,0.28670343571997947,0.6918777625010009
0.0485,1.7529105230770128,1.0,2951.397854210187,0.4205265662877877,1.3105015679910612,0.9734003038482368,0.28667524196923455,0.6925662508772079
0.049,1.7522392432973717,1.0,2956.3987751322484,0.42377695344970023,1.3101547135870686,0.9737709408010518,0.28664704821848963,0.6932527220654447
0.0495,1.7515679635177306,1.0,2961.3336288804217,0.4270091178296443,1.3098084726612425,0.9741314927429274,0.2866188544677447,0.6939372138625899
0.05,1.7508966837380893,1.0,2966.2041907152784,0.43022315796799315,1.3094628282015068,0.9744823292858793,0.28659066071699973,0.694619763907923
0.0505,1.7502254039584482,1.0,2971.0122447197523,0.43341917240512046,1.3091177631957849,0.9748238030672507,0.2865624669662548,0.695300409683784
0.051000000000000004,1.749554124178807,1.0,2975.7595835767197,0.4365972596813995,1.308773260632,0.9751562506805523,0.2865342732155099,0.6959791885162087
0.051500000000000004,1.748882844399166,1.0,2980.4480083540234,0.4397575183372039,1.3084293034980758,0.9754799935472838,0.286506079464765,0.6966561375755479
0.052000000000000005,1.7482115646195249,1.0,2985.0793282954696,0.4429000469129071,1.3080858747819362,0.9757953387339693,0.28647788571402005,0.6973312938770699
0.0525,1.7475402848398838,1.0,2989.655360618377,0.4460249439488824,1.307742957471504,0.9761025797183,0.28644969196327513,0.6980046942815437
0.053,1.7468690050602427,1.0,2994.1779303172693,0.4491323079855035,1.3074005345547033,0.976401997107969,0.28642149821253016,0.6986763754957994
0.0535,1.7461977252806016,1.0,2998.648869974498,0.4522222375631438,1.3070585890194573,0.9766938593155036,0.28639330446178524,0.6993463740732782
0.054,1.7455264455009605,1.0,3003.0700195766667,0.4552948312221767,1.3067171038536898,0.9769784231921423,0.2863651107110403,0.7000147264145564
0.0545,1.7448551657213194,1.0,3007.4432263380513,0.45835018750297574,1.3063760620453237,0.9772559346235719,0.2863369169602954,0.7006814687678569
0.055,1.7441838859416783,1.0,3011.7703445298907,0.4613884049459143,1.3060354465822832,0.9775266290901174,0.2863087232095505,0.701346637229536
0.0555,1.743512606162037,1.0,3016.0532353164717,0.46440958209136596,1.3056952404524915,0.9777907321937939,0.28628052945880555,0.7020102677445581
0.056,1.7428413263823959,1.0,3020.293722176383,0.46741381683044736,1.3053554270277163,0.978048460117049,0.28625233570806063,0.702672395359442
0.0565,1.7421700466027548,1.0,3024.4896152750025,0.47040115242897584,1.30501602439038,0.9783000171896272,0.2862241419573157,0.7033329874524463
0.057,1.7414987668231137,1.0,3028.646929821363,0.4733717554433647,1.304676979780366,0.9785456064389637,0.2861959482065708,0.7039921492089111
0.0575,1.7408274870434726,1.0,3032.766512604502,0.476325714524718,1.3043382851587237,0.9787854182149718,0.2861677544558259,0.7046498985543602
0.058,1.7401562072638315,1.0,3036.84921377427,0.4792631183241399,1.3039999324865028,0.979019635239837,0.28613956070508095,0.7053062533424801
0.0585,1.7394849274841904,1.0,3040.895886779666,0.4821840554927344,1.303661913724752,0.9792484329743476,0.286111366954336,0.7059612313552974
0.059000000000000004,1.7388136477045493,1.0,3044.907388308919,0.4850886146816056,1.3033242208345206,0.9794719799638351,0.28608317320359106,0.7066148503033514
0.059500000000000004,1.7381423679249082,1.0,3048.8845782302024,0.48797688454185756,1.302986845776858,0.9796904381650023,0.28605497945284614,0.7072671278258623
0.06,1.737471088145267,1.0,3052.8283195346185,0.49084895372459436,1.3026497805128134,0.9799039632548463,0.2860267857021012,0.7079180814908987
0.0605,1.736799808365626,1.0,3056.739478280159,0.4937049108809201,1.3023130170034358,0.9801127049227789,0.2859985919513563,0.7085677287955368
0.061,1.7361285285859847,1.0,3060.6189235370666,0.4965448446619388,1.3019765472097746,0.9803168071469889,0.2859703982006113,0.7092160871660165
0.0615,1.7354572488063436,1.0,3064.467527335222,0.4993688437187547,1.301640363092879,0.9805164084560037,0.2859422044498664,0.7098631739578958
0.062,1.7347859690267025,1.0,3068.2861646118804,0.5021769967024716,1.3013044566137983,0.9807116421763563,0.2859140106991215,0.7105090064561981
0.0625,1.7341146892470614,1.0,3072.075713161995,0.5049693922641938,1.3009688197335814,0.9809026366671886,0.28588581694837656,0.7111536018755581
0.063,1.7334434094674203,1.0,3075.837053589029,0.5077461190550252,1.3006334444132779,0.9810895155425773,0.28585762319763164,0.711796977360359
0.0635,1.7327721296877792,1.0,3079.571069258072,0.5105072657260701,1.3002983226139366,0.9812723978823102,0.2858294294468867,0.7124391499848726
0.064,1.732100849908138,1.0,3083.278646249488,0.5132529209284324,1.2999634462966072,0.9814513984317947,0.2858012356961418,0.7130801367533879
0.0645,1.731429570128497,1.0,3086.960673314822,0.5159831733132162,1.2996288074223386,0.981626627791731,0.2857730419453969,0.7137199546003417
0.065,1.7307582903488559,1.0,3090.6180418334216,0.5186981115315257,1.2992943979521798,0.9817981925981519,0.28574484819465196,0.7143586203904407
0.0655,1.7300870105692148,1.0,3094.2516457711413,0.5213978242344647,1.2989602098471806,0.9819661956933785,0.28571665444390704,0.714996150918781
0.066,1.7294157307895737,1.0,3097.8622917624316,0.5240823973953116,1.2986262358352345,0.9821307361459153,0.2856884606931621,0.7156325614505067
0.0665,1.7287444510099323,1.0,3101.4491043696516,0.52675187341691,1.298292483007159,0.9822919073606721,0.28566026694241714,0.7162678398642341
0.067,1.7280731712302912,1.0,3105.014538476773,0.5294063970711517,1.2979589300581653,0.982449804881357,0.2856320731916722,0.7169020280567391
0.0675,1.7274018914506502,1.0,3108.558994223033,0.5320460475923682,1.2976255732359223,0.9826045174899463,0.2856038794409273,0.7175351344259843
0.068,1.726730611671009,1.0,3112.0828730117505,0.5346709042148906,1.2972924087880984,0.9827561309373334,0.2855756856901824,0.7181671673372775
0.0685,1.726059331891368,1.0,3115.5865774942017,0.5372810461730506,1.2969594329623624,0.9829047280679457,0.28554749193943746,0.718798135123317
0.069,1.7253880521117269,1.0,3119.0705115537344,0.5398765527011793,1.2966266420063826,0.9830503889384054,0.28551929818869254,0.719428046084239
0.0695,1.7247167723320858,1.0,3122.5350802902317,0.5424575030336082,1.2962940321678276,0.9831931909305648,0.2854911044379476,0.7200569084876606
0.07,1.7240454925524447,1.0,3125.9806900048206,0.5450239764046685,1.295961599694366,0.9833332088592136,0.28546291068720264,0.7206847305687238
0.07050000000000001,1.7233742127728036,1.0,3129.4077481852023,0.5475760520486918,1.2956293408336668,0.9834705150747466,0.2854347169364577,0.7213115205301392
