Time [s],Phi [rad],STIM [ ],Fsee [N],Gamma [ ],Lcerel [ ],q [ ],Lmtc [m],fisomrel [ ]
0.0,1.8,1.0,17.967512035284795,1.0007177163145151e-05,1.3793397065748991,0.00500002668988938,0.288653,0.5411396269632316
0.0005,1.79999375,1.0,18.276813648465037,0.0056191603536075874,1.379302380069148,0.012940533726202495,0.2886527375,0.5412299249804835
0.001,1.799975,1.0,21.618418890148764,0.011196850615654667,1.37893829830075,0.035608613388936255,0.28865195,0.5421102234723589
0.0015,1.79994375,1.0,31.069190861935397,0.016743254446237817,1.3780462075749487,0.07060175528931835,0.2886506375,0.544263599930481
0.002,1.7999,1.0,53.5821026811764,0.022258547336640785,1.376368150186587,0.11471789594572096,0.2886488,0.5483004321592051
0.0025,1.79984375,1.0,97.11830389788734,0.027742903794058242,1.3739351977984433,0.16457473866606107,0.28864643749999996,0.55412138981964
0.003,1.7997750000000001,1.0,160.95740355606785,0.03319649734931581,1.3712143723260335,0.21728029446502745,0.28864354999999997,0.5605863832225414
0.0035,1.79969375,1.0,237.68249871238865,0.03861950055645942,1.3685847598865617,0.2706127293483246,0.2886401375,0.5667897792709364
0.004,1.7996,1.0,321.4659219995703,0.04401208500353807,1.3661561148919354,0.32291564730803646,0.2886362,0.5724799092067723
0.0045000000000000005,1.7994937500000001,1.0,409.26691823693756,0.049374421317788214,1.3639228337097649,0.3730343611407301,0.2886317375,0.5776791170429045
0.005,1.799375,1.0,499.4126820731135,0.05470667915672221,1.3618583598162637,0.4202473242110605,0.28862675,0.5824570390021794
0.0055,1.79924375,1.0,590.7896165508625,0.06000902725560817,1.3599388506795314,0.46417357246405194,0.2886212375,0.5868750758019708
0.006,1.7991000000000001,1.0,682.5173271497222,0.06528163337059255,1.3581464289471448,0.5046798473406708,0.2886152,0.590979385945178
0.006500000000000001,1.79894375,1.0,773.8805802692253,0.07052466433433273,1.3564672651842153,0.5418006555519134,0.2886086375,0.5948057680232344
0.007,1.798775,1.0,864.2850982361326,0.07573828603958888,1.3548904065130816,0.5756766873210973,0.28860155,0.5983826510362873
0.0075,1.79859375,1.0,953.2426076496391,0.08092266344895883,1.3534067885391388,0.6065098312196611,0.2885939375,0.601733551704249
0.008,1.7984,1.0,1040.3441669044687,0.08607796019470726,1.3520088567027264,0.6345321019023962,0.2885858,0.6048780765396666
0.0085,1.79819375,1.0,1125.3142807090348,0.09120434038173936,1.350689240745447,0.6599843638895311,0.2885771375,0.6078350013564475
0.009000000000000001,1.797975,1.0,1207.8998894546262,0.09630196594215165,1.3494420390284778,0.6831041334006016,0.28856795,0.6106194558661345
0.0095,1.79774375,1.0,1287.8917507722726,0.10137099740403796,1.348262129823603,0.704117425709927,0.2885582375,0.6132445437842088
0.01,1.7975,1.0,1365.1665728406783,0.10641159529549217,1.3471443914026067,0.7232341806815733,0.288548,0.6157231234620977
0.0105,1.79724375,1.0,1439.6592137485113,0.11142391956412269,1.3460839499599984,0.7406466165235723,0.2885372375,0.6180672818242519
0.011,1.796975,1.0,1511.3221260975088,0.11640812897343943,1.3450765547190782,0.7565290876802088,0.28852595000000003,0.6202875362985046
0.0115,1.79669375,1.0,1580.1207207320574,0.12136438070150778,1.344118486543857,0.7710385741168035,0.2885141375,0.62239307148841
0.012,1.7964,1.0,1646.0565152488164,0.12629283137969738,1.3432061707575824,0.7843155582448155,0.28850180000000003,0.6243926159244808
0.0125,1.79609375,1.0,1709.1735897158492,0.1311936378932631,1.342336039215752,0.7964852975543504,0.2884889375,0.626294758463237
0.013000000000000001,1.7957750000000001,1.0,1769.5065451931034,0.1360669550900805,1.3415050728565967,0.8076594652993879,0.28847555,0.6281067768278399
0.0135,1.79544375,1.0,1827.091654869349,0.14091293641407027,1.3407105936729484,0.8179374409228285,0.2884616375,0.6298351127519994
0.014,1.7951000000000001,1.0,1881.9928314539468,0.1457317353091533,1.3399499236576387,0.8274075070973232,0.2884472,0.6314861269297374
0.0145,1.79474375,1.0,1934.2782945842712,0.15052350420871036,1.339220610586117,0.8361481778699725,0.2884322375,0.6330656165611668
0.015,1.794375,1.0,1984.0495035202152,0.15528839612928927,1.3385200811739117,0.8442292026925583,0.28841675,0.6345795747513017
0.0155,1.79399375,1.0,2031.3699077265626,0.16002656082640065,1.3378463783878112,0.8517128331706668,0.2884007375,0.6360326039867344
0.016,1.7936,1.0,2076.310678808723,0.16473814762845856,1.3371976315502743,0.8586545304398953,0.2883842,0.6374290729492522
0.0165,1.7931937500000001,1.0,2118.9572913511047,0.1694233058638772,1.3365719699837604,0.8651037425930245,0.2883671375,0.6387733068279678
0.017,1.792775,1.0,2159.390857483943,0.17408218368284487,1.3359677011843492,0.8711046683805256,0.28834955,0.6400692084212496
0.0175,1.7923437500000001,1.0,2197.717906725303,0.17871493006506722,1.3353829896754863,0.8766967860615107,0.2883314375,0.6413209510087139
0.018000000000000002,1.7919,1.0,2234.0104760955937,0.18332169053034134,1.334816454890714,0.8819155691363788,0.2883128,0.6425317013214749
0.0185,1.79144375,1.0,2268.342740140019,0.1879026101583513,1.3342667787800835,0.886792847047434,0.2882936375,0.6437044662116924
0.019,1.790975,1.0,2300.7963939828505,0.19245783402878128,1.333732643293646,0.8913572109298732,0.28827395,0.6448422283170792
0.0195,1.79049375,1.0,2331.4514682984045,0.1969875061097007,1.33321281443769,0.8956344047126881,0.2882537375,0.6459477687962805
0.02,1.79,1.0,2360.3968412702816,0.2014917714795378,1.3327060310766774,0.8996476230840194,0.288233,0.6470239058839444
0.0205,1.78949375,1.0,2387.7034747248363,0.20597077215838622,1.3322112606738046,0.9034178529701046,0.2882117375,0.6480729537038312
0.021,1.788975,1.0,2413.4369599873717,0.21042464877277764,1.331727567016912,0.9069640882574186,0.28818995000000003,0.64909700663597
0.021500000000000002,1.78844375,1.0,2437.666890543623,0.2148535419492438,1.3312540138938393,0.9103035278341778,0.2881676375,0.6500981450230232
0.022,1.7879,1.0,2460.466524656013,0.21925759231431644,1.330789665092427,0.9134517699807684,0.2881448,0.6510784358036992
0.0225,1.78734375,1.0,2481.8983803084698,0.22363693796229972,1.3303337186821116,0.9164230087855739,0.28812143749999997,0.6520396501965803
0.023,1.786775,1.0,2502.044801436379,0.22799172133165915,1.3298852112812654,0.9192301280508696,0.28809755,0.6529838883224328
0.0235,1.78619375,1.0,2520.9595981574394,0.2323220788732584,1.3294434761886222,0.9218849191298086,0.28807313749999996,0.6539126147855763
0.024,1.7856,1.0,2538.6943725107717,0.23662814618851977,1.3290078875240696,0.924398147197656,0.2880482,0.6548272000859348
0.0245,1.78499375,1.0,2555.3026143839184,0.24091005887886566,1.3285778194074953,0.9267796482384232,0.2880227375,0.6557290069943094
0.025,1.784375,1.0,2570.8395422268977,0.24516795254571844,1.3281526459587865,0.9290384219972679,0.28799675,0.6566193907852276
0.025500000000000002,1.78374375,1.0,2585.3619524516726,0.24940196279050045,1.3277317412978311,0.9311827145036299,0.2879702375,0.6574996994448071
0.026000000000000002,1.7831000000000001,1.0,2598.918019695592,0.2536122215079197,1.3273145732348044,0.9332201050035349,0.2879432,0.6583710782784371
0.0265,1.78244375,1.0,2611.569079959758,0.2577988671584442,1.3269004984741244,0.935157541730464,0.2879156375,0.6592348982696716
0.027,1.781775,1.0,2623.3550031202853,0.26196203058989326,1.3264890839218784,0.9370014455874492,0.28788755,0.660092085713816
0.0275,1.7810937500000001,1.0,2634.3144794396335,0.2661018418623746,1.3260799156826943,0.9387577326587483,0.2878589375,0.6609435222843334
0.028,1.7804,1.0,2644.487000864164,0.2702184310359961,1.3256725798611992,0.9404318582045555,0.2878298,0.6617900852249707
0.0285,1.77969375,1.0,2653.912790505567,0.2743119281708655,1.3252666625620213,0.9420288586044276,0.2878001375,0.6626326474035847
0.029,1.778975,1.0,2662.632735920955,0.2783824633270907,1.3248617498897877,0.9435533889770495,0.28776995,0.6634720773550544
0.029500000000000002,1.7782437500000001,1.0,2670.685606889461,0.28243016507493485,1.3244574529372202,0.9450097598490402,0.2877392375,0.664309187606797
0.03,1.7775,1.0,2678.10304478423,0.2864551586299111,1.3240534530488608,0.9464019726444042,0.287708,0.6651446414767531
0.0305,1.77674375,1.0,2684.935223169597,0.2904575812873543,1.3236492657217178,0.9477337205740481,0.2876762375,0.6659794413194926
0.031,1.775975,1.0,2691.207075608203,0.2944375566383554,1.3232446418909722,0.9490084579648072,0.28764395,0.6668140991351311
0.0315,1.7751937500000001,1.0,2696.943848898371,0.29839520827400506,1.3228393324918046,0.9502293948527127,0.2876111375,0.6676491243502743
0.032,1.7744,1.0,2702.1710749987146,0.30233065978539425,1.3224330884593958,0.9513995172776807,0.2875778,0.6684850238091055
0.0325,1.77359375,1.0,2706.914544328632,0.3062440347636138,1.3220256607289267,0.952521605657234,0.2875439375,0.6693223017605172
0.033,1.772775,1.0,2711.2002804433587,0.3101354567997545,1.3216168002355781,0.953598251441687,0.28750955,0.670161459841289
0.0335,1.7719437500000002,1.0,2715.0545160852103,0.31400504948490726,1.321206257914531,0.9546318722298901,0.2874746375,0.6710029970553055
0.034,1.7711000000000001,1.0,2718.5036706093742,0.3178529364101629,1.3207937847009659,0.9556247255041981,0.2874392,0.6718474097488213
0.0345,1.7702437500000001,1.0,2721.572269281203,0.32167923923338915,1.3203791502774258,0.9565789226882956,0.2874032375,0.6726951532765135
0.035,1.7693750000000001,1.0,2724.27997697382,0.3254840760322138,1.3199621698351178,0.9574964428725589,0.28736675,0.6735465876097042
0.035500000000000004,1.76849375,1.0,2726.6568080816555,0.329267577126118,1.3195425654938708,0.9583791320415884,0.2873297375,0.6744022603239646
0.036000000000000004,1.7676,1.0,2728.7179657282654,0.3330298591824008,1.3191201950932032,0.9592287307035128,0.2872922,0.675262439680089
0.0365,1.76669375,1.0,2730.4787336610434,0.3367710388683613,1.3186949164726334,0.9600468710042335,0.2872541375,0.676127392265629
0.037,1.765775,1.0,2731.954467400222,0.3404912328512987,1.3182665874716797,0.9608350846938875,0.28721555,0.6769973829691699
0.0375,1.76484375,1.0,2733.1605858365733,0.34419055779851193,1.317835065929861,0.9615948104221365,0.2871764375,0.6778726749533193
0.038,1.7639,1.0,2734.112563276566,0.3478691303773002,1.3174002096866957,0.9623274004256218,0.28713679999999997,0.6787535296264082
0.0385,1.76294375,1.0,2734.8259219365186,0.3515270672549626,1.3169618765817022,0.9630341266643507,0.28709663750000003,0.6796402066129013
0.039,1.761975,1.0,2735.316224883545,0.3551644850987981,1.316519924454399,0.9637161864579274,0.28705595,0.6805329637225177
0.0395,1.7609937500000001,1.0,2735.5990694259945,0.35878150057610597,1.3160742111443047,0.9643747076673733,0.2870147375,0.6814320569180661
0.04,1.76,1.0,2735.6823099997087,0.3623782288418034,1.3156246650460388,0.9650107595055446,0.286973,0.6823375982607647
0.0405,1.7589937500000001,1.0,2735.5889159126828,0.36595478311350566,1.3151710775265972,0.9656253380714461,0.2869307375,0.6832499741413381
0.041,1.757975,1.0,2735.3274299177033,0.36951127578720594,1.3147133711004149,0.966219394905926,0.28688795,0.6841693050083308
0.0415,1.75694375,1.0,2734.9020540083575,0.3730478189704082,1.3142515078295498,0.9667938320717924,0.2868446375,0.6850956308254286
0.042,1.7559024401804164,1.0,2734.4383511751776,0.37656452477061625,1.3137854497760615,0.9673495020936695,0.2868009024875775,0.6860289907807232
0.0425,1.7548602507188364,1.0,2734.385395194217,0.38006150447162507,1.3133152644849386,0.9678872197641532,0.28675713053019114,0.6869692125023372
0.043000000000000003,1.7538180612572565,1.0,2734.743371509345,0.3835388696032492,1.3128413474215113,0.9684077827392227,0.2867133585728048,0.687915469845323
0.043500000000000004,1.7527758717956763,1.0,2735.48103832652,0.3869967293960844,1.3123639829831004,0.9689119367531869,0.2866695866154184,0.6888671624200682
0.044,1.7517336823340963,1.0,2736.5678467115526,0.39043519295206053,1.3118834498826524,0.9694003876891728,0.28662581465803205,0.6898237043663746
0.0445,1.7506914928725164,1.0,2737.973492806135,0.39385436930354717,1.3114000250307742,0.9698738044024765,0.2865820427006457,0.6907845166161772
0.045,1.7496493034109364,1.0,2739.6703939692675,0.397254366760882,1.3109139609033,0.9703328191995086,0.2865382707432593,0.6917490717966238
0.0455,1.7486071139493562,1.0,2741.632182999382,0.400635293554894,1.3104254990882485,0.9707780312284231,0.28649449878587296,0.6927168670784818
0.046,1.7475649244877762,1.0,2743.8382863139745,0.40399725586251767,1.30993482867504,0.971210005138002,0.2864507268284866,0.6936875062951964
0.0465,1.7465227350261963,1.0,2746.2681311607703,0.4073403598606873,1.3094421387530952,0.9716292773426647,0.28640695487110024,0.6946605955481829
0.047,1.7454805455646163,1.0,2748.9045732904424,0.4106647095953404,1.3089475872854563,0.9720363551713738,0.2863631829137139,0.6956358045615285
0.0475,1.744438356103036,1.0,2751.7295003612057,0.4139704100370618,1.3084513409171972,0.9724317218587268,0.2863194109563275,0.6966127879030071
0.048,1.7433961666414561,1.0,2754.7150629685802,0.41725757316246553,1.307953654236251,0.9728158443023668,0.28627563899894115,0.6975910294723837
0.0485,1.7423539771798762,1.0,2757.850593482239,0.42052630045872225,1.3074546260483846,0.9731891547919514,0.2862318670415548,0.6985703218158419
0.049,1.7413117877182962,1.0,2761.1254119990217,0.4237766934130026,1.3069543551593636,0.9735520651115216,0.2861880950841684,0.6995504587012094
0.0495,1.740269598256716,1.0,2764.5288235120292,0.4270088535124774,1.306452940374954,0.9739049677020221,0.28614432312678206,0.7005312351260997
0.05,1.739227408795136,1.0,2768.050115296429,0.4302228822443174,1.3059504805009223,0.9742482367477995,0.2861005511693957,0.7015124473254297
0.0505,1.738185219333556,1.0,2771.678554512112,0.43341888109569304,1.3054470743430342,0.9745822291926834,0.28605677921200934,0.7024938927783193
0.051000000000000004,1.737143029871976,1.0,2775.4033860221716,0.43659695155377526,1.304942820707056,0.9749072856908065,0.286013007254623,0.7034753702143633
0.051500000000000004,1.736100840410396,1.0,2779.2138304281616,0.4397571951057347,1.3044378183987537,0.9752237314968958,0.2859692352972366,0.7044566796192839
0.052000000000000005,1.735058650948816,1.0,2783.099411850573,0.44289971280504215,1.3039321632575862,0.9755318770644541,0.28592546333985025,0.705437627989681
0.0525,1.734016461487236,1.0,2787.055870678252,0.4460245994246599,1.30342589496659,0.9758320148710885,0.2858816913824639,0.7064181322185072
0.053,1.7329742720256558,1.0,2791.070024429198,0.44913196316886983,1.302919133325547,0.976124430953446,0.2858379194250775,0.7073979549276133
0.0535,1.7319320825640758,1.0,2795.137403028608,0.4522218998729695,1.302411919549752,0.9764093927657826,0.28579414746769116,0.7083770118438593
0.054,1.7308898931024959,1.0,2799.253524488964,0.4552945053722567,1.3019042948545,0.976687156243262,0.2857503755103048,0.7093552192232369
0.0545,1.729847703640916,1.0,2803.4138945155005,0.4583498755020288,1.3013963004550855,0.9769579663966219,0.28570660355291844,0.7103324938520021
0.055,1.728805514179336,1.0,2807.6140061498336,0.46138810609758363,1.3008879775668027,0.9772220578713318,0.2856628315955321,0.7113087530477016
0.0555,1.7277633247177557,1.0,2811.8493394504576,0.4644092929942187,1.3003793674049469,0.977479655473638,0.2856190596381457,0.7122839146600892
0.056,1.7267211352561758,1.0,2816.1153612119665,0.4674135320272317,1.2998705111848126,0.9777309746657198,0.28557528768075935,0.7132578970719363
0.0565,1.7256789457945958,1.0,2820.4075247209407,0.4704009190319201,1.2993614501216941,0.9779762220320066,0.285531515723373,0.7142306191997336
0.057,1.7246367563330156,1.0,2824.721269550227,0.47337154984358176,1.2988522254308865,0.9782155957185595,0.2854877437659866,0.7152020004942812
0.0575,1.7235945668714356,1.0,2829.0578996668546,0.4763255010962627,1.29834282584492,0.9784492811833662,0.28544397180860026,0.7161720607999611
0.058,1.7225523774098557,1.0,2833.4075603155898,0.4792628920189772,1.2978333396838875,0.9786774657561798,0.28540019985121395,0.7171406306528766
0.0585,1.7215101879482757,1.0,2837.767700072302,0.4821838157103136,1.2973237898918362,0.9789003234001398,0.2853564278938276,0.7181076657026635
0.059000000000000004,1.7204679984866955,1.0,2842.1369007073763,0.4850883612555141,1.296814189248502,0.9791180203215452,0.28531265593644123,0.7190731411376101
0.059500000000000004,1.7194258090251155,1.0,2846.5137395988104,0.4879766177398208,1.2963045505336217,0.9793307162334816,0.28526888397905487,0.7200370323120804
0.06,1.7183836195635356,1.0,2850.8967897198113,0.490848674248476,1.2957948865269313,0.9795385646606346,0.2852251120216685,0.7209993147465557
0.0605,1.7173414301019556,1.0,2855.2846196295222,0.49370461986672187,1.2952852100081673,0.9797417132275107,0.28518134006428214,0.7219599641276547
0.061,1.7162992406403754,1.0,2859.675793467897,0.49654454367980055,1.294775533757066,0.979940303931098,0.2851375681068958,0.7229189563081531
0.0615,1.7152570511787955,1.0,2864.0688709539027,0.49936853477295423,1.294265870553364,0.9801344733989139,0.2850937961495094,0.723876267306986
0.062,1.7142148617172155,1.0,2868.46240738747,0.5021766822314251,1.293756233176797,0.9803243531333303,0.28505002419212305,0.7248318733092449
0.0625,1.7131726722556355,1.0,2872.8549536547657,0.5049690751404554,1.293246634407102,0.9805100697430048,0.2850062522347367,0.7257857506661589
0.063,1.7121304827940553,1.0,2877.245056237693,0.5077458025852872,1.292737087024015,0.980691745162188,0.2849624802773503,0.7267378758950712
0.0635,1.7110882933324754,1.0,2881.6312572262696,0.5105069536511627,1.2922276038072722,0.9808694968586315,0.28491870831996396,0.7276882256794004
0.064,1.7100461038708954,1.0,2886.0120943352345,0.5132526174233242,1.2917181975366103,0.9810434380307648,0.2848749363625776,0.7286367768685944
0.0645,1.7090039144093154,1.0,2890.3861009240386,0.5159828829870137,1.2912088809917652,0.981213677794773,0.28483116440519124,0.7295835064780738
0.065,1.7079617249477352,1.0,2894.7555201231294,0.5186977947704575,1.2906996341704697,0.981380316612378,0.2847873924478049,0.730528452465418
0.0655,1.7069195354861553,1.0,2899.1159054265127,0.5213974971540866,1.2901904961318231,0.9815434612399058,0.2847436204904185,0.7314715432231069
0.066,1.7058773460245753,1.0,2903.466951277387,0.5240820721451325,1.289681469323401,0.9817032085663734,0.28469984853303215,0.732412775289016
0.0665,1.7048351565629951,1.0,2907.8084424555536,0.5267516004810004,1.2891725553906088,0.9818596519763755,0.2846560765756458,0.7333521467119428
0.067,1.7037929671014151,1.0,2912.140163266679,0.5294061628990955,1.2886637559788519,0.9820128816221358,0.2846123046182594,0.7342896555618044
0.0675,1.7027507776398352,1.0,2916.461897546175,0.5320458401368227,1.288155072733536,0.9821629845583875,0.28456853266087306,0.7352252999296256
0.068,1.7017085881782552,1.0,2920.773428663813,0.5346707129315872,1.2876465073000665,0.9823100448707223,0.2845247607034867,0.7361590779275281
0.0685,1.7006663987166752,1.0,2925.07453952772,0.5372808620207941,1.2871380613238488,0.9824541437977569,0.28448098874610034,0.7370909876887171
0.069,1.699624209255095,1.0,2929.365012588706,0.5398763681418484,1.2866297364502886,0.9825953598474614,0.284437216788714,0.7380210273674686
0.0695,1.698582019793515,1.0,2933.6446298448577,0.5424573120321553,1.2861215343247914,0.9827337689079647,0.2843934448313276,0.7389491951391175
0.07,1.6975398303319351,1.0,2937.9131728457805,0.5450237744291198,1.2856134565927626,0.9828694443531367,0.2843496728739413,0.739875489200045
0.07050000000000001,1.696497640870355,1.0,2942.1704226970382,0.547575836070147,1.2851055048996076,0.9830024571432228,0.2843059009165549,0.7407999077676652
0.07100000000000001,1.695455451408775,1.0,2946.416160065098,0.5501135776926421,1.284597680890732,0.9831328759208018,0.2842621289591685,0.7417224490804116
0.07150000000000001,1.694413261947195,1.0,2950.6501651816507,0.5526370800340101,1.2840899862115414,0.9832607671023065,0.2842183570017822,0.7426431113977241
0.07200000000000001,1.693371072485615,1.0,2954.8722178482285,0.5551464238316562,1.2835824225074413,0.9833861949653468,0.28417458504439586,0.7435618930000354
