Time [s],Phi [rad],STIM [ ],Fsee [N],Gamma [ ],Lcerel [ ],q [ ],Lmtc [m],fisomrel [ ]
0.0,1.8,1.0,17.96778535858992,1.0774535640661202e-05,1.3793396759539662,0.0050000309219932005,0.288653,0.5411397010431758
0.0005,1.79999375,1.0,18.277320168181763,0.005619923407811078,1.3793023238051638,0.012942663656830375,0.2886527375,0.5412300610841922
0.001,1.799975,1.0,21.61948237085972,0.011197609389727435,1.3789381896832782,0.035612610319022416,0.28865195,0.5421104859679844
0.0015,1.79994375,1.0,31.07146633870592,0.01674400896418823,1.3780460137155501,0.07060722608431387,0.2886506375,0.5442640673271113
0.002,1.7999,1.0,53.58680634100572,0.022259297622341512,1.37636784504326,0.114724375195375,0.2886488,0.5483011645965965
0.0025,1.79984375,1.0,97.12609269914162,0.02774364987124985,1.3739348224810009,0.16458178818438277,0.28864643749999996,0.5541222848727755
0.003,1.7997750000000001,1.0,160.9674794096833,0.03319723924160421,1.3712139951822513,0.21728756797364315,0.28864354999999997,0.5605872760868353
0.0035,1.79969375,1.0,237.6938487122287,0.038620238287318275,1.3685844102801037,0.2706199644509717,0.2886401375,0.5667906010792991
0.004,1.7996,1.0,321.4779727896407,0.044012818596309886,1.3661557957151043,0.3229226534708066,0.2886362,0.5724806545415779
0.0045000000000000005,1.7994937500000001,1.0,409.2793783422105,0.04937515079568586,1.3639225412255294,0.3730410122681406,0.2886317375,0.5776797958799518
0.005,1.799375,1.0,499.4253792654993,0.054707404542830525,1.3618580900034727,0.42025354717494495,0.28862675,0.582457661667853
0.0055,1.79924375,1.0,590.8024172818308,0.06000974857286527,1.3599386005854759,0.4641793341532047,0.2886212375,0.5868756498997745
0.006,1.7991000000000001,1.0,682.5301338712077,0.0652823506418267,1.3581461961559953,0.504685142441294,0.2886152,0.5909799176625999
0.006500000000000001,1.79894375,1.0,773.893440813239,0.07052537758205324,1.3564670456471073,0.5418054956643226,0.2886086375,0.5948062671161451
0.007,1.798775,1.0,864.2973341481216,0.0757389952866487,1.3548902088645132,0.575681102951536,0.28860155,0.5983830983804279
0.0075,1.79859375,1.0,953.2541768685932,0.08092336871806054,1.3534066105930782,0.606513851644923,0.2885939375,0.6017339527714043
0.008,1.7984,1.0,1040.3647363540454,0.08607866184580575,1.3520085538584408,0.6345356752539288,0.2885858,0.6048787564109988
0.0085,1.79819375,1.0,1125.3301531029354,0.09120503803048494,1.3506890160515046,0.6599876441398197,0.2885771375,0.607835503892945
0.009000000000000001,1.797975,1.0,1207.8957820857818,0.09630265916542868,1.349442095150845,0.6831072618352746,0.28856795,0.6106193307926906
0.0095,1.79774375,1.0,1287.8809754331476,0.1013716865717256,1.3482622724104785,0.7041203182831974,0.2885582375,0.6132442270902094
0.01,1.7975,1.0,1365.1725310709476,0.10641228104641232,1.3471443148233118,0.7232367056549561,0.288548,0.6157232930033592
0.0105,1.79724375,1.0,1439.6700065493958,0.11142460159725139,1.3460838148800522,0.7406488873174651,0.2885372375,0.6180675799683346
0.011,1.796975,1.0,1511.3209758648625,0.11640880670826151,1.3450765687696704,0.7565312272383007,0.28852595000000003,0.6202875053767568
0.0115,1.79669375,1.0,1580.1226959983114,0.12136505477350801,1.3441184629462612,0.7710405136458472,0.2885141375,0.6223931232764752
0.012,1.7964,1.0,1646.073612398044,0.12629350238144038,1.3432059706389246,0.7843172581287533,0.28850180000000003,0.6243930539470461
0.0125,1.79609375,1.0,1709.1849591093123,0.13119430493438308,1.3423359086194542,0.7964868821290173,0.2884889375,0.6262950435895813
0.013000000000000001,1.7957750000000001,1.0,1769.4999505570474,0.1360676175157332,1.3415051473045099,0.8076610002225846,0.28847555,0.6281066146827967
0.0135,1.79544375,1.0,1827.084322911391,0.14091359501384598,1.3407106751297986,0.8179388575101729,0.2884616375,0.6298349357544543
0.014,1.7951000000000001,1.0,1881.9998120725945,0.1457323910028741,1.3399498472438196,0.8274087572521871,0.2884472,0.631486292598545
0.0145,1.79474375,1.0,1934.3003848385158,0.15052415700779873,1.3392203720647042,0.8361492750378821,0.2884322375,0.633066132577435
0.015,1.794375,1.0,1984.0610558856583,0.15528904455360099,1.3385199580105844,0.8442302532733775,0.28841675,0.6345798406521433
0.0155,1.79399375,1.0,2031.3646508559577,0.16002720429051426,1.337846433776418,0.851713862239061,0.2884007375,0.6360324846446315
0.016,1.7936,1.0,2076.307766345972,0.16473878765212896,1.3371976619032824,0.8586554786136089,0.2883842,0.637429007675254
0.0165,1.7931937500000001,1.0,2118.967598907156,0.16942394343235068,1.3365718636474826,0.8651045842965198,0.2883671375,0.6387735350792743
0.017,1.792775,1.0,2159.4149019267816,0.17408281878466403,1.3359674554673187,0.871105411608274,0.28834955,0.6400697349069364
0.0175,1.7923437500000001,1.0,2197.7313180893484,0.17871556086255372,1.3353828538210912,0.8766975071651758,0.2883314375,0.6413212415906269
0.018000000000000002,1.7919,1.0,2234.0084579815893,0.18332231681950434,1.3348164751671008,0.8819162829379914,0.2883128,0.6425316580251218
0.0185,1.79144375,1.0,2268.32595227762,0.1879032317316129,1.3342669461699812,0.8867935522092156,0.2882936375,0.6437041093692439
0.019,1.790975,1.0,2300.786419006121,0.19245845320509375,1.3337327420489993,0.8913578562609847,0.28827395,0.6448420181264545
0.0195,1.79049375,1.0,2331.4539981832886,0.19698812372533195,1.3332127895562889,0.895634982092497,0.2882537375,0.6459478216712895
0.02,1.79,1.0,2360.3980205947923,0.20149238573063694,1.3327060195493627,0.899648168323888,0.288233,0.6470239303431731
0.0205,1.78949375,1.0,2387.692957432974,0.2059713816593181,1.332211362885734,0.9034183904538824,0.2882117375,0.6480727371479694
0.021,1.788975,1.0,2413.417922282381,0.21042525393922695,1.331727751045311,0.906964612195063,0.28818995000000003,0.6490966173036359
0.021500000000000002,1.78844375,1.0,2437.6388738344217,0.21485414234360345,1.331254283368894,0.9103040399188397,0.2881676375,0.6500975757326545
0.022,1.7879,1.0,2460.446455519502,0.21925819058161683,1.3307898572281949,0.9134522394046845,0.2881448,0.651078030468592
0.0225,1.78734375,1.0,2481.895242176421,0.2236375361064059,1.3303337485955773,0.916423422709009,0.28812143749999997,0.6520395871772766
0.023,1.786775,1.0,2502.0424670553775,0.22799231637110956,1.3298852334434044,0.9192305182270375,0.28809755,0.6529838416963987
0.0235,1.78619375,1.0,2520.9478034893527,0.23232266882886654,1.3294435877440398,0.9218853043897586,0.28807313749999996,0.6539123804028544
0.024,1.7856,1.0,2538.673158188522,0.2366287309328157,1.3290080874698469,0.9243985278406757,0.2880482,0.6548267805466632
0.0245,1.78499375,1.0,2555.2531200878343,0.24091063838024676,1.3285782843759217,0.9267800562917714,0.2880227375,0.6557280326421426
0.025,1.784375,1.0,2570.785108413444,0.2451685287923981,1.32815315578358,0.9290388190091389,0.28799675,0.6566183238178492
0.025500000000000002,1.78374375,1.0,2585.346281233902,0.2494025379068247,1.3277318876604276,0.9311830334571461,0.2879702375,0.657499393528485
0.026000000000000002,1.7831000000000001,1.0,2598.9494577534338,0.25361279786266755,1.3273142803846325,0.9332203389854428,0.2879432,0.658371689592762
0.0265,1.7824473302316122,1.0,2611.7822669935217,0.25779944079906747,1.3269001343343625,0.9351577522718784,0.2879157878697277,0.659235657436785
0.027,1.7817942909815985,1.0,2624.276824504213,0.2619625988551653,1.3264892498877854,0.9370017264028264,0.2878883602212271,0.6600917401393853
0.0275,1.7811412517315846,1.0,2636.470111620197,0.26610240417010206,1.3260814274230688,0.9387582036334333,0.28786093257272655,0.6609403784749168
0.028,1.7804882124815709,1.0,2648.381337562383,0.2702189887470515,1.325676468462826,0.9404326626844706,0.287833504924226,0.6617820085764731
0.0285,1.7798351732315572,1.0,2660.013700511886,0.27431248306158273,1.3252743242619625,0.9420301818333296,0.2878060772757254,0.6626167537497567
0.029,1.7791821339815432,1.0,2671.365695259517,0.27838301660243986,1.3248749902058081,0.9435554596655126,0.2877786496272248,0.6634446452129339
0.029500000000000002,1.7785290947315295,1.0,2682.4431066106963,0.2824307174078718,1.3244783953587993,0.9450128333300828,0.28775122197872427,0.6642658512288864
0.03,1.7778760554815158,1.0,2693.2518341143536,0.2864557135161276,1.3240844687853714,0.9464063199481993,0.28772379433022366,0.6650805391967589
0.0305,1.777223016231502,1.0,2703.794389709038,0.29045811064302435,1.3236931714971614,0.9477396408888037,0.28769636668172305,0.6658888097133586
0.031,1.7765699769814882,1.0,2714.0818144090144,0.29443806248899035,1.3233043874868644,0.9490162567168283,0.2876689390332225,0.6666909216573451
0.0315,1.7759169377314745,1.0,2724.122488155035,0.29839570443578795,1.3229180262321247,0.950239379801394,0.28764151138472194,0.6674870801477959
0.032,1.7752638984814606,1.0,2733.922459174624,0.30233115687014067,1.3225340194181354,0.9514119960794836,0.2876140837362213,0.6682774436160135
0.0325,1.774610859231447,1.0,2743.4878672639015,0.306244540178772,1.3221522987300895,0.9525368857690247,0.28758665608772077,0.6690621697159411
0.033,1.7739578199814332,1.0,2752.8249402728597,0.31013597474840554,1.32177279585318,0.9536166400454741,0.2875592284392202,0.6698414153342722
0.0335,1.7733047807314193,1.0,2761.9399906946633,0.3140055809657647,1.3213954424725995,0.9546536761765879,0.2875318007907196,0.6706153366002614
0.034,1.7726517414814056,1.0,2770.8394123582943,0.317853479217573,1.3210201702735413,0.9556502512742995,0.28750437314221905,0.6713840888952376
0.0345,1.7719987022313919,1.0,2779.5296772243064,0.321679789890554,1.320646910941198,0.9566084748046841,0.28747694549371844,0.6721478268618222
0.035,1.771345662981378,1.0,2788.01733228458,0.3254846333714313,1.320275596160763,0.9575303199812393,0.2874495178452179,0.6729067044128438
0.035500000000000004,1.7706926237313643,1.0,2796.3089965649224,0.32926813004692823,1.319906157617429,0.958417634152844,0.2874220901967173,0.6736608747399642
0.036000000000000004,1.7700395844813506,1.0,2804.4113582320642,0.3330304003037685,1.3195385269963886,0.9592721482855731,0.2873946625482167,0.674410490321997
0.0365,1.7693865452313369,1.0,2812.331171802939,0.33677156452867546,1.3191726359828353,0.9600954856267913,0.28736723489971616,0.6751557029329354
0.037,1.768733505981323,1.0,2820.075255458463,0.3404917431083727,1.3188084162619615,0.960889169630459,0.28733980725121555,0.6758966636496807
0.0375,1.7680804667313093,1.0,2827.650488460351,0.34419105642958386,1.3184457995189607,0.9616546312142057,0.287312379602715,0.6766335228594704
0.038,1.7674274274812956,1.0,2835.0590459568034,0.34786960563724206,1.3180847599166963,0.9623932154975261,0.28728495195421444,0.6773663440967401
0.0385,1.7667743882312816,1.0,2842.305429183629,0.35152750127916593,1.3177252511825275,0.9631061879480409,0.28725752430571383,0.6780952320184943
0.039,1.766121348981268,1.0,2849.4056106921425,0.3551649016765545,1.317367125368567,0.9637947398612756,0.2872300966572132,0.6788204966048861
0.0395,1.7654683097312542,1.0,2856.3633754770726,0.35878191615421784,1.3170103436774394,0.9644599937827694,0.28720266900871266,0.6795422257701268
0.04,1.7648152704812403,1.0,2863.1825420694,0.36237865403696606,1.3166548673117697,0.9651030080314967,0.2871752413602121,0.6802605070400687
0.0405,1.7641622312312266,1.0,2869.8669613971006,0.36595522464960933,1.3163006574741827,0.965724781057542,0.2871478137117115,0.680975427555484
0.041,1.763509191981213,1.0,2876.4205156792355,0.36951173731695763,1.3159476753673032,0.96632625545997,0.28712038606321094,0.6816870740752462
0.0415,1.762856152731199,1.0,2882.847117352601,0.3730483013638212,1.315595882193756,0.9669083216946742,0.2870929584147104,0.6823955329794162
0.042,1.7622031134811853,1.0,2889.1507080325932,0.3765650261150101,1.315245239156166,0.9674718214990969,0.2870655307662098,0.6831008902722313
0.0425,1.7615500742311716,1.0,2895.335257507553,0.3800620208953344,1.3148957074571583,0.9680175510581368,0.2870381031177092,0.6838032315849992
0.043000000000000003,1.7608970349811577,1.0,2901.404762765467,0.3835393950296043,1.3145472482993574,0.9685462639332544,0.2870106754692086,0.684502642178898
0.043500000000000004,1.760243995731144,1.0,2907.3632470552247,0.38699725784262984,1.3141998228853884,0.9690586737747081,0.28698324782070805,0.685199206947674
0.044,1.7595909564811303,1.0,2913.214758980136,0.3904357186592211,1.3138533924178761,0.9695554568350013,0.28695582017220744,0.6858930104202509
0.0445,1.7589379172311166,1.0,2918.963371626139,0.3938548868041883,1.3135079180994453,0.9700372542999516,0.2869283925237069,0.6865841367632382
0.045,1.7582848779811027,1.0,2924.6131817219257,0.39725487160234146,1.313163361132721,0.9705046744522915,0.28690096487520633,0.6872726697833451
0.0455,1.757631838731089,1.0,2930.168308833525,0.40063578237849073,1.3128196827203278,0.9709582946813615,0.2868735372267057,0.6879586929296986
0.046,1.7569787994810753,1.0,2935.6328945919904,0.40399772845744625,1.3124768440648906,0.9713986633512345,0.28684610957820517,0.6886422892960651
0.0465,1.7563257602310614,1.0,2941.0111019538813,0.4073408191640181,1.3121348063690346,0.9718263015385245,0.28681868192970456,0.6893235416229762
0.047,1.7556727209810477,1.0,2946.3071144962723,0.4106651638230163,1.3117935308353843,0.9722417046501263,0.286791254281204,0.6900025322997585
0.0475,1.755019681731034,1.0,2951.5184862425394,0.4139708322255686,1.3114530367902903,0.9726453429850248,0.2867638266327034,0.690679227914879
0.048,1.75436664248102,1.0,2956.6545128744588,0.41725797589052555,1.3111132409812045,0.9730376673694321,0.28673639898420283,0.6913537987441676
0.0485,1.7537136032310063,1.0,2961.717389354618,0.42052669554278554,1.3107741224362612,0.9734191049495704,0.2867089713357023,0.692026290892767
0.049,1.7530605639809926,1.0,2966.7090648287813,0.4237770901999676,1.3104356624256175,0.973790062622869,0.28668154368720167,0.6926967458366329
0.0495,1.7524075247309787,1.0,2971.6314986151415,0.4270092588796908,1.31009784221943,0.9741509282386874,0.2866541160387011,0.6933652048815481
0.05,1.751754485480965,1.0,2976.4866599341276,0.43022330059957414,1.3097606430878561,0.9745020716624004,0.28662668839020056,0.6940317091638961
0.0505,1.7511014462309513,1.0,2981.276527647044,0.43341931437723663,1.309424046301053,0.9748438457707894,0.28659926074169995,0.6946962996514154
0.051000000000000004,1.7504484069809374,1.0,2986.0030900021193,0.4365973992302973,1.309088033129177,0.9751765873837461,0.28657183309319934,0.6953590171439311
0.051500000000000004,1.7497953677309237,1.0,2990.668344387879,0.4397576541763752,1.308752584842386,0.9755006181368985,0.2865444054446988,0.6960199022740601
0.052000000000000005,1.74914232848091,1.0,2995.2742970949544,0.4429001782330893,1.3084176827108365,0.9758162452993936,0.2865169777961982,0.6966789955079011
0.0525,1.7484892892308963,1.0,2999.822963085323,0.44602507041805867,1.3080833080046854,0.9761237625407326,0.2864895501476976,0.6973363371456957
0.053,1.7478362499808824,1.0,3004.3163657694636,0.44913242974890233,1.3077494419940903,0.9764234506502527,0.28646212249919706,0.6979919673224684
0.0535,1.7471832107308687,1.0,3008.756536791054,0.45222235524323934,1.3074160659492078,0.9767155782125589,0.2864346948506965,0.698645926008649
0.054,1.746530171480855,1.0,3013.1455158195736,0.4552949459186887,1.3070831611401952,0.9770004022419613,0.2864072672021959,0.6992982530106662
0.0545,1.745877132230841,1.0,3017.485350351352,0.4583503007928694,1.3067507088372092,0.9772781687787315,0.28637983955369534,0.6999489879715233
0.055,1.7452240929808274,1.0,3021.7780955167286,0.4613885188834006,1.3064186903104071,0.9775491134497823,0.2863524119051947,0.7005981703713482
0.0555,1.7445710537308137,1.0,3026.025813896999,0.46440969920790115,1.306087086829946,0.9778134619961693,0.28632498425669417,0.7012458395279246
0.056,1.7439180144807997,1.0,3030.2266636650224,0.46741389265369643,1.3057559134112804,0.9780714283040509,0.28629755660819356,0.70189196879475
0.0565,1.743264975230786,1.0,3034.386090334423,0.4704012508248107,1.3054251222152333,0.9783232230434085,0.286270128959693,0.7025366540810262
0.057,1.7426119359807724,1.0,3038.5056284152906,0.4733718710256451,1.3050946992362924,0.9785690452423487,0.28624270131119245,0.7031799250571311
0.0575,1.7419588967307584,1.0,3042.5862020879135,0.4763258424442894,1.3047646357693645,0.9788090854541689,0.28621527366269184,0.7038218009705568
0.058,1.7413058574807447,1.0,3046.628739119427,0.4792632542688334,1.3044349231093562,0.9790435265941833,0.2861878460141913,0.704462300992986
0.0585,1.740652818230731,1.0,3050.634170795125,0.4821841956873671,1.3041055525511744,0.9792725443066391,0.2861604183656907,0.7051014442204875
0.059000000000000004,1.7399997789807171,1.0,3054.6034318516295,0.4850887558879802,1.3037765153897263,0.9794963073112016,0.2861329907171901,0.7057392496737098
0.059500000000000004,1.7393467397307034,1.0,3058.537460412085,0.4879770240587626,1.3034478029199184,0.979714977730297,0.28610556306868956,0.7063757362980689
0.06,1.7386937004806897,1.0,3062.4371979219536,0.4908490893878041,1.3031194064366578,0.9799287113985122,0.28607813542018895,0.7070109229639294
0.0605,1.738040661230676,1.0,3066.3035890878873,0.4937050410631945,1.3027913172348513,0.980137658155166,0.2860507077716884,0.7076448284667846
0.061,1.737387621980662,1.0,3070.137581817022,0.49654496827302375,1.3024635266094056,0.9803419621210905,0.2860232801231878,0.708277471527428
0.0615,1.7367345827306484,1.0,3073.940127158928,0.4993689602053816,1.302136025855228,0.9805417619605901,0.28599585247468723,0.7089088707921207
0.062,1.7360815434806347,1.0,3077.7121792486173,0.5021771060483579,1.3018088062672248,0.9807371911294757,0.2859684248261867,0.7095390448327574
0.0625,1.7354285042306208,1.0,3081.454695251328,0.5049694949900425,1.3014818591403032,0.9809283781100182,0.28594099717768606,0.7101680121470229
0.063,1.734775464980607,1.0,3085.168635309451,0.5077462162185252,1.3011551757693702,0.9811154466336,0.2859135695291855,0.7107957911585451
0.0635,1.7341224257305934,1.0,3088.854962490432,0.5105073589218959,1.3008287474493325,0.9812985158917978,0.28588614188068495,0.7114224002170464
0.064,1.7334693864805795,1.0,3092.5146427368113,0.5132530122882444,1.3005025654750968,0.9814777007365797,0.28585871423218434,0.7120478575984859
0.0645,1.7328163472305658,1.0,3096.148644818046,0.5159832655056605,1.3001766211415702,0.9816531118702505,0.28583128658368373,0.7126721815051985
0.065,1.732163307980552,1.0,3099.757940283526,0.5186982077622341,1.2998509057436596,0.9818248560257453,0.2858038589351832,0.7132953900660299
0.0655,1.7315102687305381,1.0,3103.3429642147785,0.5213979139460173,1.2995254151727442,0.9819930353898197,0.2857764312866826,0.7139174925561071
0.066,1.7308572294805245,1.0,3106.903689124652,0.5240824549235669,1.299200149273531,0.9821577484783671,0.285749003638182,0.7145384906718647
0.0665,1.7302041902305108,1.0,3110.44217548622,0.5267519573301741,1.2988750901153028,0.9823190932127104,0.28572157598968145,0.7151584199890614
0.067,1.7295511509804968,1.0,3113.9588569566927,0.5294065010385817,1.2985502336549348,0.9824771616683992,0.2856941483411809,0.7157772894916576
0.0675,1.7288981117304831,1.0,3117.4541685436616,0.5320461659215323,1.2982255758493033,0.9826320427530431,0.2856667206926803,0.7163951081293094
0.068,1.7282450724804694,1.0,3120.9285465872895,0.5346710318517687,1.2979011126552837,0.9827838223375299,0.28563929304417973,0.7170118848174234
0.0685,1.7275920332304557,1.0,3124.38242874219,0.5372811787020334,1.2975768400297523,0.9829325833809263,0.2856118653956791,0.7176276284372043
0.069,1.7269389939804418,1.0,3127.81625396069,0.5398766863450694,1.2972527539295844,0.9830784060494117,0.28558443774717857,0.7182423478357078
0.0695,1.7262859547304281,1.0,3131.2304624754747,0.5424576346536191,1.296928850311656,0.9832213678295678,0.28555701009867795,0.718856051825887
0.07,1.7256329154804144,1.0,3134.625495783466,0.5450241035004253,1.2966051251328428,0.9833615436363256,0.2855295824501774,0.7194687491866412
0.07050000000000001,1.7249798762304005,1.0,3138.0017966292585,0.5475761727582307,1.2962815743500207,0.9834990059158616,0.28550215480167684,0.7200804486628609
