Time [s],Phi [rad],STIM [ ],Fsee [N],Gamma [ ],Lcerel [ ],q [ ],Lmtc [m],fisomrel [ ]
0.0,1.8,1.0,17.966687332057752,1.0201186125934734e-05,1.3793397989693912,0.0050000277305980705,0.288653,0.5411394034370596
0.0005,1.79999375,1.0,18.276130547732087,0.005619353274333896,1.3793024559489075,0.012941074009076146,0.2886527375,0.5412297414257878
0.001,1.799975,1.0,21.61792530495453,0.011197042454247984,1.378938348713457,0.03560962977542084,0.28865195,0.5421101016400461
0.0015,1.79994375,1.0,31.069009351578334,0.016743445208768686,1.3780462230390416,0.07060314849342884,0.2886506375,0.5442635626464134
0.002,1.7999,1.0,53.582520439630656,0.02225873702914425,1.3763681230845517,0.11471954651323112,0.2886488,0.5483004972124099
0.0025,1.79984375,1.0,97.11951537690527,0.027743092422537023,1.3739351394201524,0.16457653345545428,0.28864643749999996,0.5541215290396402
0.003,1.7997750000000001,1.0,160.95925046786857,0.03319668491973787,1.3712143031944015,0.21728214459976242,0.28864354999999997,0.5605865468874202
0.0035,1.79969375,1.0,237.68474122290718,0.03861968707475937,1.3685846908113475,0.2706145682133605,0.2886401375,0.5667899416438247
0.004,1.7996,1.0,321.4684116362433,0.044012270475617656,1.3661560489510098,0.3229174268500194,0.2886362,0.5724800631906432
0.0045000000000000005,1.7994937500000001,1.0,409.2695723817168,0.0493746057495169,1.363922771406908,0.3730360496704421,0.2886317375,0.5776792616438629
0.005,1.799375,1.0,499.4154525768088,0.054706862553942553,1.3618583009433234,0.4202489033676242,0.28862675,0.5824571748673827
0.0055,1.79924375,1.0,590.7924566052228,0.06000920962410248,1.3599387951917854,0.464175034114147,0.2886212375,0.5868752031756568
0.006,1.7991000000000001,1.0,682.5202140249856,0.0652818147161388,1.3581463764714623,0.5046811901854471,0.2886152,0.5909795058047245
0.006500000000000001,1.79894375,1.0,773.88317763964,0.0705248446631847,1.3564672208454163,0.5418018864019956,0.2886086375,0.5948058688225295
0.007,1.798775,1.0,864.2880285168247,0.07573846535616569,1.3548903591796793,0.5756778053750715,0.28860155,0.598382758167469
0.0075,1.79859375,1.0,953.2454077771318,0.08092284175822193,1.3534067454703018,0.6065108488684655,0.2885939375,0.6017336487757949
0.008,1.7984,1.0,1040.3608718239464,0.08607813790872282,1.3520086107557416,0.6345329055779729,0.2885858,0.60487862867925
0.0085,1.79819375,1.0,1125.322225576485,0.09120451692740089,1.3506891282755358,0.6599851617122952,0.2885771375,0.6078352528996965
0.009000000000000001,1.797975,1.0,1207.8897584902736,0.09630214101592188,1.3494421774563699,0.6831049931347078,0.28856795,0.6106191473678282
0.0095,1.79774375,1.0,1287.8811511371123,0.10137117145741738,1.3482622700854352,0.7041182125420712,0.2885582375,0.613244232254271
0.01,1.7975,1.0,1365.1641505329371,0.10641176853846018,1.3471444225358287,0.7232348447881568,0.288548,0.6157230545352872
0.0105,1.79724375,1.0,1439.6661976717098,0.11142409214382147,1.3460838625509373,0.7406471645724203,0.2885372375,0.6180674747507142
0.011,1.796975,1.0,1511.3233893716806,0.11640830037243316,1.3450765392876405,0.7565296196891328,0.28852595000000003,0.6202875702591375
0.0115,1.79669375,1.0,1580.116301914039,0.12136455100657936,1.3441185393334922,0.771039091117144,0.2885141375,0.6223929556345146
0.012,1.7964,1.0,1646.0614953885322,0.1262930012752969,1.3432061124659518,0.7843159852963111,0.28850180000000003,0.6243927435140576
0.0125,1.79609375,1.0,1709.1763227131623,0.13119380674453532,1.3423360078227158,0.7964856993699473,0.2884889375,0.6262948270025686
0.013000000000000001,1.7957750000000001,1.0,1769.4965545568589,0.13606712245123165,1.3415051856425595,0.8076598911426911,0.28847555,0.6281065311838041
0.0135,1.79544375,1.0,1827.0790974576373,0.1409131028202873,1.3407107331838324,0.8179378450307399,0.2884616375,0.6298348096088502
0.014,1.7951000000000001,1.0,1881.9826898007836,0.1457319009039646,1.3399500346741908,0.8274078713785536,0.2884472,0.6314858862404862
0.0145,1.79474375,1.0,1934.280845551841,0.15052366925209343,1.3392205830417563,0.8361484669783684,0.2884322375,0.6330656761505451
0.015,1.794375,1.0,1984.0540223289145,0.15528856026387175,1.3385200329974576,0.8442294627859388,0.28841675,0.6345796787608426
0.0155,1.79399375,1.0,2031.3676232561947,0.1600267237242026,1.337846402457946,0.8517130970044192,0.2884007375,0.6360325521244377
0.016,1.7936,1.0,2076.303214666019,0.16473830941798903,1.3371977093398733,0.8586547923757379,0.2883842,0.6374289056630815
0.0165,1.7931937500000001,1.0,2118.94386712345,0.1694234659782711,1.336572108473077,0.8651040043992201,0.2883671375,0.6387730095599083
0.017,1.792775,1.0,2159.3923157175936,0.17408234363008226,1.3359676862822036,0.8711048693635582,0.28834955,0.6400692403513482
0.0175,1.7923437500000001,1.0,2197.7296729499617,0.17871508969672692,1.335382870485997,0.8766969445452701,0.2883314375,0.6413212059457047
0.018000000000000002,1.7919,1.0,2234.024793388392,0.1833218494199406,1.3348163110423301,0.8819157095902034,0.2883128,0.6425320084821609
0.0185,1.79144375,1.0,2268.354862569896,0.1879027680414588,1.3342666579090763,0.886792983185378,0.2882936375,0.6437047238848743
0.019,1.790975,1.0,2300.8047017741073,0.19245799080301715,1.3337325610441082,0.8913573471025312,0.28827395,0.6448424033767239
0.0195,1.79049375,1.0,2331.4572492250777,0.19698766180932734,1.3332127575823343,0.8956345378715678,0.2882537375,0.6459478896185477
0.02,1.79,1.0,2360.4007186338067,0.20149192594987875,1.3327059931773755,0.899647751911308,0.288233,0.6470239863005618
0.0205,1.78949375,1.0,2387.710537032441,0.20597092593416702,1.3322111920391442,0.9034179669579582,0.2882117375,0.6480730991196775
0.021,1.788975,1.0,2413.449326176335,0.2104248020741857,1.33172744747926,0.906964184180228,0.28818995000000003,0.6490972595309146
0.021500000000000002,1.78844375,1.0,2437.6836382096126,0.21485369468192833,1.3312538528093427,0.9103036088687606,0.2881676375,0.6500984853283365
0.022,1.7879,1.0,2460.4836290293733,0.21925774406938836,1.330789501341012,0.9134518449293174,0.2881448,0.651078781258178
0.0225,1.78734375,1.0,2481.917930195552,0.22363708962895262,1.3303335323280863,0.9164230747117929,0.28812143749999997,0.6520400427922487
0.023,1.786775,1.0,2502.0543472283994,0.22799187063489113,1.329885120655562,0.9192302071812968,0.28809755,0.6529840789861777
0.0235,1.78619375,1.0,2520.96440719587,0.23232222693873972,1.3294434307042216,0.9218850019089412,0.28807313749999996,0.653912710350232
0.024,1.7856,1.0,2538.698105106253,0.23662829371943836,1.3290078523443045,0.9243982274962624,0.2880482,0.6548272739023863
0.0245,1.78499375,1.0,2555.3072939538697,0.2409102061559271,1.3285777754460506,0.9267797229996975,0.2880227375,0.6557290991164693
0.025,1.784375,1.0,2570.8455298063955,0.2451680994271459,1.3281525898796998,0.9290384909196904,0.28799675,0.6566195081481045
0.025500000000000002,1.78374375,1.0,2585.3679251458393,0.24940210871203483,1.3277316855154915,0.9311827797568583,0.2879702375,0.6574998160369101
0.026000000000000002,1.7831000000000001,1.0,2598.9225516445604,0.2536123675927889,1.3273145310189183,0.933220169562288,0.2879432,0.6583711664026326
0.0265,1.78244375,1.0,2611.563144248125,0.2577990106611512,1.3269005536322702,0.9351576177575445,0.2879156375,0.6592347832746022
0.027,1.781775,1.0,2623.3489322335686,0.2619621726906868,1.326489140209283,0.9370015181079421,0.28788755,0.6600919685121271
0.0275,1.7810937500000001,1.0,2634.314335330116,0.2661019833568443,1.3260799170160507,0.9387577937396497,0.2878589375,0.6609435195114972
0.028,1.7804,1.0,2644.494531543363,0.27021857233507257,1.325672510318667,0.9404319062716905,0.2878298,0.6617902296643422
0.0285,1.77969375,1.0,2653.9253937781837,0.27431206930082025,1.325266546383226,0.9420288978289642,0.2878001375,0.6626328884053848
0.029,1.778975,1.0,2662.6434295576246,0.27838260392953595,1.324861651475822,0.9435534287243791,0.28776995,0.6634722812512805
0.029500000000000002,1.7782453086289542,1.0,2670.7623251516893,0.2824303058966685,1.3244574518625483,0.9450098113036708,0.28773930296241607,0.6643091898305554
0.03,1.7775140508820617,1.0,2678.7754504630784,0.2864553021421595,1.3240536287123894,0.9464020467701504,0.2877085901370466,0.6651442784385615
0.0305,1.7767827931351692,1.0,2686.73686896224,0.29045772338199455,1.3236503892467744,0.9477339157417296,0.2876778773116771,0.6659771222589651
0.031,1.7760515353882766,1.0,2694.635752379485,0.2944376961626173,1.3232478299326682,0.9490089109780369,0.2876471644863076,0.666807526925449
0.0315,1.7753202776413841,1.0,2702.4672416188314,0.2983953446582032,1.3228459921692686,0.9502302697457475,0.28761645166093813,0.6676354124369916
0.032,1.7745890198944914,1.0,2710.226454633441,0.30233079304292815,1.322444917355772,0.951401002811024,0.28758573883556865,0.6684606992073642
0.0325,1.7738577621475988,1.0,2717.908487106588,0.3062441654909678,1.3220446468913758,0.9525239130632771,0.28755502601019917,0.6692833080631667
0.033,1.7731265044007063,1.0,2725.5084131711556,0.31013558617649783,1.3216452221752768,0.9536016123948139,0.2875243131848296,0.6701031602417629
0.0335,1.7723952466538138,1.0,2733.021286167099,0.31400517927369387,1.321246684606672,0.9546365370182474,0.28749360035946014,0.670920177389099
0.034,1.7716639889069212,1.0,2740.4474069733105,0.3178530592484992,1.320849027800544,0.9556309534451559,0.28746288753409066,0.6717343793349673
0.0345,1.7709327311600287,1.0,2747.778764869439,0.3216793624942131,1.3204523207509662,0.9565869937684496,0.2874321747087212,0.6725456317771681
0.035,1.770201473413136,1.0,2755.015103378754,0.32548420792917,1.3200565619797808,0.9575066398765103,0.2874014618833517,0.6733539449415904
0.035500000000000004,1.7694702156662434,1.0,2762.156751639591,0.329267713203001,1.3196617447792316,0.9583917462541348,0.2873707490579822,0.6741593396833463
0.036000000000000004,1.7687389579193509,1.0,2769.204048556809,0.33302999596533717,1.3192678624415612,0.959244050460621,0.2873400362326127,0.6749618367729475
0.0365,1.7680077001724583,1.0,2776.157342661695,0.3367711738658095,1.3188749082590132,0.9600651818386093,0.28730932340724324,0.6757614568967025
0.037,1.7672764424255658,1.0,2783.0169919739283,0.34049136455404927,1.3184828755238305,0.9608566694802767,0.28727861058187376,0.6765582206571183
0.0375,1.766545184678673,1.0,2789.7833638637762,0.3441906856796873,1.3180917575282562,0.9616199495217803,0.2872478977565043,0.6773521485732941
0.038,1.7658139269317805,1.0,2796.456834915621,0.3478692548923548,1.3177015475645335,0.9623563718294081,0.2872171849311348,0.6781432610813153
0.0385,1.765082669184888,1.0,2803.0377907924167,0.35152718984168285,1.3173122389249057,0.9630672061342885,0.2871864721057653,0.6789315785346415
0.039,1.7643514114379955,1.0,2809.526662050774,0.35516460646708464,1.3169238245795347,0.9637536473017911,0.28715575928039583,0.6797171218554856
0.0395,1.763620153691103,1.0,2815.9252677446875,0.3587815935609796,1.316536285153162,0.9644168146195593,0.28712504645502634,0.6804999368030491
0.04,1.7628888959442102,1.0,2822.2346451979192,0.3623783097538135,1.3161496083926412,0.9650577770738887,0.2870943336296568,0.6812800545700881
0.0405,1.7621576381973176,1.0,2828.456496158224,0.3659548638566727,1.3157637762114294,0.9656775331644653,0.2870636208042873,0.6820575179614106
0.041,1.761426380450425,1.0,2834.592536102439,0.36951136468064344,1.315378770522984,0.966277025515641,0.28703290797891784,0.6828323695899585
0.0415,1.7606951227035326,1.0,2840.6444939015305,0.3730479210368121,1.3149945732407629,0.9668571445872453,0.28700219515354836,0.6836046518777733
0.042,1.75996386495664,1.0,2846.6141114930906,0.3765646417362651,1.314611166278223,0.9674187321019815,0.2869714823281789,0.68437440705694
0.0425,1.7592326072097473,1.0,2852.503143560591,0.38006163559008865,1.3142285315488216,0.967962584213755,0.2869407695028094,0.6851416771705078
0.043000000000000003,1.7585013494628547,1.0,2858.313357219813,0.38353901140936925,1.3138466509660165,0.9684894544389628,0.2869100566774399,0.685906504073391
0.043500000000000004,1.7577700917159622,1.0,2864.0465317134467,0.3869968780051931,1.313465506443265,0.9690000563707056,0.2868793438520704,0.6866689294332506
0.044,1.7570388339690697,1.0,2869.70445811159,0.3904353441886466,1.3130850798940243,0.9694950661940177,0.28684863102670094,0.6874289947313533
0.0445,1.7563075762221771,1.0,2875.288939020854,0.3938545187708161,1.3127053532317519,0.9699751250185489,0.28681791820133146,0.6881867412634097
0.045,1.7555763184752846,1.0,2880.801788299434,0.397254510562788,1.3123263083699053,0.9704408410436178,0.2867872053759619,0.6889422101403917
0.0455,1.7548450607283919,1.0,2886.2448307808554,0.4006354283756486,1.3119479272219414,0.9708927915692183,0.28675649255059243,0.6896954422893316
0.046,1.7541138029814993,1.0,2891.619902003349,0.40399738102048416,1.3115701917013183,0.9713315248653287,0.28672577972522295,0.6904464784540937
0.0465,1.7533825452346068,1.0,2896.928847947899,0.40734047730838113,1.3111930837214931,0.9717575619107862,0.28669506689985347,0.6911953591961345
0.047,1.7526512874877143,1.0,2902.172949398212,0.41066481697683943,1.3108165902679778,0.9721713971867121,0.286664354074484,0.6919421148411607
0.0475,1.7519200297408217,1.0,2907.351164836984,0.4139704586506753,1.3104407188487373,0.9725734972752117,0.2866336412491145,0.6926867349511456
0.048,1.751188771993929,1.0,2912.4704200870174,0.4172575868810217,1.3100654068590343,0.9729643173524687,0.286602928423745,0.6934293477976452
0.0485,1.7504575142470364,1.0,2917.531942588463,0.4205262995263614,1.309690642033081,0.9733442833000739,0.28657221559837553,0.6941699816235272
0.049,1.749726256500144,1.0,2922.5369666458364,0.42377669444517696,1.3093164121050893,0.9737138008760261,0.28654150277300605,0.6949086645485796
0.0495,1.7489949987532514,1.0,2927.4867332807835,0.42700886949595107,1.3089427048092714,0.9740732568492233,0.28651078994763657,0.6956454245699342
0.05,1.7482637410063588,1.0,2932.382490088317,0.4302229225371664,1.3085695078798396,0.9744230200600571,0.2864800771222671,0.6963802895624795
0.0505,1.7475324832594663,1.0,2937.225491096351,0.4334189514273056,1.3081968090510059,0.9747634424125526,0.2864493642968976,0.697113287279266
0.051000000000000004,1.7468012255125736,1.0,2942.0169966285775,0.43659705402485127,1.3078245960569823,0.9750948598030451,0.2864186514715281,0.6978444453518995
0.051500000000000004,1.746069967765681,1.0,2946.7582731706057,0.4397573281882861,1.3074528566319812,0.9754175929899817,0.2863879386461586,0.6985737912909261
0.052000000000000005,1.7453387100187885,1.0,2951.4505932398115,0.4428998717760928,1.3070815785102141,0.9757319484090692,0.2863572258207891,0.6993013524862093
0.0525,1.744607452271896,1.0,2956.095235257744,0.4460247826467539,1.3067107494258938,0.9760382189376527,0.2863265129954196,0.7000271562072914
0.053,1.7438761945250034,1.0,2960.693483426612,0.4491321586587522,1.3063403571132322,0.9763366846118962,0.28629580017005013,0.7007512296037545
0.0535,1.7431449367781107,1.0,2965.246627608904,0.4522220976705703,1.3059703893064412,0.9766276133000695,0.28626508734468065,0.7014735997055639
0.054,1.7424136790312181,1.0,2969.7559632100715,0.45529469754069085,1.305600833739733,0.9769112613349759,0.28623437451931116,0.702194293423406
0.0545,1.7416824212843256,1.0,2974.222791064888,0.4583500561275965,1.3052316781473197,0.9771878741083286,0.2862036616939417,0.7029133375490149
0.055,1.740951163537433,1.0,2978.648417326941,0.4613882712897699,1.3048629102634137,0.9774576866296693,0.2861729488685722,0.7036307587554903
0.0555,1.7402199057905405,1.0,2983.034153361694,0.46440944088569375,1.3044945178222267,0.9777209240522191,0.2861422360432027,0.7043465835976074
0.056,1.7394886480436478,1.0,2987.3813156423435,0.46741366277385066,1.304126488557971,0.9779778021678841,0.2861115232178332,0.7050608385121119
0.0565,1.7387573902967552,1.0,2991.6912256499654,0.4704010348127233,1.3037588102048587,0.9782285278734577,0.2860808103924637,0.7057735498180122
0.057,1.7380261325498627,1.0,2995.965209775698,0.4733716548607943,1.303391470497102,0.9784732996099231,0.2860500975670942,0.7064847437168563
0.0575,1.7372948748029702,1.0,3000.203793202897,0.47632560314719613,1.3030244641570325,0.9787123066302938,0.2860193847417247,0.7071944327880846
0.058,1.7365636170560776,1.0,3004.4067759006343,0.4792629504315969,1.3026577922114662,0.9789457301600537,0.28598867191635524,0.7079026173905643
0.0585,1.735832359309185,1.0,3008.5775181376093,0.4821838461998518,1.302291424866456,0.9791737492112776,0.28595795909098576,0.7086093573093359
0.059000000000000004,1.7351011015622924,1.0,3012.7166529651063,0.48508837747353634,1.3019253560117687,0.9793965317107329,0.2859272462656163,0.7093146664450469
0.059500000000000004,1.7343698438153998,1.0,3016.8248159763093,0.48797663127422614,1.3015595795371704,0.9796142390265253,0.2858965334402468,0.7100185586395569
0.06,1.7336385860685073,1.0,3020.9026452665503,0.4908486946234967,1.3011940893324272,0.979827026275372,0.2858658206148773,0.7107210476760519
0.0605,1.7329073283216148,1.0,3024.950781393944,0.49370465454292356,1.3008288792873055,0.980035042613178,0.2858351077895078,0.7114221472791575
0.061,1.7321760705747222,1.0,3028.969867341018,0.49654459805408235,1.3004639432915714,0.9802384315099494,0.28580439496413834,0.712121871115049
0.0615,1.7314448128278295,1.0,3032.960548477276,0.4993686121785485,1.3000992752349911,0.9804373310099946,0.28577368213876886,0.7128202327915594
0.062,1.730713555080937,1.0,3036.9234725222454,0.5021767839378977,1.2997348690073312,0.9806318739783141,0.2857429693133994,0.7135172458582846
0.0625,1.7299822973340444,1.0,3040.85928951004,0.5049692003537054,1.2993707184983576,0.9808221883340046,0.2857122564880299,0.7142129238066872
0.063,1.7292510395871519,1.0,3044.7686517537863,0.5077459484475472,1.2990068175978364,0.9810083972714577,0.2856815436626604,0.7149072800701983
0.0635,1.7285197818402593,1.0,3048.652213811633,0.5105071152409986,1.2986431601955344,0.9811906194700765,0.28565083083729087,0.7156003280243125
0.064,1.7277885240933666,1.0,3052.5106324537014,0.5132527877556351,1.2982797401812172,0.9813689692931854,0.2856201180119214,0.7162920809866887
0.0645,1.727057266346474,1.0,3056.344566628675,0.5159830530130325,1.2979165514446516,0.9815435569767682,0.2855894051865519,0.7169825522172395
0.065,1.7263260085995815,1.0,3060.154677432889,0.518697998034766,1.2975535878756035,0.9817144888086216,0.2855586923611824,0.7176717549182255
0.0655,1.725594750852689,1.0,3063.941628078891,0.5213977098424115,1.297190843363839,0.9818818672984804,0.28552797953581294,0.7183597022343434
0.066,1.7248634931057965,1.0,3067.7060838655943,0.5240822754575443,1.2968283117991248,0.9820457913396272,0.28549726671044345,0.7190464072528111
0.0665,1.724132235358904,1.0,3071.4487121489437,0.52675178190174,1.296465987071227,0.9822063563624744,0.28546655388507397,0.7197318830034538
0.067,1.7234009776120112,1.0,3075.170182313379,0.5294063161965742,1.2961038630699115,0.9823636544805707,0.28543584105970443,0.7204161424587854
0.0675,1.7226697198651186,1.0,3078.8711657445756,0.5320459653636225,1.295741933684945,0.9825177746294523,0.28540512823433495,0.7210991985340869
0.068,1.721938462118226,1.0,3082.551658269818,0.5346707887896613,1.2953801986012106,0.9826688012108088,0.28537441540896546,0.7217810531706295
0.0685,1.7212072043713336,1.0,3086.2119408860626,0.5372808667268355,1.295018655068807,0.9828168169858867,0.285343702583596,0.7224617128870927
0.069,1.720475946624441,1.0,3089.853510853317,0.5398763280083867,1.294657289955731,0.982961904463655,0.2853129897582265,0.723141203686047
0.0695,1.7197446888775483,1.0,3093.4766741208837,0.5424572497418421,1.2942961003344158,0.9831041406408001,0.285282276932857,0.7238195322957764
0.07,1.7190134311306557,1.0,3097.081737648662,0.5450237090347286,1.293935083277295,0.9832435999635908,0.28525156410748753,0.7244967054169953
0.07050000000000001,1.7182821733837632,1.0,3100.669009395677,0.5475757829945735,1.2935742358568023,0.9833803544297258,0.28522085128211805,0.7251727297228783
0.07100000000000001,1.7175509156368707,1.0,3104.2387983093245,0.5501135487289041,1.2932135551453707,0.9835144736854518,0.28519013845674857,0.7258476118590964
