Time [s],Phi [rad],STIM [ ],Fsee [N],Gamma [ ],Lcerel [ ],q [ ],Lmtc [m],fisomrel [ ]
0.0,1.8,1.0,17.967444947010595,1.0120038602033447e-05,1.3793397140909625,0.005000027292888965,0.288653,0.5411396087799327
0.0005,1.79999375,1.0,18.276790775683754,0.005619272581983124,1.3793023826098647,0.012940847191103215,0.2886527375,0.5412299188344382
0.001,1.799975,1.0,21.618483777261446,0.011196962214517726,1.3789382916734974,0.035609201939585486,0.28865195,0.5421102394884294
0.0015,1.79994375,1.0,31.069434678607244,0.01674336541911957,1.3780461868026312,0.07060256111821166,0.2886506375,0.5442636500127234
0.002,1.7999,1.0,53.58270186342406,0.022258657687052298,1.3763681113147355,0.11471885038715096,0.2886488,0.5483005254635807
0.0025,1.79984375,1.0,97.11935848271649,0.02774301352549128,1.3739351469804895,0.16457577698924467,0.28864643749999996,0.5541215110098207
0.003,1.7997750000000001,1.0,160.9588013901178,0.03319660646524225,1.3712143200037643,0.2172813655800255,0.28864354999999997,0.5605865070922924
0.0035,1.79969375,1.0,237.68409276885143,0.038619609060331704,1.3685847107854021,0.2706137946290202,0.2886401375,0.5667898946914588
0.004,1.7996,1.0,321.4676275257671,0.04401219289878938,1.3661560697190611,0.32291667874489904,0.2886362,0.5724800146935269
0.0045000000000000005,1.7994937500000001,1.0,409.2686912903662,0.04937452860783271,1.3639227920894454,0.3730353402104426,0.2886317375,0.5776792136410149
0.005,1.799375,1.0,499.4144967700471,0.0547067858449559,1.3618583212541076,0.4202482401731133,0.28862675,0.5824571279947676
0.0055,1.79924375,1.0,590.7914516838306,0.06000913334540269,1.359938814825487,0.4641744204768584,0.2886212375,0.5868751581059433
0.006,1.7991000000000001,1.0,682.5191686056244,0.06528173886530621,1.3581463954743815,0.5046806266278622,0.2886152,0.5909794624002166
0.006500000000000001,1.79894375,1.0,773.882445944851,0.07052476923725963,1.3564672333359138,0.5418013677101834,0.2886086375,0.5948058404267832
0.007,1.798775,1.0,864.2868300438734,0.07573839035412626,1.3548903785388395,0.57567733745533,0.28860155,0.598382714351273
0.0075,1.79859375,1.0,953.2442254325923,0.08092276717847617,1.3534067636559677,0.6065104233321148,0.2885939375,0.6017336077876754
0.008,1.7984,1.0,1040.3521596503626,0.08607806354865656,1.3520087390250644,0.6345325844914377,0.2885858,0.6048783407206128
0.0085,1.79819375,1.0,1125.3185290726901,0.091204443165371,1.3506891806042958,0.6599848314747353,0.2885771375,0.6078351358644376
0.009000000000000001,1.797975,1.0,1207.8867463268264,0.09630206783008163,1.3494422186142059,0.6831046892439613,0.28856795,0.6106190556440738
0.0095,1.79774375,1.0,1287.8691149040878,0.10137109855732956,1.3482624293580414,0.7041180007117078,0.2885582375,0.6132438785001123
0.01,1.7975,1.0,1365.147589586216,0.10641169594319383,1.3471446353896335,0.7232346838095318,0.288548,0.6157225832914491
0.0105,1.79724375,1.0,1439.6510244594697,0.11142402001447321,1.3460840524553914,0.7406470120138676,0.2885372375,0.6180670555996617
0.011,1.796975,1.0,1511.3114361474868,0.11640822875117958,1.3450766853016747,0.7565294641869403,0.28852595000000003,0.6202872489196716
0.0115,1.79669375,1.0,1580.1051076008227,0.12136447981224366,1.3441186730672583,0.7710389465221559,0.2885141375,0.6223926621378488
0.012,1.7964,1.0,1646.0450998364013,0.1262929300813076,1.3432063043732443,0.7843158800776898,0.28850180000000003,0.624392323464477
0.0125,1.79609375,1.0,1709.1672433680774,0.13119373627813308,1.3423361121142467,0.7964855701774984,0.2884889375,0.6262945993064473
0.013000000000000001,1.7957750000000001,1.0,1769.4924050159125,0.13606705258016202,1.3415052324875147,0.8076597513856009,0.28847555,0.6281064291570424
0.0135,1.79544375,1.0,1827.0721040966864,0.14091303311717038,1.340710810879189,0.8179377286232631,0.2884616375,0.629834640784584
0.014,1.7951000000000001,1.0,1881.9657313818516,0.14573183097296646,1.339950220311773,0.827407804177836,0.2884472,0.6314854837690593
0.0145,1.79474375,1.0,1934.271388582286,0.1505236003813975,1.3392206851545445,0.8361483787475904,0.2884322375,0.6330654552400554
0.015,1.794375,1.0,1984.0488604758084,0.15528849198596015,1.3385200880296169,0.8442293666095563,0.28841675,0.6345795599503203
0.0155,1.79399375,1.0,2031.364298682106,0.16002665576247255,1.3378464374870727,0.8517130018076059,0.2884007375,0.6360324766495329
0.016,1.7936,1.0,2076.300073446171,0.16473824168675283,1.3371977420769945,0.8586547034412003,0.2883842,0.6374288352620431
0.0165,1.7931937500000001,1.0,2118.9453826172007,0.16942339897424205,1.3365720928386589,0.8651039077580526,0.2883671375,0.6387730431192769
0.017,1.792775,1.0,2159.393833089028,0.17408227708681223,1.3359676707757162,0.8711047793701938,0.28834955,0.6400692735763391
0.0175,1.7923437500000001,1.0,2197.7241686893135,0.17871502318960247,1.3353829262430106,0.8766968802425636,0.2883314375,0.641321086685827
0.018000000000000002,1.7919,1.0,2234.009995508891,0.1833217828485874,1.3348164597192618,0.8819156748565831,0.2883128,0.642531691011033
0.0185,1.79144375,1.0,2268.333422696916,0.18790270162974165,1.3342668716831898,0.8867929687778171,0.2882936375,0.6437042681605036
0.019,1.790975,1.0,2300.7815349814773,0.19245792469191722,1.333732790402431,0.8913573390933623,0.28827395,0.6448419152111196
0.0195,1.79049375,1.0,2331.434987906535,0.19698759618356748,1.3332129765225647,0.8956345295351228,0.2882537375,0.6459474243525918
0.02,1.79,1.0,2360.3836435634835,0.20149186175090947,1.332706160077936,0.8996477341644814,0.288233,0.6470236321626112
0.0205,1.78949375,1.0,2387.690239244498,0.20597086217746252,1.3322113893023895,0.9034179583469205,0.2882117375,0.6480726811791334
0.021,1.788975,1.0,2413.4219170470237,0.21042473824674598,1.3317277124297695,0.9069641919031041,0.28818995000000003,0.6490966989990821
0.021500000000000002,1.78844375,1.0,2437.649860602168,0.21485363074227917,1.3312541776939202,0.9103036301413595,0.2881676375,0.6500977989806274
0.022,1.7879,1.0,2460.4489518878663,0.21925768044758134,1.3307898333286858,0.9134518681917038,0.2881448,0.6510780808876921
0.0225,1.78734375,1.0,2481.8830299870597,0.22363702552089004,1.3303338650054244,0.9164230979431179,0.28812143749999997,0.6520393419342413
0.023,1.786775,1.0,2502.0303433975,0.227991808288726,1.3298853485431168,0.9192302112238246,0.28809755,0.652983599542686
0.0235,1.78619375,1.0,2520.9456708679277,0.2323221653868782,1.3294436079146628,0.9218849974689598,0.28807313749999996,0.6539123380235011
0.024,1.7856,1.0,2538.680820097963,0.23662823233888813,1.3290080152559685,0.92439822134042,0.2880482,0.6548269320705626
0.0245,1.78499375,1.0,2555.289489959501,0.24091014466829727,1.3285779427029403,0.9267797183693043,0.2880227375,0.6557287486259672
0.025,1.784375,1.0,2570.827110697941,0.2451680378986471,1.328152762391485,0.9290384879010399,0.28799675,0.6566191471136402
0.025500000000000002,1.78374375,1.0,2585.3506928747697,0.2494020475534791,1.3277318464575087,0.9311827756121495,0.2879702375,0.6574994796478059
0.026000000000000002,1.7831000000000001,1.0,2598.9070433595357,0.25361230573856186,1.32731467548142,0.9332201629993968,0.2879432,0.6583708648421325
0.0265,1.78244375,1.0,2611.5582145609415,0.25779895043476264,1.3269005994418892,0.9351575968631975,0.2879156375,0.6592346877695584
0.027,1.781775,1.0,2623.3467972397107,0.2619621133784766,1.3264891600043087,0.9370014945704315,0.28788755,0.6600919272949008
0.0275,1.7810937500000001,1.0,2634.310447526682,0.26610192444846226,1.3260799529875085,0.9387577738439027,0.2878589375,0.6609434447055621
0.028,1.7804,1.0,2644.487612790964,0.2702185135234784,1.3256725742103188,0.9404318914257322,0.2878298,0.6617900969618125
0.0285,1.77969375,1.0,2653.9174628576625,0.2743120104822836,1.3252666194915697,0.9420288850364656,0.2878001375,0.6626327367491277
0.029,1.778975,1.0,2662.6398248475443,0.27838254520363653,1.324861684650091,0.9435534110089349,0.28776995,0.6634722125201049
0.029500000000000002,1.7782437500000001,1.0,2670.695121638194,0.28243024756629587,1.324457365504713,0.9450097780898273,0.2877392375,0.6643093685259602
0.03,1.7775,1.0,2678.09969432248,0.28645524531574573,1.3240534837941467,0.9464020073307116,0.287708,0.6651445779364692
0.0305,1.77674375,1.0,2684.9366361197035,0.29045766766983505,1.3236492527723895,0.9477337482197216,0.2876762375,0.6659794680480673
0.031,1.7759779175650825,1.0,2691.3496445375554,0.2944376401188003,1.3232446544335636,0.9490084868921135,0.28764407253773344,0.6668140732784631
0.0315,1.7752114580057659,1.0,2697.770361170471,0.2983952876052971,1.322839772341783,0.9502294748348336,0.28761188123624215,0.6676482187318422
0.032,1.774444998446449,1.0,2704.2206492109012,0.3023307350719811,1.322434690061162,0.9513997358543371,0.28757968993475086,0.6684817303736044
0.0325,1.7736785388871321,1.0,2710.6914255071733,0.30624410746150793,1.3220294911558148,0.952522084807575,0.28754749863325957,0.6693144350316549
0.033,1.7729120793278152,1.0,2717.174419641424,0.31013552837795305,1.3216242513883156,0.9535991432855803,0.2875153073317682,0.6701461763995713
0.0335,1.7721456197684984,1.0,2723.655126311038,0.31400512277674175,1.3212191028937577,0.9546333632646484,0.28748311603027693,0.6709766834698008
0.034,1.7713791602091817,1.0,2730.1251462502705,0.3178530125844823,1.3208141216839206,0.9556270265820404,0.28745092472878564,0.671805801429128
0.0345,1.7706127006498649,1.0,2736.578148262781,0.3216793184611338,1.3204093646381683,0.9565822629935194,0.2874187334272943,0.6726334153449149
0.035,1.769846241090548,1.0,2743.007771870007,0.3254841610666553,1.3200048886358637,0.9575010643818628,0.287386542125803,0.673459410871009
0.035500000000000004,1.7690797815312311,1.0,2749.407627629396,0.329267661061006,1.3196007505563705,0.9583852952863942,0.2873543508243117,0.6742836742468261
0.036000000000000004,1.7683133219719143,1.0,2755.774734141373,0.33302993272969916,1.3191969761907685,0.9592366978040587,0.28732215952282036,0.6751061555824935
0.0365,1.7675468624125976,1.0,2762.101924842534,0.3367711000947966,1.3187936290349864,0.9600569115413438,0.28728996822132913,0.6759267285928044
0.037,1.7667804028532808,1.0,2768.3812911193104,0.3404912901739085,1.3183907790015839,0.9608474763161152,0.2872577769198378,0.6767452546134075
0.0375,1.7660139432939639,1.0,2774.6116722889,0.3441906173115115,1.3179884348641606,0.9616098294166383,0.2872255856183465,0.677561719683168
0.038,1.765247483734647,1.0,2780.7919049781203,0.3478691958520825,1.317586605396316,0.9623453218020209,0.2871933943168552,0.6783761099261632
0.0385,1.7644810241753301,1.0,2786.9208232227325,0.3515271401400981,1.317185299371649,0.9630552242396396,0.28716120301536385,0.6791884115513946
0.039,1.7637145646160135,1.0,2792.99725856881,0.3551645645200353,1.31678452556376,0.9637407329421028,0.28712901171387256,0.6799986108524984
0.0395,1.7629481050566966,1.0,2799.02004017505,0.3587815833363708,1.3163842927462477,0.9644029747495301,0.28709682041238127,0.6808066942074511
0.04,1.7621816454973798,1.0,2804.987994917053,0.3623783109335813,1.315984609692712,0.9650430118983049,0.2870646291108899,0.6816126480782669
0.0405,1.761415185938063,1.0,2810.8999474940138,0.3659548616561437,1.315585485176752,0.9656618464133477,0.28703243780939863,0.6824164590106956
0.041,1.7606487263787463,1.0,2816.754720535782,0.3695113498485348,1.3151869279719672,0.9662604241572937,0.28700024650790734,0.6832181136339093
0.0415,1.7598822668194294,1.0,2822.5511347127995,0.37304788985523124,1.3147889468519574,0.9668396385666894,0.28696805520641605,0.68401759866019
0.042,1.7591158072601125,1.0,2828.2897433217504,0.3765645801934854,1.3143915351023896,0.96740033016489,0.2869358639049247,0.6848149319386574
0.0425,1.7583493477007957,1.0,2833.9700078805326,0.3800615468949591,1.313994695794778,0.9679432993175907,0.2869036726034334,0.6856101116477835
0.043000000000000003,1.7575828881414788,1.0,2839.5915469216134,0.38353890979717753,1.3135984306084185,0.9684693022805861,0.2868714813019421,0.6864031387753091
0.043500000000000004,1.7568164285821621,1.0,2845.1551481733118,0.38699677491519757,1.31320273082614,0.9689790521779004,0.28683929000045083,0.6871940350862515
0.044,1.7560499690228453,1.0,2850.6616053433745,0.390435248264076,1.3128075877307708,0.9694732247644554,0.2868070986989595,0.6879828222514546
0.0445,1.7552835094635284,1.0,2856.1117180110095,0.39385443585886976,1.312412992605139,0.9699524607553442,0.2867749073974682,0.6887695218478995
0.045,1.7545170499042115,1.0,2861.5062915193685,0.3972544437146357,1.3120189367320738,0.9704173679878115,0.2867427160959769,0.6895541553590119
0.0455,1.7537505903448947,1.0,2866.8461368711146,0.40063537784643066,1.3116254113944033,0.9708685234294816,0.28671052479448556,0.6903367441749647
0.046,1.752984130785578,1.0,2872.1320706249767,0.40399734426931144,1.3112324078749558,0.9713064750451597,0.28667833349299426,0.6911173095929757
0.0465,1.7522176712262612,1.0,2877.364914793686,0.40734044899833494,1.31083991745656,0.9717317435334378,0.286646142191503,0.691895872817599
0.047,1.7514512116669443,1.0,2882.545496744264,0.41066479804855804,1.3104479314220443,0.9721448239433405,0.2866139508900116,0.692672454961013
0.0475,1.7506847521076274,1.0,2887.6746490997657,0.4139704974350375,1.3100564410542372,0.9725461871803678,0.28658175958852034,0.6934470770433045
0.048,1.7499182925483105,1.0,2892.753209642337,0.41725765317283026,1.309665437635967,0.9729362814104671,0.28654956828702904,0.6942197599927454
0.0485,1.749151832988994,1.0,2897.7820212184565,0.42052637127699316,1.3092749124500629,0.9733155333697465,0.28651737698553775,0.6949905246460648
0.049,1.748385373429677,1.0,2902.761826448015,0.42377675388997105,1.3088848577065837,0.9736843491840178,0.28648518568404646,0.6957593899221415
0.0495,1.7476189138703602,1.0,2907.6920069249327,0.4270088400504051,1.3084952776415584,0.9740431093178074,0.2864529943825551,0.6965263509976334
0.05,1.7468524543110433,1.0,2912.576399285167,0.43022282726290517,1.3081061372884475,0.9743921925352134,0.2864208030810638,0.6972914801185981
0.0505,1.7460859947517267,1.0,2917.415833937689,0.43341881094355905,1.3077174282406445,0.9747319499933308,0.28638861177957253,0.6980547970566447
0.051000000000000004,1.7453195351924098,1.0,2922.211145718471,0.43659688650845474,1.3073291420915423,0.9750627168877707,0.2863564204780812,0.6988163214964178
0.051500000000000004,1.744553075633093,1.0,2926.9631738110525,0.4397571493736802,1.306941270434534,0.9753848133192916,0.2863242291765899,0.6995760730358236
0.052000000000000005,1.743786616073776,1.0,2931.672761668328,0.44289969495532333,1.306553804863013,0.9756985451060183,0.2862920378750986,0.7003340711862557
0.0525,1.7430201565144592,1.0,2936.3407569361443,0.446024618669472,1.3061667369703724,0.9760042045451146,0.28625984657360726,0.7010903353728151
0.053,1.7422536969551425,1.0,2940.968011378463,0.4491320159322143,1.3057800583500054,0.9763020711274649,0.28622765527211597,0.7018448849345258
0.0535,1.7414872373958257,1.0,2945.55538080385,0.452221982159638,1.3053937605953052,0.9765924122086466,0.2861954639706247,0.7025977391245453
0.054,1.7407207778365088,1.0,2950.103724993909,0.4552946127678311,1.305007835299665,0.9768754836392181,0.2861632726691334,0.7033489171103713
0.0545,1.739954318277192,1.0,2954.613907632906,0.4583500031728816,1.304622274056478,0.9771515303571127,0.2861310813676421,0.7040984379740436
0.055,1.7391878587178753,1.0,2959.0867962391308,0.46138824879087725,1.304237068459137,0.977420786944718,0.28609889006615075,0.7048463207123421
0.0555,1.7384213991585584,1.0,2963.5232620981674,0.46440944503790615,1.3038522101010355,0.9776834781530251,0.28606669876465946,0.7055925842369777
0.056,1.7376549395992416,1.0,2967.924180196741,0.46741368733005617,1.3034676905755669,0.9779398193950511,0.28603450746316816,0.7063372473747831
0.0565,1.7368884800399247,1.0,2972.2904291594286,0.4704010710834152,1.303083501476124,0.9781900172105742,0.2860023161616768,0.7070803288678966
0.057,1.7361220204806078,1.0,2976.622891186016,0.4733716917140713,1.3026996343961,0.9784342697040735,0.2859701248601855,0.7078218473739395
0.0575,1.735355560921291,1.0,2980.9224519904888,0.4763256446381122,1.3023160809288883,0.9786727669576201,0.28593793355869424,0.7085618214661922
0.058,1.7345891013619743,1.0,2985.1900007421373,0.479263025271626,1.3019328326678818,0.978905691420345,0.2859057422572029,0.7093002696337656
0.0585,1.7338226418026574,1.0,2989.426430007783,0.4821839290307006,1.301549881206474,0.9791332182759924,0.2858735509557116,0.7100372102817646
0.059000000000000004,1.7330561822433406,1.0,2993.63263569561,0.48508845133142386,1.3011672181380578,0.9793555157899494,0.2858413596542203,0.7107726617314525
0.059500000000000004,1.7322897226840237,1.0,2997.809517000522,0.4879766875898838,1.3007848350560267,0.9795727456370593,0.28580916835272896,0.7115066422204044
0.06,1.731523263124707,1.0,3001.9569121272566,0.4908486986446442,1.300402732777753,0.9797850609220052,0.2857769770512377,0.7122391522310522
0.0605,1.7307568035653902,1.0,3006.075728557851,0.4937045842439321,1.300020902861456,0.9799926115090767,0.2857447857497464,0.7129702099687398
0.061,1.7299903440060733,1.0,3010.167834271862,0.4965444752861331,1.2996393285792618,0.9801955435182512,0.2857125944482551,0.7136998493895701
0.0615,1.7292238844467565,1.0,3014.2337016268907,0.49936845627875753,1.2992580053243377,0.9803939945299928,0.2856804031467638,0.7144280811521004
0.062,1.7284574248874396,1.0,3018.273804842286,0.5021766117293159,1.2988769284898511,0.9805880969693146,0.28564821184527245,0.7151549158688534
0.0625,1.727690965328123,1.0,3022.288619973842,0.5049690261453188,1.2984960934689695,0.980777978337813,0.28561602054378116,0.7158803641063909
0.063,1.726924505768806,1.0,3026.278624888312,0.5077457840342764,1.2981154956548604,0.9809637614335787,0.28558382924228987,0.7166044363853856
0.0635,1.7261580462094892,1.0,3030.2442992395336,0.5105069699036994,1.297735130440691,0.9811455645597099,0.2855516379407985,0.7173271431806911
0.064,1.7253915866501723,1.0,3034.186124444226,0.513252668261098,1.2973549932196287,0.9813235017220957,0.28551944663930723,0.7180484949214114
0.0645,1.7246251270908557,1.0,3038.1045836582266,0.5159829636139829,1.2969750793848411,0.9814976828170944,0.28548725533781594,0.7187685019909672
0.065,1.7238586675315388,1.0,3042.0001617537837,0.5186979404698643,1.2965953843294957,0.9816682138096976,0.28545506403632465,0.7194871747271643
0.0655,1.723092207972222,1.0,3045.8733452967,0.5213976833362528,1.2962159034467597,0.9818351969027238,0.2854228727348333,0.7202045234222574
0.066,1.722325748412905,1.0,3049.72462252467,0.5240822767206589,1.2958366321298005,0.9819987306975568,0.285390681433342,0.7209205583230137
0.0665,1.7215592888535882,1.0,3053.5544833249824,0.5267518051305928,1.2954575657717857,0.9821589103469069,0.2853584901318507,0.7216352896307746
0.067,1.7207928292942716,1.0,3057.3634192139057,0.5294063530735652,1.2950786997658827,0.9823158277000468,0.2853262988303594,0.7223487275015179
0.0675,1.7200263697349547,1.0,3061.1519233156378,0.5320460050570865,1.2947000295052589,0.9824695714409416,0.2852941075288681,0.723060882045917
0.068,1.7192599101756378,1.0,3064.920490342431,0.5346708455886671,1.2943215503830814,0.9826202272196685,0.2852619162273768,0.7237717633293983
0.0685,1.718493450616321,1.0,3068.6696165743424,0.5372809591758173,1.2939432577925183,0.9827678777774983,0.2852297249258855,0.7244813813721975
0.069,1.717726991057004,1.0,3072.3997998404325,0.5398764303260477,1.2935651471267364,0.9829126030659815,0.28519753362439415,0.7251897461494183
0.0695,1.7169605314976875,1.0,3076.111539499674,0.5424573435468688,1.2931872137789033,0.9830544803603727,0.28516534232290286,0.7258968675910831
0.07,1.7161940719383706,1.0,3079.8053364227426,0.5450237833457909,1.2928094531421865,0.9831935843676912,0.28513315102141157,0.7266027555821865
0.07050000000000001,1.7154276123790537,1.0,3083.481692973859,0.5475758342303245,1.2924318606097533,0.9833299873297142,0.2851009597199202,0.7273074199627481
0.07100000000000001,1.7146611528197369,1.0,3087.1399574368293,0.5501135200836341,1.2920544414512143,0.983463755984133,0.28506876841842893,0.7280108521320767
