Time [s],Phi [rad],STIM [ ],Fsee [N],Gamma [ ],Lcerel [ ],q [ ],Lmtc [m],fisomrel [ ]
0.0,1.8,1.0,17.96757726261475,1.0002025883408012e-05,1.3793396992673352,0.005000026662526595,0.288653,0.5411396446421164
0.0005,1.79999375,1.0,18.276871109061517,0.005619155231222429,1.3793023736864114,0.01294051929348898,0.2886527375,0.5412299404204526
0.001,1.799975,1.0,21.618468957406453,0.01119684552200206,1.378938293187124,0.03560858611742341,0.28865195,0.5421102358304506
0.0015,1.79994375,1.0,31.069232368227297,0.01674324938115655,1.3780462040387538,0.070601717809992,0.2886506375,0.5442636084562786
0.002,1.7999,1.0,53.582128985050254,0.022258542299970645,1.3763681484801227,0.11471785151688157,0.2886488,0.5483004362552435
0.0025,1.79984375,1.0,97.11830846279017,0.027742898785639826,1.3739351975784708,0.16457469040600003,0.28864643749999996,0.5541213903442284
0.003,1.7997750000000001,1.0,160.95738847653922,0.03319649236899067,1.371214372890476,0.21728024479791735,0.28864354999999997,0.5605863818862584
0.0035,1.79969375,1.0,237.6824695680525,0.03861949560406999,1.368584760784286,0.27061268005616795,0.2886401375,0.5667897771606845
0.004,1.7996,1.0,321.46588290286405,0.04401208007892765,1.3661561159274593,0.32291559966094247,0.2886362,0.5724799067886384
0.0045000000000000005,1.7994937500000001,1.0,409.2668718143282,0.049374416420800905,1.3639228347994818,0.3730343159708039,0.2886317375,0.5776791145137407
0.005,1.799375,1.0,499.41262982585806,0.05470667428720259,1.3618583609265142,0.4202472819995976,0.28862675,0.5824570364399763
0.0055,1.79924375,1.0,590.7895603539848,0.06000902241340355,1.3599388517774826,0.4641735334154484,0.2886212375,0.5868750732815924
0.006,1.7991000000000001,1.0,682.517267511765,0.06528162855554921,1.3581464300312047,0.5046798114872547,0.2886152,0.5909793834690797
0.006500000000000001,1.79894375,1.0,773.8805178182611,0.070524659546298,1.3564672662502948,0.5418006227997246,0.2886086375,0.594805765599622
0.007,1.798775,1.0,864.285035971318,0.0757382812784105,1.3548904075188581,0.5756766574767472,0.28860155,0.5983826487598815
0.0075,1.79859375,1.0,953.2425459538946,0.08092265871448553,1.3534067894880832,0.6065098040791443,0.2885939375,0.6017335495654517
0.008,1.7984,1.0,1040.3439741238756,0.08607795548085118,1.352008859541052,0.6345320783771241,0.2885858,0.604878070167755
0.0085,1.79819375,1.0,1125.314049962942,0.09120433569281149,1.3506892440119633,0.6599843428620465,0.2885771375,0.6078349940507578
0.009000000000000001,1.797975,1.0,1207.899879895038,0.09630196128791604,1.3494420391590984,0.6831041126808606,0.28856795,0.6106194555750355
0.0095,1.79774375,1.0,1287.891968395027,0.10137099278324624,1.3482621269438715,0.7041174052766851,0.2885582375,0.6132445501802639
0.01,1.7975,1.0,1365.1667342783462,0.10641159069588356,1.347144389327696,0.7232341624012477,0.288548,0.6157231280558069
0.0105,1.79724375,1.0,1439.6589789907546,0.11142391498464715,1.3460839528981723,0.7406466022894488,0.2885372375,0.6180672753392081
0.011,1.796975,1.0,1511.321847904567,0.11640812441919862,1.3450765581173254,0.7565290749745198,0.28852595000000003,0.6202875288198346
0.0115,1.79669375,1.0,1580.1206442181683,0.1213643761770805,1.3441184874579333,0.7710385614453983,0.2885141375,0.6223930694823476
0.012,1.7964,1.0,1646.056806481584,0.12629282690221746,1.3432061673487534,0.7843155448130298,0.28850180000000003,0.6243926233857764
0.0125,1.79609375,1.0,1709.1737328349795,0.1311936334300932,1.3423360375717894,0.7964852858890145,0.2884889375,0.6262947620524438
0.013000000000000001,1.7957750000000001,1.0,1769.5064921931182,0.13606695063229657,1.3415050734549216,0.8076594554151308,0.28847555,0.6281067755247085
0.0135,1.79544375,1.0,1827.091433514646,0.14091293196938792,1.3407105961321604,0.8179374325310935,0.2884616375,0.6298351074083799
0.014,1.7951000000000001,1.0,1881.992550098723,0.14573173090192765,1.339949926737516,0.8274074996505792,0.2884472,0.6314861202524158
0.0145,1.79474375,1.0,1934.279025936319,0.15052349983905136,1.3392206026892586,0.8361481671303618,0.2884322375,0.6330656336452047
0.015,1.794375,1.0,1984.0513992139843,0.15528839180837525,1.3385200609633119,0.8442291884677489,0.28841675,0.6345796183845523
0.0155,1.79399375,1.0,2031.3716454136725,0.16002655650870218,1.3378463600788226,0.8517128203452744,0.2884007375,0.6360326434358754
0.016,1.7936,1.0,2076.311631511071,0.16473814330873796,1.337197621621437,0.8586545209547598,0.2883842,0.6374290943011678
0.0165,1.7931937500000001,1.0,2118.9575634393636,0.16942330157718832,1.3365719671768013,0.8651037358587301,0.2883671375,0.6387733128531192
0.017,1.792775,1.0,2159.390888716829,0.17408217938179227,1.3359677008651702,0.8711046627644671,0.28834955,0.6400692091051388
0.0175,1.7923437500000001,1.0,2197.7187910146813,0.17871492583669052,1.335382980717802,0.8766967784349649,0.2883314375,0.641320970168503
0.018000000000000002,1.7919,1.0,2234.01168781854,0.1833216863528524,1.3348164427163003,0.8819155610914096,0.2883128,0.6425317273176098
0.0185,1.79144375,1.0,2268.34389750311,0.18790260600922065,1.3342667672401685,0.8867928395987702,0.2882936375,0.6437044908125225
0.019,1.790975,1.0,2300.7972651422447,0.19245782988473814,1.333732634668909,0.8913572045893049,0.28827395,0.6448422466739432
0.0195,1.79049375,1.0,2331.451998085617,0.19698750194605408,1.333212809227235,0.8956343995020812,0.2882537375,0.645947779868923
0.02,1.79,1.0,2360.39733661642,0.20149176726608092,1.332706026234913,0.8996476181785935,0.288233,0.6470239161574405
0.0205,1.78949375,1.0,2387.705255468278,0.2059707680149926,1.3322112433677347,0.9034178455130333,0.2882117375,0.6480729903701014
0.021,1.788975,1.0,2413.4406261882377,0.21042464474250347,1.3317275315775832,0.906964077190058,0.28818995000000003,0.6490970816117461
0.021500000000000002,1.78844375,1.0,2437.6723049411703,0.21485353799832801,1.3312539618163426,0.9103035136791939,0.2881676375,0.650098255041381
0.022,1.7879,1.0,2460.4727977510393,0.21925758833218068,1.3307896050358965,0.913451754650586,0.2881448,0.6510785625006238
0.0225,1.78734375,1.0,2481.906798020147,0.22363693410751725,1.3303336384424556,0.9164229900089149,0.28812143749999997,0.6520398192390595
0.023,1.786775,1.0,2502.052017191588,0.22799171720167027,1.329885142776416,0.919230112004491,0.28809755,0.6529840324470142
0.0235,1.78619375,1.0,2520.965449988034,0.23232207471317862,1.3294434208413872,0.9218849060829927,0.28807313749999996,0.6539127310724637
0.024,1.7856,1.0,2538.698896928668,0.23662814214359862,1.3290078448813705,0.9243981369811736,0.2880482,0.6548272895615946
0.0245,1.78499375,1.0,2555.3060491269403,0.24091005499448656,1.3285777871403672,0.9267796402993088,0.2880227375,0.6557290746107766
0.025,1.784375,1.0,2570.842328546671,0.24516794876739878,1.3281526198623785,0.9290384154467157,0.28799675,0.6566194454000551
0.025500000000000002,1.78374375,1.0,2585.364736995607,0.24940195896389158,1.327731715291406,0.9311827081589032,0.2879702375,0.6574997538015075
0.026000000000000002,1.7831000000000001,1.0,2598.9199765254057,0.2536122176187981,1.3273145550065926,0.9332201001092907,0.2879432,0.6583711163291974
0.0265,1.78244375,1.0,2611.570365140483,0.2577988628567972,1.3269004865314726,0.9351575378081919,0.2879156375,0.6592349231680055
0.027,1.781775,1.0,2623.3581136936186,0.2619620263094207,1.326489055081619,0.9370014391814597,0.28788755,0.660092145765024
0.0275,1.7810937500000001,1.0,2634.3209038941186,0.266101837864876,1.3260798562412215,0.9387577219329631,0.2878589375,0.6609436458982918
0.028,1.7804,1.0,2644.497208900238,0.27021842741137053,1.3256724855944704,0.9404318427877174,0.2878298,0.661790281016325
0.0285,1.77969375,1.0,2653.92622449634,0.2743119248371117,1.325266538725555,0.9420288394508239,0.2878001375,0.6626329042904877
0.029,1.778975,1.0,2662.6478038962236,0.278382460030307,1.324861611218666,0.9435533682411754,0.28776995,0.6634723646569272
0.029500000000000002,1.7782437500000001,1.0,2670.702396172194,0.28243016287916367,1.3244572986579928,0.9450097378928785,0.2877392375,0.6643095068480807
0.03,1.7775,1.0,2678.1186945528893,0.28645515684422007,1.3240533094400704,0.9464019527909068,0.287708,0.6651449382682972
0.0305,1.77674375,1.0,2684.9471612073953,0.29045757840511105,1.3236491563127457,0.9477337052892887,0.2876762375,0.6659796671493874
0.031,1.775975,1.0,2691.2161558129183,0.2944375529663974,1.323244558770291,0.9490084461422996,0.28764395,0.6668142704891578
0.0315,1.7751937500000001,1.0,2696.950881211593,0.2983952040859825,1.3228392681861223,0.9502293854984099,0.2876111375,0.667649256750794
0.032,1.7744,1.0,2702.1768246492406,0.30233065532177006,1.3224330359336565,0.9513995095017466,0.2875778,0.6684851318195326
0.0325,1.77359375,1.0,2706.919731162841,0.30624403023166347,1.3220256133863095,0.952521598666459,0.2875439375,0.6693223989897038
0.033,1.772775,1.0,2711.2055783378723,0.3101354523735662,1.321616751917498,0.9535982445324983,0.28750955,0.6701615589478271
0.0335,1.7719437500000002,1.0,2715.0605524366238,0.3140050453053818,1.3212062029006384,0.954631864781906,0.2874746375,0.6710031097517664
0.034,1.7711000000000001,1.0,2718.511025896776,0.3178529325850138,1.320793717709147,0.9556247169742853,0.2874392,0.6718475468059439
0.0345,1.7702437500000001,1.0,2721.5789900517516,0.32167923452087194,1.3203790890992895,0.956578914753877,0.2874032375,0.6726952782777729
0.035,1.7693750000000001,1.0,2724.286319562506,0.32548407253460215,1.3199621121282101,0.957496435786758,0.28736675,0.6735467053649704
0.035500000000000004,1.76849375,1.0,2726.662817956063,0.3292675742873513,1.3195425108379397,0.9583791255857359,0.2873297375,0.6744023717072232
0.036000000000000004,1.7676,1.0,2728.723624782544,0.33302985656446477,1.3191201436471942,0.9592287247638572,0.2872922,0.6752625443832722
0.0365,1.76669375,1.0,2730.4839601139383,0.3367710361512876,1.3186948689746891,0.9600468655625718,0.2872541375,0.6761274888048652
0.037,1.765775,1.0,2731.959115727923,0.3404912298331652,1.3182665452391398,0.9608350798191149,0.28721555,0.6769974686911435
0.0375,1.76484375,1.0,2733.1644467363712,0.34419055439544266,1.3178350308592623,0.961594806262616,0.2871764375,0.6778727460417466
0.038,1.7639,1.0,2734.1153636581735,0.34786912662346525,1.317400184253772,0.9623273972022934,0.28713679999999997,0.6787535811086468
0.0385,1.76294375,1.0,2734.827324936843,0.35152706330257816,1.3169618638413847,0.9630341246645061,0.28709663750000003,0.6796402323666948
0.039,1.761975,1.0,2735.315829901674,0.35516448121812655,1.3165199280408157,0.9637161860295831,0.28705595,0.6805329564828981
0.0395,1.7609937500000001,1.0,2735.5964121746156,0.3587814971554557,1.316074235270781,0.9643747092141817,0.2870147375,0.6814320082844099
0.04,1.76,1.0,2735.6819921712968,0.36237821908267853,1.315624667931713,0.9650107579530065,0.286973,0.6823375924521554
0.0405,1.7589937500000001,1.0,2735.589121183006,0.36595477220608713,1.3151710756628452,0.9656253359367087,0.2869307375,0.6832499778875163
0.041,1.757975,1.0,2735.3271181386126,0.36951126738949563,1.3147133739313486,0.9662193936738528,0.28688795,0.6841692993263622
0.0415,1.75694375,1.0,2734.9050697215853,0.37304781481317106,1.3142514804449492,0.9667938290238478,0.2868446375,0.6850956857084111
0.042,1.7559,1.0,2734.332074414436,0.3765645246573804,1.3137853129113735,0.9673494905880378,0.28680079999999997,0.6860292646719115
0.0425,1.75484375,1.0,2733.617239922021,0.38006150710239056,1.3133147890383472,0.9678871809126616,0.2867564375,0.6869701625314286
0.043000000000000003,1.753775,1.0,2732.769680744495,0.38353887232846856,1.3128398265335965,0.9684076594520988,0.28671155,0.6879185042551953
0.043500000000000004,1.75269375,1.0,2731.798515901565,0.3869967305158814,1.3123603431048478,0.9689116453125869,0.28666613750000003,0.6888744134420337
0.044,1.7516,1.0,2730.712866805439,0.39043519184489606,1.3118762564598274,0.9693998197947092,0.2866202,0.6898380122978442
0.0445,1.75049375,1.0,2729.521855285433,0.3938543664957795,1.3113874843062612,0.9698728287512783,0.2865737375,0.6908094216116645
0.045,1.7493750000000001,1.0,2728.230745881565,0.397254363693112,1.3108939794085066,0.9703312873246674,0.28652675,0.6917886912230328
0.0455,1.74824375,1.0,2726.8495219616484,0.4006352903309413,1.3103956516251247,0.9707757757198503,0.2864792375,0.6927759548858872
0.046,1.7471,1.0,2725.3852671519153,0.4039972527119441,1.3098924371448497,0.9712068467652981,0.2864312,0.6937712927309483
0.0465,1.7459437500000001,1.0,2723.8417525226323,0.4073403568269735,1.3093843022658176,0.9716250278531303,0.28638263750000004,0.6947747242075677
0.047,1.744775,1.0,2722.2229723273135,0.41066470864012555,1.3088712112494107,0.9720308201384872,0.28633355,0.6957862718792152
0.0475,1.74359375,1.0,2720.540357318241,0.41397041342289803,1.3083530606380487,0.9724246953001383,0.28628393750000003,0.6968060905457522
0.048,1.7424,1.0,2718.7929625076335,0.4172575763461892,1.3078298595815452,0.9728071100973882,0.2862338,0.697834112085479
0.0485,1.74119375,1.0,2716.9876119095047,0.42052630071590835,1.307301546482935,0.973178494181108,0.2861831375,0.6988704066619789
0.049,1.739975,1.0,2715.131122598711,0.4237766898379648,1.3067680597452522,0.9735392567779784,0.28613195,0.6999150431126702
0.0495,1.73874375,1.0,2713.22274172769,0.4270088466820705,1.3062294067157891,0.9738897924859347,0.2860802375,0.7009679542809177
0.05,1.7375000871702455,1.0,2711.2828599298655,0.43022287412602767,1.3056854413019559,0.9742304671803473,0.28602800366115033,0.7020293717347847
0.0505,1.7362515634006266,1.0,2709.6668254618708,0.43341887356602926,1.3051363324627254,0.9745616505459975,0.28597556566282634,0.7030989113877459
0.051000000000000004,1.7350030396310077,1.0,2708.576011114383,0.43659694569105517,1.3045824353304836,0.9748837074180327,0.28592312766450234,0.7041758293627289
0.051500000000000004,1.7337545158613887,1.0,2707.97118406884,0.43975719119008544,1.304024105037616,0.9751969860371493,0.28587068966617835,0.7052593863395301
0.052000000000000005,1.7325059920917698,1.0,2707.8146936410344,0.4428997101114556,1.3034616836958757,0.9755018180591467,0.28581825166785435,0.7063488728586235
0.0525,1.731257468322151,1.0,2708.0671957756176,0.44602460252386694,1.3028955299843337,0.9757985214022574,0.28576581366953036,0.7074435520264976
0.053,1.7300089445525322,1.0,2708.6982735098177,0.44913196665238647,1.302325921962462,0.9760873947185018,0.28571337567120636,0.7085428472880972
0.0535,1.7287604207829133,1.0,2709.6779569951996,0.45222190063535656,1.3017531342457145,0.9763687233895278,0.28566093767288236,0.7096461925155861
0.054,1.7275118970132943,1.0,2710.9818470174146,0.45529450045516545,1.301177391093565,0.9766427771542325,0.28560849967455837,0.7107531221112049
0.0545,1.7262633732436754,1.0,2712.5786619561954,0.4583498651325302,1.3005989798605964,0.976909818309212,0.2855560616762344,0.7118630526363801
0.055,1.7250148494740565,1.0,2714.43530297473,0.461388095118922,1.3000182045909625,0.9771700991470759,0.2855036236779104,0.712975372812549
0.0555,1.7237663257044376,1.0,2716.535123188882,0.46440928453026553,1.2994352193838947,0.9774238518674825,0.2854511856795864,0.7140897620934912
0.056,1.7225178019348186,1.0,2718.861483609927,0.46741352748248555,1.2988501783386248,0.97767129900345,0.2853987476812624,0.7152059021268244
0.0565,1.7212692781651997,1.0,2721.3977458573645,0.4704009180915067,1.2982632355543844,0.9779126539071583,0.2853463096829384,0.7163234767749675
0.057,1.7200207543955808,1.0,2724.127265398231,0.4733715504732538,1.2976745451304053,0.9781481212075748,0.2852938716846144,0.7174421721345865
0.0575,1.7187722306259618,1.0,2727.0333853127436,0.4763255187436515,1.2970842611659186,0.9783778972417466,0.2852414336862904,0.7185616765545291
0.058,1.717523706856343,1.0,2730.0994305864792,0.47926291701862445,1.2964925377601566,0.9786021704614722,0.2851889956879664,0.7196816806522389
0.0585,1.716275183086724,1.0,2733.3087029294034,0.4821838394140975,1.2958995290123505,0.9788211218169448,0.2851365576896424,0.7208018773286644
0.059000000000000004,1.715026659317105,1.0,2736.654569979157,0.48508837321837206,1.2953052973923003,0.9790349194846151,0.2850841196913184,0.7219221343496336
0.059500000000000004,1.7137781355474861,1.0,2740.114831106544,0.4879766197561697,1.2947100465455925,0.9792437339544662,0.2850316816929944,0.7230420550545111
0.06,1.7125296117778672,1.0,2743.6817156294273,0.4908486683462501,1.2941138488519546,0.979447721003207,0.2849792436946704,0.7241614920710766
0.0605,1.7112810880082483,1.0,2747.347813937741,0.49370460800864163,1.2935167732885413,0.9796470302140134,0.28492680569634643,0.725280305479219
0.061,1.7100325642386294,1.0,2751.105701500847,0.4965445277633724,1.2929188888325076,0.9798418054693085,0.28487436769802243,0.7263983563939065
0.0615,1.7087840404690104,1.0,2754.9479375780497,0.49936851663047044,1.2923202644610081,0.9800321852133912,0.28482192969969844,0.7275155069688976
0.062,1.7075355166993915,1.0,2758.8670640339897,0.502176663629964,1.2917209691511977,0.9802183027010656,0.28476949170137444,0.7286316204001466
0.0625,1.7062869929297726,1.0,2762.855604259941,0.5049690577818814,1.2911210718802313,0.9804002862331109,0.28471705370305045,0.7297465609289069
0.063,1.7050384691601537,1.0,2766.9060622006073,0.5077457881062505,1.2905206416252635,0.9805782593793845,0.28466461570472645,0.730860193844532
0.0635,1.7037899453905347,1.0,2771.010921486036,0.5105069436230996,1.289919747363449,0.9807523411902943,0.28461217770640246,0.7319723854869705
0.064,1.702541421620916,1.0,2775.1688857307763,0.513252602167199,1.2893184018117303,0.9809226427420763,0.28455973970807846,0.7330831070570988
0.0645,1.701292897851297,1.0,2779.3685753761038,0.5159828641227044,1.2887167084875908,0.9810892772859616,0.28450730170975447,0.734192162755394
0.065,1.7000443740816782,1.0,2783.604396028402,0.5186978182591687,1.2881147185332507,0.9812523505957259,0.2844548637114305,0.7352994546062046
0.0655,1.6987958503120593,1.0,2787.873613042362,0.5213975477364854,1.2875124572208003,0.9814119630297603,0.2844024257131065,0.7364049328534996
0.066,1.6975473265424403,1.0,2792.1734836852343,0.5240821357145476,1.2869099498223306,0.981568211420113,0.2843499877147825,0.7375085481280221
0.0665,1.6962988027728214,1.0,2796.5012569915607,0.5267516653532487,1.286307221609933,0.9817211892223376,0.2842975497164585,0.7386102514477064
0.067,1.6950502790032025,1.0,2800.8541736327024,0.529406219812482,1.2857042978556978,0.9818709866579595,0.2842451117181345,0.7397099942180572
0.0675,1.6938017552335836,1.0,2805.229465799958,0.5320458822521409,1.285101203831716,0.9820176908499635,0.2841926737198105,0.7408077282324819
0.068,1.6925532314639646,1.0,2809.6243571021455,0.5346707358321187,1.2844979648100787,0.9821613859517039,0.2841402357214865,0.7419034056725868
0.0685,1.6913047076943457,1.0,2814.0360624772447,0.5372808637123085,1.2838946060628766,0.9823021532695871,0.2840877977231625,0.7429969791084314
0.069,1.6900561839247268,1.0,2818.461788118298,0.5398763490526038,1.2832911528622006,0.9824400713798777,0.2840353597248385,0.7440884014987413
0.0695,1.6888076601551079,1.0,2822.8987314134383,0.542457275012898,1.2826876304801416,0.9825752162399436,0.2839829217265145,0.7451776261910809
0.07,1.687559136385489,1.0,2827.344080899846,0.5450237247530842,1.2820840641887905,0.9827076612942428,0.2839304837281905,0.7462646069219845
0.07050000000000001,1.68631061261587,1.0,2831.7970060669627,0.5475757696678547,1.2814804615030828,0.9828374760404802,0.2838780457298665,0.7473493296939142
0.07100000000000001,1.685062088846251,1.0,2836.2562183479454,0.5501134905670458,1.2808768339988688,0.9829647284729522,0.28382560773154253,0.7484317733506758
0.07150000000000001,1.6838135650766322,1.0,2840.716869498252,0.5526369900849002,1.2802732249320683,0.98308948712226,0.28377316973321853,0.7495118602875582
0.07200000000000001,1.6825650413070132,1.0,2845.1782395343544,0.5551463444010984,1.2796696406692292,0.9832118150830425,0.28372073173489454,0.7505895793620672
0.0725,1.6813165175373943,1.0,2849.6396062327162,0.5576416296953212,1.2790660875768984,0.9833317734389837,0.28366829373657054,0.7516649195297285
