Time [s],Phi [rad],STIM [ ],Fsee [N],Gamma [ ],Lcerel [ ],q [ ],Lmtc [m],fisomrel [ ]
0.0,1.8,1.0,16.3467925711383,0.0014853392897937762,1.4216950777265738,0.005628142558812043,0.27935299999999996,0.432950450960392
0.0005,1.79999375,1.0,17.072069032905826,0.0070862170198172925,1.421598316231233,0.018929278942291045,0.2793527375,0.4332106497161651
0.001,1.799975,1.0,21.51046481355905,0.012655678254012533,1.4210548200116349,0.047864579541634374,0.27935195,0.43467104127860257
0.0015,1.79994375,1.0,33.92543495850273,0.01819389921481108,1.419786905262887,0.08923317580643325,0.2793506375,0.43807064467413226
0.002,1.7999,1.0,62.474896688907926,0.023701055134947212,1.4175704062355297,0.13909891948682343,0.2793488,0.4439890173351235
0.0025,1.79984375,1.0,111.60475216124439,0.029177320264757837,1.4147348691115456,0.19369569165820433,0.2793464375,0.45151463119588386
0.003,1.7997750000000001,1.0,175.96465286432317,0.03462286787714153,1.4118501689789873,0.2500407141158438,0.27934355,0.4591181068621799
0.0035,1.79969375,1.0,248.7050689019167,0.04003787027363838,1.4091656473799417,0.3059083314004909,0.2793401375,0.46614627871222347
0.004,1.7996,1.0,326.039598279679,0.045422498784975625,1.4067060037309345,0.3597234013121745,0.2793362,0.4725453652079501
0.0045000000000000005,1.7994937500000001,1.0,406.0631562131062,0.05077692379349941,1.4044424289420006,0.4104830475777743,0.2793317375,0.47840026043206263
0.005,1.799375,1.0,487.5872097700137,0.05610131471626542,1.4023457286291676,0.4576431434196865,0.27932675,0.4837943707074752
0.0055,1.79924375,1.0,569.7059858791813,0.061395839985703055,1.4003939068311162,0.5009940515400461,0.2793212375,0.4887905592235824
0.006,1.7991000000000001,1.0,651.7020592515441,0.0666606672033183,1.398570042447158,0.5405512390601299,0.2793152,0.49343724892752105
0.006500000000000001,1.79894375,1.0,732.9573327993071,0.07189596287180224,1.396861489070253,0.5764712850597055,0.2793086375,0.49777091356167535
0.007,1.798775,1.0,812.9757139012132,0.07710189262620039,1.3952576643867018,0.6089901911296641,0.27930155,0.5018219985445451
0.0075,1.79859375,1.0,891.3636822166468,0.08227862137465748,1.3937494655588758,0.6383817792164465,0.2792939375,0.5056165764416445
0.008,1.7984,1.0,967.7931566667213,0.08742631262704817,1.3923292595282752,0.66493084358554,0.27928580000000003,0.5091765054783012
0.0085,1.79819375,1.0,1042.0352262279603,0.09254512931498718,1.3909898044870999,0.6889160002970414,0.2792771375,0.5125222346528681
0.009000000000000001,1.797975,1.0,1113.919202725155,0.0976352338590501,1.3897246369729348,0.7106004528154813,0.27926795,0.5156718983938591
0.0095,1.79774375,1.0,1183.2974659091342,0.10269678668495275,1.3885283287229757,0.7302272819985357,0.2792582375,0.5186407454710821
0.01,1.7975,1.0,1250.0882547081103,0.10772994789612976,1.387395573774876,0.7480171162864941,0.279248,0.5214434611595493
0.0105,1.79724375,1.0,1314.264953890136,0.11273487744230133,1.3863212265232092,0.7641681484215903,0.2792372375,0.5240941005663371
0.011,1.796975,1.0,1375.8068421022895,0.11771173360074916,1.3853008931352155,0.7788574242963675,0.27922595,0.5266046611900677
0.0115,1.79669375,1.0,1434.7019934003097,0.12266067315377477,1.3843307330972134,0.7922422876319368,0.2792141375,0.5289856109596891
0.012,1.7964,1.0,1490.9792960690534,0.12758185288115528,1.383406906284821,0.8044619492057492,0.2792018,0.531247271087699
0.0125,1.79609375,1.0,1544.690908184278,0.13247542853003,1.3825257579791859,0.8156394373503552,0.2791889375,0.5333993765384226
0.013000000000000001,1.7957750000000001,1.0,1595.897750522612,0.13734155586965183,1.3816839493047397,0.8258834491002223,0.27917555,0.5354507743722479
0.0135,1.79544375,1.0,1644.6451107919913,0.1421803878404587,1.3808787107855458,0.8352900998863353,0.2791616375,0.5374088254794023
0.014,1.7951000000000001,1.0,1691.0013187652264,0.1469920773828886,1.3801072729456665,0.8439442391962447,0.2791472,0.5392808069317877
0.0145,1.79474375,1.0,1735.042867058887,0.15177677649896262,1.379367028670848,0.8519208854291141,0.2791322375,0.5410735253745282
0.015,1.794375,1.0,1776.8641929046853,0.1565346382577244,1.3786553770647,0.8592863979196164,0.27911675,0.5427937035076205
0.0155,1.79399375,1.0,1816.5384410980553,0.16126581287526062,1.377970187900044,0.8660996881126801,0.2791007375,0.5444468656211906
0.016,1.7936,1.0,1854.1325495869582,0.16597044892783203,1.3773095735324012,0.8724130767255492,0.2790842,0.5460379008954003
0.0165,1.7931937500000001,1.0,1889.725077252843,0.17064869499169932,1.376671646317293,0.8782730456446753,0.2790671375,0.5475716545300386
0.017,1.792775,1.0,1923.4051901847922,0.1753006996431233,1.3760545186102404,0.8837209607961419,0.27904955,0.5490529305893506
0.0175,1.7923437500000001,1.0,1955.2513633962237,0.17992660969925275,1.375456545581965,0.8887937600820451,0.2790314375,0.5504859132004396
0.018000000000000002,1.7919,1.0,1985.361518048676,0.18452657362142777,1.3748759485985105,0.8935244013141687,0.2790128,0.5518750738595884
0.0185,1.79144375,1.0,2013.7996916179363,0.18910073554832915,1.3743114384738901,0.8979424837094029,0.2789936375,0.5532236831237474
0.019,1.790975,1.0,2040.6338924312322,0.19364923942470702,1.3737617486454103,0.9020745408186789,0.27897395,0.5545349338313939
0.0195,1.79049375,1.0,2065.9374858694,0.1981722291953114,1.3732256125503777,0.9059443968401456,0.27895373749999997,0.5558119966084036
0.02,1.79,1.0,2089.7845540488456,0.20266984812018748,1.3727018118147545,0.9095734915551652,0.278933,0.5570579064732122
0.0205,1.78949375,1.0,2112.2499519287067,0.20714223934850615,1.3721891693117303,0.912981152859075,0.2789117375,0.5582755811449112
0.021,1.788975,1.0,2133.4052916699666,0.21158954541549468,1.371686589510817,0.9161848433133124,0.27888995,0.5594677269700811
0.021500000000000002,1.78844375,1.0,2153.305394714144,0.2160119055579668,1.3711932065880357,0.9192003942872549,0.2788676375,0.5606364903791196
0.022,1.7879,1.0,2172.007831885902,0.22040945901273606,1.3707081547194073,0.9220421439966463,0.2788448,0.5617840051802678
0.0225,1.78734375,1.0,2189.5726895880284,0.22478234501661626,1.3702305680809528,0.924723099944706,0.2788214375,0.5629123930435427
0.023,1.786775,1.0,2206.0587554380627,0.22913070207927774,1.3697596212241003,0.9272550881929019,0.27879755,0.564023668725159
0.0235,1.78619375,1.0,2221.521959557659,0.23345466799114492,1.3692945435050714,0.9296488804474996,0.2787731375,0.5651197070707301
0.024,1.7856,1.0,2236.0283263634437,0.23775438225386525,1.3688344716042566,0.9319142809499154,0.2787482,0.5662025910599771
0.0245,1.78499375,1.0,2249.619528440894,0.24202997900614182,1.3683788323230144,0.9340602832123011,0.2787227375,0.5672737114041213
0.025,1.784375,1.0,2262.3385019402003,0.24628159238667785,1.3679270524627025,0.9360951087260287,0.27869675,0.5683344517414151
0.025500000000000002,1.78374375,1.0,2274.2293393287496,0.25050935653417644,1.3674785588246794,0.938026284087067,0.2786702375,0.5693861887887011
0.026000000000000002,1.7831000000000001,1.0,2285.3371880440172,0.2547134055873407,1.3670327782103036,0.9398607094339352,0.2786432,0.5704302924720221
0.0265,1.78244375,1.0,2295.7047934979355,0.2588938728207962,1.3665891744400598,0.9416047241292553,0.2786156375,0.5714680394877405
0.027,1.781775,1.0,2305.37079591255,0.2630508904447124,1.3661472656974953,0.943264162596465,0.27858755,0.5725005734127798
0.0275,1.7810937500000001,1.0,2314.387124017159,0.2671845933136194,1.3657064323614683,0.9448443775166158,0.2785589375,0.5735293537291034
0.028,1.7804,1.0,2322.7838219193545,0.2712951101658051,1.365266302601186,0.9463503321855229,0.2785298,0.5745552556889632
0.0285,1.77969375,1.0,2330.5914512482177,0.27538256973955744,1.3648265045858556,0.9477866061256099,0.2785001375,0.57557915035608
0.029,1.778975,1.0,2337.841045812362,0.2794471007731644,1.3643866664846849,0.949157429853438,0.27846994999999997,0.5766019046179178
0.029500000000000002,1.7782437500000001,1.0,2344.5640687415607,0.28348883200491404,1.363946416466881,0.9504667160683221,0.2784392375,0.5776243811891439
0.03,1.7775,1.0,2350.7923721100856,0.2875078921730941,1.363505382701652,0.9517180876710174,0.278408,0.5786474386062679
0.0305,1.77674375,1.0,2356.554076497803,0.29150440732526345,1.3630632377330774,0.9529149072640687,0.2783762375,0.5796718284654814
0.031,1.775975,1.0,2361.8804515674096,0.29547850732380637,1.3626196231417484,0.9540602928559732,0.27834395,0.5806983702568123
0.0315,1.7751937500000001,1.0,2366.7954099539625,0.2994303174295603,1.3621742633348244,0.9551571487086571,0.2783111375,0.5817276880672109
0.032,1.7744,1.0,2371.320481750023,0.3033599610556184,1.3617269109261736,0.9562081779569036,0.2782778,0.5827603377289798
0.0325,1.77359375,1.0,2375.4773868215357,0.307267561615074,1.3612773185296647,0.9572158966941336,0.2782439375,0.5837968721811709
0.033,1.772775,1.0,2379.2880163433056,0.3111532425210203,1.360825238759167,0.9581826492144586,0.27820955,0.5848378414361929
0.0335,1.7719437500000002,1.0,2382.7744154328025,0.3150171271865505,1.3603704242285493,0.9591106218351515,0.2781746375,0.5858837925425238
0.034,1.7711000000000001,1.0,2385.95670226884,0.3188593365844692,1.3599126498541374,0.9600018570682839,0.27813920000000003,0.5869352183513172
0.0345,1.7702437500000001,1.0,2388.8518765471094,0.3226799884867076,1.3594517254867817,0.9608582659489763,0.2781032375,0.5879925288411203
0.035,1.7693750000000001,1.0,2391.4884296982646,0.3264792174937417,1.3589873380356807,0.9616816277125383,0.27806675000000003,0.5890564130422702
0.035500000000000004,1.76849375,1.0,2393.8790911508017,0.33025714040526094,1.3585193455773323,0.962473619682235,0.2780297375,0.5901271646900554
0.036000000000000004,1.7676,1.0,2396.0366563543575,0.33401387402095484,1.3580476061882347,0.9632358130761425,0.2779922,0.5912050755831466
0.0365,1.76669375,1.0,2397.973980161075,0.33774953514051276,1.3575719779448863,0.9639696809366471,0.2779541375,0.5922904355503245
0.037,1.765775,1.0,2399.703970570187,0.3414642405636243,1.3570923189237845,0.9646766053803896,0.27791555,0.5933835324159256
0.0375,1.76484375,1.0,2401.2395828332483,0.34515810708997885,1.3566084872014281,0.9653578842339362,0.2778764375,0.5944846519639952
0.038,1.7639,1.0,2402.593813921974,0.34883125151926586,1.3561203408543148,0.9660147371135621,0.2778368,0.5955940779011692
0.0385,1.76294375,1.0,2403.779697357151,0.3524837906511748,1.355627737958943,0.9666483110014008,0.2777966375,0.5967120918182569
0.039,1.761975,1.0,2404.8102983994827,0.35611584128539514,1.3551305365918105,0.9672596853647971,0.27775595,0.5978389731505509
0.0395,1.7609937500000001,1.0,2405.698709602585,0.3597275202216163,1.3546285948294159,0.9678498768608934,0.2777147375,0.598974999136843
0.04,1.76,1.0,2406.4476803678604,0.3633189338380732,1.3541218822502001,0.9684198507374553,0.277673,0.6001201929578297
0.0405,1.7589937500000001,1.0,2407.077141043279,0.3668902084406284,1.3536101838070502,0.9689705062347517,0.2776307375,0.6012749933289037
0.041,1.757975,1.0,2407.595906977264,0.37044145629132363,1.3530934041986928,0.9695026989243992,0.27758795,0.6024395660439367
0.0415,1.75694375,1.0,2408.0104175034276,0.3739727869766711,1.3525714738001497,0.97001723831199,0.2775446375,0.6036140174183365
0.042,1.7559,1.0,2408.327121251737,0.3774843100831831,1.3520443229864425,0.9705148893753334,0.2775008,0.6047984523374279
0.0425,1.75484375,1.0,2408.55247478959,0.3809761351973722,1.3515118821325929,0.970996375469004,0.2774564375,0.6059929742334252
0.043000000000000003,1.753775,1.0,2408.6929413498297,0.3844483719057507,1.3509740816136222,0.9714623810106703,0.27741155,0.6071976850620997
0.043500000000000004,1.75269375,1.0,2408.7549896458754,0.38790112979483093,1.3504308518045522,0.9719135539676568,0.2773661375,0.6084126852791325
0.044,1.7516,1.0,2408.7450927742875,0.39133451845112527,1.3498821230804048,0.9723505081604822,0.2773202,0.6096380738161623
0.0445,1.75049375,1.0,2408.6697272037977,0.39474864746114613,1.3493278258162014,0.9727738253985428,0.2772737375,0.6108739480565233
0.045,1.7493750000000001,1.0,2408.535371851775,0.3981436264114058,1.3487678903869633,0.9731840574617328,0.27722674999999997,0.6121204038106733
0.0455,1.74824375,1.0,2408.3456545564195,0.4015195586811047,1.3482022778395732,0.9735817291973212,0.2771792375,0.6133774671789944
0.046,1.7471,1.0,2408.106922484152,0.40487655583657944,1.347630919996807,0.9739673380268346,0.2771312,0.6146452278768288
0.0465,1.7459437500000001,1.0,2407.8258661043164,0.4082147288268773,1.3470537449939401,0.974341356141764,0.2770826375,0.6159237821609731
0.047,1.744775,1.0,2407.5057778930864,0.4115341804707965,1.3464707175041015,0.974704233692232,0.27703354999999996,0.6172131438526565
0.0475,1.74359375,1.0,2407.149950458998,0.4148350135871351,1.34588180220042,0.9750563987533871,0.2769839375,0.6185133255949922
0.048,1.7424,1.0,2406.761676287041,0.4181173309946912,1.3452869637560243,0.9753982586119305,0.2769338,0.6198243388397512
0.0485,1.74119375,1.0,2406.344247506363,0.4213812355122631,1.3446861668440435,0.975730200966034,0.2768831375,0.6211461938340568
0.049,1.739975,1.0,2405.900955679893,0.4246268299586488,1.3440793761376064,0.9760525950452285,0.27683195,0.6224788996070012
0.0495,1.73874375,1.0,2405.435091616129,0.4278542171526465,1.3434665563098418,0.9763657926562916,0.2767802375,0.6238224639561807
0.05,1.7375,1.0,2404.949945203591,0.43106349991305426,1.3428476720338787,0.9766701291606578,0.276728,0.6251768934341517
0.0505,1.73624375,1.0,2404.448805268237,0.4342547810586703,1.3422226879828456,0.9769659243884194,0.2766752375,0.6265421933348083
0.051000000000000004,1.734975,1.0,2403.9342840520103,0.4374281575605693,1.3415915760983663,0.9772534833231314,0.27662195,0.627918351845134
0.051500000000000004,1.73369375,1.0,2403.407846683554,0.4405837162247506,1.340954320657755,0.9775330967963871,0.2765681375,0.6293053291607423
0.052000000000000005,1.7324,1.0,2402.8753720328364,0.44372158980366894,1.3403108584223435,0.9778050443653851,0.2765138,0.6307031876270652
0.0525,1.73109375,1.0,2402.3380096850033,0.44684187324118135,1.3396611770382625,0.97806959225074,0.2764589375,0.6321118775924175
0.053,1.729775,1.0,2401.7969087296447,0.4499446614811451,1.3390052641516428,0.9783269949118611,0.27640355,0.6335313484613359
0.0535,1.72844375,1.0,2401.253217750715,0.45303004946741715,1.3383431074086145,0.9785774956651738,0.2763476375,0.6349615486896771
0.054,1.7271,1.0,2400.7080848183414,0.45609813214385464,1.3376746944553084,0.9788213272647214,0.2762912,0.6364024257797006
0.0545,1.7257437500000001,1.0,2400.1626574843517,0.4591490044543147,1.3370000129378548,0.9790587124477337,0.2762342375,0.6378539262751459
0.055,1.724375,1.0,2399.618082779652,0.46218276134265446,1.3363190505023845,0.9792898644475587,0.27617674999999997,0.6393159957562964
0.0555,1.72299375,1.0,2399.075507214933,0.465199497752731,1.335631794795028,0.9795149874761627,0.2761187375,0.6407885788350389
0.056,1.7216,1.0,2398.536076783895,0.46819930862840137,1.3349382334619155,0.979734277178245,0.2760602,0.6422716191499087
0.0565,1.72019375,1.0,2398.0009369692843,0.47118228891352276,1.334238354149178,0.9799479210588578,0.2760011375,0.6437650593611246
0.057,1.718775,1.0,2397.4712327515376,0.47414853355195224,1.3335321445029458,0.9801560988862804,0.27594155,0.6452688411456189
0.0575,1.71734375,1.0,2396.9481086204223,0.47709813748754687,1.3328195921693493,0.9803589830717705,0.2758814375,0.6467829051920535
0.058,1.7159,1.0,2396.432708588981,0.48003119566416386,1.3321006847945194,0.9805567390276956,0.2758208,0.6483071911958269
0.0585,1.71444375,1.0,2395.926176210927,0.4829478030256602,1.3313754100245863,0.9807495255054363,0.2757596375,0.6498416378540732
0.059000000000000004,1.7129750000000001,1.0,2395.429143164996,0.48584804995906494,1.3306437610193864,0.9809374948359583,0.27569794999999997,0.6513861712339123
0.059500000000000004,1.71149375,1.0,2394.9376992750163,0.4887319875308435,1.3299057799065734,0.9811207927374294,0.2756357375,0.6529406134701388
0.06,1.71,1.0,2394.4596043752103,0.49159977132780674,1.3291613829931193,0.9812995609756713,0.275573,0.6545050508483963
0.0605,1.7084937500000001,1.0,2393.994841231083,0.4944514869650858,1.3284105704219307,0.9814739345614575,0.2755097375,0.656079391693693
0.061,1.7069750000000001,1.0,2393.5433927240783,0.4972872200578116,1.3276533423359138,0.981644043294382,0.27544595,0.6576635435462515
0.0615,1.7054437500000001,1.0,2393.105241851215,0.5001070562211152,1.326889698877975,0.9818100120019435,0.2753816375,0.6592574131615652
0.062,1.7039,1.0,2392.680371724255,0.5029110810701275,1.3261196401910211,0.981971960765892,0.2753168,0.6608609065104558
0.0625,1.70234375,1.0,2392.2687655699533,0.5056993802199795,1.325343166417958,0.9821300051366054,0.27525143750000003,0.6624739287791355
0.063,1.7007750000000001,1.0,2391.8704067290146,0.5084720392858024,1.3245602777016925,0.9822842563362176,0.27518555,0.6640963843692611
0.0635,1.69919375,1.0,2391.4852786564957,0.511229143882727,1.3237709741851307,0.9824348214511658,0.2751191375,0.6657281768979957
0.064,1.6976,1.0,2391.1133649207336,0.5139707796258844,1.3229752560111792,0.9825818036147788,0.27505219999999997,0.6673692091980654
0.0645,1.69599375,1.0,2390.754649203502,0.5166970321304056,1.3221731233227443,0.9827253021804977,0.27498473749999996,0.6690193833178183
0.065,1.694375,1.0,2390.40911529937,0.5194079870114215,1.3213645762627322,0.9828654128862686,0.27491675,0.6706786005212838
0.0655,1.69274375,1.0,2390.0767471152462,0.5221037298840633,1.3205496149740497,0.9830022280106177,0.2748482375,0.6723467612882288
0.066,1.6911,1.0,2389.7575286703495,0.5247843463634618,1.319728239599603,0.9831358365208908,0.2747792,0.6740237653142183
0.0665,1.6894437500000001,1.0,2389.451444095605,0.5274499220647481,1.3189004502822985,0.9832663242140983,0.2747096375,0.6757095115106737
0.067,1.687775,1.0,2389.158477633398,0.5301005426030532,1.3180662471650424,0.9833937738507899,0.27463955,0.6774038980049304
0.0675,1.68609375,1.0,2388.8786136369363,0.532736293593508,1.3172256303907415,0.9835182652823424,0.2745689375,0.6791068221402956
0.068,1.6844000000000001,1.0,2388.611836570381,0.5353572606512438,1.316378600102302,0.9836398755720392,0.2744978,0.6808181804761089
0.0685,1.68269375,1.0,2388.3581310080513,0.5379635293913912,1.31552515644263,0.9837586791102747,0.2744261375,0.6825378687877993
0.069,1.680975,1.0,2388.1177562912103,0.5405551853077434,1.3146652965890662,0.9838747475921615,0.27435395,0.6842657880182239
0.0695,1.67924375,1.0,2387.8935916157825,0.543132307389275,1.3137989894307576,0.9839881486972228,0.2742812375,0.6860018948731993
0.07,1.6775,1.0,2387.68285179933,0.5456949740843555,1.3129262650183828,0.9840989503096593,0.274208,0.6877460225180001
0.07050000000000001,1.67574375,1.0,2387.4833322011605,0.5482432660809153,1.3120471471401882,0.9842072179026697,0.2741342375,0.689498016459406
0.07100000000000001,1.673975,1.0,2387.292828639112,0.5507772640668844,1.3111616595844202,0.9843130147626349,0.27405995,0.6912577219536652
0.07150000000000001,1.67219375,1.0,2387.116477303893,0.5532970482937416,1.3102697468705493,0.984416398812766,0.2739851375,0.6930251408701698
0.07200000000000001,1.6704,1.0,2386.9520455436495,0.5558026988269488,1.3093714330942416,0.9845174292579245,0.2739098,0.694800116024283
0.0725,1.66859375,1.0,2386.798683697544,0.5582942945109445,1.3084667274188178,0.9846161626941276,0.2738339375,0.6965825193734847
0.073,1.6667750000000001,1.0,2386.6556972444787,0.5607719141715779,1.3075556373340405,0.9847126538012395,0.27375755,0.6983722255869012
0.0735,1.664943784011168,1.0,2386.522718551896,0.5632356362957288,1.306638183867161,0.9848069560066638,0.27368063892846906,0.7001690822533455
0.074,1.6631072061170193,1.0,2386.720083733256,0.5656855391959948,1.3057144718738485,0.9848991243411513,0.2736035026569148,0.7019727732362688
0.0745,1.6612706282228706,1.0,2387.4539117820514,0.5681216999892631,1.304784966463012,0.9849892262897733,0.27352636638536054,0.7037822838588669
0.075,1.659434050328722,1.0,2388.6793637230826,0.5705441956822741,1.3038501543879373,0.9850773282350966,0.2734492301138063,0.7055965678521259
