Time [s],Phi [rad],STIM [ ],Fsee [N],Gamma [ ],Lcerel [ ],q [ ],Lmtc [m],fisomrel [ ]
0.0,1.8,1.0,14.751035757403491,0.0005716439233130195,1.4219086793892821,0.005093841045904566,0.27935299999999996,0.43237584903058657
0.0005,1.79999375,1.0,15.246825248614424,0.006177646761892257,1.4218379929526994,0.015639639077816684,0.2793527375,0.43256603221185697
0.001,1.799975,1.0,18.976171641829524,0.011752204357073746,1.4213521740852566,0.04223071020416124,0.27935195,0.43387227485212887
0.0015,1.79994375,1.0,29.616574741171053,0.017295493092409533,1.420190496622999,0.08184458714082979,0.2793506375,0.4369896254710379
0.002,1.7999,1.0,54.96832504481191,0.022807688359849133,1.418087548035097,0.1306042579825796,0.2793488,0.4426109763329098
0.0025,1.79984375,1.0,100.98342664637927,0.02828896457126062,1.4152786258693846,0.1846550424918443,0.2793464375,0.45007545566337925
0.003,1.7997750000000001,1.0,163.5293686526546,0.03373949515648313,1.4123538694866955,0.24088134699987138,0.27934355,0.457794280355068
0.0035,1.79969375,1.0,235.36657375533585,0.039159452574395986,1.409618079167374,0.29694607441161464,0.2793401375,0.46496501664295575
0.004,1.7996,1.0,312.2217472873903,0.04454900831000629,1.4071141600718309,0.35117336935589477,0.2793362,0.47148616284760103
0.0045000000000000005,1.7994937500000001,1.0,391.9915156101836,0.04990833291929304,1.4048141397240428,0.40247417820875786,0.2793317375,0.47744104680957644
0.005,1.799375,1.0,473.406849225196,0.055237595932164665,1.4026870776091989,0.45023850640174395,0.27932675,0.4829181043576628
0.0055,1.79924375,1.0,555.5476901004796,0.06053696601476687,1.4007088659755451,0.4942100559060315,0.2793212375,0.48798598446617547
0.006,1.7991000000000001,1.0,637.6508479872136,0.06580661079444328,1.3988620500611777,0.5343743796605599,0.2793152,0.4926947226434777
0.006500000000000001,1.79894375,1.0,719.1014851319773,0.07104669707390213,1.397132824062501,0.5708695880217083,0.2793086375,0.4970839287376999
0.007,1.798775,1.0,799.3742995292806,0.07625739050897187,1.3955104300857286,0.6039221615443827,0.27930155,0.5011846291243687
0.0075,1.79859375,1.0,878.075588043786,0.08143885625632906,1.3939851917259634,0.6338017407875758,0.2792939375,0.5050244537648467
0.008,1.7984,1.0,954.8632579387348,0.08659125795167028,1.3925493020454307,0.6607927343576916,0.27928580000000003,0.5086257827284606
0.0085,1.79819375,1.0,1029.486085919737,0.09171475866176877,1.391195550359306,0.6851756076758507,0.2792771375,0.5120090605200243
0.009000000000000001,1.797975,1.0,1101.7700078433002,0.09680952084325874,1.3899172362158991,0.7072164247847685,0.27926795,0.5151930768550852
0.0095,1.79774375,1.0,1171.5668095543517,0.10187570526562069,1.3887087137913816,0.727161692329958,0.2792582375,0.5181936729038576
0.01,1.7975,1.0,1238.7861347955863,0.10691347217528653,1.3875646254222522,0.745235704168468,0.279248,0.521025705106216
0.0105,1.79724375,1.0,1303.391350005559,0.11192298164033374,1.3864798173267108,0.7616402533496973,0.2792372375,0.5237032869869651
0.011,1.796975,1.0,1365.3514310500623,0.11690439168541844,1.3854499097563573,0.7765557789116954,0.27922595,0.5262384153980104
0.0115,1.79669375,1.0,1424.6661450810223,0.1218578596627829,1.3844707819601856,0.7901426152434711,0.2792141375,0.5286422762083018
0.012,1.7964,1.0,1481.3607747954109,0.12678354236023007,1.3835385558704918,0.8025427752452989,0.2792018,0.5309253066351329
0.0125,1.79609375,1.0,1535.491144718729,0.13168159656012404,1.3826494520319272,0.8138817580130224,0.2791889375,0.5330975665167915
0.013000000000000001,1.7957750000000001,1.0,1587.0959890728636,0.13655217650657855,1.381800365119832,0.8242705780522774,0.27917555,0.5351673507473308
0.0135,1.79544375,1.0,1636.2295280887804,0.14139543593914125,1.3809883458806655,0.8338072495484267,0.2791616375,0.5371424754563596
0.014,1.7951000000000001,1.0,1682.9645350940004,0.14621152821919864,1.3802105186785438,0.8425783160542696,0.2791472,0.5390304894330123
0.0145,1.79474375,1.0,1727.3850628306275,0.1510006065375338,1.3794641409216977,0.8506602742084801,0.2791322375,0.5408385387581569
0.015,1.794375,1.0,1769.5643586184988,0.15576282229415112,1.378746846814343,0.8581208891941522,0.27911675,0.5425727870796961
0.0155,1.79399375,1.0,1809.570526993834,0.16049832539689712,1.3780565339410444,0.8650202418759215,0.2791007375,0.5442387026290941
0.016,1.7936,1.0,1847.4854256495394,0.16520726575361822,1.377391099886367,0.8714116096697605,0.2790842,0.5458417019341779
0.0165,1.7931937500000001,1.0,1883.3883808710436,0.16988979213718813,1.376748625445068,0.8773423626676012,0.2790671375,0.5473867130907266
0.017,1.792775,1.0,1917.3810027494928,0.17454605449287278,1.3761270537429704,0.8828546107131146,0.27904955,0.5488789523043134
0.0175,1.7923437500000001,1.0,1949.5336301707416,0.17917619915253397,1.3755248242921476,0.8879860082107751,0.2790314375,0.5503224054220397
0.018000000000000002,1.7919,1.0,1979.9169403594535,0.18378037181415924,1.374940467553219,0.89277019441552,0.2790128,0.5517208092824409
0.0185,1.79144375,1.0,2008.6087009624714,0.18835871817573602,1.3743725139868046,0.8972372564217123,0.2789936375,0.5530778723571422
0.019,1.790975,1.0,2035.6877990373425,0.19291138316814951,1.373819556657362,0.9014141670728153,0.27897395,0.5543971271061647
0.0195,1.79049375,1.0,2061.2358324573734,0.19743851202394208,1.3732802240616169,0.9053251469730879,0.27895373749999997,0.5556819972082561
0.02,1.79,1.0,2085.3246130896737,0.20194024825605647,1.3727533174941495,0.9089920123505606,0.278933,0.5569354728861791
0.0205,1.78949375,1.0,2108.0147101965563,0.20641673304950298,1.3722378176803045,0.9124344510060989,0.2789117375,0.5581600991345803
0.021,1.788975,1.0,2129.3703580351016,0.21086810758929203,1.3717327053454256,0.915670228811964,0.27888995,0.55935840489978
0.021500000000000002,1.78844375,1.0,2149.459141567604,0.21529451306043396,1.371236961214857,0.9187154051714923,0.2788676375,0.5605329037881339
0.022,1.7879,1.0,2168.3421190027166,0.21969608873727534,1.370749674588692,0.921584540497536,0.2788448,0.5616858379859024
0.0225,1.78734375,1.0,2186.091810534127,0.22407297679451368,1.3702698349999638,0.9242908245505087,0.2788214375,0.5628196724779961
0.023,1.786775,1.0,2202.762438611911,0.2284253152414957,1.3697966660536847,0.9268462780854935,0.27879755,0.5639363066823331
0.0235,1.78619375,1.0,2218.4018998993165,0.23275324030677352,1.3693294844809392,0.9292618528579902,0.2787731375,0.5650374103732262
0.024,1.7856,1.0,2233.0597932460664,0.23705688821889934,1.3688676070128123,0.9315475285243814,0.2787482,0.566124644440821
0.0245,1.78499375,1.0,2246.78727344303,0.24133639520642536,1.3684103503803893,0.9337124127872023,0.2787227375,0.5671996611371136
0.025,1.784375,1.0,2259.6369133623366,0.24559189749790375,1.3679570313147547,0.9357648299449859,0.27869675,0.5682641042921961
0.025500000000000002,1.78374375,1.0,2271.6548263545483,0.24982352788544812,1.3675070523238237,0.9377124105574464,0.2786702375,0.5693194084574436
0.026000000000000002,1.7831000000000001,1.0,2282.8935394129057,0.25403142514584615,1.367059757134389,0.9395621427555122,0.2786432,0.5703671386876383
0.0265,1.78244375,1.0,2293.389940099203,0.2582157208513118,1.3666146732470028,0.9413204634954017,0.2786156375,0.5714084227040606
0.027,1.781775,1.0,2303.1801703469328,0.262376545795357,1.3661713451070303,0.9429932904663328,0.27858755,0.5724443431840183
0.0275,1.7810937500000001,1.0,2312.3010854686495,0.2665140307714938,1.3657293171598364,0.9445860692121012,0.2785589375,0.5734759775822699
0.028,1.7804,1.0,2320.7901903387847,0.27062830657323417,1.365288133850786,0.9461038171919287,0.2785298,0.5745043981754152
0.0285,1.77969375,1.0,2328.685579303894,0.27471950399408995,1.3648473396252443,0.9475511631781577,0.2785001375,0.5755306720930538
0.029,1.778975,1.0,2336.0186327718484,0.27878775037841647,1.3644065580451523,0.9489323911903527,0.27846994999999997,0.5765556774671079
0.029500000000000002,1.7782437500000001,1.0,2342.8217830679278,0.2828331757325878,1.363965405982505,0.9502514627889801,0.2784392375,0.5775803037244589
0.03,1.7775,1.0,2349.138482036551,0.28685591546567335,1.3635233847025696,0.9515120334607194,0.278408,0.5786057039999604
0.0305,1.77674375,1.0,2354.9907201619226,0.29085609380419486,1.363080233320827,0.9527175153498217,0.2783762375,0.5796324750372891
0.031,1.775975,1.0,2360.40075466128,0.2948338349746739,1.362635690952759,0.9538710741379463,0.27834395,0.5806612106097419
0.0315,1.7751937500000001,1.0,2365.391086003746,0.2987892632036321,1.3621894967138473,0.9549756499706595,0.2783111375,0.5816925014992667
0.032,1.7744,1.0,2369.984435650766,0.302722502717591,1.361741389719573,0.9560339763576369,0.2782778,0.5827269354711482
0.0325,1.77359375,1.0,2374.2037250192257,0.3066336777430724,1.3612911090854176,0.9570485972652508,0.2782439375,0.5837650972443523
0.033,1.772775,1.0,2378.072055666942,0.3105229125065977,1.360838393926863,0.9580218825944006,0.27820955,0.5848075684575322
0.0335,1.7719437500000002,1.0,2381.6126906996965,0.3143903312346887,1.3603829833593903,0.9589560422138558,0.2781746375,0.5858549276306932
0.034,1.7711000000000001,1.0,2384.8486417558706,0.31823605748610073,1.359924620773336,0.9598531389630688,0.27813920000000003,0.5869077403098543
0.0345,1.7702437500000001,1.0,2387.7986558075645,0.322060208546043,1.35946309698106,0.9607151031023478,0.2781032375,0.5879664601683199
0.035,1.7693750000000001,1.0,2390.4851636398384,0.325862914853111,1.3589981641448436,0.9615437388079419,0.27806675000000003,0.5890316267239538
0.035500000000000004,1.76849375,1.0,2392.92163933503,0.3296442938738076,1.3585296721004452,0.9623407407014785,0.2780297375,0.5901035530087605
0.036000000000000004,1.7676,1.0,2395.121626497774,0.33340446307463606,1.358057470683622,0.963107695991132,0.2779922,0.5911825500243854
0.0365,1.76669375,1.0,2397.0987311394942,0.3371435399220993,1.357581409730132,0.9638460925144935,0.2779541375,0.592268926707307
0.037,1.765775,1.0,2398.866614970145,0.34086164188270046,1.3571013390757327,0.964557326090836,0.27791555,0.5933629898925976
0.0375,1.76484375,1.0,2400.4389890925913,0.34455888642294263,1.3566171085561822,0.9652427072492497,0.2778764375,0.5944650442762377
0.038,1.7639,1.0,2401.829608103781,0.3482353910093288,1.3561285680072381,0.9659034673920781,0.2778368,0.5955753923760012
0.0385,1.76294375,1.0,2403.0522645999445,0.3518912731083621,1.3556355672646583,0.9665407644468323,0.2777966375,0.5966943344908952
0.039,1.761975,1.0,2404.1140958241685,0.35552664136619394,1.355138028138982,0.9671556923943225,0.27775595,0.5978220056427157
0.0395,1.7609937500000001,1.0,2405.024586384596,0.35914161078976004,1.3546358474333944,0.967749280545164,0.2777147375,0.5989585960306065
0.04,1.76,1.0,2405.808047962046,0.3627363156275892,1.3541287626864729,0.9683224894785302,0.277673,0.6001046538206244
0.0405,1.7589937500000001,1.0,2406.471050250077,0.36631086538508845,1.3536167025655517,0.9688762358397812,0.2776307375,0.6012602923044202
0.041,1.757975,1.0,2407.0201760020295,0.3698653695676651,1.3530995957379646,0.9694113846361555,0.27758795,0.6024256233727232
0.0415,1.75694375,1.0,2407.4620194147165,0.37339993768072627,1.3525773708710453,0.9699287526845145,0.2775446375,0.6036007574925426
0.042,1.7559,1.0,2407.8031846042395,0.3769146792296792,1.3520499566321278,0.9704291117941551,0.2775008,0.6047858036840463
0.0425,1.75484375,1.0,2408.0502841727175,0.38040970371993105,1.351517281688546,0.9709131917075969,0.2774564375,0.6059808694971157
0.043000000000000003,1.753775,1.0,2408.209937866587,0.38388512065688896,1.3509792747076335,0.9713816828200558,0.27741155,0.6071860609875752
0.043500000000000004,1.75269375,1.0,2408.2887713261257,0.38734103954596016,1.3504358643567247,0.9718352386963635,0.2773661375,0.6084014826930971
0.044,1.7516,1.0,2408.293414926824,0.3907775698925518,1.349886979303153,0.9722744784023212,0.2773202,0.6096272376087852
0.0445,1.75049375,1.0,2408.230502711391,0.3941948212020711,1.3493325482142524,0.9726999886659035,0.2772737375,0.6108634271624267
0.045,1.7493750000000001,1.0,2408.1066714138,0.3975929029799253,1.348772499757357,0.9731123258823063,0.27722674999999997,0.6121101511894276
0.0455,1.74824375,1.0,2407.9285595745787,0.40097192473152143,1.3482067625998004,0.9735120179755605,0.2771792375,0.6133675079074179
0.046,1.7471,1.0,2407.702806746813,0.40433199596226677,1.3476352654089168,0.9738995661282768,0.2771312,0.6146355938905358
0.0465,1.7459437500000001,1.0,2407.4270280552487,0.4076732083594991,1.3470580339036105,0.9742754505301231,0.2770826375,0.6159142892313788
0.047,1.744775,1.0,2407.116212629394,0.4109956893052116,1.34647490697323,0.9746401198541678,0.27703354999999996,0.6172038866004197
0.0475,1.74359375,1.0,2406.772903498621,0.4142995404569666,1.3458858573394423,0.9749940061283504,0.2769839375,0.6185043803971906
0.048,1.7424,1.0,2406.399561955229,0.4175848633059872,1.3452908586027834,0.9753375204063632,0.2769338,0.6198157620068643
0.0485,1.74119375,1.0,2405.998649125057,0.42085175934349645,1.3446898843637898,0.9756710539450754,0.2768831375,0.6211380217387668
0.049,1.739975,1.0,2405.5726258205896,0.4241003300607173,1.3440829082229977,0.9759949793380577,0.27683195,0.6224711488163398
0.0495,1.73874375,1.0,2405.1239524062653,0.42733067694887267,1.343469903780943,0.9763096515741111,0.2767802375,0.6238151313670592
0.05,1.7375,1.0,2404.655088676277,0.43054290149918567,1.3428508446381622,0.9766154090264026,0.276728,0.6251699564123048
0.0505,1.73624375,1.0,2404.168493745745,0.4337371052028793,1.3422257043951915,0.9769125743773502,0.2766752375,0.6265356098571907
0.051000000000000004,1.734975,1.0,2403.6666259529925,0.43691338955117653,1.3415944566525673,0.9772014554839714,0.27662195,0.6279120764803487
0.051500000000000004,1.73369375,1.0,2403.151942775693,0.44007185603530036,1.3409570750108255,0.9774823461880257,0.2765681375,0.6292993399236682
0.052000000000000005,1.7324,1.0,2402.626900758668,0.4432126061464738,1.3403135330705027,0.977755527074937,0.2765138,0.6306973826819893
0.0525,1.73109375,1.0,2402.0939102191455,0.44633574042698354,1.339663804919135,0.9780212661214629,0.2764589375,0.6321061850378056
0.053,1.729775,1.0,2401.5558373537046,0.4494413393653517,1.339007859724791,0.9782798172703667,0.27640355,0.6335257367500524
0.0535,1.72844375,1.0,2401.0169165703905,0.45252953102019,1.3383456519086687,0.9785314269549625,0.2763476375,0.6349560581457206
0.054,1.7271,1.0,2400.478045407606,0.45560040918496336,1.33767717180801,0.9787763296466694,0.2762912,0.6363970906879581
0.0545,1.7257437500000001,1.0,2399.940121001087,0.45865406765313665,1.337002409760057,0.9790147497155867,0.2762342375,0.6378487749231971
0.055,1.724375,1.0,2399.4040400848426,0.4616906002181747,1.3363213561020513,0.9792469019483255,0.27617674999999997,0.6393110504772871
0.0555,1.72299375,1.0,2398.8706989934685,0.4647101006735425,1.335634001171235,0.9794729920350953,0.2761187375,0.6407838560516179
0.056,1.7216,1.0,2398.3409936664393,0.4677126628127048,1.3349403353048501,0.9796932170281025,0.2760602,0.6422671294192429
0.0565,1.72019375,1.0,2397.815819653925,0.47069838042912654,1.3342403488401384,0.979907765773181,0.2760011375,0.6437608074209904
0.057,1.718775,1.0,2397.2960721242903,0.4736673473162726,1.3335340321143418,0.9801168193164209,0.27594155,0.6452648259615726
0.0575,1.71734375,1.0,2396.782645873384,0.4766196572676078,1.3328213754647023,0.9803205512874364,0.2758814375,0.6467791200056878
0.058,1.7159,1.0,2396.2764353352977,0.4795554040765971,1.3321023692284617,0.9805191282607926,0.2758208,0.6483036235741151
0.0585,1.71444375,1.0,2395.7783345950447,0.48247468153670525,1.331377003742862,0.9807127100970018,0.2757596375,0.6498382697398062
0.059000000000000004,1.7129750000000001,1.0,2395.289237402606,0.48537758344139725,1.3306452693451454,0.9809014502643956,0.27569794999999997,0.6513829906239677
0.059500000000000004,1.71149375,1.0,2394.810037189211,0.4882642035841379,1.3299071563725533,0.9810854961430929,0.2756357375,0.6529377173921418
0.06,1.71,1.0,2394.3399156083383,0.49113461018550736,1.3291626736176965,0.9812649882979367,0.275573,0.654502341507812
0.0605,1.7084937500000001,1.0,2393.878309432561,0.49398887634014604,1.3284118271259318,0.9814400620731253,0.2755097375,0.6560767595784667
0.061,1.7069750000000001,1.0,2393.430224992584,0.49682716118763853,1.3276545628757537,0.981610850972142,0.27544595,0.6576609930698303
0.0615,1.7054437500000001,1.0,2392.9956130079377,0.4996495487659534,1.3268908813578968,0.9817774804717039,0.2753816375,0.6592549479753107
0.062,1.7039,1.0,2392.5744243278796,0.5024561231130592,1.3261207830630963,0.9819400712753658,0.2753168,0.6608585295099263
0.0625,1.70234375,1.0,2392.1666099304543,0.5052469682669244,1.325344268482087,0.982098739529225,0.27525143750000003,0.662471642110509
0.063,1.7007750000000001,1.0,2391.772120920703,0.5080221682655175,1.324561338105604,0.982253597026298,0.27518555,0.6640941894359049
0.0635,1.69919375,1.0,2391.3909085300406,0.5107818071468072,1.3237719924243818,0.9824047514002477,0.2751191375,0.6657260743671749
0.064,1.6976,1.0,2391.0229241143516,0.5135259689487618,1.3229762319291556,0.9825523063090918,0.27505219999999997,0.6673671990077943
0.0645,1.69599375,1.0,2390.6681191533153,0.51625473770935,1.3221740571106604,0.9826963616094756,0.27498473749999996,0.669017464683855
0.065,1.694375,1.0,2390.3264452487224,0.5189681974665403,1.3213654684596308,0.9828370135220644,0.27491675,0.6706767719442668
0.0655,1.69274375,1.0,2389.997854123319,0.5216664322583012,1.320550466466802,0.9829743547885619,0.2748482375,0.6723450205609556
0.066,1.6911,1.0,2389.682297619808,0.5243495261226013,1.3197290516229085,0.9831084748208447,0.2747792,0.6740221095290673
0.0665,1.6894437500000001,1.0,2389.3797276992414,0.5270175630974091,1.3189012244186857,0.9832394598426544,0.2747096375,0.6757079370671653
0.067,1.687775,1.0,2389.09009644012,0.529670627220693,1.3180669853448683,0.983367393024271,0.27463955,0.6774024006174341
0.0675,1.68609375,1.0,2388.8133560368888,0.5323088025304217,1.3172263348921913,0.9834923546105645,0.2745689375,0.6791053968458778
0.068,1.6844000000000001,1.0,2388.5494587989538,0.5349321730645636,1.3163792735513893,0.9836144220427917,0.2744978,0.680816821642523
0.0685,1.68269375,1.0,2388.298357149153,0.5375408228610874,1.3155258018131977,0.9837336700744853,0.2744261375,0.6825365701216158
0.069,1.680975,1.0,2388.060003622936,0.5401348359579615,1.3146659201683508,0.9838501708817622,0.27435395,0.6842645366218274
0.0695,1.67924375,1.0,2387.834350866816,0.5427142963931545,1.3137996291075842,0.9839639941683538,0.2742812375,0.6860006147064497
0.07,1.6775,1.0,2387.621351637276,0.5452792882046349,1.3129269291216323,0.9840752072656463,0.274208,0.6877446971635999
0.07050000000000001,1.67574375,1.0,2387.4209587995706,0.5478298954303712,1.3120478207012303,0.984183875228002,0.2741342375,0.6894966760064185
0.07100000000000001,1.673975,1.0,2387.2331253266448,0.550366202108332,1.3111623043371128,0.9842900609236087,0.27405995,0.6912564424732717
0.07150000000000001,1.67219375,1.0,2387.054653074967,0.5528882589965354,1.3102704145524195,0.9843938246717266,0.2739851375,0.6930238196858091
0.07200000000000001,1.6704,1.0,2386.88575712443,0.5553961573942179,1.30937214901293,0.9844952255425212,0.2739098,0.6947987034920965
0.0725,1.66859375,1.0,2386.729455081771,0.5578900104081385,1.3084674751160468,0.9845943206085248,0.2738339375,0.6965810484551374
0.073,1.6667750000000001,1.0,2386.585317033916,0.5603698922183525,1.3075563974918232,0.9846911644532956,0.27375755,0.6983707345722311
0.0735,1.66494375,1.0,2386.452913214925,0.5628358770049152,1.3066389207703122,0.9847858098879675,0.2736806375,0.7001676411633234
0.074,1.6631,1.0,2386.3318139949893,0.565288038947882,1.3057150495815668,0.9848783080187087,0.2736032,0.7019716468728959
0.0745,1.6612437500000001,1.0,2386.22158987009,0.5677264522273081,1.3047847885556405,0.9849687083111782,0.2735252375,0.7037826296718543
0.075,1.659375,1.0,2386.1218114521002,0.5701511910232488,1.3038481423225858,0.9850570586521304,0.27344675,0.7056004668594185
0.0755,1.65749375,1.0,2386.0320494592756,0.5725623295157595,1.3029051155124562,0.9851434054083121,0.2733677375,0.7074250350650049
