Time [s],Phi [rad],STIM [ ],Fsee [N],Gamma [ ],Lcerel [ ],q [ ],Lmtc [m],fisomrel [ ]
0.0,1.8,1.0,14.707634607275175,0.0005266553397741547,1.4219146463702461,0.005079705470135178,0.27935299999999996,0.4323597932980554
0.0005,1.79999375,1.0,15.190825174155115,0.006132910528734867,1.4218455672629846,0.015488507946439484,0.2793527375,0.43254565491253416
0.001,1.799975,1.0,18.88630008697552,0.011707719058827995,1.4213630728667772,0.04196185958354815,0.27935195,0.43384298732228
0.0015,1.79994375,1.0,29.4448885779855,0.01725125732148202,1.420207166926969,0.08148651900221168,0.2793506375,0.4369449517321763
0.002,1.7999,1.0,54.64349151904945,0.022763700716633566,1.418110700247687,0.13018906914985137,0.2793488,0.44254924215047486
0.0025,1.79984375,1.0,100.49916994678152,0.028245223663937922,1.4153040834453448,0.18421095182767655,0.2793464375,0.4500080302092542
0.003,1.7997750000000001,1.0,162.94735589977827,0.03369599960106913,1.4123779057209276,0.24042992869075505,0.27934355,0.45773106783552864
0.0035,1.79969375,1.0,234.73448108825016,0.03911620099470334,1.4096398334669,0.296503307726228,0.2793401375,0.4649081850676353
0.004,1.7996,1.0,311.56263562843634,0.04450599933827196,1.407133852608924,0.35075022452254956,0.2793362,0.47143503207849136
0.0045000000000000005,1.7994937500000001,1.0,391.31696583650734,0.04986556519210317,1.4048321246019186,0.4020773218539632,0.2793317375,0.4773946138083438
0.005,1.799375,1.0,472.7257176588151,0.05519506810123073,1.4027036015985526,0.4498712529441423,0.27932675,0.4828756672817419
0.0055,1.79924375,1.0,554.8645142187831,0.060494676727877006,1.4007241645265853,0.49387339966440075,0.2793212375,0.4879468876418055
0.006,1.7991000000000001,1.0,636.9720235142873,0.06576455872151134,1.398876238235618,0.5340677235592574,0.2793152,0.49265863064732973
0.006500000000000001,1.79894375,1.0,718.430588898882,0.07100488087503043,1.3971460280912125,0.5705914242833807,0.2793086375,0.4970504858781055
0.007,1.798775,1.0,798.7155185465759,0.07621580886831067,1.395522727118691,0.6036704592887051,0.27930155,0.5011536107544436
0.0075,1.79859375,1.0,877.4314228761168,0.08139750785877689,1.3939966641668045,0.6335742644033584,0.2792939375,0.504995626994357
0.008,1.7984,1.0,954.2344375580856,0.08655014147959703,1.3925600412571595,0.6605872266668938,0.27928580000000003,0.508598896709749
0.0085,1.79819375,1.0,1028.8752907666003,0.09167387281846107,1.3912055963932513,0.684989865447319,0.2792771375,0.511983996653701
0.009000000000000001,1.797975,1.0,1101.1788200446786,0.09676886434718206,1.389926635247895,0.7070483930285844,0.27926795,0.5151697038400992
0.0095,1.79774375,1.0,1170.9953697305255,0.10183527681917237,1.3887175239719438,0.7270094950784536,0.2792582375,0.5181718321336776
0.01,1.7975,1.0,1238.2350853750881,0.10687327048470378,1.3875728874291953,0.7450976378147534,0.279248,0.5210052835771568
0.0105,1.79724375,1.0,1302.8612985578998,0.11188300544513657,1.3864875649703527,0.7615147894557317,0.2792372375,0.5236841904441562
0.011,1.796975,1.0,1364.8427836767976,0.11686463975228803,1.3854571738243966,0.7764415561403811,0.27922595,0.5262205585054494
0.0115,1.79669375,1.0,1424.1779904767527,0.1218183307107512,1.3844776066499405,0.7900384325585043,0.2792141375,0.5286255420431558
0.012,1.7964,1.0,1480.8936696269493,0.12674423510489188,1.383544960047995,0.80244756057312,0.2792018,0.5309096416510903
0.0125,1.79609375,1.0,1535.0454153585251,0.13164250974874786,1.3826554544186558,0.8137945648726852,0.2791889375,0.5330829183789926
0.013000000000000001,1.7957750000000001,1.0,1586.6728481666837,0.1365133089964565,1.3818059698825798,0.8241905662003667,0.27917555,0.5351537033227762
0.0135,1.79544375,1.0,1635.8268787668824,0.14135678648549777,1.3809935985062942,0.8337336918812677,0.2791616375,0.5371297126824768
0.014,1.7951000000000001,1.0,1682.5799890586288,0.1461730956188703,1.3802154649794753,0.8425105706676618,0.2791472,0.539018495505234
0.0145,1.79474375,1.0,1727.0155330258976,0.15096238932425837,1.3794688325434334,0.8505977751218308,0.2791322375,0.5408271847197821
0.015,1.794375,1.0,1769.2104271126107,0.15572481947912375,1.37875128650416,0.8580631211264559,0.27911675,0.5425620630466954
0.0155,1.79399375,1.0,1809.2321711670204,0.1604605358434832,1.378060731058027,0.8649667499490067,0.2791007375,0.5442285830097899
0.016,1.7936,1.0,1847.162000729921,0.16516968817735328,1.3773950704014064,0.8713619918517567,0.2790842,0.5458321455252472
0.0165,1.7931937500000001,1.0,1883.0823640718822,0.16985242517469046,1.376752346257999,0.8772962507629988,0.2790671375,0.5473777729244034
0.017,1.792775,1.0,1917.089536353983,0.17450889685293872,1.376130566075729,0.8828116939327459,0.27904955,0.5488705269883662
0.0175,1.7923437500000001,1.0,1949.2585180101516,0.17913925015899518,1.3755281120862566,0.8879459954627535,0.2790314375,0.5503145313550126
0.018000000000000002,1.7919,1.0,1979.6573725300132,0.18374363044140893,1.3749435456798555,0.8927328327482846,0.2790128,0.551713448829777
0.0185,1.79144375,1.0,2008.3611767339726,0.18832218304872894,1.3743754282467997,0.8972023263047465,0.2789936375,0.5530709143017389
0.019,1.790975,1.0,2035.4514151629623,0.19287505332950436,1.3738223211773632,0.901381464798799,0.27897395,0.5543905363187764
0.0195,1.79049375,1.0,2061.0012504699234,0.197402384858492,1.3732829504520252,0.9052945093819135,0.27895373749999997,0.555675506702267
0.02,1.79,1.0,2085.0963133197083,0.2019043233521735,1.372755955497817,0.908963260187456,0.278933,0.5569292016610634
0.0205,1.78949375,1.0,2107.798048466368,0.2063810101156233,1.37224030769217,0.9124074207940213,0.2789117375,0.5581541879121128
0.021,1.788975,1.0,2129.1665376792953,0.21083258569931002,1.3717350359962606,0.9156447819319689,0.27888995,0.5593528795052898
0.021500000000000002,1.78844375,1.0,2149.2651245787783,0.2152591906537023,1.3712391693712647,0.9186914249789386,0.2788676375,0.5605276757797624
0.022,1.7879,1.0,2168.1601327729422,0.21966096552926873,1.3707517367783582,0.9215619109797137,0.2788448,0.5616809619765021
0.0225,1.78734375,1.0,2185.9102091794093,0.22403804881389694,1.3702718844567883,0.9242694661298333,0.2788214375,0.5628148328469988
0.023,1.786775,1.0,2202.5845835583987,0.2283905820000034,1.3697986656209284,0.9268260909809122,0.27879755,0.5639315908959845
0.0235,1.78619375,1.0,2218.2343424663304,0.23271870211197418,1.369331361620893,0.9292427406730254,0.2787731375,0.5650329889134474
0.024,1.7856,1.0,2232.9054938172103,0.23702254464702527,1.3688693299383705,0.9315294095672204,0.2787482,0.5661205912972499
0.0245,1.78499375,1.0,2246.6455483632276,0.24130224510237258,1.3684119280550493,0.9336952185191448,0.2787227375,0.5671959542945191
0.025,1.784375,1.0,2259.503390188175,0.2455579389752321,1.3679585134526178,0.9357485036037937,0.27869675,0.5682606262045271
0.025500000000000002,1.78374375,1.0,2271.5291546144285,0.24978976176281978,1.3675084436127642,0.9376968946954469,0.2786702375,0.5693161475552414
0.026000000000000002,1.7831000000000001,1.0,2282.7667969510194,0.2539978453430964,1.3670611568190585,0.939547395329856,0.2786432,0.5703638621003015
0.0265,1.78244375,1.0,2293.2674677381297,0.2581823280329838,1.3666160226752773,0.9413064265116549,0.2786156375,0.5714052675948998
0.027,1.781775,1.0,2303.0660089325756,0.26234334050667074,1.3661726002859438,0.9429799125091057,0.27858755,0.5724414119892554
0.0275,1.7810937500000001,1.0,2312.196782177754,0.2664810128165649,1.3657304616856332,0.9445733063111138,0.2785589375,0.5734733080204516
0.028,1.7804,1.0,2320.694777007751,0.2705954750150738,1.3652891789089214,0.9460916321224783,0.2785298,0.5745019635588202
0.0285,1.77969375,1.0,2328.5955544166177,0.2746868571546051,1.3648483239903841,0.947539524833429,0.2785001375,0.5755283816371419
0.029,1.778975,1.0,2335.9351937168094,0.2787552892875665,1.3644074689645966,0.9489212653648558,0.27846994999999997,0.576553560468165
0.029500000000000002,1.7782437500000001,1.0,2342.7445542587357,0.2828008984190786,1.3639662478779493,0.9502408188854066,0.2784392375,0.5775783495078035
0.03,1.7775,1.0,2349.052951151072,0.2868238125039281,1.3635243158479227,0.9515018590038665,0.278408,0.578603545240114
0.0305,1.77674375,1.0,2354.9033628257257,0.2908241676069554,1.3630811831678777,0.9527077760746899,0.2783762375,0.5796302756039988
0.031,1.775975,1.0,2360.3165691761014,0.2948020871676939,1.3626366052619545,0.9538617397721671,0.27834395,0.5806590960589457
0.0315,1.7751937500000001,1.0,2365.3135833369715,0.298757694625677,1.3621903375542943,0.9549666939067796,0.2783111375,0.5816905592548035
0.032,1.7744,1.0,2369.9156310188005,0.3026911134204381,1.361742135469037,0.9560253753554586,0.2782778,0.5827252150073368
0.0325,1.77359375,1.0,2374.1441309167294,0.3066024669915107,1.361291754430324,0.9570403311812911,0.2782439375,0.5837636102699568
0.033,1.772775,1.0,2378.0206761939917,0.31049187877842827,1.3608389498622955,0.9580139341358206,0.27820955,0.5848062891016448
0.0335,1.7719437500000002,1.0,2381.567017038672,0.3143594722207242,1.3603834771890921,0.9589483967145116,0.2781746375,0.5858537926310559
0.034,1.7711000000000001,1.0,2384.805044296185,0.31820537075793187,1.3599250918348544,0.9598457839162018,0.27813920000000003,0.5869066590168099
0.0345,1.7702437500000001,1.0,2387.7567741743896,0.32202969782958485,1.3594635492237233,0.9607080248401147,0.2781032375,0.5879654234039665
0.035,1.7693750000000001,1.0,2390.436557175638,0.32583256887754347,1.3589986887083578,0.9615369294328873,0.27806675000000003,0.5890304257196416
0.035500000000000004,1.76849375,1.0,2392.8705593081763,0.32961411408840185,1.3585302230781997,0.9623341829057004,0.2780297375,0.5901022931744144
0.036000000000000004,1.7676,1.0,2395.0723634611268,0.33337445152953593,1.3580580018181005,0.9631013736086018,0.2779922,0.5911813371620827
0.0365,1.76669375,1.0,2397.0541899785712,0.33711369777360456,1.3575818897569019,0.9638399915043933,0.2779541375,0.592267832008555
0.037,1.765775,1.0,2398.8283116967077,0.34083196939326693,1.357101751723446,0.964551434390162,0.27791555,0.5933620501149435
0.0375,1.76484375,1.0,2400.4070483258997,0.3445293829611819,1.356617452546575,0.9652370146373113,0.2778764375,0.5944642619234417
0.038,1.7639,1.0,2401.802761161899,0.34820605505000857,1.3561288570551309,0.9658979653658734,0.2778368,0.595574735882035
0.0385,1.76294375,1.0,2403.0278481246237,0.3518621022324058,1.3556358300779554,0.9665354461063826,0.2777966375,0.5966937384080473
0.039,1.761975,1.0,2404.0947391250584,0.3554976410810327,1.355138236443891,0.9671505479970522,0.27775595,0.5978215338505195
0.0395,1.7609937500000001,1.0,2405.0158917608505,0.3591127881685482,1.3546359409817796,0.9677442985590872,0.2777147375,0.5989583844514277
0.04,1.76,1.0,2405.7928543812004,0.36270764543400935,1.3541289261328162,0.9683176729562559,0.277673,0.6001042846811812
0.0405,1.7589937500000001,1.0,2406.4502523098895,0.36628234617432204,1.3536169262706137,0.9688715765969843,0.2776307375,0.6012597878026893
0.041,1.757975,1.0,2406.9969069104245,0.3698370032147882,1.3530998459945314,0.9694068736225778,0.27758795,0.6024250598170862
0.0415,1.75694375,1.0,2407.438885349371,0.37337172570202876,1.3525776196525834,0.9699243816927203,0.2775446375,0.6036001980871117
0.042,1.7559,1.0,2407.782264143244,0.3768866227826649,1.3520501815927841,0.970424873408127,0.2775008,0.6047852985984941
0.0425,1.75484375,1.0,2408.033127869371,0.3803818036033175,1.3515174661631484,0.9709090792550825,0.2774564375,0.6059804559382648
0.043000000000000003,1.753775,1.0,2408.197567953919,0.3838573773106077,1.3509794077116901,0.9713776903283752,0.27741155,0.6071857632728036
0.043500000000000004,1.75269375,1.0,2408.28168153732,0.38731345305115644,1.350435940586424,0.9718313608514038,0.2773661375,0.6084013123256007
0.044,1.7516,1.0,2408.2915704173543,0.39075013997158475,1.3498869991353641,0.9722707105104766,0.2773202,0.6096271933547504
0.0445,1.75049375,1.0,2408.2333400694283,0.39416754721851366,1.3493325177065252,0.9726963266187342,0.2772737375,0.6108634951301668
0.045,1.7493750000000001,1.0,2408.1130987442775,0.3975657839385641,1.3487724306479212,0.9731087661237109,0.27722674999999997,0.6121103049105262
0.0455,1.74824375,1.0,2407.936956643241,0.40094495927835727,1.348206672307567,0.9735085574712715,0.2771792375,0.613367708419932
0.046,1.7471,1.0,2407.711189660325,0.40430518229065937,1.3476351752646654,0.973896202208929,0.2771312,0.6146357937458719
0.0465,1.7459437500000001,1.0,2407.4764360429417,0.4076465447087059,1.347057502574953,0.974272150537189,0.2770826375,0.6159154652628716
0.047,1.7447773732692324,1.0,2407.287061522185,0.4109691751353994,1.3464742604733277,0.9746369019462389,0.27703364967730776,0.6172053151449638
0.0475,1.7436100759785487,1.0,2407.54375920222,0.4142731750398698,1.3458857593748383,0.9749909091690225,0.27698462319109907,0.6185045964977406
0.048,1.742442778687865,1.0,2408.2606920478565,0.41755864589124725,1.3452923096945333,0.9753346028562958,0.2769355967048903,0.6198125665363984
0.0485,1.741275481397181,1.0,2409.4091884342647,0.42082568915866175,1.3446942218474611,0.9756683928681128,0.27688657021868157,0.621128486686777
0.049,1.7401081841064971,1.0,2410.960670450749,0.4240744063112434,1.3440918062486704,0.9759926694784431,0.2768375437324729,0.6224516226802534
0.0495,1.7389408868158134,1.0,2412.8866289095395,0.4273048988181221,1.3434853733132097,0.9763078044994962,0.2767885172462642,0.6237812446424904
0.05,1.7377735895251296,1.0,2415.158600084903,0.4305172681484281,1.3428752334561278,0.9766141523317717,0.27673949076005544,0.6251166271760391
0.0505,1.7366062922344458,1.0,2417.7481441832892,0.43371161577129136,1.3422616970924732,0.9769120509453676,0.2766904642738467,0.6264570494367988
0.051000000000000004,1.7354389949437619,1.0,2420.6268255431805,0.43688804315584195,1.341645074637294,0.9772018227976048,0.276641437787638,0.6278017952043295
0.051500000000000004,1.734271697653078,1.0,2423.7661945656646,0.4400466517712099,1.3410256765056396,0.9774837756916263,0.2765924113014293,0.6291501529460166
0.052000000000000005,1.7331044003623943,1.0,2427.1377713757947,0.44318754308652525,1.340403813112558,0.977758203580241,0.27654338481522056,0.6305014158750979
0.0525,1.7319371030717106,1.0,2430.7130312141785,0.44631081857091803,1.339779794873098,0.9780253873189488,0.2764943583290118,0.6318548820025365
0.053,1.7307698057810268,1.0,2434.4803977309493,0.4494165735127304,1.3391537503373414,0.9782855846950257,0.2764453318428031,0.6332102475513912
0.0535,1.729602508490343,1.0,2438.4183667229177,0.4525049112808973,1.3385259139873291,0.9785390488149337,0.27639630535659443,0.6345669820122559
0.054,1.7284352111996593,1.0,2442.5148893574365,0.45557592781020817,1.3378964188001652,0.9787860156393401,0.2763472788703857,0.6359247773023705
0.0545,1.7272679139089753,1.0,2446.75851747493,0.4586297186930433,1.337265391066557,0.9790267106374663,0.27629825238417693,0.6372833418007728
0.055,1.7261006166182915,1.0,2451.1377752083467,0.4616663795217833,1.3366329570772117,0.9792613497151136,0.27624922589796824,0.6386423858719774
0.0555,1.7249333193276077,1.0,2455.6411556503353,0.4646860058888085,1.3359992431228362,0.9794901397035531,0.27620019941175955,0.64000162187781
0.056,1.723766022036924,1.0,2460.2571178071375,0.4676886933864993,1.3353643754941378,0.9797132788195347,0.2761511729255508,0.6413607641882237
0.0565,1.7225987247462402,1.0,2464.9740838390017,0.4706745376072362,1.3347284804818238,0.9799309570983467,0.27610214643934206,0.6427195291911012
0.057,1.7214314274555562,1.0,2469.7804368708753,0.4736436341430693,1.3340916843735835,0.9801433568015314,0.27605311995313336,0.6440776353074678
0.0575,1.7202641301648725,1.0,2474.673362017216,0.4765960695873737,1.333454019655505,0.98035064733745,0.27600409346692467,0.6454350024731701
0.058,1.7190968328741887,1.0,2479.6342993035782,0.4795319505904276,1.332815685567639,0.9805530012506771,0.2759550669807159,0.6467911971943319
0.0585,1.717929535583505,1.0,2484.6584686624765,0.48245136737422123,1.3321767347171387,0.9807505756494727,0.2759060404945072,0.6481460998490423
0.059000000000000004,1.7167622382928212,1.0,2489.741072088912,0.4853544101607451,1.3315372197111568,0.9809435214428157,0.2758570140082985,0.6494995916651664
0.059500000000000004,1.7155949410021372,1.0,2494.8772930822065,0.4882411691719897,1.3308971931568456,0.9811319836353061,0.27580798752208974,0.6508515547223253
0.06,1.7144276437114534,1.0,2500.06229613836,0.49111173462994534,1.3302567076613585,0.9813161016058152,0.27575896103588105,0.652201871953699
0.0605,1.7132603464207696,1.0,2505.2912262911727,0.4939661967566026,1.329615815831848,0.9814960093709051,0.2757099345496723,0.653550427147657
0.061,1.7120930491300859,1.0,2510.5592087038726,0.4968046457739518,1.3289745702754672,0.9816718358339603,0.2756609080634636,0.6548971049492083
0.0615,1.710925751839402,1.0,2515.861348309704,0.4996271719039833,1.3283330235993682,0.9818437050209095,0.2756118815772549,0.6562417908612779
0.062,1.7097584545487183,1.0,2521.1927295028368,0.5024338653686877,1.3276912284107045,0.9820117363033545,0.27556285509104617,0.6575843712458019
0.0625,1.7085911572580343,1.0,2526.5484158786962,0.5052248163900553,1.3270492373166285,0.9821760446098753,0.2755138286048374,0.6589247333246544
0.063,1.7074238599673506,1.0,2531.928807263978,0.5080001000620905,1.3264070467470472,0.9823367370281643,0.2754648021186287,0.660262882123313
0.0635,1.7062565626766668,1.0,2537.3253385646444,0.5107598234725832,1.3257647470573066,0.9824939231415358,0.27541577563242003,0.6615986274703094
0.064,1.705089265385983,1.0,2542.7351254093473,0.5135040747003011,1.325122368777161,0.9826477045879487,0.2753667491462113,0.6629319047217084
0.0645,1.7039219680952993,1.0,2548.1565976858938,0.5162329376280045,1.3244799285693194,0.9827981784499074,0.27531772266000254,0.6642626784300044
0.065,1.7027546708046155,1.0,2553.5881785200795,0.518946496138454,1.3238374430964912,0.9829454383411942,0.27526869617379385,0.665590913420685
0.0655,1.7015873735139315,1.0,2559.0282842595534,0.5216448341144101,1.3231949290213858,0.98308957455655,0.2752196696875851,0.6669165747922876
0.066,1.7004200762232478,1.0,2564.4753244631756,0.524328035438633,1.3225524030067124,0.9832306742138575,0.2751706432013764,0.6682396279164394
0.0665,1.699252778932564,1.0,2569.9277018944495,0.5269961839938836,1.3219098817151806,0.983368821389254,0.27512161671516766,0.6695600384378776
0.067,1.6980854816418802,1.0,2575.3838125209436,0.5296493636629221,1.3212673818094998,0.9835040972455731,0.27507259022895897,0.6708777722744551
0.0675,1.6969181843511962,1.0,2580.8420455176297,0.5322876583285091,1.3206249199523792,0.9836365801544913,0.2750235637427502,0.6721927956171252
0.068,1.6957508870605125,1.0,2586.3007832765074,0.5349111518734051,1.319982512806528,0.9837663458127262,0.27497453725654153,0.6735050749299114
0.0685,1.6945835897698287,1.0,2591.7584014196536,0.5375199281803704,1.3193401770346558,0.983893467352621,0.2749255107703328,0.6748145769498556
0.069,1.693416292479145,1.0,2597.213268818821,0.5401140711321656,1.3186979292994718,0.9840180154474193,0.2748764842841241,0.6761212686869542
0.0695,1.6922489951884612,1.0,2602.6637476187475,0.5426936646115512,1.3180557862636857,0.9841400584115227,0.2748274577979154,0.6774251174240711
0.07,1.6910816978977774,1.0,2608.1103798267372,0.545258770829744,1.3174137419985896,0.984259660141548,0.27477843131170665,0.6787261364491479
0.07050000000000001,1.6899144006070934,1.0,2613.550824854198,0.5478094920751941,1.3167718203525782,0.9843768859018266,0.2747294048254979,0.6800242787962816
0.07100000000000001,1.6887471033164096,1.0,2618.9835668777787,0.5503459182067391,1.3161300365718274,0.984491797776357,0.2746803783392892,0.6813195152330839
0.07150000000000001,1.6875798060257259,1.0,2624.408249608835,0.5528681258887217,1.3154883938972872,0.9846044546280155,0.27463135185308046,0.6826118409314736
0.07200000000000001,1.6864125087350421,1.0,2629.8245155629784,0.5553761917854848,1.3148468955699084,0.9847149134281429,0.27458232536687177,0.6839012511160434
0.0725,1.6852452114443583,1.0,2635.2320060680318,0.5578701925613712,1.3142055448306418,0.9848232293301379,0.274533298880663,0.6851877410640292
