Time [s],Phi [rad],STIM [ ],Fsee [N],Gamma [ ],Lcerel [ ],q [ ],Lmtc [m],fisomrel [ ]
0.0,1.8,1.0,14.469432718983386,1.0013755652615697e-05,1.4219475533380272,0.005000029735784159,0.27935299999999996,0.4322712443624128
0.0005,1.79999375,1.0,14.795690444564535,0.005619166895389825,1.4218994130208336,0.013827021257555801,0.2793527375,0.4324007821832784
0.001,1.799975,1.0,18.104849841532317,0.011196857121125253,1.4214589547407142,0.03893344007483085,0.27935195,0.4335852980512267
0.0015,1.79994375,1.0,27.763490846554046,0.016743260915148866,1.4203730673180968,0.07741442479260698,0.2793506375,0.43650026872951186
0.002,1.7999,1.0,51.23701462802788,0.022258553768609326,1.418357766554205,0.12544268444456327,0.2793488,0.4418902396804122
0.0025,1.79984375,1.0,95.22465387770089,0.027742910190924088,1.4155854419687197,0.17911873615176258,0.2793464375,0.44926256512647933
0.003,1.7997750000000001,1.0,156.49248670906735,0.03319650370955093,1.4126474157556876,0.23524335615375835,0.27934355,0.4570220353002318
0.0035,1.79969375,1.0,227.66435545101461,0.03861950687978501,1.409885186439531,0.29140880527209184,0.2793401375,0.4642670087290528
0.004,1.7996,1.0,304.1496110005662,0.04401209128290541,1.407356785569264,0.34587647955899503,0.2793362,0.4708560243962907
0.0045000000000000005,1.7994937500000001,1.0,383.70251016683,0.04937442757660042,1.405036226790319,0.39750298541080104,0.2793317375,0.4768675222814457
0.005,1.799375,1.0,464.9971814561218,0.054706685358850746,1.40289193334726,0.4456362199375398,0.27932675,0.4823918687618207
0.0055,1.79924375,1.0,547.1047705301328,0.060009033454256,1.4008985961368197,0.4899897167957076,0.2793212375,0.48750100642706373
0.006,1.7991000000000001,1.0,629.234832469957,0.06528163949444137,1.3990384912909393,0.5305294932408058,0.2793152,0.4922457986870249
0.006500000000000001,1.79894375,1.0,710.7732459000357,0.07052467046501307,1.3972971726229633,0.5673815042913921,0.2793086375,0.49666759128124793
0.007,1.798775,1.0,791.1820475723677,0.07573829209818464,1.3956637117043682,0.6007657653776682,0.27930155,0.5007979184959267
0.0075,1.79859375,1.0,870.0514667547036,0.08092266949669186,1.3941284012818107,0.6309491658430318,0.2792939375,0.5046645513489925
0.008,1.7984,1.0,947.0396153226784,0.0860779666391709,1.392683169689855,0.65821555152746,0.27928580000000003,0.5082905875074253
0.0085,1.79819375,1.0,1021.8792464113235,0.09120434639045691,1.3913208769889496,0.6828464210318242,0.2792771375,0.5116963368386461
0.009000000000000001,1.797975,1.0,1094.3956427826663,0.0963019716009474,1.3900346590516524,0.705109520448067,0.27926795,0.5149010355180527
0.0095,1.79774375,1.0,1164.4387826806617,0.10137100317858591,1.3888187644792,0.7252534500118426,0.2792582375,0.5179208175665446
0.01,1.7975,1.0,1231.9093995018065,0.10641160119179194,1.387667861852578,0.7435047820693421,0.279248,0.5207705002763091
0.0105,1.79724375,1.0,1296.759017183466,0.11142392524343281,1.3865768744241738,0.7600675688966686,0.2792372375,0.5234640311238412
0.011,1.796975,1.0,1358.9778653293138,0.11640813470704141,1.3855410295718409,0.775124176550907,0.27922595,0.5260143957802453
0.0115,1.79669375,1.0,1418.554037966617,0.12136438663282834,1.3845563173476982,0.7888369342364107,0.2792141375,0.5284325216453329
0.012,1.7964,1.0,1475.5046245768726,0.12629283754815906,1.383618918938838,0.8013496341730153,0.2792018,0.5307287150261393
0.0125,1.79609375,1.0,1529.8721860272394,0.13119364350198393,1.3827251832442664,0.8127893893226358,0.2791889375,0.5329127363222025
0.013000000000000001,1.7957750000000001,1.0,1581.7207340090893,0.13606696044759414,1.381871619331405,0.8232684586391916,0.27917555,0.5349938340217175
0.0135,1.79544375,1.0,1631.1004183769471,0.14091294202641239,1.3810553043461729,0.8328861022319911,0.2791616375,0.5369797673139209
0.014,1.7951000000000001,1.0,1678.0688385953972,0.1457317410662915,1.380273532824673,0.84173000591525,0.2791472,0.5388776793145486
0.0145,1.79474375,1.0,1722.7027141549638,0.15052351016513826,1.379523626083184,0.8498776310185431,0.2791322375,0.5406945702955087
0.015,1.794375,1.0,1765.0881557934035,0.15528840143314954,1.378803028704688,0.8573975103498176,0.27911675,0.5424370709316179
0.0155,1.79399375,1.0,1805.30477377161,0.1600265661140684,1.378109476997428,0.8643504081365262,0.2791007375,0.5441110440201896
0.016,1.7936,1.0,1843.4219482448846,0.16473815313490323,1.377441010304496,0.870790284884022,0.2790842,0.545721568049494
0.0165,1.7931937500000001,1.0,1879.5212169353658,0.16942331142266226,1.3767956679689848,0.8767650590646444,0.2790671375,0.5472736753820362
0.017,1.792775,1.0,1913.6856851655314,0.1740821889224607,1.3761716041657297,0.8823173855380131,0.27904955,0.5487720797811912
0.0175,1.7923437500000001,1.0,1946.0086492351973,0.17871493466484975,1.3755669679980211,0.8874852737401405,0.2790314375,0.5502214685866498
0.018000000000000002,1.7919,1.0,1976.5697610272393,0.1833216955145207,1.374980176103471,0.8923027181132795,0.2790128,0.5516258530912306
0.0185,1.79144375,1.0,2005.4339132394853,0.18790261584799853,1.3744099064093935,0.896800178077916,0.2789936375,0.5529885905054502
0.019,1.790975,1.0,2032.6721510064551,0.19245784004180827,1.3738548368431023,0.9010049404304937,0.27897395,0.5543130132940606
0.0195,1.79049375,1.0,2058.361146381598,0.19698751247247492,1.3733136453319108,0.9049414944647598,0.27895373749999997,0.555602430513394
0.02,1.79,1.0,2082.5759874485243,0.20149177648621877,1.372785087464327,0.9086318742880329,0.278933,0.5568599444011928
0.0205,1.78949375,1.0,2105.3947435874693,0.2059707759883888,1.3722679365598165,0.9120959300705583,0.2789117375,0.5580885950557923
0.021,1.788975,1.0,2126.8862092415393,0.2104246531487321,1.3717611187706311,0.9153516013093987,0.27888995,0.5592910413597216
0.021500000000000002,1.78844375,1.0,2147.105873121534,0.21485354744276755,1.371263751088203,0.9184151365324955,0.2788676375,0.5604694742599388
0.022,1.7879,1.0,2166.112070962878,0.219257598346014,1.370774950503965,0.9213012453705199,0.2788448,0.5616260716797905
0.0225,1.78734375,1.0,2183.965743201119,0.22363694533399042,1.370293834009349,0.9240232665913058,0.2788214375,0.562762999026329
0.023,1.786775,1.0,2200.7269362935776,0.22799172721453997,1.3698195553796007,0.9265933216852709,0.27879755,0.5638823228916916
0.0235,1.78619375,1.0,2216.4519351597,0.2323220818884652,1.369351334256476,0.9290224485933685,0.2787731375,0.5649859435043396
0.024,1.7856,1.0,2231.2070288397204,0.23662814904008192,1.3688882991334985,0.9313206903915975,0.2787482,0.566075965441309
0.0245,1.78499375,1.0,2245.034536952611,0.24091006302671342,1.368429865231552,0.9334972548472262,0.2787227375,0.5671538086908814
0.025,1.784375,1.0,2257.978087443759,0.24516795820568307,1.3679754477715205,0.935560556126511,0.27869675,0.5682208859609343
0.025500000000000002,1.78374375,1.0,2270.0825054606817,0.24940196893431418,1.367524461974288,0.9375182943711557,0.2786702375,0.5692786028396372
0.026000000000000002,1.7831000000000001,1.0,2281.393708370509,0.2536122295699301,1.3670763230607381,0.9393775262811359,0.2786432,0.5703283579343388
0.0265,1.78244375,1.0,2291.954396969484,0.257798873371035,1.366630492651811,0.9411447339422551,0.2786156375,0.5713714344958241
0.027,1.781775,1.0,2301.805616863695,0.26196203327768824,1.366186460079724,0.9428258775863384,0.27858755,0.5724090448159462
0.0275,1.7810937500000001,1.0,2310.9974254783983,0.26610184386407054,1.3657436241487366,0.9444264297591033,0.2785589375,0.5734426064877158
0.028,1.7804,1.0,2319.5603162820266,0.27021843409332463,1.3653016062554104,0.9459514595999553,0.2785298,0.5744730116939321
0.0285,1.77969375,1.0,2327.5253188852303,0.27431193292859335,1.3648600277963077,0.9474056428061661,0.2785001375,0.5755011483306047
0.029,1.778975,1.0,2334.923952117785,0.2783824693330193,1.3644185101679902,0.9487932974041309,0.27846994999999997,0.5765279000221379
0.029500000000000002,1.7782437500000001,1.0,2341.7881796803476,0.28243017226974537,1.3639766747670203,0.9501184158260279,0.2784392375,0.5775541461273683
0.03,1.7775,1.0,2348.150368369518,0.2864551707019142,1.3635341429899597,0.9513846937153838,0.278408,0.5785807617364654
0.0305,1.77674375,1.0,2354.039402127021,0.2904575907316524,1.363090578067609,0.952595559802635,0.2783762375,0.5796085207861273
0.031,1.775975,1.0,2359.4866411460166,0.2944375626575066,1.3626456196937102,0.9537541935296714,0.27834395,0.5806382478219545
0.0315,1.7751937500000001,1.0,2364.5158458849405,0.2983952116779306,1.3621989931529372,0.9548635556168412,0.2783111375,0.581670565558031
0.032,1.7744,1.0,2369.149044442631,0.3023306614153916,1.3617504449665088,0.9559264002949331,0.2782778,0.5827060445361381
0.0325,1.77359375,1.0,2373.408462478943,0.30624403549235685,1.3612997216556428,0.9569452905570436,0.2782439375,0.5837452523327648
0.033,1.772775,1.0,2377.3165039860705,0.31013545753129357,1.3608465697415575,0.9579226137945459,0.27820955,0.5847887535259927
0.0335,1.7719437500000002,1.0,2380.8957332135033,0.3140050511546689,1.3603907357454708,0.9588605959721405,0.2781746375,0.5858371096582853
0.034,1.7711000000000001,1.0,2384.1656406378065,0.3178529367389207,1.359932000953615,0.9597613171679363,0.27813920000000003,0.5868907993926238
0.0345,1.7702437500000001,1.0,2387.1430093665035,0.32167923300680207,1.3594701771813011,0.9606267230020106,0.2781032375,0.5879502286901912
0.035,1.7693750000000001,1.0,2389.8588854786403,0.32548407526673123,1.3590049233800292,0.9614586216702103,0.27806675000000003,0.5890161511125618
0.035500000000000004,1.76849375,1.0,2392.3259219685697,0.3292675803668519,1.3585360982070054,0.9622587198318644,0.2780297375,0.5900888593191856
0.036000000000000004,1.7676,1.0,2394.5568395734567,0.33302986515530764,1.3580635603194366,0.9630286158327351,0.2779922,0.5911686440413557
0.0365,1.76669375,1.0,2396.564420095924,0.33677104648024203,1.3575871683745298,0.9637698078251299,0.2779541375,0.5922557940493804
0.037,1.765775,1.0,2398.361500086848,0.34049124118979884,1.3571067810294914,0.964483701190012,0.27791555,0.5933505961184785
0.0375,1.76484375,1.0,2399.960964885314,0.34419056613212157,1.3566222569415283,0.9651716153283716,0.2778764375,0.5944533349934011
0.038,1.7639,1.0,2401.375743018608,0.347869138155354,1.356133454767847,0.9658347898819699,0.2778368,0.5955642933517791
0.0385,1.76294375,1.0,2402.618800960405,0.3515270741076396,1.3556402331656545,0.9664743904372557,0.2777966375,0.5966837517661955
0.039,1.761975,1.0,2403.7031382478904,0.35516449083712215,1.3551424507921572,0.9670915137606492,0.27775595,0.5978119886649879
0.0395,1.7609937500000001,1.0,2404.6417829575325,0.3587815051919452,1.354639966304562,0.9676871926084405,0.2777147375,0.5989492802917701
0.04,1.76,1.0,2405.445765251915,0.36237823324872415,1.3541326601166235,0.9682624017491782,0.277673,0.6000958515265435
0.0405,1.7589937500000001,1.0,2406.121012072022,0.36595478734600495,1.3536204677456654,0.9688180640280193,0.2776307375,0.6012518009927834
0.041,1.757975,1.0,2406.678178333459,0.3695112798111152,1.3531032740077193,0.9693550463160917,0.27758795,0.6024173401946094
0.0415,1.75694375,1.0,2407.127800687949,0.373047822921352,1.3525809651435488,0.9698741672444939,0.2775446375,0.6035926754414658
0.042,1.7559,1.0,2407.4593702509005,0.37656452775610266,1.3520536538401269,0.9703762169723398,0.2775008,0.604777502607832
0.0425,1.75484375,1.0,2407.7173499532737,0.3800615076463236,1.3515208617092624,0.9708618994355263,0.2774564375,0.6059728436963572
0.043000000000000003,1.75377500011614,1.0,2407.9083272208086,0.383538873449077,1.3509825178481498,0.9713319098240998,0.2774115500048779,0.6071788015464707
0.043500000000000004,1.7527000540002726,1.0,2408.2943814740374,0.38699673392974066,1.3504389673338921,0.9717869354673762,0.27736640226801146,0.6083945477485819
0.044,1.7516251078844052,1.0,2409.1326787865987,0.39043519785369246,1.3498905552435914,0.9722276271855405,0.277321254531145,0.6096192581356229
0.0445,1.7505501617685377,1.0,2410.3913469821578,0.39385437398631035,1.3493376266543504,0.9726546016028842,0.2772761067942786,0.6108521128938319
0.045,1.7494752156526703,1.0,2412.0385960607655,0.3972543710929722,1.3487805266432715,0.9730684432926767,0.27723095905741213,0.6120922966659508
0.0455,1.748400269536803,1.0,2414.0463197836257,0.4006352961491552,1.3482195613201933,0.9734697039239979,0.2771858113205457,0.6133390851848602
0.046,1.7473253234209356,1.0,2416.374050907339,0.40399725847367596,1.3476551698805999,0.9738589162157456,0.2771406635836793,0.6145914631865155
0.0465,1.7462503773050682,1.0,2418.99651429477,0.40734036367608434,1.3470876284298794,0.974236574943036,0.27709551584681286,0.6158487824965625
0.047,1.7451754311892007,1.0,2421.8915548971668,0.41066471645846203,1.3465171796301427,0.9746031480064786,0.27705036810994643,0.6171104726440415
0.0475,1.7441004850733333,1.0,2425.037011721175,0.4139704215228907,1.3459440661435003,0.9749590802827031,0.27700522037308,0.6183759665181809
0.048,1.7430255389574658,1.0,2428.4107056877588,0.41725758357145215,1.3453685306320624,0.975304794980691,0.2769600726362136,0.619644700411512
0.0485,1.7419505928415986,1.0,2431.990428548194,0.420526307306228,1.3447908157579396,0.97564069490608,0.2769149248993471,0.6209161140592302
0.049,1.7408756467257311,1.0,2435.7647451259895,0.4237766916662191,1.3442110485867962,0.9759671559445424,0.27686977716248073,0.6221899044348795
0.0495,1.7398007006098637,1.0,2439.7019435836664,0.4270088486247969,1.3436295726501688,0.9762845507273022,0.27682462942561425,0.623465295919204
0.05,1.7387257544939962,1.0,2443.7907251625447,0.4302228782841308,1.3430465126815025,0.9765932201198354,0.27677948168874783,0.6247419966105221
0.0505,1.7376508083781288,1.0,2448.020236317304,0.43341888047313154,1.3424619884011255,0.9768934889088536,0.2767343339518814,0.6260197273608016
0.051000000000000004,1.7365758622622613,1.0,2452.379596902204,0.43659695502070983,1.3418761195293658,0.9771856670148891,0.276689186215015,0.6272982107638482
0.051500000000000004,1.735500916146394,1.0,2456.8578971512634,0.4397572017557764,1.341289025786552,0.977470050308245,0.27664403847814856,0.6285771711660277
0.052000000000000005,1.7344259700305267,1.0,2461.4441949163042,0.4428997205072418,1.3407008268930116,0.9777469213732337,0.27659889074128213,0.6298563346760782
0.0525,1.7333510239146592,1.0,2466.127513161937,0.44602461110401687,1.3401116425690731,0.9780165502244055,0.2765537430044157,0.6311354291740021
0.053,1.7322760777987918,1.0,2470.8968377180413,0.4491319733750123,1.3395215925350643,0.9782791949781741,0.27650859526754923,0.632414184319049
0.0535,1.7312011316829243,1.0,2475.7432722862404,0.45222190467485485,1.3389307736373444,0.9785351009984831,0.2764634475306828,0.6336923809999722
0.054,1.7301261855670569,1.0,2480.6586690075856,0.45529450386862563,1.3383392744510545,0.9787845027327174,0.2764182997938164,0.6349698194002998
0.0545,1.7290512394511894,1.0,2485.633316114621,0.4583498719813934,1.3377471997808295,0.979027625648487,0.27637315205694996,0.6362462660720933
0.055,1.7279762933353222,1.0,2490.66248539256,0.46138810358228055,1.3371546013435605,0.9792646822496237,0.27632800432008353,0.6375216032935741
0.0555,1.7269013472194548,1.0,2495.7414304427466,0.4644092932404094,1.3365615308561378,0.9794958761105155,0.2762828565832171,0.6387957141191741
0.056,1.7258264011035873,1.0,2500.8653862201095,0.4674135355249025,1.3359680400354526,0.979721402326935,0.2762377088463507,0.6400684823811753
0.0565,1.7247514549877199,1.0,2506.0295686187555,0.47040092500488206,1.3353741805983952,0.9799414479405276,0.2761925611094842,0.641339792691183
0.057,1.7236765088718524,1.0,2511.229174105709,0.4733715562494705,1.3347800042618565,0.980156192338689,0.2761474133726178,0.6426095304414265
0.0575,1.722601562755985,1.0,2516.459379402411,0.4763255238277903,1.3341855627427273,0.9803658076314612,0.27610226563575135,0.6438775818058887
0.058,1.7215266166401175,1.0,2521.7153412144676,0.4792629223089637,1.333590907757898,0.980570459006937,0.27605711789888493,0.6451438337412678
0.0585,1.7204516705242503,1.0,2526.996864336422,0.4821838325284371,1.3329960420233669,0.9807703015717755,0.2760119701620185,0.6464082780509315
0.059000000000000004,1.7193767244083829,1.0,2532.295670219159,0.48508836373437697,1.3324010530038584,0.9809654906553225,0.2759668224251521,0.6476707269194074
0.059500000000000004,1.7183017782925154,1.0,2537.6079718479305,0.48797661105286944,1.3318059807531368,0.9811561721053287,0.27592167468828566,0.6489310941851052
0.06,1.717226832176648,1.0,2542.9321556062587,0.4908486627522023,1.331210842416514,0.9813424844872068,0.2758765269514192,0.6501893426841296
0.0605,1.7161518860607805,1.0,2548.266601041188,0.49370460710066333,1.3306156551393025,0.981524561032986,0.2758313792145528,0.6514454355127864
0.061,1.7150769399449133,1.0,2553.609680844529,0.4965445323665403,1.3300204360668137,0.9817025298883911,0.2757862314776863,0.652699336027647
0.0615,1.7140019938290458,1.0,2558.9597608415716,0.499368526818121,1.3294252023443605,0.9818765143466445,0.2757410837408199,0.6539510078455905
0.062,1.7129270477131784,1.0,2564.315199983109,0.5021766787236932,1.3288299711172542,0.9820466330698009,0.2756959360039535,0.6552004148438322
0.0625,1.711852101597311,1.0,2569.674350343914,0.5049690763515446,1.3282347595308077,0.9822130002983707,0.27565078826708705,0.6564475211599261
0.063,1.7107771554814435,1.0,2575.0355571261175,0.5077458079699633,1.3276395847303324,0.9823757260499335,0.27560564053022063,0.6576922911917582
0.0635,1.709702209365576,1.0,2580.397158667768,0.5105069618472367,1.327044463861141,0.9825349163074002,0.2755604927933542,0.6589346895975092
0.064,1.7086272632497086,1.0,2585.7574864569565,0.5132526262516527,1.3264494140685452,0.9826906731975359,0.2755153450564878,0.6601746812956107
0.0645,1.7075523171338411,1.0,2591.1148651509984,0.5159828894514991,1.3258544524978573,0.9828430951603148,0.2754701973196213,0.6614122314646738
0.065,1.706477371017974,1.0,2596.46761260115,0.5186978397150637,1.3252595962943892,0.9829922771096429,0.27542504958275493,0.6626473055434023
0.0655,1.7054024249021065,1.0,2601.816289451306,0.5213975432000857,1.3246648393329339,0.9831383081678399,0.27537990184588845,0.6638799174136487
0.066,1.704327478786239,1.0,2607.1584756819198,0.524082107417584,1.3240702063156806,0.9832812782576109,0.27533475410902203,0.665110017150868
0.0665,1.7032525326703716,1.0,2612.49270282416,0.5267516258804547,1.3234757120212717,0.9834212728426985,0.2752896063721556,0.666337575677077
0.067,1.7021775865545041,1.0,2617.8186251951993,0.5294061793539613,1.3228813595899978,0.9835583731393387,0.2752444586352892,0.6675625881036817
0.0675,1.7011026404386367,1.0,2623.135895979498,0.5320458486033675,1.32228715216215,0.9836926575698113,0.27519931089842276,0.6687850495893215
0.068,1.7000276943227695,1.0,2628.4441672367607,0.5346707143939368,1.3216930928780188,0.9838242018784542,0.27515416316155633,0.6700049553398417
0.0685,1.698952748206902,1.0,2633.74308991011,0.537280857490933,1.321099184877896,0.9839530792420838,0.2751090154246899,0.6712223006082616
0.069,1.6978778020910346,1.0,2639.0323138348485,0.5398763586596197,1.3205054313020714,0.9840793603751212,0.2750638676878234,0.6724370806947486
0.0695,1.6968028559751671,1.0,2644.311487746792,0.5424572986652604,1.3199118352908368,0.9842031136297199,0.275018719950957,0.6736492909465833
0.07,1.6957279098592997,1.0,2649.580259291193,0.5450237582731188,1.3193183999844826,0.9843244050911579,0.2749735722140906,0.6748589267581313
0.07050000000000001,1.6946529637434322,1.0,2654.8382750316227,0.5475758182484586,1.3187251285233001,0.9844432986687559,0.27492842447722415,0.6760659835708094
0.07100000000000001,1.6935780176275648,1.0,2660.085180459181,0.5501135593565432,1.3181320240475802,0.9845598561825547,0.27488327674035773,0.6772704568730543
0.07150000000000001,1.6925030715116975,1.0,2665.3206200019945,0.5526370623626364,1.3175390896976138,0.984674137445981,0.2748381290034913,0.6784723422002895
0.07200000000000001,1.69142812539583,1.0,2670.544237034327,0.5551464080320018,1.3169463286136915,0.9847862003447112,0.2747929812666249,0.6796716351348912
