Time [s],Phi [rad],STIM [ ],Fsee [N],Gamma [ ],Lcerel [ ],q [ ],Lmtc [m],fisomrel [ ]
0.0,1.8,1.0,14.562740473429173,0.0003248436188813795,1.4219346310804954,0.005030442669876065,0.27935299999999996,0.43230601752221376
0.0005,1.79999375,1.0,14.986857721205071,0.0059322308120238415,1.4218732736740785,0.014823214618180546,0.2793527375,0.4324711127535591
0.001,1.799975,1.0,18.530724827078465,0.011508164996705136,1.4214064500831447,0.04076585826243055,0.27935195,0.4337264152688842
0.0015,1.79994375,1.0,28.72935548930261,0.01705282259977433,1.4202771724697525,0.07988698719982024,0.2793506375,0.4367573287654015
0.002,1.7999,1.0,53.246278716911135,0.02256637905684867,1.4182110789076752,0.1283301660440617,0.2793488,0.4422815480831579
0.0025,1.79984375,1.0,98.37976201572276,0.02804900882265354,1.4154162300675934,0.182220033234272,0.2793464375,0.44971095598350863
0.003,1.7997750000000001,1.0,160.3794468010809,0.033500885369893756,1.4124844725597385,0.23840440142655128,0.27934355,0.45745076497804316
0.0035,1.79969375,1.0,231.93440911425012,0.03892218120013111,1.4097365557613901,0.29451536340009443,0.2793401375,0.4646554683443662
0.004,1.7996,1.0,308.63504411694674,0.044313067842509365,1.407221574197287,0.34884953772533006,0.2793362,0.4712072369524344
0.0045000000000000005,1.7994937500000001,1.0,388.3155504895796,0.0496737158870093,1.4049123370549255,0.400294149571076,0.2793317375,0.47718749777014813
0.005,1.799375,1.0,469.68801404044444,0.05500429492338699,1.4027774404659057,0.4482207709411367,0.27932675,0.48268601228231445
0.0055,1.79924375,1.0,551.8163109718806,0.060304973631986517,1.4007925388445135,0.492360172486856,0.2793212375,0.48777213267400876
0.006,1.7991000000000001,1.0,633.9389084678666,0.06557591971640817,1.3989397262144638,0.532689232520662,0.2793152,0.4924971136732419
0.006500000000000001,1.79894375,1.0,715.4307509571645,0.07081729997808148,1.3972051439931636,0.5693409429739643,0.2793086375,0.49690074485130786
0.007,1.798775,1.0,795.7663484819124,0.07602928015909147,1.3955778396142475,0.6025389248211545,0.27930155,0.5010145816521833
0.0075,1.79859375,1.0,874.544425973737,0.0812120254282601,1.3940481327572152,0.6325516520867458,0.2792939375,0.5048662916790565
0.008,1.7984,1.0,951.4176757380561,0.08636569944972353,1.3926081903711676,0.6596633588289197,0.27928580000000003,0.5084783445582814
0.0085,1.79819375,1.0,1026.1384752128115,0.091490465361488,1.3912506467385806,0.6841548715177274,0.2792771375,0.5118715925594466
0.009000000000000001,1.797975,1.0,1098.5277536735305,0.09658648567683922,1.389968814431513,0.7062930497535882,0.27926795,0.5150648079428578
0.0095,1.79774375,1.0,1168.4326032124122,0.10165392114461673,1.3887570619206588,0.7263253537360109,0.2792582375,0.5180738099707176
0.01,1.7975,1.0,1235.762520520988,0.10669293204358743,1.3876099817970902,0.7444770466476677,0.279248,0.5209135905971283
0.0105,1.79724375,1.0,1300.4821148190315,0.11170367855481882,1.3865223603968653,0.7609508716986365,0.2792372375,0.5235984212794509
0.011,1.796975,1.0,1362.5591058430164,0.11668631879037036,1.3854898040572132,0.7759281872061728,0.27922595,0.5261403410967199
0.0115,1.79669375,1.0,1421.9875931834183,0.12164101000152022,1.3845082441067025,0.7895702000900696,0.2792141375,0.5285504152231522
0.012,1.7964,1.0,1478.7948648159356,0.12656790902738735,1.3835737478786818,0.8020196675181896,0.2792018,0.5308392217420327
0.0125,1.79609375,1.0,1533.0355126990642,0.13146717262265728,1.3826825314787672,0.813402773884389,0.2791889375,0.5330168370567678
0.013000000000000001,1.7957750000000001,1.0,1584.7522709555567,0.13633895541314342,1.3818314185137157,0.8238311179207116,0.27917555,0.5350917341702923
0.0135,1.79544375,1.0,1633.992497094408,0.1411834109449338,1.3810175364975887,0.8334032810765286,0.2791616375,0.5370715461776423
0.014,1.7951000000000001,1.0,1680.8270302760309,0.146000692694825,1.3802380199296849,0.8422062821617574,0.2791472,0.538963801658012
0.0145,1.79474375,1.0,1725.3384702599901,0.150790953206399,1.3794901311668717,0.8503170313133751,0.2791322375,0.5407756388614493
0.015,1.794375,1.0,1767.607715972239,0.1555543449982145,1.378771396351254,0.8578036237499107,0.27911675,0.5425134863077846
0.0155,1.79399375,1.0,1807.7013227953266,0.16029101769751933,1.3780797252923385,0.8647264639793172,0.2791007375,0.54418278483058
0.016,1.7936,1.0,1845.6996045131834,0.16500112093156125,1.3774130277996317,0.8711391126461511,0.2790842,0.5457889236196252
0.0165,1.7931937500000001,1.0,1881.6867409485233,0.16968480346521167,1.3767693192676205,0.8770891669497354,0.2790671375,0.5473369899828249
0.017,1.792775,1.0,1915.7543574503215,0.17434221473821673,1.3761466591408635,0.8826189836335548,0.27904955,0.5488319222486193
0.0175,1.7923437500000001,1.0,1947.9894651621541,0.17897350312460283,1.3755432812122934,0.8877663542364621,0.2790314375,0.5502782013275009
0.018000000000000002,1.7919,1.0,1978.4554737322724,0.18357881358990913,1.3749578012202908,0.8925651078784401,0.2790128,0.5516793600256535
0.0185,1.79144375,1.0,2007.2226716909424,0.1881582910996748,1.3743888349032356,0.8970454983118695,0.2789936375,0.5530389040172123
0.019,1.790975,1.0,2034.367642786183,0.192712080619439,1.3738349979995081,0.9012346313533761,0.27897395,0.5543603133632262
0.0195,1.79049375,1.0,2059.9712146716674,0.19724032687791831,1.3732949237097851,0.90515684043993,0.27895373749999997,0.5556470023357962
0.02,1.79,1.0,2084.1070726796556,0.20174317301153635,1.3727673878416708,0.9088340353312998,0.278933,0.5569020234748002
0.0205,1.78949375,1.0,2106.8559055672686,0.20622076343731457,1.372251136875028,0.9122859469587088,0.2789117375,0.5581284792578096
0.021,1.788975,1.0,2128.273767825387,0.2106732382376687,1.3717452459812176,0.9155304419164128,0.27888995,0.5593286737575384
0.021500000000000002,1.78844375,1.0,2148.419892742353,0.21510073749501443,1.3712487903316,0.9185836688845611,0.2788676375,0.5605048969302415
0.022,1.7879,1.0,2167.3564238367085,0.2195034012917675,1.370760845097536,0.921460248702887,0.2788448,0.5616594251994929
0.0225,1.78734375,1.0,2185.1463080306244,0.2238813693711803,1.3702805063734418,0.9241734445960952,0.2788214375,0.5627944725759806
0.023,1.786775,1.0,2201.8440392664825,0.22823477962961175,1.3698069921905676,0.9267353247130614,0.27879755,0.563911953210987
0.0235,1.78619375,1.0,2217.5240403783027,0.23256377319769392,1.3693393198972859,0.9291568365612416,0.2787731375,0.5650142435516912
0.024,1.7856,1.0,2232.229712747885,0.2368684851054691,1.368876876490604,0.9314480136331666,0.2787482,0.5661028379800244
0.0245,1.78499375,1.0,2246.005920837923,0.24114905038297957,1.3684190489675292,0.9336180118820314,0.2787227375,0.5671792230799149
0.025,1.784375,1.0,2258.8988689499606,0.24540560406026762,1.367965224325069,0.9356751989071944,0.27869675,0.5682448778297245
0.025500000000000002,1.78374375,1.0,2270.9559847309383,0.24963828116737558,1.3675147895602306,0.9376272329378698,0.2786702375,0.569301273770725
0.026000000000000002,1.7831000000000001,1.0,2282.22220385099,0.2538472158693978,1.3670671714936238,0.9394811383147799,0.2786432,0.5703497819249701
0.0265,1.78244375,1.0,2292.7399848113496,0.25803254152282645,1.3666218350137431,0.9412433668154296,0.2786156375,0.5713916775865935
0.027,1.781775,1.0,2302.562531548098,0.26219439337536266,1.3661781362770107,0.9429198333057275,0.27858755,0.5724284837777265
0.0275,1.7810937500000001,1.0,2311.721488239662,0.2663329011504533,1.3657356774392486,0.9445160118130269,0.2785589375,0.5734611423726208
0.028,1.7804,1.0,2320.2491016813537,0.2704481945715454,1.3652940606562787,0.9460369456088767,0.2785298,0.5744905907182621
0.0285,1.77969375,1.0,2328.1781690320536,0.2745404033620859,1.3648528880839235,0.9474872868848794,0.2785001375,0.5755177616607781
0.029,1.778975,1.0,2335.541988403711,0.27860965724552167,1.3644117618780043,0.9488713322807281,0.27846994999999997,0.5765435835617625
0.029500000000000002,1.7782437500000001,1.0,2342.374312293863,0.2826560859452998,1.3639702841943435,0.9501930547451973,0.2784392375,0.5775689803044923
0.03,1.7775,1.0,2348.7055853416487,0.2866798159372568,1.3635280976743378,0.9514561359136958,0.278408,0.5785947774275418
0.0305,1.77674375,1.0,2354.5707881975554,0.29068097869703974,1.363084799453895,0.9526639840548964,0.2783762375,0.5796219018033317
0.031,1.775975,1.0,2359.9936065780134,0.29465969916288354,1.3626401129973746,0.9538197736251003,0.27834395,0.5806509835626639
0.0315,1.7751937500000001,1.0,2364.997385225378,0.2986161018463859,1.3621937681875451,0.9549264533904274,0.2783111375,0.5816826348409019
0.032,1.7744,1.0,2369.605693592453,0.30255031125914433,1.3617454949071754,0.9559867647652509,0.2782778,0.5827174646503913
0.0325,1.77359375,1.0,2373.8423041150377,0.3064624519127565,1.3612950230390342,0.9570032589728698,0.2782439375,0.5837560788495657
0.033,1.772775,1.0,2377.73117179444,0.31035264831882015,1.3608420824658904,0.9579783125841207,0.27820955,0.5847990801073965
0.0335,1.7719437500000002,1.0,2381.2839982620144,0.31422101672010955,1.3603865373313606,0.9589141531636158,0.2781746375,0.5858467592803311
0.034,1.7711000000000001,1.0,2384.5337186588117,0.3180676898379413,1.3599280235489357,0.959812840944783,0.27813920000000003,0.5868999294137653
0.0345,1.7702437500000001,1.0,2387.503823173806,0.3218927926527989,1.3594662807018665,0.9606763088361008,0.2781032375,0.5879591614743844
0.035,1.7693750000000001,1.0,2390.207966127045,0.3256964430348134,1.35900115574648,0.9615063727309209,0.27806675000000003,0.5890247773363889
0.035500000000000004,1.76849375,1.0,2392.659880571262,0.32947875885411587,1.3585324956391034,0.9623047319104282,0.2780297375,0.5900970968456516
0.036000000000000004,1.7676,1.0,2394.8733705593936,0.3332398579808374,1.3580601473360632,0.9630729778861953,0.2779922,0.591176437785959
0.0365,1.76669375,1.0,2396.862303830316,0.33697985828510896,1.3575839577936868,0.9638126024742213,0.2779541375,0.592263115843759
0.037,1.765775,1.0,2398.640604917731,0.34069887763706175,1.3571037739683007,0.9645250051752994,0.27791555,0.5933574445714184
0.0375,1.76484375,1.0,2400.2222486773358,0.34439703390682674,1.3566194428162321,0.9652114999285226,0.2778764375,0.59445973534898
0.038,1.7639,1.0,2401.6212542364747,0.34807444496453505,1.356130811293808,0.9658733212976491,0.2778368,0.5955702973444329
0.0385,1.76294375,1.0,2402.851679363383,0.3517312286803177,1.3556377263573551,0.9665116301437641,0.2777966375,0.596689437472484
0.039,1.761975,1.0,2403.9263934991154,0.355367500197112,1.3551400481114992,0.9671275194266606,0.27775595,0.5978174305719451
0.0395,1.7609937500000001,1.0,2404.8555984946242,0.35898337226778027,1.3546376656613077,0.9677220203014987,0.2777147375,0.5989544837190641
0.04,1.76,1.0,2405.6525531830084,0.36257896873867906,1.3541304354602473,0.9682961037556932,0.277673,0.6001008758952031
0.0405,1.7589937500000001,1.0,2406.32482404996,0.36615440035690594,1.3536182754120498,0.9688506880115143,0.2776307375,0.6012567451996418
0.041,1.757975,1.0,2406.879991965089,0.36970977786955833,1.3531011034204479,0.9693866395362435,0.27758795,0.6024222281991779
0.0415,1.75694375,1.0,2407.3256502630024,0.3732452120237338,1.3525788373891732,0.9699047764994775,0.2775446375,0.6035974599021015
0.042,1.7559,1.0,2407.6694029453315,0.3767608135665298,1.3520513952219584,0.9704058719645986,0.2775008,0.6047825737317363
0.0425,1.75484375,1.0,2407.9188630043245,0.38025669324504385,1.3515186948225355,0.9708906568374096,0.2774564375,0.6059777014995573
0.043000000000000003,1.753775,1.0,2408.0816508665484,0.38373296180637345,1.3509806540946367,0.9713598225927317,0.27741155,0.607182973377873
0.043500000000000004,1.75269375,1.0,2408.1653929585286,0.3871897299976161,1.350437190941994,0.9718140237977942,0.2773661375,0.6083985178720803
0.044,1.7516,1.0,2408.1777203928423,0.39062710856586924,1.34988822326834,0.9722538804494735,0.2773202,0.6096244617924881
0.0445,1.75049375,1.0,2408.1204853872478,0.3940451961216027,1.349333731151972,0.972679982798185,0.2772737375,0.6108607917074036
0.045,1.7493750000000001,1.0,2407.9983692336104,0.39744410218370474,1.3487736642830925,0.9730928899714629,0.27722674999999997,0.6121075609137266
0.0455,1.74824375,1.0,2407.827066083564,0.4008239576629967,1.348207853954284,0.9734931272732192,0.2771792375,0.6133650843257397
0.046,1.7471,1.0,2407.6097541811037,0.40418486505413104,1.3476362660445809,0.9738811986426119,0.2771312,0.6146333754163948
0.0465,1.7459437500000001,1.0,2407.3496125792426,0.40752692685176,1.347058866433017,0.9742575827607963,0.2770826375,0.6159124465249659
0.047,1.744775,1.0,2407.049820847501,0.41085024555053595,1.3464756209986266,0.9746227345549915,0.27703354999999996,0.6172023088444389
0.0475,1.74359375,1.0,2406.713558799965,0.4141549236451112,1.3458864956204442,0.9749770865991557,0.2769839375,0.618502972408828
0.048,1.7424,1.0,2406.3440062440313,0.4174410636301381,1.3452914561775038,0.9753210504192874,0.2769338,0.6198144460804177
0.0485,1.74119375,1.0,2405.9443427507144,0.42070876800026896,1.34469046854884,0.9756550177106891,0.2768831375,0.6211367375369299
0.049,1.739975,1.0,2405.5177474455822,0.4239581392501561,1.3440834986134864,0.9759793614738904,0.27683195,0.622469853258619
0.0495,1.73874375,1.0,2405.067398820201,0.4271892798744519,1.3434705122504778,0.976294437075374,0.2767802375,0.6238137985152883
0.05,1.7375,1.0,2404.596474565039,0.43040229236780864,1.342851475338848,0.9766005832387271,0.276728,0.6251685773532374
0.0505,1.73624375,1.0,2404.1081514231914,0.4335972792248787,1.3422263537576318,0.9768981229713696,0.2766752375,0.626534192582131
0.051000000000000004,1.734975,1.0,2403.60560506455,0.43677434294031436,1.3415951133858628,0.9771873644315966,0.27662195,0.627910645761797
0.051500000000000004,1.73369375,1.0,2403.0920099813757,0.43993358600876803,1.3409577201025757,0.977468601740276,0.2765681375,0.6292979371889464
0.052000000000000005,1.7324,1.0,2402.5705394048637,0.443075110924892,1.3403141397868048,0.9777421157411975,0.2765138,0.6306960658838237
0.0525,1.73109375,1.0,2402.0417793127235,0.44619900339359675,1.339664366157706,0.9780081746657616,0.2764589375,0.6321049692687625
0.053,1.729775,1.0,2401.507925701806,0.44930537596719405,1.3390083755966466,0.9782670364655369,0.27640355,0.6335246214136574
0.0535,1.72844375,1.0,2400.9715559717934,0.4523943352728535,1.338346140367636,0.9785189469517149,0.2763476375,0.6349550041400637
0.054,1.7271,1.0,2400.433817582306,0.4554659753272729,1.337677648122272,0.9787641409050798,0.2762912,0.6363960649190402
0.0545,1.7257437500000001,1.0,2399.895857481603,0.4585203901471503,1.3370028865121524,0.9790028429873847,0.2762342375,0.6378477502630018
0.055,1.724375,1.0,2399.3588221045998,0.46155767374918366,1.336321843188875,0.9792352682602417,0.27617674999999997,0.6393100057207837
0.0555,1.72299375,1.0,2398.8238573732565,0.4645779201500708,1.3356345058040378,0.9794616226731864,0.2761187375,0.640782775872702
0.056,1.7216,1.0,2398.2921087000736,0.46758122336650976,1.3349408620092387,0.9796821035229933,0.2760602,0.6422660043255999
0.0565,1.72019375,1.0,2397.7647209945726,0.47056767741519845,1.3342408994560757,0.9798968998861524,0.2760011375,0.6437596337078875
0.057,1.718775,1.0,2397.2428386718375,0.4735373763128348,1.3335346057961466,0.9801061930262885,0.27594155,0.64526360566457
0.0575,1.71734375,1.0,2396.727605664442,0.4764904140761168,1.3328219686810492,0.9803101567781654,0.2758814375,0.6467778608522663
0.058,1.7159,1.0,2396.2201654365595,0.47942688472174233,1.3321029757623815,0.980508957909798,0.2758208,0.6483023389342191
0.0585,1.71444375,1.0,2395.721661001367,0.48234688226640937,1.3313776146917413,0.9807027564640864,0.2757596375,0.6498369785752929
0.059000000000000004,1.7129750000000001,1.0,2395.2332349407257,0.4852505007268158,1.3306458731207267,0.9808917060812862,0.27569794999999997,0.6513817174369654
0.059500000000000004,1.71149375,1.0,2394.7560294279047,0.4881378341196596,1.3299077387009355,0.981075954303529,0.2756357375,0.6529364921723064
0.06,1.71,1.0,2394.2888230987437,0.49100897528565784,1.329163224566847,0.9812556440077201,0.275573,0.6545011849258784
0.0605,1.7084937500000001,1.0,2393.833248332935,0.493864012627193,1.3284123130827314,0.9814309106926529,0.2755097375,0.6560757417590879
0.061,1.7069750000000001,1.0,2393.3905992985237,0.49670303558292295,1.327654990254738,0.9816018848583428,0.27544595,0.6576601000037229
0.0615,1.7054437500000001,1.0,2392.9596298233205,0.4995261335974923,1.326891269486051,0.98176869328093,0.2753816375,0.6592541388195088
0.062,1.7039,1.0,2392.539094273758,0.5023333961155456,1.3261211641798551,0.9819314579064472,0.2753168,0.6608577368430357
0.0625,1.70234375,1.0,2392.1298175703887,0.5051249120068146,1.325344665407105,0.9820902949943268,0.27525143750000003,0.6624708185304173
0.063,1.7007750000000001,1.0,2391.7328996712145,0.5079007702121304,1.3245617612690788,0.9822453163044137,0.27518555,0.66409331352651
0.0635,1.69919375,1.0,2391.3488686101286,0.5106610579779888,1.3237724460351652,0.9823966295947739,0.2751191375,0.6657251377181316
0.064,1.6976,1.0,2390.9783546253916,0.5134058624362037,1.3229767128711245,0.9825443385786079,0.27505219999999997,0.6673662083640408
0.0645,1.69599375,1.0,2390.621547066275,0.5161352705657432,1.3221745596997299,0.9826885433626131,0.27498473749999996,0.6690164320225931
0.065,1.694375,1.0,2390.2806757167505,0.5188493690643257,1.3213659624230756,0.9828293394023764,0.27491675,0.6706757595532218
0.0655,1.69274375,1.0,2389.955380139082,0.5215482439396987,1.3205509248947054,0.9829668198848586,0.2748482375,0.6723440833837658
0.066,1.6911,1.0,2389.640347788174,0.5242319800706496,1.3197295044234247,0.9831010769285758,0.2747792,0.6740211862281609
0.0665,1.689444479842168,1.0,2389.3641947767414,0.526900662335966,1.318901758318039,0.9832321993838324,0.27470966815337106,0.675706851217038
0.067,1.6877862513821944,1.0,2389.54563428997,0.5295543742308513,1.3180677138355732,0.9833602715839344,0.27464002255805214,0.6774009228807778
0.0675,1.686128022922221,1.0,2390.250364117935,0.532193201941439,1.317228021493106,0.9834854019097381,0.2745703769627333,0.6791019846287292
0.068,1.6844697944622475,1.0,2391.430864178904,0.5348172291851157,1.3163831965206114,0.9836076892444396,0.2745007313674144,0.6808089061205362
0.0685,1.682811566002274,1.0,2393.0530992741265,0.5374265378504408,1.3155336098270842,0.9837272229887948,0.2744310857720955,0.6825208580021983
0.069,1.6811533375423005,1.0,2395.0831163256507,0.5400212098259747,1.3146796323215195,0.9838440896099773,0.2743614401767766,0.6842370185012541
0.0695,1.6794951090823271,1.0,2397.4870138936963,0.5426013270002771,1.3138216349129124,0.9839583727681129,0.27429179458145775,0.6859565735350344
0.07,1.6778368806223536,1.0,2400.230914163776,0.545166971261908,1.312959988510258,0.9840701534365949,0.27422214898613884,0.6876787168101375
0.07050000000000001,1.67617865216238,1.0,2403.2811928915035,0.5477182244284426,1.3120950612726963,0.9841795098985942,0.27415250339082,0.689402655386454
0.07100000000000001,1.6745204237024067,1.0,2406.6135775714442,0.5502551663100567,1.3112271205129098,0.9842865137124357,0.27408285779550107,0.691127804391718
0.07150000000000001,1.6728621952424332,1.0,2410.1956605438922,0.5527778796992788,1.3103565207966934,0.9843912379198344,0.27401321220018215,0.6928534119865166
0.07200000000000001,1.6712039667824596,1.0,2414.0094588341008,0.5552864431739363,1.3094834611731765,0.984493746753486,0.2739435666048633,0.6945790410085171
0.0725,1.6695457383224863,1.0,2418.036965311079,0.5577809353118559,1.3086081406914891,0.98459410244498,0.27387392100954444,0.6963042586063204
0.073,1.6678875098625128,1.0,2422.260140250065,0.5602614346908651,1.3077307584007614,0.9846923653052486,0.27380427541422553,0.6980286362694268
0.0735,1.6662292814025392,1.0,2426.660903606576,0.5627280198887908,1.3068515133501233,0.9847885938013247,0.2737346298189066,0.6997517498556732
0.074,1.664571052942566,1.0,2431.2211280015695,0.5651807694834603,1.3059706045887043,0.9848828446295974,0.27366498422358776,0.7014731796161441
0.0745,1.6629128244825924,1.0,2435.9313166884745,0.5676197576040762,1.3050881383232977,0.9849751688824451,0.2735953386282689,0.7031926908623225
