Time [s],Phi [rad],STIM [ ],Fsee [N],Gamma [ ],Lcerel [ ],q [ ],Lmtc [m],fisomrel [ ]
0.0,1.8,1.0,18.064831469514935,0.00031714015281749714,1.3793288183748178,0.005026083053327675,0.288653,0.5411659679539684
0.0005,1.79999375,1.0,18.47296440322884,0.005924570556203525,1.3792806497279326,0.013815160359496481,0.2886527375,0.5412824896108333
0.001,1.799975,1.0,22.042554665295274,0.011500547708518197,1.378895189524221,0.03722702139181882,0.28865195,0.5422143984547343
0.0015,1.79994375,1.0,31.989463661684006,0.017045248038630598,1.377968375577734,0.07280537423911723,0.2886506375,0.5444512342574265
0.002,1.7999,1.0,55.48762541907343,0.022558846983542775,1.376245609314248,0.11732013751438092,0.2886488,0.5485945199992035
0.0025,1.79984375,1.0,100.25688525267402,0.02804151899756135,1.3737851591252357,0.1674009844716254,0.28864643749999996,0.5544791288830428
0.003,1.7997750000000001,1.0,164.99989883688838,0.03349343755757967,1.3710639958545061,0.2201929212615518,0.28864354999999997,0.5609423181775737
0.0035,1.79969375,1.0,242.22729328172488,0.03891477516479389,1.3684454308300174,0.273507520015548,0.2886401375,0.5671172337387849
0.004,1.7996,1.0,326.28783508880423,0.04430570335471084,1.3660288760252464,0.32571707674494305,0.2886362,0.5727769831495371
0.0045000000000000005,1.7994937500000001,1.0,414.2512322569932,0.04966639270261633,1.363806186817531,0.37569259674801947,0.2886317375,0.5779498036775755
0.005,1.799375,1.0,504.49131152939634,0.05499701281513569,1.3617507122534762,0.42273359536917304,0.28862675,0.5827054278829804
0.0055,1.79924375,1.0,595.9082813784872,0.06029773236838478,1.3598390599972248,0.46647500394971514,0.2886212375,0.5871041163913064
0.006,1.7991000000000001,1.0,687.6366920836633,0.06556871907594032,1.3580535463119046,0.5067945632775744,0.2886152,0.5911915113949899
0.006500000000000001,1.79894375,1.0,778.9643730415277,0.07081013969454845,1.356380623527185,0.5437340594680681,0.2886086375,0.5950027142040015
0.007,1.798775,1.0,869.3065693449219,0.07602216014616417,1.3548094111056803,0.5774385095779132,0.28860155,0.5985659495881388
0.0075,1.79859375,1.0,958.1724108508495,0.08120494516109629,1.3533310608294027,0.6081122169198971,0.2885939375,0.601904213817503
0.008,1.7984,1.0,1045.1881331674235,0.08635865901849121,1.3519376213927814,0.6359878845264394,0.2885858,0.6050379803839008
0.0085,1.79819375,1.0,1130.0333710368839,0.09148346456304665,1.3506225056699934,0.6613068935601517,0.2885771375,0.607984242722243
0.009000000000000001,1.797975,1.0,1212.4644638585537,0.09657952378368449,1.3493797283492288,0.6843062046669063,0.28856795,0.6107583080950865
0.0095,1.79774375,1.0,1292.3191232952993,0.10164699844391938,1.348203594098758,0.7052107200894775,0.2885582375,0.6133745441859291
0.01,1.7975,1.0,1369.4617095008182,0.10668604861509966,1.347089230629325,0.7242295851019921,0.288548,0.6158452359092579
0.0105,1.79724375,1.0,1443.8039449343141,0.11169683344029228,1.3460321127458579,0.7415542037408803,0.2885372375,0.6181816866984627
0.011,1.796975,1.0,1515.3008852633043,0.11667951143498212,1.345027984399951,0.757357934558052,0.28852595000000003,0.6203944195819743
0.0115,1.79669375,1.0,1583.9561547563346,0.12163424130225221,1.3440726941382488,0.7717966212178066,0.2885141375,0.6224935623356094
0.012,1.7964,1.0,1649.7565200706379,0.12656117898729866,1.343162887150018,0.785009990602631,0.28850180000000003,0.6244873497540305
0.0125,1.79609375,1.0,1712.7185728889726,0.1314604800083005,1.3422953402425333,0.7971226559816843,0.2884889375,0.6263836098477309
0.013000000000000001,1.7957750000000001,1.0,1772.8896356734037,0.1363322995315007,1.3414668988738387,0.808245510604606,0.28847555,0.6281899138185063
0.0135,1.79544375,1.0,1830.335370368147,0.14117679246304693,1.3406745725423694,0.8184771728433662,0.2884616375,0.629913378900108
0.014,1.7951000000000001,1.0,1885.1146107748646,0.14599411207129592,1.3399157650146576,0.8279053976617804,0.2884472,0.6315601807860335
0.0145,1.79474375,1.0,1937.282524294344,0.1507844099474091,1.3391881846515286,0.8366082573154638,0.2884322375,0.6331357633698997
0.015,1.794375,1.0,1986.91522503539,0.15554783768254796,1.3384895398138066,0.8446551494520484,0.28841675,0.634645508407645
0.0155,1.79399375,1.0,2034.0918617169596,0.16028454582694437,1.3378177083517304,0.8521078678093424,0.2884007375,0.636094374757606
0.016,1.7936,1.0,2078.915098225507,0.16499468595131775,1.3371704974135823,0.8590214237764123,0.2883842,0.6374874224294563
0.0165,1.7931937500000001,1.0,2121.4574750837405,0.16967840624832398,1.3365461848047493,0.8654450106901787,0.2883671375,0.6388286527211975
0.017,1.792775,1.0,2161.792121613582,0.17433585405535906,1.3359431687300967,0.8714225850307209,0.28834955,0.6401217709935645
0.0175,1.7923437500000001,1.0,2200.0030719564725,0.178967176709819,1.3353598473944899,0.8769934502159559,0.2883314375,0.6413704488378331
0.018000000000000002,1.7919,1.0,2236.178242338657,0.1835725208552376,1.3347946802043311,0.882192819510858,0.2883128,0.6425781954938765
0.0185,1.79144375,1.0,2270.4090001176846,0.1881520332555423,1.3342461810607242,0.8870522917214638,0.2882936375,0.6437483751477091
0.019,1.790975,1.0,2302.77822035786,0.1927058592896429,1.3337130268445074,0.8916002946959851,0.28827395,0.6448839786807304
0.0195,1.79049375,1.0,2333.3535520596874,0.19723414173931775,1.333194111265384,0.8958624587993848,0.2882537375,0.6459875134504812
0.02,1.79,1.0,2362.2083330802657,0.20173702338634514,1.332688328033058,0.8998618828860471,0.288233,0.6470614680821698
0.0205,1.78949375,1.0,2389.4211159883894,0.20621464701250344,1.3321945708572327,0.9036194184241495,0.2882117375,0.6481083134342442
0.021,1.788975,1.0,2415.064022985952,0.21066715370230552,1.3317118416571923,0.9071539413540448,0.28818995000000003,0.6491302745675823
0.021500000000000002,1.78844375,1.0,2439.222963433844,0.21509468689081057,1.3312390494409125,0.9104825275604083,0.2881676375,0.6501297580531911
0.022,1.7879,1.0,2461.9636151172945,0.21949738636550023,1.3307753346155218,0.9136207112984998,0.2881448,0.6511086671236914
0.0225,1.78734375,1.0,2483.3426813981996,0.2238753899677076,1.3303199532467873,0.9165826258635655,0.28812143749999997,0.6520686495122456
0.023,1.786775,1.0,2503.4195597390094,0.22822883553876555,1.3298721614004758,0.9193811291648346,0.28809755,0.6530113428985282
0.0235,1.78619375,1.0,2522.2561172726637,0.23255786092000708,1.3294312151423546,0.9220279364618583,0.28807313749999996,0.6539383752864529
0.024,1.7856,1.0,2539.9164786434353,0.23686260395276515,1.3289963705381904,0.9245337377005222,0.2880482,0.6548513653466126
0.0245,1.78499375,1.0,2556.454432195823,0.24114319901103043,1.328567000060073,0.9269083201924262,0.2880227375,0.6557516787995028
0.025,1.784375,1.0,2571.9421185885635,0.245399786349538,1.3281423204368796,0.929160616072675,0.28799675,0.6566409998032532
0.025500000000000002,1.78374375,1.0,2586.423078863332,0.24963249861519946,1.3277218318542332,0.9312988543896404,0.2879702375,0.6575204111164086
0.026000000000000002,1.7831000000000001,1.0,2599.9416176594914,0.25384146831731313,1.3273050391777783,0.9333305860749389,0.2879432,0.6583909800026563
0.0265,1.78244375,1.0,2612.543194623325,0.2580268279651774,1.3268914472731599,0.9352627483289792,0.2879156375,0.6592537681749329
0.027,1.781775,1.0,2624.274324581076,0.2621887100680905,1.3264805610060235,0.9371017227357645,0.28788755,0.6601098319043117
0.0275,1.7810937500000001,1.0,2635.1824831473145,0.2663272471353509,1.3260718852420137,0.9388533871669712,0.2878589375,0.6609602221132623
0.028,1.7804,1.0,2645.305687882401,0.270442567711396,1.3256650202239704,0.9405231746371131,0.2878298,0.6618057863600797
0.0285,1.77969375,1.0,2654.6964025440448,0.27453480745195735,1.3252594396371264,0.9421160859303551,0.2878001375,0.662647630506832
0.029,1.778975,1.0,2663.3914645340114,0.2786040956198679,1.324854767770382,0.9436367624293217,0.28776995,0.6634865429108777
0.029500000000000002,1.7782437500000001,1.0,2671.4219661653256,0.28265055888564683,1.3244506868775374,0.9450895062293592,0.2877392375,0.6643231880889482
0.03,1.7775,1.0,2678.8194755076274,0.28667432391981335,1.324046879212394,0.9464783028119127,0.287708,0.6651582272726662
0.0305,1.77674375,1.0,2685.6159935739756,0.29067551739288666,1.3236430270287523,0.947806848362995,0.2876762375,0.6659923184173033
0.031,1.775975,1.0,2691.8439137454,0.29465426597538585,1.3232388125804126,0.9490785744119065,0.28764395,0.6668261162040972
0.0315,1.7751937500000001,1.0,2697.535983433786,0.2986106963378301,1.3228339181211761,0.9502966700821174,0.2876111375,0.667660272036128
0.032,1.7744,1.0,2702.721999775533,0.302544933029968,1.3224280557584145,0.9514641052090582,0.2875778,0.668495372639824
0.0325,1.77359375,1.0,2707.4276507088202,0.30645709859414155,1.3220209775910825,0.9525836495168409,0.2875439375,0.6693319196150623
0.033,1.772775,1.0,2711.6926205280133,0.3103473262289045,1.3216123101764659,0.9536578729961431,0.28750955,0.6701706694609589
0.0335,1.7719437500000002,1.0,2715.5362610486654,0.3142157359836633,1.3212018675961053,0.954689191250314,0.2874746375,0.6710119906019582
0.034,1.7711000000000001,1.0,2718.9780847454317,0.31806244790782434,1.3207894639315412,0.9556798599550512,0.2874392,0.6718562494595486
0.0345,1.7702437500000001,1.0,2722.037749182971,0.32188758205079393,1.320374913264314,0.9566319873326357,0.2874032375,0.6727038104301123
0.035,1.7693750000000001,1.0,2724.735042212961,0.32569125846197855,1.3199580296759645,0.9575475455139911,0.28736675,0.6735550358605695
0.035500000000000004,1.76849375,1.0,2727.0898679375496,0.3294735971907845,1.3195386272480334,0.9584283808993477,0.2873297375,0.6744102860218188
0.036000000000000004,1.7676,1.0,2729.1222334391464,0.33323471828661827,1.3191165200620607,0.9592762236161778,0.2872922,0.6752699190799758
0.0365,1.76669375,1.0,2730.8522362767226,0.3369747417988861,1.3186915221995872,0.9600926961623851,0.2872541375,0.6761342910654019
0.037,1.765775,1.0,2732.3000527482477,0.34069378777699444,1.3182634477421535,0.9608793213133023,0.28721555,0.6770037558395329
0.0375,1.76484375,1.0,2733.4808582514024,0.34439196750849893,1.3178321568099975,0.961637531994282,0.2871764375,0.6778785717394934
0.038,1.7639,1.0,2734.4176837739506,0.3480694093332138,1.3173974386744156,0.9623686719091192,0.28713679999999997,0.6787591387848233
0.0385,1.76294375,1.0,2735.122687991319,0.35172622730342834,1.316959181791397,0.9630740114621198,0.28709663750000003,0.6796456539481126
0.039,1.761975,1.0,2735.6076128852283,0.3553625347436083,1.3165172787354564,0.9637547467902376,0.28705595,0.6805383044065734
0.0395,1.7609937500000001,1.0,2735.884232189105,0.35897844497821924,1.3160716220811086,0.9644120046830401,0.2870147375,0.681437275876967
0.04,1.76,1.0,2735.9643467545893,0.3625740713317268,1.3156221044028689,0.9650468473409052,0.286973,0.6823427525902569
0.0405,1.7589937500000001,1.0,2735.859780174434,0.36614952712859666,1.3151686182752518,0.9656602767581038,0.2869307375,0.683254917265525
0.041,1.757975,1.0,2735.5823746607434,0.36970492569329444,1.3147110562727724,0.9662532387639714,0.28688795,0.6841739510831502
0.0415,1.75694375,1.0,2735.143987179532,0.3732403803502857,1.3142493109699456,0.966826626752146,0.2868446375,0.6851000336572527
0.042,1.7559,1.0,2734.5564858408247,0.37675600442403623,1.3137832749412863,0.967381285124931,0.28680079999999997,0.6860333430074015
0.0425,1.75484375,1.0,2733.823409103113,0.38025189199299053,1.3133129164855,0.9679180155970999,0.2867564375,0.6869739042198665
0.043000000000000003,1.753775,1.0,2732.962811855396,0.38372817569139356,1.3128380721262858,0.9684375723530423,0.28671155,0.6879220045545562
0.043500000000000004,1.75269375,1.0,2731.985386420199,0.3871849719543848,1.3123586452662215,0.968940672266774,0.28666613750000003,0.6888777956870242
0.044,1.7516,1.0,2730.897161180881,0.39062238608191824,1.311874581693913,0.9694279961722553,0.2866202,0.689841343409588
0.0445,1.75049375,1.0,2729.7041667806916,0.3940405233739481,1.311385827197966,0.969900189518289,0.2865737375,0.690812712436985
0.045,1.7493750000000001,1.0,2728.41243494245,0.39743948913042837,1.3108923275669857,0.9703578645510715,0.28652675,0.691791966390249
0.0455,1.74824375,1.0,2727.027997354254,0.40081938865131317,1.3103940285895779,0.9708016023415842,0.2864792375,0.6927791677803965
0.046,1.7471,1.0,2725.55688462053,0.4041803272365565,1.3098908760543484,0.9712319546702542,0.2864312,0.6937743779919276
0.0465,1.7459437500000001,1.0,2724.005125277928,0.40752241018611246,1.3093828157499026,0.9716494457802098,0.28638263750000004,0.694777657266141
0.047,1.744775,1.0,2722.3787448760354,0.41084574279993513,1.3088697934648463,0.9720545740094579,0.28633355,0.6957890646842575
0.0475,1.74359375,1.0,2720.683765124473,0.4141504303779786,1.308351754987785,0.972447813311416,0.28628393750000003,0.6968086581503604
0.048,1.7424,1.0,2718.9262031033736,0.4174365782201969,1.3078286461073243,0.9728296146724075,0.2862338,0.6978364943741444
0.0485,1.74119375,1.0,2717.1120705408266,0.4207042916265442,1.30730041261207,0.9732004074340032,0.2861831375,0.6988726288534808
0.049,1.739975,1.0,2715.2473731539076,0.42395367589697447,1.3067670002906275,0.9735606005274133,0.28613195,0.6999171158567925
0.0495,1.73874375,1.0,2713.338110056012,0.4271848363314418,1.3062283549316025,0.9739105836265363,0.2860802375,0.7009700084052439
0.05,1.7375,1.0,2711.3826182332596,0.43039785523568136,1.3056844921366524,0.9742507302349211,0.286028,0.7020312221529238
0.0505,1.73624375,1.0,2709.3900472354135,0.4335928581566819,1.3051353288944951,0.9745813950607012,0.2859752375,0.7031008643509193
0.051000000000000004,1.734975,1.0,2707.3655460218197,0.43676995197029544,1.3045808185924277,0.9749029167916052,0.28592195,0.7041789698519345
0.051500000000000004,1.73369375,1.0,2705.311298374408,0.4399292331941954,1.3040209416265849,0.9752156193501842,0.2858681375,0.70526551993777
0.052000000000000005,1.7324,1.0,2703.229485355815,0.4430707983460552,1.3034556783931015,0.9755198121166929,0.2858138,0.7063604950605311
0.0525,1.73109375,1.0,2701.1222851926623,0.4461947439435482,1.3028850092881121,0.9758157907058785,0.28575893750000003,0.7074638748359063
0.053,1.729775,1.0,2698.991873167257,0.4493011665043479,1.3023089147077511,0.976103837695777,0.28570355000000003,0.7085756380364212
0.0535,1.72844375,1.0,2696.8404215177156,0.45239016254612774,1.3017273750481535,0.9763842233118724,0.2856476375,0.7096957625846649
0.054,1.7271,1.0,2694.6700993471936,0.4554618285865611,1.3011403707054539,0.976657206069706,0.2855912,0.7108242255464983
0.0545,1.7257437500000001,1.0,2692.4830725405636,0.45851626114332145,1.3005478820757868,0.9769230333787927,0.2855342375,0.7119610031242314
0.055,1.724375,1.0,2690.281503690553,0.4615535567340822,1.2999498895552868,0.977181942110478,0.28547675,0.7131060706497808
0.0555,1.72299375,1.0,2688.0675520321847,0.4645738118765168,1.299346373540089,0.9774341591321722,0.2854187375,0.7142594025777982
0.056,1.7216,1.0,2685.843373385368,0.46757712308829863,1.2987373144263274,0.9776799018102142,0.2853602,0.7154209724787806
0.0565,1.72019375,1.0,2683.611120106476,0.47056358688710115,1.2981226926101372,0.9779193784834465,0.28530113749999997,0.716590753032148
0.057,1.718775,1.0,2681.372941048277,0.4735332997905978,1.297502488487653,0.9781527889094414,0.28524155,0.7177687160193047
0.0575,1.71734375,1.0,2679.130981527994,0.47648635831646197,1.2968766824550093,0.9783803246851537,0.2851814375,0.7189548323166696
0.058,1.7159,1.0,2676.8837275408287,0.47942282506771305,1.2962452884628288,0.9786021685818229,0.2851208,0.7201490084935438
0.0585,1.71444375,1.0,2674.6377427006714,0.48234283391435373,1.2956082463135756,0.9788184980646762,0.2850596375,0.7213512905338406
0.059000000000000004,1.7129750000000001,1.0,2672.39417865251,0.48524647758659645,1.2949655454242028,0.9790294827147331,0.28499795,0.7225616295044723
0.059500000000000004,1.71149375,1.0,2670.1536090317,0.4881338438865323,1.294317180505853,0.9792352852934537,0.2849357375,0.7237799657496335
0.06,1.71,1.0,2667.916606509907,0.4910050206162524,1.2936631462696684,0.9794360621915078,0.284873,0.7250062389126255
0.0605,1.7084937500000001,1.0,2665.6837427977243,0.4938600955778479,1.2930034374267911,0.9796319637255838,0.2848097375,0.726240387933943
0.061,1.7069750000000001,1.0,2663.4555886478474,0.4966991565734098,1.2923380486883635,0.9798231344191582,0.28474595,0.7274823510493622
0.0615,1.7054437500000001,1.0,2661.2327138584824,0.4995222914050293,1.2916669747655283,0.9800097132682023,0.2846816375,0.7287320657880252
0.062,1.7039,1.0,2659.015687278504,0.5023295878747974,1.2909902103694273,0.9801918339927468,0.2846168,0.7299894689705244
0.0625,1.70234375,1.0,2656.805076811556,0.5051211337848053,1.290307750211203,0.9803696252751566,0.2845514375,0.7312544967069826
0.063,1.7007750000000001,1.0,2654.6014494221877,0.5078970169371441,1.2896195890019981,0.9805432109859098,0.28448555,0.7325270843951329
0.0635,1.69919375,1.0,2652.4053711422957,0.5106573251339047,1.2889257214529544,0.9807127103976266,0.28441913750000003,0.7338071667183987
0.064,1.6976,1.0,2650.217407077145,0.5134021461771785,1.2882261422752146,0.9808782383880381,0.2843522,0.7350946776439661
0.0645,1.69599375,1.0,2648.038121413952,0.5161315678690563,1.2875208461799208,0.9810399056325477,0.2842847375,0.736389550420862
0.065,1.694375,1.0,2645.8680774291506,0.5188456780116295,1.2868098278782154,0.9811978187869855,0.28421675,0.7376917175780244
0.0655,1.69274375,1.0,2643.707837497404,0.5215445644069889,1.2860930820812406,0.9813520806611279,0.2841482375,0.7390011109223741
0.066,1.6911,1.0,2641.557963101016,0.524228314857226,1.285370603500139,0.981502790383504,0.2840792,0.7403176615368827
0.0665,1.689444479842168,1.0,2639.4544045268076,0.5268970162920198,1.2846423893311574,0.9816500436198291,0.28400966815337103,0.7416412952673783
0.067,1.6877862513821944,1.0,2637.8157100744666,0.5295507499973147,1.2839086613715525,0.9817939431588264,0.2839400225580522,0.7429715306065471
0.0675,1.686128022922221,1.0,2636.7304635475275,0.5321895986482956,1.2831698194844692,0.9819345969198919,0.28387037696273326,0.7443075680265725
0.068,1.6844697944622475,1.0,2636.156815409146,0.5348136452209471,1.282426247583718,0.9820721084627165,0.2838007313674144,0.7456486437365446
0.0685,1.682811566002274,1.0,2636.053091378328,0.5374229726912537,1.2816783295831098,0.982206577907202,0.2837310857720955,0.7469940007757302
0.069,1.6811533375423005,1.0,2636.37934534318,0.540017663731065,1.280926434676682,0.9823381013695855,0.28366144017677664,0.7483429154969641
0.0695,1.6794951090823271,1.0,2637.0974322947004,0.5425978009739437,1.280170916347222,0.982466771098725,0.2835917945814577,0.7496946990853253
0.07,1.6778368806223536,1.0,2638.1753856809696,0.5451634659759356,1.2794120716238795,0.9825926736751168,0.28352214898613887,0.7510487698687884
0.07050000000000001,1.67617865216238,1.0,2639.58558737125,0.5477147394095933,1.2786501578226088,0.9827158910106905,0.28345250339081995,0.7524046222749847
0.07100000000000001,1.6745204237024067,1.0,2641.300455785755,0.5502517019474699,1.2778854322593638,0.9828365024026411,0.2833828577955011,0.7537617555421765
0.07150000000000001,1.6728621952424332,1.0,2643.2934990887934,0.5527744339697237,1.2771181423671647,0.9829545841728862,0.2833132122001822,0.7551196912339664
0.07200000000000001,1.6712039667824596,1.0,2645.5394512583853,0.5552830158137675,1.276348524319437,0.9830702097381777,0.2832435666048633,0.7564779754670584
0.0725,1.6695457383224863,1.0,2648.0171662459957,0.5577775267816347,1.2755767762242318,0.9831834484569557,0.2831739210095444,0.7578362257839912
0.073,1.6678875098625128,1.0,2650.7084364177636,0.5602580453063907,1.2748030690122447,0.9832943662733102,0.28310427541422556,0.7591941111653427
0.0735,1.6662292814025392,1.0,2653.5950435788254,0.5627246498211003,1.2740275736141706,0.9834030271009977,0.28303462981890665,0.7605513038875329
0.074,1.664571052942566,1.0,2656.6636460486366,0.5651774161712361,1.27325041586877,0.983509490760145,0.28296498422358773,0.7619075581235466
0.0745,1.6629128244825924,1.0,2659.894366308713,0.5676164240458026,1.272471781682858,0.9836138181091318,0.2828953386282689,0.7632625261051309
