Time [s],Phi [rad],STIM [ ],Fsee [N],Gamma [ ],Lcerel [ ],q [ ],Lmtc [m],fisomrel [ ]
0.0,1.8,1.0,17.965988700642356,1.1657181366119218e-05,1.3793398772412606,0.00500003617327609,0.288653,0.5411392140771216
0.0005,1.79999375,1.0,18.275986980918574,0.005620801102593018,1.3793024718966849,0.01294511819448195,0.2886527375,0.5412297028477826
0.001,1.799975,1.0,21.61890489707547,0.01119848216133504,1.3789382486626178,0.03561722191573154,0.28865195,0.5421103434327423
0.0015,1.79994375,1.0,31.07229646572426,0.016744876840238232,1.3780459429945893,0.07061354277514542,0.2886506375,0.5442642378358794
0.002,1.7999,1.0,53.59039513247987,0.022260160630291716,1.376367612234459,0.11473185742240491,0.2886488,0.5483017234085839
0.0025,1.79984375,1.0,97.13326253433287,0.027744508038408704,1.3739344770028572,0.16458992637809633,0.28864643749999996,0.5541231087646673
0.003,1.7997750000000001,1.0,160.97741480938797,0.03319809259512358,1.371213623307281,0.21729596071346652,0.28864354999999997,0.5605881564766586
0.0035,1.79969375,1.0,237.70542303603088,0.03862108685419806,1.3685840537725402,0.2706283092860993,0.2886401375,0.5667914391090598
0.004,1.7996,1.0,321.4905183141437,0.044013662403399836,1.366155463441109,0.32293073153578905,0.2886362,0.5724814304599064
0.0045000000000000005,1.7994937500000001,1.0,409.2925387561315,0.049375989869687865,1.3639222323073232,0.3730486789861144,0.2886317375,0.5776805128585927
0.005,1.799375,1.0,499.43894562898157,0.05470823891031206,1.36185780172476,0.4202607187419197,0.28862675,0.5824583269481004
0.0055,1.79924375,1.0,590.8162050490023,0.060010578260170346,1.3599383312102489,0.46418597305403675,0.2886212375,0.5868762682575931
0.006,1.7991000000000001,1.0,682.5440354108088,0.06528317567522823,1.3581459434665204,0.5046912426735501,0.2886152,0.590980494829324
0.006500000000000001,1.79894375,1.0,773.9095456675284,0.07052619798953501,1.356466770730272,0.5418110485935381,0.2886086375,0.5948068921082006
0.007,1.798775,1.0,864.3136935745952,0.07573981108754184,1.3548899446103666,0.5756861586699874,0.28860155,0.5983836964746522
0.0075,1.79859375,1.0,953.2700353409417,0.08092417994691617,1.3534063666758014,0.6065184518797347,0.2885939375,0.6017345025287277
0.008,1.7984,1.0,1040.3760490366767,0.08607946840609378,1.3520083873029367,0.634539891598314,0.2885858,0.6048791303201075
0.0085,1.79819375,1.0,1125.3470569001665,0.09120584019785118,1.3506887767584776,0.6599914268356712,0.2885771375,0.6078360390804931
0.009000000000000001,1.797975,1.0,1207.9157099071097,0.09630345692817417,1.3494418228614826,0.683110673182939,0.28856795,0.6106199376123859
0.0095,1.79774375,1.0,1287.8977828987317,0.10137247986663708,1.348262050002518,0.7041234391379387,0.2885582375,0.6132447210715679
0.01,1.7975,1.0,1365.1844793950397,0.10641306972521475,1.3471441612556925,0.7232395755668245,0.288548,0.6157236329913323
0.0105,1.79724375,1.0,1439.6791819636958,0.11142538584551977,1.3460837000433028,0.74065151859138,0.2885372375,0.6180678334321978
0.011,1.796975,1.0,1511.3348493720998,0.11640958673564064,1.3450763992990997,0.7565336008372628,0.28852595000000003,0.6202878783379091
0.0115,1.79669375,1.0,1580.1386003845366,0.1213658305154847,1.3441182729444272,0.7710426709211051,0.2885141375,0.6223935402606655
0.012,1.7964,1.0,1646.0810989582212,0.1262942734359013,1.343205883010586,0.7843192741195116,0.28850180000000003,0.6243932457491199
0.0125,1.79609375,1.0,1709.1872238418814,0.13119507139503425,1.342335882605305,0.7964887552222935,0.2884889375,0.6262951003853536
0.013000000000000001,1.7957750000000001,1.0,1769.5125497866027,0.13606838024907109,1.3415050050698902,0.8076626752674422,0.28847555,0.6281069244649689
0.0135,1.79544375,1.0,1827.1025110235698,0.1409143538544454,1.3407104730631558,0.8179403747782136,0.2884616375,0.6298353748248743
0.014,1.7951000000000001,1.0,1882.0076145606738,0.14573314499624043,1.3399497618335183,0.8274101957268737,0.2884472,0.6314864777721115
0.0145,1.79474375,1.0,1934.3020630205724,0.15052490642721505,1.3392203539444452,0.8361506260375016,0.2884322375,0.633066171778716
0.015,1.794375,1.0,1984.0684199756797,0.1552897900630327,1.3385198794999393,0.8442314828108126,0.28841675,0.6345800101509775
0.0155,1.79399375,1.0,2031.380408249071,0.16002794642454363,1.3378462677500909,0.8517149732138088,0.2884007375,0.636032842370325
0.016,1.7936,1.0,2076.308912756125,0.16473952484950477,1.3371976499556604,0.8586565558509606,0.2883842,0.6374290333685585
0.0165,1.7931937500000001,1.0,2118.9647364911784,0.16942467619577464,1.33657189317712,0.8651055979843635,0.2883671375,0.6387734716937798
0.017,1.792775,1.0,2159.4169306615836,0.17408354756553646,1.3359674347351609,0.871106341211428,0.28834955,0.6400697793286844
0.0175,1.7923437500000001,1.0,2197.741305331097,0.1787162857885398,1.335382752652629,0.8766983514185616,0.2883314375,0.6413214579819692
0.018000000000000002,1.7919,1.0,2234.023408914019,0.18332303769453423,1.3348163249523701,0.881917057197625,0.2883128,0.6425319787799391
0.0185,1.79144375,1.0,2268.3442133935528,0.18790394874639998,1.3342667640904669,0.8867942669560722,0.2882936375,0.6437044975270669
0.019,1.790975,1.0,2300.8020042912767,0.19245916592779885,1.3337325877499526,0.8913585310638205,0.28827395,0.6448423465360975
0.0195,1.79049375,1.0,2331.467227499054,0.1969888323501559,1.3332126594462763,0.8956356196541838,0.2882537375,0.6459480981656247
0.02,1.79,1.0,2360.4094658242343,0.2014930903945014,1.3327059076780503,0.8996487704522377,0.288233,0.6470241677172343
0.0205,1.78949375,1.0,2387.703446934075,0.2059720824418656,1.3322112609438879,0.9034189581820453,0.2882117375,0.6480729531316074
0.021,1.788975,1.0,2413.4277095474126,0.21042595072426196,1.331727656436405,0.9069651475628654,0.28818995000000003,0.6490968174592173
0.021500000000000002,1.78844375,1.0,2437.650089401286,0.21485483541573291,1.3312541754932448,0.9103045412238268,0.2881676375,0.6500978036297532
0.022,1.7879,1.0,2460.4572465392043,0.21925887981110603,1.330789753918179,0.9134527127796219,0.2881448,0.6510782484143833
0.0225,1.78734375,1.0,2481.9044450646347,0.22363822142193857,1.3303336608713807,0.9164238724014006,0.28812143749999997,0.652039771987601
0.023,1.786775,1.0,2502.0496222973015,0.22799299775978754,1.3298851655130233,0.9192309468119131,0.28809755,0.6529839846123893
0.0235,1.78619375,1.0,2520.9531682672773,0.23232334633621018,1.3294435370032798,0.9218857129583019,0.28807313749999996,0.6539124870113795
0.024,1.7856,1.0,2538.677717051432,0.23662940466276358,1.3290080445023236,0.9243989161673993,0.2880482,0.6548268707039449
0.0245,1.78499375,1.0,2555.2791897281713,0.24091130813028044,1.3285780394671467,0.9267803882370481,0.2880227375,0.6557285458543565
0.025,1.784375,1.0,2570.821021378216,0.24516919507603877,1.3281528194236656,0.9290391174305971,0.28799675,0.656619027756056
0.025500000000000002,1.78374375,1.0,2585.3557358899147,0.24940320056637805,1.327731799357856,0.9311833576174574,0.2879702375,0.6574995780920347
0.026000000000000002,1.7831000000000001,1.0,2598.9266131952772,0.25361345679737424,1.3273144931849041,0.9332206963486129,0.2879432,0.658371245379813
0.0265,1.78244375,1.0,2611.578082210934,0.2578000959651032,1.3269004148199974,0.9351581039502729,0.2879156375,0.6592350726738316
0.027,1.781775,1.0,2623.3556225928155,0.261963250265641,1.3264890781783223,0.937001992013092,0.28788755,0.6600920976730529
0.0275,1.7810937500000001,1.0,2634.30567172928,0.2661030518950635,1.3260799971750656,0.9387582656266855,0.2878589375,0.660943352813486
0.028,1.7804,1.0,2644.471915796023,0.2702196318131593,1.3256727191655095,0.9404323745234788,0.2878298,0.6617897958907626
0.0285,1.77969375,1.0,2653.893099651077,0.2743131198672589,1.3252668440757267,0.9420293572101202,0.2878001375,0.6626322708705896
0.029,1.778975,1.0,2662.621298413996,0.27838365051435887,1.3248618551498403,0.9435538560997616,0.28776995,0.6634718592748857
0.029500000000000002,1.7782437500000001,1.0,2670.6865802137745,0.2824313501486104,1.3244574439931844,0.9450101928726979,0.2877392375,0.6643092061141888
0.03,1.7775,1.0,2678.119482331998,0.28645634516416485,1.3240533022110927,0.9464023708948689,0.287708,0.665144953208183
0.0305,1.77674375,1.0,2684.9509697071717,0.2904587619551734,1.3236491214088995,0.9477341027033463,0.2876762375,0.665979739194029
0.031,1.775975,1.0,2691.2123955482607,0.29443872691578743,1.3232445931919385,0.9490088347939605,0.28764395,0.6668141995286294
0.0315,1.7751937500000001,1.0,2696.9354640563906,0.29839636644015816,1.322839409165544,0.9502297700051151,0.2876111375,0.6676489664848293
0.032,1.7744,1.0,2702.1521952555063,0.3023318069224369,1.3224332609350495,0.9513998877569068,0.2875778,0.6684846691415506
0.0325,1.77359375,1.0,2706.8886821434076,0.30624517048388145,1.3220258967856426,0.9525219678912134,0.2875439375,0.6693218169623809
0.033,1.772775,1.0,2711.177977148716,0.31013658635343105,1.321617003647542,0.9535985961999739,0.28750955,0.6701610426172733
0.0335,1.7719437500000002,1.0,2715.0426513482207,0.3140061766782793,1.3212063660471423,0.9546321942515559,0.2874746375,0.6710027755446086
0.034,1.7711000000000001,1.0,2718.5032934904093,0.3178540620143524,1.320793788135761,0.9556250249763598,0.2874392,0.671847402721647
0.0345,1.7702437500000001,1.0,2721.580641687541,0.3216803629175765,1.3203790740647154,0.9565792032849052,0.2874032375,0.6726953089969248
0.035,1.7693750000000001,1.0,2724.2955677530704,0.3254851999438779,1.3199620279853237,0.957496707480566,0.28736675,0.6735468770647925
0.035500000000000004,1.76849375,1.0,2726.669062390188,0.3292686936491828,1.3195424540489031,0.9583793896657871,0.2873297375,0.6744024874375147
0.036000000000000004,1.7676,1.0,2728.722221230168,0.3330309645894173,1.3191201564067716,0.9592289852410173,0.2872922,0.6752625184149159
0.0365,1.76669375,1.0,2730.470031883305,0.3367721270997433,1.3186949955543905,0.9600471258976551,0.2872541375,0.6761272315324841
0.037,1.765775,1.0,2731.9333451157627,0.34049230274660547,1.318266779379369,0.9608353393330412,0.28721555,0.6769969934422324
0.0375,1.76484375,1.0,2733.1381334895495,0.34419161935525455,1.3178352698769173,0.961595057237832,0.2871764375,0.6778722615505968
0.038,1.7639,1.0,2734.0963640422656,0.3478701905150641,1.3174003568075754,0.9623276346137377,0.28713679999999997,0.6787532318189535
0.0385,1.76294375,1.0,2734.8200468653895,0.35152812981540793,1.316961929931883,0.9630343460214658,0.28709663750000003,0.6796400987686736
0.039,1.761975,1.0,2735.3212297595283,0.35516555084565954,1.3165198790103803,0.963716391228388,0.28705595,0.6805330554568056
0.0395,1.7609937500000001,1.0,2735.6119931604558,0.35878256719519264,1.3160740938036066,0.9643749004010248,0.2870147375,0.6814322934509849
0.04,1.76,1.0,2735.7044453333187,0.3623792924533809,1.315624464072102,0.9650109388835193,0.286973,0.6823380028035664
0.0405,1.7589937500000001,1.0,2735.6107178371053,0.365955840209598,1.315170879576406,0.965625511599164,0.2869307375,0.6832503720249825
0.041,1.757975,1.0,2735.342961258263,0.36951232405321743,1.3147132300770592,0.966219567108371,0.28688795,0.6841695880563265
0.0415,1.75694375,1.0,2734.9133412136293,0.373048857573613,1.3142514053346006,0.9667940013532212,0.2868446375,0.6850958362411625
0.042,1.7559,1.0,2734.3340346231703,0.3765655543601583,1.3137852951095703,0.9673496611158023,0.28680079999999997,0.6860293002965557
0.0425,1.75484375,1.0,2733.6143198365417,0.3800625228018798,1.313314815560832,0.9678873485488045,0.2867564375,0.6869701095346996
0.043000000000000003,1.753775,1.0,2732.763250172838,0.3835398735979198,1.312839884950119,0.9684078232863982,0.28671155,0.6879183877053453
0.043500000000000004,1.75269375,1.0,2731.7945717375983,0.3869977270583346,1.3123603789407352,0.9689118026777138,0.28666613750000003,0.6888743420535725
0.044,1.7516,1.0,2730.71448224627,0.3904361893267147,1.3118762417793444,0.9693999695834308,0.2866202,0.6898380414974232
0.0445,1.75049375,1.0,2729.5291816584077,0.3938553665466509,1.311387417712611,0.969872971348284,0.2865737375,0.6908095538592854
0.045,1.7493750000000001,1.0,2728.244870958412,0.39725536486173363,1.3108938509871992,0.9703314219932448,0.28652675,0.6917889458493276
0.0455,1.74824375,1.0,2726.8677510055895,0.4006362904155537,1.310395485849773,0.9707759042517519,0.2864792375,0.6927762830487352
0.046,1.7471,1.0,2725.4040214529296,0.40399824935170164,1.3098922665469968,0.9712069714624794,0.2864312,0.6937716298927459
0.0465,1.7459437500000001,1.0,2723.859879734735,0.40734134781376813,1.3093841373255346,0.9716251493300451,0.28638263750000004,0.6947750496534909
0.047,1.744775,1.0,2722.2415201234685,0.41066569194534375,1.3088710424320504,0.9720309375640391,0.28633355,0.6957866044226355
0.0475,1.74359375,1.0,2720.5551328555803,0.4139713878900192,1.3083529261132085,0.9724248114058582,0.28628393750000003,0.6968063550938207
0.048,1.7424,1.0,2718.8069033252427,0.417258541791385,1.3078297326156734,0.972807223052008,0.2862338,0.6978343613449076
0.0485,1.74119375,1.0,2717.002866787316,0.4205272594713948,1.3073014075031382,0.9731786030337694,0.2861831375,0.6988706790388719
0.049,1.739975,1.0,2715.148472530888,0.42377764338396023,1.306767901624431,0.9735393613588244,0.28613195,0.6999153524647432
0.0495,1.73874375,1.0,2713.247182153957,0.42700979544810086,1.3062291838966709,0.9738898898917573,0.2860802375,0.700968389445086
0.05,1.7375,1.0,2711.301422611126,0.43022381745167015,1.3056852326413868,0.9742305628309526,0.286028,0.7020297785235371
0.0505,1.73624375,1.0,2709.3136186134534,0.43341981118252154,1.3051360261801077,0.9745617370779038,0.2859752375,0.7030995074203208
0.051000000000000004,1.734975,1.0,2707.2970157032337,0.43659786724237165,1.304581444052266,0.9748837454725062,0.28592195,0.7041777549076413
0.051500000000000004,1.7336940411983486,1.0,2705.261548366809,0.43975810449971764,1.3040215273635176,0.97519691934933,0.28586814973033065,0.7052643842460266
0.052000000000000005,1.7324092393382107,1.0,2703.589049411714,0.4429006209860243,1.30345656696266,0.9755015888036688,0.2858141880522048,0.706358775405729
0.0525,1.731124437478073,1.0,2702.437232586349,0.4460255134113408,1.3028868546150056,0.9757980691267544,0.28576022637407905,0.7074603102724122
0.053,1.729839635617935,1.0,2701.7738299799043,0.4491328784857164,1.302312682085866,0.9760866616870316,0.2857062646959533,0.7085683745218436
0.0535,1.7285548337577972,1.0,2701.5667276416475,0.4522228129192005,1.3017343411405522,0.9763676546726443,0.28565230301782746,0.7096823577056023
0.054,1.7272700318976593,1.0,2701.7839376723537,0.4552954134218423,1.3011521235443764,0.97664132378837,0.2855983413397017,0.7108016533313541
0.0545,1.7259852300375214,1.0,2702.393572202574,0.458350776703691,1.3005663210626501,0.976907932910143,0.28554437966157586,0.7119256589377039
0.055,1.7247004281773834,1.0,2703.363819259472,0.4613889994747959,1.2999772254606852,0.9771677347000767,0.2854904179834501,0.7130537761636138
0.0555,1.7234156263172455,1.0,2704.6629205197164,0.46441017844520616,1.299385128503793,0.977420971184664,0.2854364563053243,0.714185410812396
0.056,1.7221308244571076,1.0,2706.2591509505496,0.4674144103249711,1.2987903219572854,0.977667874298636,0.2853824946271985,0.7153199729102735
0.0565,1.7208460225969697,1.0,2708.120800338384,0.47040179182414005,1.298193097586474,0.9779086663967743,0.28532853294907273,0.7164568767595141
0.057,1.7195612207368318,1.0,2710.2278474855807,0.47337241508005,1.2975936405146191,0.9781435542012835,0.2852745712709469,0.717595743384106
0.0575,1.7182764188766941,1.0,2712.556812052316,0.4763263777992464,1.2969921674372658,0.9783727383465582,0.28522060959282114,0.7187361367376119
0.058,1.7169916170165562,1.0,2715.088028902872,0.4792637743254773,1.2963888601722318,0.9785964091449111,0.28516664791469537,0.719877689941981
0.0585,1.7157068151564183,1.0,2717.808344908261,0.48218469566296585,1.2957838410974933,0.9788147457311012,0.28511268623656955,0.7210201509745306
0.059000000000000004,1.7144220132962804,1.0,2720.7046004919353,0.4850892328159353,1.2951772325910262,0.9790279201726415,0.2850587245584438,0.7221632696425485
0.059500000000000004,1.7131372114361425,1.0,2723.763625150397,0.4879774767886089,1.2945691570308062,0.9792360978073313,0.28500476288031795,0.7233067975961742
0.06,1.7118524095760046,1.0,2726.9722333073305,0.49084951858520987,1.2939597367948095,0.9794394375621654,0.2849508012021922,0.7244504883403264
0.0605,1.7105676077158667,1.0,2730.317220498541,0.49370544920996146,1.2933490942610115,0.9796380922547832,0.2848968395240664,0.7255940972456766
0.061,1.7092828058557288,1.0,2733.7853598896236,0.49654535966708685,1.2927373518073884,0.9798322088785365,0.2848428778459406,0.7267373815586651
0.0615,1.7079980039955909,1.0,2737.3633991257575,0.4993693409608093,1.2921246318119162,0.9800219288721876,0.2847889161678148,0.7278801004105626
0.062,1.706713202135453,1.0,2741.0443406552704,0.5021774789489972,1.2915109996615413,0.9802073849977624,0.284734954489689,0.72902212077911
0.0625,1.705428400275315,1.0,2744.8135658637943,0.5049698688971626,1.2908965896993283,0.9803887093747442,0.2846809928115632,0.7301631827209842
0.063,1.7041435984151772,1.0,2748.6637377486145,0.5077465983746472,1.290281469984506,0.9805660252661889,0.28462703113343746,0.7313031510957728
0.0635,1.7028587965550395,1.0,2752.5889765138854,0.5105077535047301,1.2896656952282732,0.9807394506413515,0.2845730694553117,0.7324419164793403
0.064,1.7015739946949016,1.0,2756.5833881381777,0.51325342041069,1.289049320141828,0.9809090991911784,0.28451910777718586,0.7335793702983004
0.0645,1.7002891928347637,1.0,2760.641063612979,0.5159836852158058,1.288432399436369,0.9810750805163052,0.28446514609906004,0.7347154048322033
0.065,1.6990043909746257,1.0,2764.7560782476885,0.5186986340433564,1.2878149878230942,0.981237500305485,0.28441118442093427,0.7358499132155361
0.0655,1.6977195891144878,1.0,2768.9224910408193,0.5213983530166204,1.2871971400132027,0.9813964605050031,0.2843572227428085,0.7369827894395307
0.066,1.69643478725435,1.0,2773.134344117794,0.5240829282588768,1.2865789107178924,0.9815520594795933,0.2843032610646827,0.7381139283537828
0.0665,1.695149985394212,1.0,2777.385838041992,0.5267524454757652,1.2859603530641799,0.9817043920599761,0.2842492993865569,0.7392432285567908
0.067,1.6938651835340741,1.0,2781.678159407321,0.5294069753247596,1.2853414571216704,0.9818535457469642,0.2841953377084311,0.7403707042336798
0.0675,1.6925803816739362,1.0,2785.9979746022377,0.5320466251917453,1.284722343635217,0.9819996137294388,0.2841413760303053,0.7414961321264967
0.068,1.6912955798137983,1.0,2790.3431622300895,0.5346714754126749,1.2841030321818918,0.9821426794378837,0.28408741435217955,0.7426194741870376
0.0685,1.6900107779536606,1.0,2794.711594388235,0.5372816063235003,1.2834835423387658,0.9822828234827399,0.2840334526740538,0.7437406926755905
0.069,1.6887259760935227,1.0,2799.1011365860963,0.539877098260174,1.2828638936829106,0.9824201237698433,0.28397949099592795,0.7448597501611705
0.0695,1.6874411742333848,1.0,2803.5096476723443,0.5424580315586484,1.2822441057913971,0.9825546556103778,0.28392552931780213,0.7459766095217303
0.07,1.686156372373247,1.0,2807.9349797698837,0.5450244865548752,1.2816241982412973,0.9826864918256423,0.28387156763967636,0.7470912339443447
0.07050000000000001,1.684871570513109,1.0,2812.3749782196633,0.5475765435848072,1.281004190609682,0.9828157028469076,0.2838176059615506,0.7482035869253746
0.07100000000000001,1.683586768652971,1.0,2816.8274815331188,0.5501142829843965,1.280384102473623,0.9829423568106256,0.28376364428342477,0.7493136322706021
0.07150000000000001,1.6823019667928332,1.0,2821.2903213530853,0.552637785089595,1.279763953410192,0.9830665196492373,0.283709682605299,0.7504213340953443
0.07200000000000001,1.6810171649326953,1.0,2825.7613224227985,0.5551471302363555,1.2791437629964595,0.9831882551778102,0.28365572092717317,0.7515266568245423
0.0725,1.6797323630725574,1.0,2830.238302564032,0.5576423987606298,1.2785235508094974,0.9833076251767227,0.2836017592490474,0.7526295651928231
0.073,1.6784475612124194,1.0,2834.719072663067,0.5601236709983705,1.2779033364263772,0.9834246894706032,0.28354779757092163,0.7537300242445402
