Time [s],Phi [rad],STIM [ ],Fsee [N],Gamma [ ],Lcerel [ ],q [ ],Lmtc [m],fisomrel [ ]
0.0,1.8,1.0,18.39629716613786,0.0006666392758946085,1.3792919520030262,0.005114554567571179,0.288653,0.5412551503371622
0.0005,1.79999375,1.0,18.90752289543796,0.006272109265588306,1.3792329148875107,0.014863559714893379,0.2886527375,0.5413979472765373
0.001,1.799975,1.0,22.73665283425068,0.01184613700056228,1.3788255271747896,0.03911199169823634,0.28865195,0.5423827167115522
0.0015,1.79994375,1.0,33.27267438551354,0.01738889884783729,1.377861693688418,0.07534362628909086,0.2886506375,0.5447083560042096
0.002,1.7999,1.0,57.92959368754444,0.022900570183434155,1.3760916067098439,0.12029918223481983,0.2886488,0.5489639775586994
0.0025,1.79984375,1.0,104.09595605731012,0.028381325400040062,1.3736047920264494,0.17062463242883677,0.28864643749999996,0.5549089903535508
0.003,1.7997750000000001,1.0,169.81869528111366,0.033831337915087335,1.3708871286064408,0.2235074108742825,0.28864354999999997,0.5613607711545582
0.0035,1.79969375,1.0,247.57594031726939,0.03925078016894137,1.368283122068143,0.27679625380150247,0.2886401375,0.5674985395399912
0.004,1.7996,1.0,331.9240212294915,0.044639823636767315,1.3658813363464346,0.3288958235020763,0.2886362,0.5731213256165408
0.0045000000000000005,1.7994937500000001,1.0,420.0536874408486,0.0499986388321954,1.3636712736327832,0.3787061071820376,0.2886317375,0.5782627701986907
0.005,1.799375,1.0,510.3785804740759,0.05532739527868919,1.3616266005048825,0.4255503955991845,0.28862675,0.5829917149466906
0.0055,1.79924375,1.0,601.838655315242,0.06062626169302803,1.3597239790969238,0.4690810488866447,0.2886212375,0.5873681723937372
0.006,1.7991000000000001,1.0,693.5544703962522,0.06589540560198663,1.357946607545754,0.5091884399456986,0.2886152,0.5914356701099679
0.006500000000000001,1.79894375,1.0,784.833717227311,0.07113499377077309,1.3562809448239865,0.5459222155812815,0.2886086375,0.5952292358269371
0.007,1.798775,1.0,875.0982482976185,0.07634519203556112,1.3547162823467471,0.5794322115973373,0.28860155,0.598776655095991
0.0075,1.79859375,1.0,963.85557455136,0.08152616506899046,1.353244001931918,0.6099253597219448,0.2885939375,0.6021003670252649
0.008,1.7984,1.0,1050.7455042133101,0.08667807718880197,1.3518560977855825,0.6376353086704152,0.2885858,0.6052209389384651
0.0085,1.79819375,1.0,1135.4481164563288,0.0918010910324851,1.3505461044190008,0.6628035214019984,0.2885771375,0.6081550659332366
0.009000000000000001,1.797975,1.0,1217.7247174569638,0.09689536863716486,1.3493080662921095,0.6856663914970141,0.28856795,0.6109179681864388
0.0095,1.79774375,1.0,1297.4178293386385,0.1019610716644339,1.3481363065459462,0.7064479137675433,0.2885582375,0.6135239542874585
0.01,1.7975,1.0,1374.394005221066,0.1069983600734764,1.347025993663571,0.7253561759422422,0.288548,0.6159852031945512
0.0105,1.79724375,1.0,1448.5658598790853,0.11200739309218213,1.345972648317609,0.742581474928624,0.2885372375,0.6183129037503188
0.011,1.796975,1.0,1519.8968744725437,0.11698832925737553,1.344971958607998,0.7582960280645077,0.28852595000000003,0.620517690606383
0.0115,1.79669375,1.0,1588.3825831102765,0.12194132688052532,1.3440199145322977,0.7726546891029394,0.2885141375,0.6226093699145108
0.012,1.7964,1.0,1654.0084087195926,0.12686654183965268,1.3431132073568648,0.7857962214673685,0.28850180000000003,0.6245960680398122
0.0125,1.79609375,1.0,1716.7999307362743,0.13176412998286696,1.3422485354254516,0.7978443080130225,0.2884889375,0.6264857780584611
0.013000000000000001,1.7957750000000001,1.0,1776.797877772091,0.1366342461058159,1.3414228445196814,0.8089090763650831,0.28847555,0.6282858457911016
0.0135,1.79544375,1.0,1834.0861212050095,0.14147704584056953,1.3406329606049365,0.8190883510505765,0.2884616375,0.6300037823645274
0.014,1.7951000000000001,1.0,1888.7056945850427,0.14629268127456155,1.3398765061842,0.8284693298212824,0.2884472,0.6316452823470073
0.0145,1.79474375,1.0,1940.7156820160142,0.15108130424042993,1.339151159881286,0.8371295021363495,0.2884322375,0.633215850609625
0.015,1.794375,1.0,1990.1961634094594,0.1558430665708126,1.3384546003200097,0.8451377510836664,0.28841675,0.6347209295989238
0.0155,1.79399375,1.0,2037.2266025914412,0.16057811884867257,1.3377847142341739,0.8525554290096715,0.2884007375,0.6361654554519691
0.016,1.7936,1.0,2081.911589221634,0.1652866123958503,1.3371392994987643,0.8594371520084523,0.2883842,0.6375545048899315
0.0165,1.7931937500000001,1.0,2124.318472506345,0.16996869503824114,1.3365166970754587,0.8658317866832135,0.2883671375,0.6388919406550508
0.017,1.792775,1.0,2164.5225531937176,0.17462451433311058,1.3359152898936846,0.8717829786832371,0.28834955,0.6401814987743681
0.0175,1.7923437500000001,1.0,2202.6100348226064,0.1792542178377241,1.3353334608828695,0.8773297573220569,0.2883314375,0.6414268814168272
0.018000000000000002,1.7919,1.0,2238.6630399555734,0.18385795180308212,1.334769733993036,0.8825071149102255,0.2883128,0.6426314579152803
0.0185,1.79144375,1.0,2272.7815416565563,0.1884358638202003,1.3342225416993472,0.8873464176102551,0.2882936375,0.6437987647322326
0.019,1.790975,1.0,2305.037267831387,0.192988097742698,1.3336906767066372,0.8918759352617075,0.28827395,0.6449315442572274
0.0195,1.79049375,1.0,2335.5012409023448,0.19751479669888716,1.3331730022214,0.8961211236828053,0.2882537375,0.6460323679552904
0.02,1.79,1.0,2364.2502311018225,0.2020161038170797,1.332668381450129,0.9001049269829223,0.288233,0.6471037882122177
0.0205,1.78949375,1.0,2391.364082490506,0.20649216182971006,1.332175698850517,0.903848063770941,0.2882117375,0.6481482943022026
0.021,1.788975,1.0,2416.9171680707896,0.21094311235888563,1.3316939376935029,0.9073692901661365,0.28818995000000003,0.6491681495452126
0.021500000000000002,1.78844375,1.0,2440.9902643640776,0.21536909849756314,1.3312220594365578,0.9106855898738274,0.2881676375,0.6501656484139202
0.022,1.7879,1.0,2463.641609005067,0.21977025858041124,1.330759277669178,0.91381241811568,0.2881448,0.6511425390171036
0.0225,1.78734375,1.0,2484.932452827273,0.2241467309420985,1.33030480598086,0.9167638154635779,0.28812143749999997,0.6521005585011048
0.023,1.786775,1.0,2504.926809684858,0.22849865391729351,1.3298578579611007,0.9195525569061802,0.28809755,0.653041433486334
0.0235,1.78619375,1.0,2523.6912199861817,0.2328261658406649,1.3294176471993961,0.9221902834456444,0.28807313749999996,0.6539668804643309
0.024,1.7856,1.0,2541.282549293356,0.23712940199539342,1.3289835001265533,0.92468763731869,0.2880482,0.6548783694020476
0.0245,1.78499375,1.0,2557.769002020531,0.24140850305768072,1.3285546549152358,0.9270543313784065,0.2880227375,0.6557775469819206
0.025,1.784375,1.0,2573.1992745739167,0.2456636033242162,1.3281305499916851,0.9292992857764907,0.28799675,0.6566656318946245
0.025500000000000002,1.78374375,1.0,2587.6192412419973,0.2498948357591216,1.327710663799609,0.9314306807309566,0.2879702375,0.6575437526531238
0.026000000000000002,1.7831000000000001,1.0,2601.076070431114,0.25410233332651866,1.3272944747827153,0.9334560223778786,0.2879432,0.6584130318134774
0.0265,1.78244375,1.0,2613.6181136177706,0.2582862289905291,1.3268814613847124,0.9353822074143284,0.2879156375,0.6592745861064884
0.027,1.781775,1.0,2625.294800332759,0.26244665571527465,1.326471102049308,0.9372155807538309,0.28788755,0.6601295265520098
0.0275,1.7810937500000001,1.0,2636.1499145587754,0.2665837445224359,1.3260629364923162,0.9389619954473968,0.2878589375,0.6609788311416065
0.028,1.7804,1.0,2646.224991110465,0.2706976270203185,1.3256565329054046,0.9406268539577862,0.2878298,0.6618234138266298
0.0285,1.77969375,1.0,2655.5742388491426,0.2747884379116017,1.3252513494682423,0.9422151300431242,0.2878001375,0.6626644122101
0.029,1.778975,1.0,2664.2286822016745,0.27885630414487683,1.3248470645178465,0.9437314497127502,0.28776995,0.663502502149675
0.029500000000000002,1.7782437500000001,1.0,2672.219867295155,0.28290135266873545,1.3244433563912348,0.9451800940520956,0.2877392375,0.6643383561657852
0.03,1.7775,1.0,2679.5798164360676,0.286923710431769,1.3240399034254249,0.9465650293517526,0.287708,0.6651726434567644
0.0305,1.77674375,1.0,2686.340984884024,0.2909235043825691,1.323636383957434,0.9478899342471875,0.2876762375,0.6660060299073862
0.031,1.775975,1.0,2692.5362199189303,0.29490086146972705,1.32323247632428,0.949158224198164,0.28764395,0.6668391780907965
0.0315,1.7751937500000001,1.0,2698.1987222023176,0.29885590864183453,1.32282785886298,0.9503730735974871,0.2876111375,0.6676727472638515
0.032,1.7744,1.0,2703.355029119601,0.30278876931816107,1.3224222736649958,0.9515374424608699,0.2875778,0.668507262259868
0.0325,1.77359375,1.0,2708.0375030416144,0.306699571721981,1.3220154120270573,0.9526540826613615,0.2875439375,0.6693433495441471
0.033,1.772775,1.0,2712.2741088138964,0.31058844072749375,1.3216070076256603,0.9537255633548473,0.28750955,0.6701815454275143
0.0335,1.7719437500000002,1.0,2716.0860882931916,0.31445549720465216,1.3211968572947417,0.9547542877281473,0.2874746375,0.6710222540305528
0.034,1.7711000000000001,1.0,2719.494850676527,0.31830086202340885,1.3207847578682381,0.9557425000061828,0.2874392,0.6718658772940557
0.0345,1.7702437500000001,1.0,2722.521955394845,0.3221246560537166,1.320370506180087,0.9566922978406528,0.2874032375,0.6727128149550856
0.035,1.7693750000000001,1.0,2725.18909592156,0.32592700016552806,1.3199538990642252,0.9576056435948981,0.28736675,0.6735634645204068
0.035500000000000004,1.76849375,1.0,2727.5180844965807,0.32970801522879606,1.3195347333545893,0.9584843746348352,0.2873297375,0.6744182212372818
0.036000000000000004,1.7676,1.0,2729.5308377650595,0.3334678221134732,1.3191128058851167,0.9593302127238366,0.2872922,0.6752774780616322
0.0365,1.76669375,1.0,2731.2356173183985,0.3372065318705881,1.318688038395947,0.9601447830490101,0.2872541375,0.6761413717581105
0.037,1.765775,1.0,2732.6660431430064,0.3409242764464744,1.3182601228441446,0.9609295926841686,0.28721555,0.6770105044873405
0.0375,1.76484375,1.0,2733.837956151601,0.34462117274608356,1.3178289133953567,0.9616860698838856,0.2871764375,0.677885146077573
0.038,1.7639,1.0,2734.763708768654,0.34829733489342946,1.3173942963669083,0.962415559740994,0.28713679999999997,0.6787654994698826
0.0385,1.76294375,1.0,2735.455696353981,0.351952877012526,1.3169561580761255,0.9631193276004644,0.28709663750000003,0.6796517661276216
0.039,1.761975,1.0,2735.9263517059835,0.3555879132273871,1.3165143848403336,0.9637985646513243,0.28705595,0.680544146011305
0.0395,1.7609937500000001,1.0,2736.1881398518594,0.3592025576620266,1.3160688629768578,0.9644543930684227,0.2870147375,0.6814428375526669
0.04,1.76,1.0,2736.2535531237936,0.3627969244404584,1.315619478803024,0.9650878707447054,0.286973,0.6823480376278939
0.0405,1.7589937500000001,1.0,2736.135106522149,0.36637112768669644,1.3151661186361576,0.9656999956506161,0.2869307375,0.6832599415300364
0.041,1.757975,1.0,2735.845333365059,0.3699252815247545,1.3147086687935843,0.9662917098536281,0.28688795,0.6841787429405933
0.0415,1.75694375,1.0,2735.3967812243422,0.37345950007864664,1.3142470155926294,0.9668639032276749,0.2868446375,0.6851046339002735
0.042,1.7559,1.0,2734.794491101777,0.376973889934287,1.3137811136115127,0.9674174213414236,0.28680079999999997,0.6860376681783129
0.0425,1.75484375,1.0,2734.0541176026036,0.3804685697627291,1.313310821135476,0.9679530579551152,0.2867564375,0.6869780910695591
0.043000000000000003,1.753775,1.0,2733.1880096045684,0.3839436528526783,1.3128360265032006,0.9684715658253708,0.28671155,0.6879260858472218
0.043500000000000004,1.75269375,1.0,2732.2028882276077,0.3873992463511991,1.3123566691957946,0.9689736609022475,0.28666613750000003,0.6888817321712657
0.044,1.7516,1.0,2731.1054778807925,0.390835457405356,1.3118726886943657,0.9694600215502134,0.2866202,0.6898451085667963
0.0445,1.75049375,1.0,2729.902504851077,0.3942523931622136,1.3113840244800214,0.9699312908893064,0.2865737375,0.690816292406331
0.045,1.7493750000000001,1.0,2728.600695972307,0.3976501607688363,1.3108906160338694,0.9703880789682474,0.28652675,0.6917953598918406
0.0455,1.74824375,1.0,2727.2067773755525,0.4010288673722887,1.3103924028370175,0.9708309647831019,0.2864792375,0.6927823860365518
0.046,1.7471,1.0,2725.7274733212753,0.4043886201196353,1.3098893243705734,0.9712604981538541,0.2864312,0.6937774446465228
0.0465,1.7459437500000001,1.0,2724.1695051121096,0.4077295261579405,1.3093813201156448,0.9716772014701689,0.28638263750000004,0.6947806083019801
0.047,1.744775,1.0,2722.53959008668,0.41105169263426894,1.3088683295533392,0.9720815713166208,0.28633355,0.6957919483384243
0.0475,1.74359375,1.0,2720.8401555837404,0.41435521797935065,1.3083503311767333,0.9724740816501148,0.28628393750000003,0.6968114581096905
0.048,1.7424,1.0,2719.077836115956,0.4176402102180523,1.3078272651623415,0.9728551820060551,0.2862338,0.6978392054294436
0.0485,1.74119375,1.0,2717.2638703043017,0.4209067862332747,1.3072990296870581,0.9732252985181841,0.2861831375,0.6988753391370937
0.049,1.739975,1.0,2715.401281454881,0.4241550457756505,1.306765597675344,0.9735848400984118,0.28613195,0.6999198599581917
0.0495,1.73874375,1.0,2713.4930901929815,0.4273850885958124,1.3062269420516606,0.9739341964317615,0.2860802375,0.7009727677349775
0.05,1.7375,1.0,2711.5423142018603,0.4305970144443931,1.3056830357404683,0.9742737390513609,0.286028,0.7020340614173839
0.0505,1.73624375,1.0,2709.551967977415,0.4337909230720251,1.3051338516662283,0.9746038223439909,0.2859752375,0.7031037390539929
0.051000000000000004,1.734975,1.0,2707.52506259997,0.4369669142293412,1.3045793627534017,0.9749247844912562,0.28592195,0.7041817977829457
0.051500000000000004,1.73369375,1.0,2705.4646055216494,0.440125087666974,1.3040195419264495,0.9752369483510365,0.2858681375,0.7052682338228056
0.052000000000000005,1.7324,1.0,2703.373600370113,0.44326554313555616,1.3034543621098325,0.9755406222834964,0.2858138,0.706363042463376
0.0525,1.73109375,1.0,2701.255046768766,0.4463883803857203,1.3028837962280118,0.9758361009255984,0.28575893750000003,0.7074662180564677
0.053,1.729775,1.0,2699.1119401730675,0.4494936991680992,1.302307817205448,0.9761236659177444,0.28570355000000003,0.7085777540066243
0.0535,1.72844375,1.0,2696.947271723082,0.4525815992333255,1.3017263979666027,0.9764035865858943,0.2856476375,0.7096976427617963
0.054,1.7271,1.0,2694.7640281124586,0.4556521803320318,1.3011395114359368,0.9766761205822442,0.2855912,0.710825875803971
0.0545,1.725748947744306,1.0,2692.820267159215,0.458705540172292,1.3005471435720557,0.9769415150745686,0.2855344558052608,0.7119624186564992
0.055,1.7243978470253203,1.0,2691.4281512615175,0.4617417743083062,1.2999497103974156,0.9772000321936403,0.28547770957506347,0.7131064133689622
0.0555,1.7230467463063348,1.0,2690.548018694932,0.4647609780483745,1.299347592994548,0.9774519209352647,0.28542096334486605,0.7142570745164876
0.056,1.7216956455873493,1.0,2690.142785945034,0.4677632461490453,1.2987411285957666,0.9776974172874693,0.28536421711466864,0.7154137056292336
0.0565,1.7203445448683639,1.0,2690.175513034483,0.4707486733668668,1.2981306544333853,0.9779367474849129,0.2853074708844713,0.716575615073729
0.057,1.7189934441493782,1.0,2690.609372281228,0.4737173544583874,1.297516507739718,0.9781701285011675,0.28525072465427387,0.7177421161427371
0.0575,1.7176423434303927,1.0,2691.411402255402,0.47666938321868646,1.296898991121529,0.9783977664610801,0.28519397842407646,0.7189125927009512
0.058,1.7162912427114072,1.0,2692.5475942470944,0.47960485437283523,1.2962784173242685,0.9786198598615068,0.2851372321938791,0.720086413991794
0.0585,1.7149401419924217,1.0,2693.9923491038503,0.4825238603347659,1.2956550224971857,0.9788365948358408,0.28508048596368174,0.7212630984444791
0.059000000000000004,1.713589041273436,1.0,2695.722908313535,0.4854264927066598,1.2950290170669783,0.97904814868887,0.2850237397334843,0.7224422164811628
0.059500000000000004,1.7122379405544506,1.0,2697.7165316858955,0.4883128430906981,1.2944006114603444,0.9792546917949299,0.2849669935032869,0.7236233417467327
0.06,1.710886839835465,1.0,2699.9504856638855,0.4911830030890621,1.293770016103982,0.9794563879285174,0.28491024727308956,0.7248060511424304
0.0605,1.7095357391164796,1.0,2702.4043651455418,0.4940370633987891,1.2931374201167491,0.9796533933599604,0.28485350104289214,0.7259899646916343
0.061,1.7081846383974941,1.0,2705.0572217453287,0.49687511557444725,1.292503017493769,0.9798458587397906,0.28479675481269473,0.727174696291581
0.0615,1.7068335376785084,1.0,2707.893243627861,0.49969724900384327,1.2918669551876092,0.9800339263845672,0.2847400085824974,0.728359950476767
0.062,1.705482436959523,1.0,2710.89849316952,0.5025035522397977,1.2912293629262952,0.9802177323203971,0.28468326235229996,0.729545466101863
0.0625,1.7041313362405375,1.0,2714.0590176893284,0.5052941138351309,1.290590370437853,0.980397407525398,0.28462651612210255,0.7307309840841563
0.063,1.7027802355215518,1.0,2717.3608452351214,0.5080690223426635,1.2899501074503084,0.9805730781581604,0.2845697698919052,0.7319162474156717
0.0635,1.7014291348025663,1.0,2720.7966701026808,0.5108283608152224,1.2893086427907174,0.9807448622637177,0.2845130236617078,0.733101113541432
0.064,1.7000780340835808,1.0,2724.3466642771073,0.5135722236472097,1.2886661591337305,0.9809128801947571,0.28445627743151036,0.7342852314125631
0.0645,1.6987269333645953,1.0,2727.9979779136734,0.5163007000970173,1.2880227753026305,0.9810772444161331,0.284399531201313,0.7354683702390638
0.065,1.6973758326456097,1.0,2731.743955655221,0.519013874272073,1.2873785535738422,0.9812380602102108,0.2843427849711156,0.7366504048016782
0.0655,1.6960247319266242,1.0,2735.5779282499702,0.5217118302798043,1.2867335562237914,0.9813954291374408,0.2842860387409182,0.7378312108904908
0.066,1.6946736312076387,1.0,2739.4932114376147,0.5243946522276388,1.2860878455289033,0.9815494491962864,0.2842292925107208,0.7390106653081325
0.0665,1.6933225304886532,1.0,2743.4831049211944,0.5270624242230041,1.2854414837656032,0.9817002149751949,0.28417254628052346,0.7401886458727389
0.067,1.6919714297696675,1.0,2747.5408914251366,0.5297152303733278,1.2847945332103168,0.9818478177970663,0.28411580005032605,0.7413650314206561
0.0675,1.690620329050682,1.0,2751.6598358396072,0.5323531547860375,1.2841470561394692,0.9819923458566339,0.28405905382012864,0.7425397018089073
0.068,1.6892692283316966,1.0,2755.833184450226,0.5349762815685609,1.283499114829486,0.9821338843511579,0.2840023075899313,0.7437125379174039
0.0685,1.687918127612711,1.0,2760.054164254036,0.5375846948283255,1.2828507715567925,0.9822725156047954,0.28394556135973387,0.7448834216509157
0.069,1.6865670268937254,1.0,2764.318817733895,0.540178472824217,1.282202062988172,0.9824083176136331,0.28388881512953645,0.7460522820319508
0.0695,1.68521592617474,1.0,2768.6229296960673,0.5427576979501726,1.2815530280114666,0.9825413661473067,0.2838320688993391,0.7472190446988975
0.07,1.6838648254557544,1.0,2772.957298120688,0.5453224637432518,1.2809037503723355,0.9826717372415013,0.2837753226691417,0.7483835555700147
0.07050000000000001,1.682513724736769,1.0,2777.3195962982704,0.5478728484858655,1.2802542516055528,0.9827995006480479,0.28371857643894427,0.7495457731409805
0.07100000000000001,1.6811626240177833,1.0,2781.7074903562702,0.5504089304604246,1.2796045532458937,0.9829247238505933,0.2836618302087469,0.7507056562632787
0.07150000000000001,1.6798115232987978,1.0,2786.118639158776,0.5529307879493404,1.2789546768281326,0.9830474721541999,0.2836050839785495,0.7518631641444902
0.07200000000000001,1.6784604225798123,1.0,2790.550694216419,0.5554384992350233,1.278304643887044,0.9831678087708404,0.2835483377483521,0.7530182563485511
0.0725,1.6771093218608268,1.0,2795.0012996067003,0.5579321425998847,1.2776544759574024,0.9832857949009993,0.28349159151815473,0.7541708927959829
0.073,1.6757582211418414,1.0,2799.4680919037332,0.5604117963263353,1.2770041945739825,0.9834014898115833,0.2834348452879573,0.755321033764092
