Time [s],Phi [rad],STIM [ ],Fsee [N],Gamma [ ],Lcerel [ ],q [ ],Lmtc [m],fisomrel [ ]
0.0,1.8,1.0,17.967601864402006,2.803143235242978e-05,1.3793396965111453,0.005000207722758773,0.288653,0.5411396513100517
0.0005,1.79999375,1.0,18.28298041277029,0.005637083506985717,1.3793016951207455,0.012990649091920468,0.2886527375,0.5412315818830644
0.001,1.799975,1.0,21.638026367011882,0.011214673234312906,1.378936296141192,0.035702599421043785,0.28865195,0.5421150620752389
0.0015,1.79994375,1.0,31.117341692603965,0.016760977094105296,1.378042106874731,0.07073037441257587,0.2886506375,0.5442734867018955
0.002,1.7999,1.0,53.68723019786011,0.022276170574451155,1.3763613333788713,0.11487020258569856,0.2886488,0.548316794442851
0.0025,1.79984375,1.0,97.29599022578726,0.027760428179450118,1.373926639403242,0.16474042631411798,0.28864643749999996,0.5541417995682332
0.003,1.7997750000000001,1.0,161.18917517085174,0.033213923436759565,1.3712056999941653,0.2174512234066036,0.28864354999999997,0.560606914195924
0.0035,1.79969375,1.0,237.94468994423966,0.03863682889731964,1.3685766859149124,0.27078273699515754,0.2886401375,0.5668087582907525
0.004,1.7996,1.0,321.7450545750097,0.044029316146100825,1.3661487233305973,0.3230802615511162,0.2886362,0.5724971696536151
0.0045000000000000005,1.7994937500000001,1.0,409.5560892971649,0.04939155580729828,1.3639160469544547,0.3731906236253254,0.2886317375,0.5776948685237345
0.005,1.799375,1.0,499.7078173484309,0.05472371753545695,1.3618520891373092,0.42039351980209705,0.28862675,0.5824715101625155
0.0055,1.79924375,1.0,591.0874812043693,0.06002597006223537,1.359933031855939,0.46430892639895865,0.2886212375,0.5868884329687231
0.006,1.7991000000000001,1.0,682.815642135281,0.06529848114136082,1.3581410069640394,0.5048042359565971,0.2886152,0.5909917701874486
0.006500000000000001,1.79894375,1.0,774.1623512273384,0.07054141738967151,1.3564624556047347,0.5419145483652446,0.2886086375,0.5948167019905695
0.007,1.798775,1.0,864.5878939256517,0.07575494541724714,1.3548855158187416,0.5757802347779072,0.28860155,0.5983937202234239
0.0075,1.79859375,1.0,953.5460174096247,0.08093922945047233,1.3534021221532733,0.6066039537680085,0.2885939375,0.6017440690611062
0.008,1.7984,1.0,1040.6423186239706,0.08609443352960944,1.352004467303675,0.6346176146952248,0.2885858,0.6048879304791325
0.0085,1.79819375,1.0,1125.5983899850269,0.09122072114261373,1.3506852190565957,0.6600621009096198,0.2885771375,0.6078439959669245
0.009000000000000001,1.797975,1.0,1208.1585137881232,0.09631825433901195,1.349438505423103,0.6831749114331348,0.28856795,0.6106273307642474
0.0095,1.79774375,1.0,1288.1204813028012,0.10138719367668066,1.3482591032408482,0.7041819520516853,0.2885582375,0.6132512659753835
0.01,1.7975,1.0,1365.4090048940377,0.10642770139544695,1.347141275633152,0.7232927922443321,0.288548,0.6157300215299362
0.0105,1.79724375,1.0,1439.915571024741,0.11143993613624029,1.346080741594452,0.7406999176350832,0.2885372375,0.6180743631933487
0.011,1.796975,1.0,1511.5670934000739,0.11642405564874844,1.3450735624587107,0.7565777702579609,0.28852595000000003,0.6202941214670099
0.0115,1.79669375,1.0,1580.3456460200405,0.12138021768265932,1.3441157995598907,0.7710831574951876,0.2885141375,0.622398968409621
0.012,1.7964,1.0,1646.2727890534054,0.12630857966072792,1.3432036393932145,0.7843564023385117,0.28850180000000003,0.6243981565920038
0.0125,1.79609375,1.0,1709.3789251089058,0.13120929787676763,1.34233368066589,0.7965227922661644,0.2884889375,0.6262999077861747
0.013000000000000001,1.7957750000000001,1.0,1769.6937219809029,0.13608252687758157,1.341502959845407,0.8076939789910723,0.28847555,0.6281113788801862
0.0135,1.79544375,1.0,1827.2653135317032,0.14092842069811995,1.3407086644014725,0.81796924958071,0.2884616375,0.6298393048525663
0.014,1.7951000000000001,1.0,1882.1581687852317,0.1457471326041394,1.3399481138193123,0.8274368546314089,0.2884472,0.6314900507356246
0.0145,1.79474375,1.0,1934.454502282858,0.15053881615967488,1.3392187080062907,0.8361752303217511,0.2884322375,0.6330697325846393
0.015,1.794375,1.0,1984.2146289203492,0.155303622008948,1.3385183207552118,0.844254257671318,0.28841675,0.6345833753605598
0.0155,1.79399375,1.0,2031.5148336703196,0.1600417006217172,1.3378448514151482,0.8517361090662569,0.2884007375,0.6360358940442489
0.016,1.7936,1.0,2076.4401052376415,0.16475320177755978,1.337196282719674,0.858676175820651,0.2883842,0.6374319735970464
0.0165,1.7931937500000001,1.0,2119.0854190837777,0.16943827571991232,1.3365706481925717,0.8651238620336634,0.2883671375,0.638776144053674
0.017,1.792775,1.0,2159.5365321039976,0.17409707113654632,1.335966212514753,0.8711233435280638,0.28834955,0.6400723981138134
0.0175,1.7923437500000001,1.0,2197.862440056113,0.17872973414114254,1.3353815256040231,0.8767141957776295,0.2883314375,0.6413240825367283
0.018000000000000002,1.7919,1.0,2234.1416104101695,0.18333641084738184,1.3348151373781876,0.8819318554350063,0.2883128,0.6425345146123258
0.0185,1.79144375,1.0,2268.4611892309354,0.18791724736894497,1.3342655977550515,0.8868081037166328,0.2882936375,0.6437069839204659
0.019,1.790975,1.0,2300.902726528339,0.19247238828515673,1.3337315905818805,0.8913715222248968,0.28827395,0.6448444689020667
0.0195,1.79049375,1.0,2331.5614267173332,0.19700197998213587,1.3332117330098288,0.8956478123064574,0.2882537375,0.6459500669151359
0.02,1.79,1.0,2360.508110920463,0.20150616502816535,1.3327049434835105,0.8996602048136577,0.288233,0.6470262135893944
0.0205,1.78949375,1.0,2387.8088948524373,0.2059850847387717,1.3322102361644543,0.903429689289134,0.2882117375,0.6480751243225685
0.021,1.788975,1.0,2413.534390486314,0.21043888042948153,1.3317266252141886,0.906975241559478,0.28818995000000003,0.6490989991199148
0.021500000000000002,1.78844375,1.0,2437.75932935064,0.21486769341582151,1.3312531247942418,0.9103140445532097,0.2881676375,0.6501000233228649
0.022,1.7879,1.0,2460.552863769825,0.2192716632756383,1.3307888385171245,0.9134616997709842,0.2881448,0.6510801795678947
0.0225,1.78734375,1.0,2481.991844681172,0.2236509318277417,1.330332827764822,0.91643237184746,0.28812143749999997,0.6520415271074502
0.023,1.786775,1.0,2502.1383427910323,0.2280056375759658,1.3298843232271462,0.919238978009759,0.28809755,0.6529857566612491
0.0235,1.78619375,1.0,2521.045916412945,0.23233591675810378,1.3294426597879148,0.9218933050921758,0.28807313749999996,0.6539143300760978
0.024,1.7856,1.0,2538.7702554959596,0.23664190561194867,1.3290071723309462,0.9244061072015383,0.2880482,0.6548287007487088
0.0245,1.78499375,1.0,2555.3690023985646,0.24092374037529363,1.3285771957400587,0.9267872104259148,0.2880227375,0.6557303139017829
0.025,1.784375,1.0,2570.901582470622,0.2451815572859318,1.3281520648990703,0.9290456056582439,0.28799675,0.6566206068318761
0.025500000000000002,1.78374375,1.0,2585.4169554160885,0.24941548917961318,1.32773122759674,0.9311895483078054,0.2879702375,0.6575007731439219
0.026000000000000002,1.7831000000000001,1.0,2598.9801025406928,0.25362567491372967,1.3273139949255985,0.9332265930172604,0.2879432,0.6583722854778229
0.0265,1.78244375,1.0,2611.634132225503,0.25781224661916335,1.326899893974073,0.9351637118066591,0.2879156375,0.6592361585450887
0.027,1.781775,1.0,2623.4185263313925,0.2619753350035949,1.3264884949579998,0.9370073238638995,0.28788755,0.6600933120537632
0.0275,1.7810937500000001,1.0,2634.3736633922267,0.2661150707747046,1.3260793680932152,0.9387633411404417,0.2878589375,0.6609446610456934
0.028,1.7804,1.0,2644.540741123316,0.2702315846401731,1.325672083595556,0.9404372151402831,0.2878298,0.6617911159646976
0.0285,1.77969375,1.0,2653.961703025529,0.2743250073076808,1.3252662116808587,0.9420339788264609,0.2878001375,0.6626335827129555
0.029,1.778975,1.0,2662.6790716170094,0.2783954694240732,1.3248613234619515,0.9435582843104724,0.28776995,0.6634729608372109
0.029500000000000002,1.7782437500000001,1.0,2670.727444635021,0.28244309589330746,1.3244570684848271,0.9450144451481135,0.2877392375,0.664309983132118
0.03,1.7775,1.0,2678.1553348854873,0.2864680231666134,1.3240529732147706,0.9464064449533041,0.287708,0.665145633133505
0.0305,1.77674375,1.0,2684.9896531114564,0.29047037593836345,1.3236487668876096,0.9477380006532014,0.2876762375,0.6659804709570465
0.031,1.775975,1.0,2691.257671071575,0.29445027890292974,1.323244178739172,0.9490125627749894,0.28764395,0.6668150539261424
0.0315,1.7751937500000001,1.0,2696.9869891304365,0.2984078567546846,1.3228389380052856,0.950233337860939,0.2876111375,0.6676499365676638
0.032,1.7744,1.0,2702.2055054740376,0.30234323418800035,1.3224327739217785,0.95140330873612,0.2875778,0.6684856706030207
0.0325,1.77359375,1.0,2706.9413869509563,0.3062565358972491,1.3220254157244784,0.952525252857602,0.2875439375,0.6693228049345563
0.033,1.772775,1.0,2711.223041538739,0.3101478865768032,1.321616592649213,0.953601758947335,0.28750955,0.6701618856272649
0.0335,1.7719437500000002,1.0,2715.0750820630706,0.31401740742592327,1.3212060704812782,0.9546352453127323,0.2874746375,0.6710033810139544
0.034,1.7711000000000001,1.0,2718.5203127631985,0.3178652189868059,1.3207936331246724,0.9556279719763145,0.2874392,0.6718477198554628
0.0345,1.7702437500000001,1.0,2721.5943780200646,0.3216914553228699,1.320378949025275,0.9565820419614013,0.2874032375,0.672695564481697
0.035,1.7693750000000001,1.0,2724.3138274490057,0.32549623406278244,1.3199618618534057,0.9574994372416826,0.28736675,0.6735472160692033
0.035500000000000004,1.76849375,1.0,2726.6953171934592,0.3292796728352108,1.3195422152793839,0.9583820133435853,0.2873297375,0.6744029740253313
0.036000000000000004,1.7676,1.0,2728.755598958234,0.3330418892688224,1.3191198529735289,0.9592315088638471,0.2872922,0.6752631359634991
0.0365,1.76669375,1.0,2730.511509585388,0.3367830009922844,1.3186946186061597,0.9600495541669394,0.2872541375,0.6761279976768955
0.037,1.765775,1.0,2731.9799611711355,0.34050312563426427,1.3182663558475958,0.960837679341424,0.28721555,0.6769978531106235
0.0375,1.76484375,1.0,2733.177931725287,0.34420238082342924,1.3178349083681566,0.961597321485948,0.2871764375,0.6778729943322879
0.038,1.7639,1.0,2734.12245637215,0.34788088418844665,1.3174001198381615,0.962329831388148,0.28713679999999997,0.6787537115010227
0.0385,1.76294375,1.0,2734.8306190937665,0.35153875335798374,1.3169618339279296,0.9630364796531649,0.28709663750000003,0.6796402928349603
0.039,1.761975,1.0,2735.319545013853,0.35517610596070787,1.3165198943077803,0.9637184623326284,0.28705595,0.6805330245771417
0.0395,1.7609937500000001,1.0,2735.5924659891416,0.3587930493510973,1.3160742711001383,0.9643769156662888,0.2870147375,0.6814319360603198
0.04,1.76,1.0,2735.6753465739152,0.36238971005625037,1.3156247282694282,0.9650128957941982,0.286973,0.6823374709976071
0.0405,1.7589937500000001,1.0,2735.581334787759,0.36596620195725943,1.3151711463594729,0.9656274069399349,0.2869307375,0.683249835785892
0.041,1.757975,1.0,2735.319248157025,0.36952263534865065,1.3147134453903215,0.9662213998014059,0.28688795,0.6841691559009984
0.0415,1.75694375,1.0,2734.897918566615,0.37305912052495055,1.3142515453820245,0.966795772345325,0.2868446375,0.6850955555644433
0.042,1.7559,1.0,2734.3261896248505,0.37657576778068536,1.313785366354631,0.9673513732728714,0.28680079999999997,0.6860291577222257
0.0425,1.75484375,1.0,2733.6129141701476,0.3800726874103814,1.313314828328191,0.9678890052232912,0.2867564375,0.6869700840232021
0.043000000000000003,1.753775,1.0,2732.766951918825,0.38354998970856513,1.312839851322754,0.9684094277377349,0.28671155,0.6879184547970574
0.043500000000000004,1.75269375,1.0,2731.7971672559815,0.38700778496976285,1.31236035535837,0.9689133600035166,0.28666613750000003,0.6888743890318648
0.044,1.7516,1.0,2730.7124271668645,0.3904461834885008,1.3118762604550884,0.9694014833971009,0.2866202,0.6898380043512431
0.0445,1.75049375,1.0,2729.5215993113998,0.3938652955593055,1.3113874866329593,0.9698744438424441,0.2865737375,0.6908094169910988
0.045,1.7493750000000001,1.0,2728.2324944359143,0.39726522696232286,1.310893963511114,0.970332854083896,0.28652675,0.6917887227434631
0.0455,1.74824375,1.0,2726.852223136757,0.4006460860238978,1.3103956270605401,0.9707772964917918,0.2864792375,0.6927760035130552
0.046,1.7471,1.0,2725.3884069395967,0.404007987777855,1.3098924085838384,0.9712083246284161,0.2864312,0.6937713491776383
0.0465,1.7459437500000001,1.0,2723.8461063538775,0.40735103564186337,1.3093842626500698,0.9716264645122047,0.28638263750000004,0.6947748023739562
0.047,1.744775,1.0,2722.230379810788,0.4106753330335914,1.3088711438282963,0.9720322161633633,0.28633355,0.6957864046881375
0.0475,1.74359375,1.0,2720.546282963872,0.4139809833707079,1.308353006687579,0.9724260551302992,0.28628393750000003,0.6968061966413579
0.048,1.7424,1.0,2718.7988680337016,0.41726809007088134,1.3078298057969795,0.972808433912612,0.2862338,0.6978342176753631
0.0485,1.74119375,1.0,2716.99318320037,0.4205367565517806,1.3073014957255593,0.9731797832885491,0.2861831375,0.6988705061378637
0.049,1.739975,1.0,2715.1342720399466,0.4237870862310742,1.30676803104238,0.9735405135541687,0.28613195,0.6999150992677979
0.0495,1.73874375,1.0,2713.2271730079715,0.42701918252643095,1.3062293663165025,0.973891015680832,0.2860802375,0.7009680331804633
0.05,1.7375,1.0,2711.2769189680557,0.4302331488555194,1.3056854561169888,0.9742316623971095,0.286028,0.7020293428525144
0.0505,1.73624375,1.0,2709.2885367662716,0.43342908863600826,1.3051362550129002,0.974562809200668,0.2859752375,0.7030990621068315
0.051000000000000004,1.734975,1.0,2707.2564117857464,0.43660706751131967,1.3045818146382508,0.9748847974395537,0.28592195,0.7041770350499688
0.051500000000000004,1.73369375,1.0,2705.1965124896806,0.43976723556141045,1.3040219896520802,0.9751979495984081,0.2858681375,0.705263487908133
0.052000000000000005,1.7324,1.0,2703.112099367461,0.44290969335622277,1.3034567505711119,0.9755025755902734,0.2858138,0.7063584200663967
0.0525,1.73109375,1.0,2701.0049267320705,0.44603453578920815,1.3028860816327308,0.9757989717893489,0.28575893750000003,0.7074618034221006
0.053,1.729775,1.0,2698.87674652904,0.4491418577538184,1.3023099670743221,0.9760874214994,0.28570355000000003,0.7085736090801094
0.0535,1.72844375,1.0,2696.7293082645074,0.45223175414350486,1.3017283911332709,0.9763681956397344,0.2856476375,0.7096938073473467
0.054,1.7271,1.0,2694.5643589379797,0.4553043198517194,1.3011413380469623,0.9766415533895245,0.2855912,0.7108223677273124
0.0545,1.7257437500000001,1.0,2692.3836429808234,0.45835964977191346,1.3005487920527816,0.9769077427933337,0.2855342375,0.7119592589145849
0.055,1.724375,1.0,2690.1889022004025,0.4613978387975387,1.2999507373881136,0.9771670013304927,0.28547675,0.7131044487893077
0.0555,1.72299375,1.0,2687.9818757296193,0.46441898182204683,1.2993471582903435,0.9774195564507617,0.2854187375,0.7142579044116583
0.056,1.7216,1.0,2685.764299981776,0.4674231737388893,1.2987380389968568,0.9776656260785428,0.2853602,0.7154195920163025
0.0565,1.72019375,1.0,2683.5379086114913,0.47041050944151785,1.298123363745038,0.9779054190877301,0.28530113749999997,0.716589477006836
0.057,1.718775,1.0,2681.304432480644,0.47338108382338406,1.2975031167722726,0.9781391357491296,0.28524155,0.7177675239502026
0.0575,1.71734375,1.0,2679.0655996295623,0.4763349917779396,1.2968772823159456,0.9783669681522486,0.2851814375,0.7189536965711045
0.058,1.7159,1.0,2676.823135254694,0.47927232819863597,1.2962458446134422,0.9785891006031125,0.2851208,0.7201479577463912
0.0585,1.71444375,1.0,2674.578761690916,0.4821931879789248,1.2956087879021472,0.9788057099996539,0.2850596375,0.7213502694994368
0.059000000000000004,1.7129750000000001,1.0,2672.3341983995383,0.4850976660122578,1.2949660964194463,0.9790169661861042,0.28499795,0.722560592994496
0.059500000000000004,1.71149375,1.0,2670.0911619622148,0.48798585719208654,1.294317754402724,0.9792230322877208,0.2849357375,0.7237788885310518
0.06,1.71,1.0,2667.849729028118,0.4908578158754504,1.2936637611404929,0.9794240625287864,0.284873,0.7250050873495522
0.0605,1.7084937500000001,1.0,2665.6142208425053,0.49371368291004125,1.2930040768786815,0.9796202100674171,0.2848097375,0.7262391930244634
0.061,1.7069750000000001,1.0,2663.3850288671733,0.4965535449934577,1.292338697957482,0.979811619686031,0.28474595,0.7274811405501407
0.0615,1.7054437500000001,1.0,2661.1624917339204,0.499377487880151,1.2916676211974303,0.9799984305819597,0.2846816375,0.7287308633451286
0.062,1.7039,1.0,2658.946947516041,0.5021855973245722,1.2909908434190616,0.9801807766711752,0.2846168,0.729988294152625
0.0625,1.70234375,1.0,2656.7387337310797,0.5049779590811727,1.290308361442912,0.980358786826709,0.2845514375,0.7312533650393225
0.063,1.7007750000000001,1.0,2654.538187345598,0.5077546589044034,1.2896201720895173,0.9805325851045712,0.28448555,0.7325260073942551
0.0635,1.69919375,1.0,2652.345644779476,0.5105157825487159,1.2889262721794128,0.9807022909579234,0.28441913750000003,0.73380615192764
0.064,1.6976,1.0,2650.1614419097014,0.513261415768561,1.2882266585331346,0.9808680194401855,0.2843522,0.7350937286697189
0.0645,1.69599375,1.0,2647.9859140760605,0.5159916443183901,1.2875213279712179,0.9810298813977377,0.2842847375,0.7363886669696026
0.065,1.694375,1.0,2645.819396085339,0.5187065539526543,1.286810277314199,0.9811879836528115,0.28421675,0.7376908954941082
0.0655,1.69274375,1.0,2643.6622222167243,0.5214062304258048,1.2860935033826129,0.9813424291771425,0.2841482375,0.7390003422266036
0.066,1.6911,1.0,2641.5147262272894,0.5240907594922929,1.285371002996996,0.9814933172569131,0.2840792,0.7403169344658433
0.0665,1.6894437500000001,1.0,2639.3772413577785,0.5267602269065698,1.2846427729778835,0.9816407436494794,0.2840096375,0.741640598824812
0.067,1.687775,1.0,2637.2501003377693,0.5294147184230865,1.2839088101458114,0.9817848007323475,0.28393955,0.7429712612295588
0.0675,1.68609375,1.0,2635.1336353925794,0.5320543197962944,1.283169111321315,0.9819255776448357,0.2838689375,0.7443088469180379
0.068,1.6844000000000001,1.0,2633.028178248976,0.5346791167806445,1.2824236733249306,0.982063160422826,0.2837978,0.7456532804389442
0.0685,1.68269375,1.0,2630.934060141949,0.5372891951305881,1.2816724929771932,0.9821976321269934,0.2837261375,0.7470044856505518
0.069,1.680975,1.0,2628.854302806718,0.5398845807257814,1.2809155421747642,0.9823290679555112,0.28365395,0.7483624303719971
0.0695,1.67924375,1.0,2626.787225470183,0.5424654276239954,1.2801528363423473,0.9824575507325093,0.28358123749999997,0.7497270034736542
0.07,1.6775,1.0,2624.7324816371793,0.5450318188027249,1.2793843785619832,0.9825831554030647,0.283508,0.7510981154832095
0.07050000000000001,1.67574375,1.0,2622.689944295231,0.5475838307567066,1.2786101698860222,0.9827059538983316,0.2834342375,0.7524756799619958
0.07100000000000001,1.673975,1.0,2620.6594866832584,0.5501215399806777,1.277830211366815,0.9828260157512243,0.28335995,0.7538596098592822
0.07150000000000001,1.67219375,1.0,2618.640982289414,0.5526450229693751,1.2770445040567122,0.9829434081909586,0.2832851375,0.7552498175126606
0.07200000000000001,1.6704,1.0,2616.6343048487465,0.5551543562175358,1.2762530490080644,0.9830581962332525,0.2832098,0.7566462146484312
0.0725,1.66859375,1.0,2614.639328340282,0.5576496162198967,1.275455847273222,0.983170442766405,0.2831339375,0.7580487123819878
0.073,1.6667750000000001,1.0,2612.655926985287,0.5601308794711951,1.2746528999045355,0.9832802086334748,0.28305755,0.7594572212182055
0.0735,1.66494375,1.0,2610.6839752443293,0.5625982224661678,1.2738442079543557,0.9833875527107521,0.2829806375,0.7608716510518226
0.074,1.6631,1.0,2608.723347815338,0.5650517216995516,1.2730297724750328,0.983492531982718,0.2829032,0.7622919111678311
0.0745,1.6612437500000001,1.0,2606.7739196310654,0.5674914536660839,1.2722095945189176,0.9835952016136715,0.2828252375,0.7637179102418574
0.075,1.659375,1.0,2604.835565857031,0.5699174948605014,1.2713836751383607,0.9836956150161851,0.28274675,0.7651495563405507
0.0755,1.65749375,1.0,2602.908161889136,0.5723299217775412,1.2705520153857124,0.9837938239165566,0.2826677375,0.7665867569219683
