Time [s],Phi [rad],STIM [ ],Fsee [N],Gamma [ ],Lcerel [ ],q [ ],Lmtc [m],fisomrel [ ]
0.0,1.8,1.0,20.246449706737966,0.0015426468957200504,1.3790920116437382,0.005608767823993179,0.288653,0.5417386693491832
0.0005,1.79999375,1.0,20.97876541403735,0.0071432031752854145,1.3790125877186117,0.017736063639259322,0.2886527375,0.5419306707616126
0.001,1.799975,1.0,25.472504690154878,0.012712344762484335,1.3785607959157198,0.044033755565875396,0.28865195,0.5430220784300279
0.0015,1.79994375,1.0,37.62469209810391,0.018250247868809525,1.3775144112472772,0.08184312155761474,0.2886506375,0.5455448638412679
0.002,1.7999,1.0,65.32894654609119,0.023757087717659244,1.3756438073125783,0.1278449200198979,0.2886488,0.5500374044250975
0.0025,1.79984375,1.0,114.88147087635032,0.02923303854878317,1.3731151537065973,0.1787376631547784,0.28864643749999996,0.5560748790641017
0.003,1.7997750000000001,1.0,182.85416294959398,0.03467827362591634,1.3704208803962188,0.2318136989380878,0.28864354999999997,0.5624629188982467
0.0035,1.79969375,1.0,261.7783321053204,0.04009296523859877,1.3678604572428406,0.2850127058836626,0.2886401375,0.5684907015213274
0.004,1.7996,1.0,346.7274524151833,0.0454772847094286,1.3654996846461491,0.3368196124151129,0.2886362,0.5740114174858595
0.0045000000000000005,1.7994937500000001,1.0,435.17811537304294,0.0508314024166453,1.3633239323598763,0.3862057057976356,0.2886317375,0.5790679852504976
0.005,1.799375,1.0,525.6592023249115,0.05615548774162338,1.3613077644566627,0.4325519089599248,0.28862675,0.5837267198447984
0.0055,1.79924375,1.0,617.1347994234948,0.061449709182366065,1.3594297431246827,0.475553656006434,0.2886212375,0.5880429201445301
0.006,1.7991000000000001,1.0,708.7627466595677,0.06671423417694183,1.3576738570044644,0.515130735296764,0.2886152,0.5920580740291772
0.006500000000000001,1.79894375,1.0,799.8741184973494,0.07194922942833658,1.356027202982932,0.5513518629009766,0.2886086375,0.5958055827045607
0.007,1.798775,1.0,889.8857120231004,0.07715486036671798,1.3544798921307681,0.5843784673419592,0.28860155,0.5993112438614764
0.0075,1.79859375,1.0,978.3549337471188,0.08233129198898972,1.353023045798945,0.6144230483185443,0.2885939375,0.6025979883126149
0.008,1.7984,1.0,1064.8957973586175,0.08747868787147954,1.3516494887915638,0.641721897803329,0.2885858,0.6056844293132394
0.0085,1.79819375,1.0,1149.2081044024658,0.09259721073613157,1.350352768757491,0.6665162979319487,0.2885771375,0.6085871729080359
0.009000000000000001,1.797975,1.0,1231.0854353077546,0.09768702304368622,1.3491267419017077,0.6890409556484794,0.28856795,0.6113218051310536
0.0095,1.79774375,1.0,1310.3504424374396,0.10274828550093064,1.3479662256646106,0.7095177809127174,0.2885582375,0.6139014853211905
0.01,1.7975,1.0,1386.8800164687068,0.10778115806720927,1.346866415870637,0.7281521367953708,0.288548,0.6163382957304158
0.0105,1.79724375,1.0,1460.6071047164855,0.11278580006548349,1.345822717841003,0.7451314224798223,0.2885372375,0.6186436474013459
0.011,1.796975,1.0,1531.5043347157757,0.11776237054039415,1.3448308379121374,0.760625091880448,0.28852595000000003,0.6208281033954504
0.0115,1.79669375,1.0,1599.536974716176,0.1227110261509112,1.3438872376520543,0.7747855853066172,0.2885141375,0.6229004074618607
0.012,1.7964,1.0,1664.7137627672303,0.12763192345753868,1.3429884062241002,0.7877491307412601,0.28850180000000003,0.6248691109561595
0.0125,1.79609375,1.0,1727.064425422902,0.13252521808620973,1.342131068009936,0.7996372044388985,0.2884889375,0.6267421310662643
0.013000000000000001,1.7957750000000001,1.0,1786.658427267881,0.13739106617564714,1.3413119096212578,0.810557837045278,0.28847555,0.6285273608121504
0.0135,1.79544375,1.0,1843.5293470166616,0.14222962062891598,1.3405283826968957,0.820607317432218,0.2884616375,0.6302309329650401
0.014,1.7951000000000001,1.0,1897.7316279713405,0.14704103409960986,1.3397779963876304,0.8298712005603094,0.2884472,0.6318587792436461
0.0145,1.79474375,1.0,1949.3419471327052,0.15182545912502501,1.339058274487481,0.8384255085064223,0.2884322375,0.633416729915727
0.015,1.794375,1.0,1998.4437707273073,0.15658304720577446,1.3383668965692792,0.8463378814927985,0.28841675,0.6349102146239627
0.0155,1.79399375,1.0,2045.1278290528742,0.16131395002102814,1.3377016638329389,0.8536685492856197,0.2884007375,0.6363443438917882
0.016,1.7936,1.0,2089.4582354708587,0.16601831603199774,1.3370608270511466,0.8604713027445214,0.2883842,0.6377232106747355
0.0165,1.7931937500000001,1.0,2131.5125287046617,0.17069629369989495,1.336442636996589,0.8667941168547747,0.2883671375,0.6390508673813184
0.017,1.792775,1.0,2171.38031833283,0.17534803146195946,1.3358453467180458,0.8726798404846127,0.28834955,0.6403313236219248
0.0175,1.7923437500000001,1.0,2209.1438670983844,0.17997367587764942,1.3352673968871145,0.8781668512895037,0.2883314375,0.6415681523741648
0.018000000000000002,1.7919,1.0,2244.910295840762,0.18457337590875272,1.334707075544498,0.8832894905672893,0.2883128,0.6427652218764339
0.0185,1.79144375,1.0,2278.744655390843,0.18914727543654955,1.334163181269325,0.8880787005469349,0.2882936375,0.643925281517743
0.019,1.790975,1.0,2310.7189575680504,0.19369551834232016,1.3336345126407239,0.8925622867984109,0.28827395,0.6450510585937075
0.0195,1.79049375,1.0,2340.911603236574,0.19821824850734468,1.3331198682378225,0.8967652771536958,0.2882537375,0.646145259519183
0.02,1.79,1.0,2369.404993817816,0.20271560950396514,1.3326180646740011,0.9007102401604613,0.288233,0.6472105326929911
0.0205,1.78949375,1.0,2396.2742121610036,0.20718774334787968,1.3321280409695289,0.9044175828415708,0.2882117375,0.6482492487300477
0.021,1.788975,1.0,2421.6054769318853,0.21163479412045433,1.3316486727218506,0.9079057506312767,0.28818995000000003,0.6492638963068713
0.021500000000000002,1.78844375,1.0,2445.4579328422406,0.21605690075896433,1.3311791367684014,0.911191514297828,0.2881676375,0.6502563117644659
0.022,1.7879,1.0,2467.8940522381913,0.2204542022006849,1.3307186099466166,0.9142900897194753,0.2881448,0.651228319626842
0.0225,1.78734375,1.0,2488.979360136673,0.2248268373828914,1.3302662690939313,0.9172153035496106,0.28812143749999997,0.6521817330955835
0.023,1.786775,1.0,2508.7821742849897,0.22917494524285897,1.3298212910477807,0.9199797392964064,0.28809755,0.6531183545011963
0.0235,1.78619375,1.0,2527.36265942958,0.23349866213531975,1.3293829537267015,0.9225948837163283,0.28807313749999996,0.6540397633745971
0.024,1.7856,1.0,2544.788682273462,0.23779812858126848,1.328950482977792,0.925071214474609,0.2880482,0.6549476395047109
0.0245,1.78499375,1.0,2561.112437028496,0.24207348005060506,1.3285232709546884,0.9274183357220962,0.2880227375,0.6558433049784197
0.025,1.784375,1.0,2576.3814953323626,0.24632485014434952,1.3281007684782529,0.9296450474514951,0.28799675,0.6567279519259563
0.025500000000000002,1.78374375,1.0,2590.6448646771046,0.2505523724635218,1.3276824263693474,0.9317594154113644,0.2879702375,0.6576027660991621
0.026000000000000002,1.7831000000000001,1.0,2603.9528656722273,0.25475618060914185,1.3272676954488345,0.9337688423279321,0.2879432,0.6584689270268143
0.0265,1.78244375,1.0,2616.3570159947126,0.2589364081822297,1.3268560265375757,0.9356801313493152,0.2879156375,0.6593276081507258
0.027,1.781775,1.0,2627.9008772238863,0.26309318648453367,1.3264469542351218,0.9374995545579272,0.28788755,0.6601798025210851
0.0275,1.7810937500000001,1.0,2638.6301799958464,0.26722664882787817,1.3260400015120954,0.9392328895682751,0.2878589375,0.6610265223660485
0.028,1.7804,1.0,2648.59887705544,0.2713369293623545,1.3256346232030845,0.9408854561706281,0.2878298,0.6618689163628355
0.0285,1.77969375,1.0,2657.839520502981,0.27542415575727563,1.3252304787317202,0.9424621942696171,0.2878001375,0.6627077031375515
0.029,1.778975,1.0,2666.385245155424,0.27948845568195463,1.3248272275216335,0.9439676710874765,0.28776995,0.663543597769799
0.029500000000000002,1.7782437500000001,1.0,2674.2697178878857,0.2835299568057044,1.324424528996456,0.9454061140806037,0.2877392375,0.664377311815777
0.03,1.7775,1.0,2681.527089547728,0.287548786797838,1.324022042579819,0.9467814405563031,0.287708,0.6652095533239859
0.0305,1.77674375,1.0,2688.1919494395884,0.29154507332766855,1.3236194276953535,0.9480972843563985,0.2876762375,0.6660410268435328
0.031,1.775975,1.0,2694.2992823826876,0.2955189440645089,1.3232163437666908,0.9493570199300746,0.28764395,0.6668724334250393
0.0315,1.7751937500000001,1.0,2699.87696931289,0.2994705221460351,1.3228125183880834,0.9505637911245316,0.2876111375,0.6677043302676764
0.032,1.7744,1.0,2704.9610998495414,0.3033999382959329,1.3224076068432635,0.951720516774148,0.2875778,0.6685374204387743
0.0325,1.77359375,1.0,2709.576418396216,0.3073073159652094,1.3220013705405516,0.952829925979311,0.2875439375,0.6693721854910919
0.033,1.772775,1.0,2713.745220240359,0.311192776810614,1.3215935952014661,0.953894565319428,0.28750955,0.670209054609042
0.0335,1.7719437500000002,1.0,2717.489989064377,0.31505644248889647,1.3211840665475256,0.9549168110993178,0.2874746375,0.6710484547066156
0.034,1.7711000000000001,1.0,2720.833377946527,0.31889843465680634,1.320772570300249,0.9558988827577825,0.2874392,0.6718908104048844
0.0345,1.7702437500000001,1.0,2723.7981913805615,0.32271887497109325,1.320358892181155,0.9568428550696281,0.2874032375,0.6727365440065787
0.035,1.7693750000000001,1.0,2726.4073683128645,0.3265178850885069,1.3199428179117623,0.9577506692623757,0.28736675,0.6735860754677326
0.035500000000000004,1.76849375,1.0,2728.6808527395633,0.330295583483256,1.3195241615179882,0.9586241453661312,0.2873297375,0.6744397646882225
0.036000000000000004,1.7676,1.0,2730.635768151996,0.3340520864034234,1.319102763558362,0.959464991341804,0.2872922,0.6752979154636992
0.0365,1.76669375,1.0,2732.3033352008397,0.33778752670602963,1.3186783372760396,0.9602748000648231,0.2872541375,0.6761610884916416
0.037,1.765775,1.0,2733.6966740198254,0.34150201909530886,1.3182507611099876,0.9610550791480827,0.28721555,0.6770295059085255
0.0375,1.76484375,1.0,2734.828961180218,0.34519567827549497,1.3178199134991744,0.9618072448656133,0.2871764375,0.6779033883398511
0.038,1.7639,1.0,2735.713423129275,0.3488686189508219,1.317385672882567,0.9625326286928656,0.28713679999999997,0.6787829548752556
0.0385,1.76294375,1.0,2736.3633299566422,0.35252095582552356,1.3169479176991332,0.9632324833097767,0.28709663750000003,0.6796684230426769
0.039,1.761975,1.0,2736.7919894877514,0.35615280360383395,1.3165065263878406,0.96390798811611,0.28705595,0.680560008781579
0.0395,1.7609937500000001,1.0,2737.0127417059625,0.3597642769899869,1.3160613773876564,0.9645602543035204,0.2870147375,0.6814579264152343
0.04,1.76,1.0,2737.038953500864,0.36335549068821654,1.3156123491375487,0.9651903295243334,0.286973,0.6823623886220602
0.0405,1.7589937500000001,1.0,2736.8840137457746,0.3669265594027567,1.3151593200764846,0.9657992021930434,0.2869307375,0.6832736064060201
0.041,1.757975,1.0,2736.5613287014316,0.37047759783784134,1.3147021686434317,0.9663878054529877,0.28688795,0.6841917890660749
0.0415,1.75694375,1.0,2736.08054912708,0.3740087139842396,1.3142408074914698,0.9669570225991243,0.2868446375,0.6851170755966487
0.042,1.7559,1.0,2735.45278450311,0.3775200238155539,1.3137751361278307,0.9675076888561808,0.28680079999999997,0.6860496299361012
0.0425,1.75484375,1.0,2734.690261020517,0.381011644926494,1.3133050439860248,0.9680405936528798,0.2867564375,0.68698963460751
0.043000000000000003,1.753775,1.0,2733.800226963933,0.38448368469311495,1.3128304657458234,0.9685564861689122,0.28671155,0.6879371801698062
0.043500000000000004,1.75269375,1.0,2732.789935216769,0.3879362504914718,1.3123513360869974,0.969056075905866,0.28666613750000003,0.6888923560097819
0.044,1.7516,1.0,2731.666641629216,0.3913694496976194,1.311867589689318,0.9695400351800322,0.2866202,0.6898552503232629
0.0445,1.75049375,1.0,2730.43760348222,0.39478338968761284,1.3113791612325556,0.9700090014347817,0.2865737375,0.6908259500960146
0.045,1.7493750000000001,1.0,2729.1100780447487,0.3981781778375071,1.3108859853964818,0.9704635793872197,0.28652675,0.6918045410843703
0.0455,1.74824375,1.0,2727.6913212265804,0.4015539215233571,1.3103879968608674,0.9709043430224967,0.2864792375,0.6927911077955937
0.046,1.7471,1.0,2726.188586325517,0.40491072812121787,1.3098851303054833,0.9713318374479594,0.2864312,0.6937857334679645
0.0465,1.7459437500000001,1.0,2724.609122868716,0.40824870500714433,1.3093773204101005,0.9717465806182487,0.28638263750000004,0.6947885000505933
0.047,1.744775,1.0,2722.9601755491453,0.41156795955719155,1.30886450185449,0.9721490649414644,0.28633355,0.6957994881829648
0.0475,1.74359375,1.0,2721.2290570221853,0.41486857613204264,1.3083467907150774,0.9725397687439064,0.28628393750000003,0.6968184204582661
0.048,1.7424,1.0,2719.443633865942,0.41815068524155763,1.3078239339448958,0.9729191271172416,0.2862338,0.6978457451871443
0.0485,1.74119375,1.0,2717.614827688537,0.4214143971592972,1.3072958325457416,0.9732875624551061,0.2861831375,0.6988816049107767
0.049,1.739975,1.0,2715.7439171108417,0.4246598110064345,1.3067624752704095,0.9736454817704054,0.28613195,0.6999259686414906
0.0495,1.73874375,1.0,2713.832180081254,0.4278870259041428,1.3062238508716946,0.9739932729646015,0.2860802375,0.7009788047108105
0.05,1.7375,1.0,2711.8808937798913,0.4310961409735951,1.3056799481023922,0.9743313058952529,0.286028,0.702040080765685
0.0505,1.73624375,1.0,2709.8913345256906,0.43428725533596474,1.3051307557152971,0.9746599333746853,0.2859752375,0.7031097637647056
0.051000000000000004,1.734975,1.0,2707.8647776864113,0.43746046811242484,1.3045762624632045,0.974979492104808,0.28592195,0.704187819974315
0.051500000000000004,1.73369375,1.0,2705.8024975914095,0.44061587842414857,1.3040164570989092,0.9752903035526873,0.2858681375,0.7052742149650099
0.052000000000000005,1.7324,1.0,2703.7057674469215,0.4437535853923091,1.3034513283752065,0.9755926747711198,0.2858138,0.7063689136075338
0.0525,1.73109375,1.0,2701.5758592548395,0.44687368813807954,1.302880865044891,0.9758868991681103,0.28575893750000003,0.707471880069064
0.053,1.729775,1.0,2699.414043733443,0.4499762857826332,1.3023050558607583,0.9761732572288505,0.28570355000000003,0.7085830778093871
0.0535,1.72844375,1.0,2697.2215902415546,0.4530614774471432,1.3017238895756031,0.9764520171935104,0.2856476375,0.7097024695770703
0.054,1.7271,1.0,2694.999766705598,0.4561293622527827,1.3011373549422205,0.9767234356939049,0.2855912,0.7108300174056221
0.0545,1.7257457617756784,1.0,2692.8491192642105,0.45918003932072493,1.3005454407134054,0.9769877583518563,0.2855343219945785,0.7119656826096459
0.055,1.724390353629594,1.0,2691.230490381276,0.46221360777214304,1.299948135641953,0.977245220341855,0.28547739485244294,0.7131094257809838
0.0555,1.7230349454835094,1.0,2690.1819794742387,0.46523016266254125,1.2993456148605325,0.9774960575361935,0.2854204677103074,0.7142608509686537
0.056,1.721679537337425,1.0,2689.613871232075,0.46822979889409705,1.298738696815714,0.9777405335248979,0.2853635405681718,0.7154183387271968
0.0565,1.7203241291913405,1.0,2689.4904548109953,0.4712126103640777,1.2981277071168231,0.9779788724504932,0.2853066134260363,0.7165812189070974
0.057,1.718968721045256,1.0,2689.780439877186,0.4741786904232703,1.2975129319923704,0.9782112869900399,0.28524968628390074,0.7177489008204821
0.0575,1.7176133128991715,1.0,2690.452629654543,0.4771281324224619,1.2968946576708658,0.9784379812076325,0.28519275914176523,0.7189207979799089
0.058,1.716257904753087,1.0,2691.475897809553,0.4800610297124395,1.29627317038082,0.9786591509802932,0.28513583199962966,0.7200963281648523
0.0585,1.7149024966070026,1.0,2692.8191671538743,0.48297747564399035,1.2956487563507426,0.978874984399616,0.2850789048574941,0.7212749134829695
0.059000000000000004,1.713547088460918,1.0,2694.4568748929096,0.4858775618543901,1.2950216516318422,0.9790856592426853,0.28502197771535853,0.7224560748355227
0.059500000000000004,1.7121916803148336,1.0,2696.3595139689537,0.48876138232618604,1.294392128527222,0.9792913485211238,0.284965050573223,0.7236392686900881
0.06,1.7108362721687491,1.0,2698.5067145730663,0.4916290277745639,1.2937603758097975,0.9794922137724532,0.28490812343108746,0.724824112257929
0.0605,1.7094808640226646,1.0,2700.8809445428797,0.49448058789175897,1.2931265563426282,0.9796884088688362,0.2848511962889519,0.726010274128546
0.061,1.7081254558765802,1.0,2703.4646703363624,0.4973161523700063,1.292490832988774,0.9798800818319433,0.2847942691468164,0.727197425438562
0.0615,1.7067700477304957,1.0,2706.2403498628337,0.5001358109015411,1.2918533686112952,0.9800673751043013,0.2847373420046808,0.7283852398923452
0.062,1.7054146395844112,1.0,2709.1904259029734,0.5029396531785987,1.2912143260732507,0.9802504258061217,0.28468041486254525,0.7295733937809389
0.0625,1.7040592314383267,1.0,2712.299998519309,0.5057277674703096,1.2905738438149439,0.9804293646065733,0.2846234877204097,0.7307616112583183
0.063,1.7027038232922422,1.0,2715.552788602687,0.5085002438042138,1.2899320726617247,0.9806043181411883,0.2845665605782742,0.7319495957974375
0.0635,1.7013484151461578,1.0,2718.9366873214085,0.5112571697668208,1.2892891252068475,0.980775406306437,0.2845096334361386,0.7331371238426561
0.064,1.6999930070000733,1.0,2722.441891766447,0.5139986315351979,1.288645092865647,0.9809427434931546,0.2844527062940031,0.7343240126421621
0.0645,1.6986375988539888,1.0,2726.0585814429355,0.5167247152864121,1.2880000670534586,0.9811064399893173,0.28439577915186753,0.7355100809222046
0.065,1.6972821907079043,1.0,2729.7769161646306,0.5194355071975307,1.2873541391856167,0.9812666021593945,0.28433885200973197,0.7366951488931545
0.0655,1.6959267825618198,1.0,2733.58703413274,0.5221310934456209,1.2867074006774564,0.9814233326146363,0.2842819248675964,0.7378790382550271
0.066,1.6945713744157354,1.0,2737.4839453075556,0.5248115542470468,1.2860598985145484,0.981576727791526,0.2842249977254609,0.7390616532584384
0.0665,1.6932159662696509,1.0,2741.4553451287425,0.5274769800366178,1.2854117459264633,0.9817268846852792,0.2841680705833253,0.7402427783393111
0.067,1.6918605581235664,1.0,2745.4899593044606,0.5301274608173835,1.2847630465061146,0.9818738964566338,0.2841111434411898,0.7414222172976926
0.0675,1.690505149977482,1.0,2749.5835112544596,0.5327630779509187,1.284113840188693,0.9820178494657533,0.28405421629905425,0.7425998909860774
0.068,1.6891497418313974,1.0,2753.7317130659385,0.5353839127987988,1.2834641669093894,0.9821588271396718,0.2839972891569187,0.7437757209131565
0.0685,1.687794333685313,1.0,2757.930265062471,0.5379900467225988,1.282814066603395,0.9822969100933678,0.2839403620147831,0.744949629245059
0.069,1.6864389255392285,1.0,2762.17485540813,0.5405815610838937,1.2821635792059005,0.9824321762450466,0.2838834348726476,0.7461215388064908
0.0695,1.685083517393144,1.0,2766.461159746967,0.5431585372442587,1.281512744652097,0.9825647009259452,0.28382650773051205,0.7472913730817704
0.07,1.6837281092470595,1.0,2770.7848408782843,0.5457210565652688,1.2808616028771753,0.9826945569849579,0.2837695805883765,0.7484590562157649
0.07050000000000001,1.682372701100975,1.0,2775.141548466665,0.5482692004084991,1.2802101938163266,0.9828218148883573,0.28371265344624097,0.7496245130147215
0.07100000000000001,1.6810172929548906,1.0,2779.526918787574,0.5508030501355248,1.2795585574047417,0.9829465428148738,0.2836557263041054,0.7507876689470018
0.07150000000000001,1.679661884808806,1.0,2783.9365745086666,0.553322687107921,1.2789067335776114,0.9830688067463792,0.28359879916196984,0.7519484501437095
0.07200000000000001,1.6783064766627216,1.0,2788.367266635904,0.555828188728632,1.2782547519987668,0.9831886698581895,0.2835418720198343,0.7531068016266096
0.0725,1.6769510685166371,1.0,2792.819055146686,0.5583196247677504,1.277602612505101,0.9833061915412024,0.28348494487769876,0.7542627217166542
0.073,1.6755956603705526,1.0,2797.2835097432153,0.560797096565035,1.2769503911680853,0.9834214345240054,0.2834280177355632,0.755416074081137
