Time [s],Phi [rad],STIM [ ],Fsee [N],Gamma [ ],Lcerel [ ],q [ ],Lmtc [m],fisomrel [ ]
0.0,1.8,1.0,17.96771735988208,1.000784383063873e-05,1.3793396835719698,0.005000026693430009,0.288653,0.5411396826132584
0.0005,1.79999375,1.0,18.27700021040771,0.005619161016535528,1.37930235934584,0.012940535162393331,0.2886527375,0.5412299751105845
0.001,1.799975,1.0,21.618594759385097,0.011196851274864167,1.378938280338348,0.035608615512962,0.28865195,0.5421102668820649
0.0015,1.79994375,1.0,31.069366483375177,0.016743255101749597,1.3780461926126155,0.07060175773494114,0.2886506375,0.5442636360047999
0.002,1.7999,1.0,53.582283768115275,0.022258547988475735,1.3763681384385782,0.11471789871843588,0.2886488,0.5483004603580333
0.0025,1.79984375,1.0,97.11848452033854,0.02774290444223687,1.3739351890946543,0.16457474192559454,0.28864643749999996,0.5541214105763558
0.003,1.7997750000000001,1.0,160.9575730431644,0.03319649799385869,1.371214365981957,0.21728029821501268,0.28864354999999997,0.5605863982417532
0.0035,1.79969375,1.0,237.68265245264868,0.03861950119738698,1.3685847551509476,0.27061273342349096,0.2886401375,0.5667897904027935
0.004,1.7996,1.0,321.4660603001593,0.04401208564087057,1.3661561112288767,0.32291565151539164,0.2886362,0.5724799177606712
0.0045000000000000005,1.7994937500000001,1.0,409.2670428926206,0.049374421951545656,1.3639228307836182,0.37303436532668205,0.2886317375,0.5776791238343049
0.005,1.799375,1.0,499.4127939897041,0.05470667978692326,1.3618583574380434,0.42024732828260736,0.28862675,0.5824570444905651
0.0055,1.79924375,1.0,590.7897186043273,0.06000902788227668,1.3599388486856527,0.4641735763377053,0.2886212375,0.5868750803789757
0.006,1.7991000000000001,1.0,682.5174188080719,0.0652816339937469,1.3581464272810393,0.5046798510015484,0.2886152,0.5909793897507247
0.006500000000000001,1.79894375,1.0,773.8806616783091,0.07052466495399173,1.3564672637945085,0.5418006589914118,0.2886086375,0.5948057711825774
0.007,1.798775,1.0,864.2851765376366,0.07573828665576998,1.3548904052482607,0.5756766904694722,0.28860155,0.5983826538989967
0.0075,1.79859375,1.0,953.2426828348835,0.08092266406167979,1.3534067873827116,0.6065098340957047,0.2885939375,0.6017335543106852
0.008,1.7984,1.0,1040.3438534642173,0.08607796078665271,1.3520088613175347,0.6345321078346594,0.2885858,0.604878066179632
0.0085,1.79819375,1.0,1125.3138453622648,0.09120434096579973,1.3506892469083571,0.659984370321788,0.2885771375,0.6078349875728615
0.009000000000000001,1.797975,1.0,1207.9000797737383,0.09630196654730562,1.3494420364279933,0.6831041346465994,0.28856795,0.6106194616615338
0.0095,1.79774375,1.0,1287.89257519282,0.10137099802742319,1.3482621189143142,0.7041174223660662,0.2885582375,0.6132445680143879
0.01,1.7975,1.0,1365.1671950767968,0.10641159590240536,1.3471443834051902,0.7232341787985206,0.288548,0.6157231411678263
0.0105,1.79724375,1.0,1439.6586593088266,0.11142392015084011,1.346083956899238,0.7406466219960675,0.2885372375,0.6180672665081837
0.011,1.796975,1.0,1511.3213582345525,0.11640812955489738,1.3450765640988576,0.756529093999781,0.28852595000000003,0.6202875156560175
0.0115,1.79669375,1.0,1580.120501879266,0.1213643812921206,1.344118489158391,0.7710385770260784,0.2885141375,0.6223930657504666
0.012,1.7964,1.0,1646.057290035923,0.12629283202515318,1.3432061616888344,0.7843155559721144,0.28850180000000003,0.6243926357742909
0.0125,1.79609375,1.0,1709.1739436693595,0.1311936385042546,1.3423360351500035,0.7964852973399101,0.2884889375,0.6262947673398455
0.013000000000000001,1.7957750000000001,1.0,1769.506380974164,0.13606695564524818,1.3415050747104893,0.8076594673110491,0.28847555,0.6281067727901248
0.0135,1.79544375,1.0,1827.0909991271135,0.14091293693596116,1.3407106009581304,0.8179374448492569,0.2884616375,0.6298350969220332
0.014,1.7951000000000001,1.0,1881.9918427316784,0.1457317358642209,1.3399499344807662,0.8274075122123778,0.2884472,0.6314861034646773
0.0145,1.79474375,1.0,1934.280158871875,0.150523504796694,1.339220590456259,0.8361481717353999,0.2884322375,0.633065660110035
0.015,1.794375,1.0,1984.054079790149,0.15528839677305373,1.3385200323848452,0.8442291870191435,0.28841675,0.6345796800834291
0.0155,1.79399375,1.0,2031.373716314629,0.16002656140845634,1.3378463382589656,0.851712820840449,0.2884007375,0.6360326904496447
0.016,1.7936,1.0,2076.312117662653,0.16473814813903462,1.3371976165548813,0.8586545264303238,0.2883842,0.6374291051967704
0.0165,1.7931937500000001,1.0,2118.9567325208054,0.16942330640092138,1.3365719757488526,0.8651037450891826,0.2883671375,0.638773294453169
0.017,1.792775,1.0,2159.3905355256175,0.1740821840941107,1.3359677044745424,0.8711046698753171,0.28834955,0.6400692013715132
0.0175,1.7923437500000001,1.0,2197.72032327997,0.1787149306097363,1.3353829651962474,0.8766967797895748,0.2883314375,0.6413210033678975
0.018000000000000002,1.7919,1.0,2234.014032635267,0.18332169115990024,1.334816419157485,0.8819155601019656,0.2883128,0.6425317776229571
0.0185,1.79144375,1.0,2268.3461854237476,0.18790261080993767,1.3342667444276215,0.8867928387044407,0.2882936375,0.6437045394443851
0.019,1.790975,1.0,2300.798840134212,0.1924578346251839,1.3337326190760244,0.891357205380138,0.28827395,0.6448422798617897
0.0195,1.79049375,1.0,2331.452614176913,0.19698750657717165,1.3332128031679809,0.8956344023921193,0.2882537375,0.6459477927453331
0.02,1.79,1.0,2360.396844424667,0.20149177165032744,1.3327060310458447,0.8996476232290789,0.288233,0.6470239059493668
0.0205,1.78949375,1.0,2387.7066237109607,0.20597077246844625,1.332211230070538,0.903417846224832,0.2882117375,0.6480730185427936
0.021,1.788975,1.0,2413.445085271661,0.21042464939678643,1.3317274884738914,0.9069640713590622,0.28818995000000003,0.6490971728023094
0.021500000000000002,1.78844375,1.0,2437.679304976364,0.2148535428006063,1.331253894487736,0.9103035028778225,0.2881676375,0.6500983972790432
0.022,1.7879,1.0,2460.479972857458,0.2192575930451642,1.3307895363439024,0.9134517437698596,0.2881448,0.6510787074151342
0.0225,1.78734375,1.0,2481.9151166768934,0.22363693924210348,1.3303335591471486,0.9164229775526083,0.28812143749999997,0.6520399862920194
0.023,1.786775,1.0,2502.0550190954314,0.2279917214183973,1.329885114277007,0.9192301091773428,0.28809755,0.6529840924057592
0.0235,1.78619375,1.0,2520.9657563474957,0.2323220786685482,1.3294434179438086,0.9218849079757696,0.28807313749999996,0.6539127371603988
0.024,1.7856,1.0,2538.698302099675,0.23662814624786394,1.3290078504876395,0.924398140425357,0.2880482,0.6548272777981603
0.0245,1.78499375,1.0,2555.3055053716107,0.24091005941165225,1.3285777922485857,0.9267796436888648,0.2880227375,0.6557290639063942
0.025,1.784375,1.0,2570.8419330317097,0.24516795341522093,1.3281526235667334,0.9290384185781633,0.28799675,0.656619437647544
0.025500000000000002,1.78374375,1.0,2585.363720806336,0.24940196351387772,1.3277317247821687,0.9311827120878766,0.2879702375,0.65749973396462
0.026000000000000002,1.7831000000000001,1.0,2598.919752728177,0.2536122227682047,1.3273145570913025,0.9332201029712206,0.2879432,0.6583711119774377
0.0265,1.78244375,1.0,2611.5642163245984,0.2577988668317681,1.3269005436698966,0.9351575487955947,0.2879156375,0.6592348040444069
0.027,1.781775,1.0,2623.3489200848476,0.26196202986808237,1.3264891403219226,0.9370014540347078,0.28788755,0.6600919682775892
0.0275,1.7810937500000001,1.0,2634.3108883787936,0.2661018415238175,1.3260799489085733,0.938757737547054,0.2878589375,0.6609434531880811
0.028,1.7804,1.0,2644.4879289159126,0.27021843144564345,1.3256725712910413,0.9404318571081257,0.2878298,0.6617901030251327
0.0285,1.77969375,1.0,2653.91856514543,0.27431192928023024,1.3252666093305192,0.9420288513791715,0.2878001375,0.6626327578272557
0.029,1.778975,1.0,2662.641972170804,0.2783824646742479,1.3248616648881995,0.9435533775497947,0.28776995,0.6634722534632245
0.029500000000000002,1.7782437500000001,1.0,2670.697916178651,0.2824301672743664,1.3244573398252752,0.9450097451474359,0.2877392375,0.6643094216629651
0.03,1.7775,1.0,2678.1202549410755,0.286455164299823,1.324053295121322,0.9464019535034708,0.287708,0.6651449678603745
0.0305,1.77674375,1.0,2684.9473689223905,0.2904575857152353,1.3236491544090943,0.9477337075231813,0.2876762375,0.6659796710786935
0.031,1.775975,1.0,2691.2136664893824,0.294437559184782,1.3232445815576783,0.9490084510893143,0.28764395,0.6668142235127598
0.0315,1.7751937500000001,1.0,2696.945150829299,0.2983952086935811,1.3228393205865325,0.9502293934980793,0.2876111375,0.6676491488623281
0.032,1.7744,1.0,2702.1681133877187,0.3023306582267505,1.3224331155151154,0.9513995201079446,0.2875778,0.6684849681735212
0.0325,1.77359375,1.0,2706.9091064615222,0.306244031769408,1.3220257103628852,0.9525216107083387,0.2875439375,0.6693221998255077
0.033,1.772775,1.0,2711.1949172442487,0.3101354533066715,1.3216168491493006,0.9535982561702431,0.28750955,0.6701613595129976
0.0335,1.7719437500000002,1.0,2715.052543324857,0.314005046823659,1.32120627589382,0.9546318735577255,0.2874746375,0.671002960224564
0.034,1.7711000000000001,1.0,2718.503734614789,0.317852935585163,1.3207937841180055,0.9556247252196021,0.2874392,0.6718474109414876
0.0345,1.7702437500000001,1.0,2721.578800998962,0.3216792414575488,1.3203790908202069,0.9565789167268517,0.2874032375,0.6726952747615358
0.035,1.7693750000000001,1.0,2724.2973096261185,0.3254840849008083,1.3199620121372424,0.9574964280976778,0.28736675,0.673546909403977
0.035500000000000004,1.76849375,1.0,2726.671591306733,0.3292675858249531,1.319542431050083,0.958379119944996,0.2873297375,0.6744025343067697
0.036000000000000004,1.7676037323025302,1.0,2728.899480481647,0.3330298641399945,1.3191202305396994,0.9592287355336088,0.2872923567567063,0.6752623675391872
0.0365,1.7667133918865405,1.0,2731.3987871226755,0.3367710389274619,1.3186954262669581,0.9600469228074764,0.2872549624592347,0.676126356111358
0.037,1.7658230514705509,1.0,2734.1518011155104,0.34049122933849213,1.318268328189489,0.9608352574626934,0.28721756816176314,0.6769938497176906
0.0375,1.764932711054561,1.0,2737.135984462585,0.3441905522756125,1.3178391443462052,0.961595208384369,0.28718017386429157,0.6778644079122198
0.038,1.7640423706385713,1.0,2740.328976374873,0.34786912458700464,1.317408080995785,0.9623281556623935,0.28714277956682,0.6787375960413684
0.0385,1.7631520302225816,1.0,2743.7101426693253,0.3515270622527992,1.3169753284923595,0.9630353954355407,0.2871053852693484,0.6796130137983443
0.039,1.762261689806592,1.0,2747.2576946898034,0.355164482275883,1.3165410873664054,0.963718148643157,0.28706799097187685,0.6804902423752988
0.0395,1.7613713493906022,1.0,2750.9527545635383,0.35878150059812175,1.3161055314223686,0.9643775624818747,0.2870305966744053,0.6813689190184373
0.04,1.7604810089746126,1.0,2754.7820313718425,0.3623782303358476,1.3156687835620136,0.9650147130535938,0.2869932023769337,0.682248785345914
0.0405,1.759590668558623,1.0,2758.732206551539,0.3659547846053925,1.3152309666871054,0.9656306153147569,0.28695580807946214,0.6831295843160493
0.041,1.7587003281426332,1.0,2762.789930814994,0.3695112765230885,1.3147922036994086,0.9662262271977561,0.28691841378199057,0.6840110602361927
0.0415,1.7578099877266435,1.0,2766.941821404361,0.3730478192052677,1.3143526175006879,0.9668024534133736,0.28688101948451905,0.6848929587706194
0.042,1.7569196473106539,1.0,2771.1826794929702,0.37656451757286197,1.3139122568417079,0.9673601413724626,0.2868436251870475,0.6857751753971482
0.0425,1.7560293068946642,1.0,2775.4909713646607,0.38006149515325593,1.3134713176040482,0.9679001077275612,0.2868062308895759,0.6866573119884628
0.043000000000000003,1.7551389664786745,1.0,2779.8581832123546,0.3835388623457815,1.3130298778174077,0.9684231134351736,0.28676883659210434,0.6875392078878152
0.043500000000000004,1.7542486260626848,1.0,2784.2786812594336,0.3869967265362107,1.3125879893634933,0.9689298764732212,0.28673144229463277,0.688420755439058
0.044,1.7533582856466952,1.0,2788.7468148649655,0.39043519511031544,1.3121457041240128,0.9694210771254834,0.2866940479971612,0.6893018475667229
0.0445,1.7524679452307055,1.0,2793.2569160377075,0.39385437545386776,1.3117030739806734,0.9698973603360066,0.2866566536996896,0.6901823777774198
0.045,1.7515776048147156,1.0,2797.803299009131,0.39725437495263966,1.3112601508151829,0.970359337894167,0.28661925940221805,0.6910622401610638
0.0455,1.750687264398726,1.0,2802.3802598669454,0.40063530099240313,1.3108169865092483,0.9708075904641176,0.2865818651047465,0.6919413293919316
0.046,1.7497969239827362,1.0,2806.9820762476493,0.4039972609589301,1.3103736329445772,0.9712426694711008,0.2865444708072749,0.6928195407295435
0.0465,1.7489065835667466,1.0,2811.6030070889165,0.40734036223799264,1.3099301420028773,0.9716650988560056,0.28650707650980334,0.6936967700193761
0.047,1.7480162431507569,1.0,2816.237292441933,0.4106647122153627,1.3094865655658556,0.9720753767085453,0.28646968221233177,0.6945729136934036
0.0475,1.7471259027347672,1.0,2820.884776312659,0.4139704034030987,1.3090429052392267,0.9724739712854407,0.2864322879148602,0.6954479678612829
0.048,1.7462355623187775,1.0,2825.53687582892,0.4172575581649862,1.3085992379079439,0.9728613373499019,0.2863948936173887,0.6963217804931003
0.0485,1.7453452219027878,1.0,2830.1898581450037,0.4205262832030648,1.308155596910409,0.9732379028495162,0.28635749931991705,0.6971942860101706
0.049,1.7444548814867982,1.0,2834.8422084950344,0.42377667854841244,1.3077119956921157,0.9736040732782781,0.28632010502244554,0.6980654582499215
0.0495,1.7435645410708085,1.0,2839.492407171349,0.4270088442321072,1.307268447698557,0.973960235130987,0.28628271072497397,0.6989352712019106
0.05,1.7426742006548188,1.0,2844.1389295386657,0.430222880285227,1.3068249663752267,0.9743067569662016,0.2862453164275024,0.6998036990077838
0.0505,1.7417838602388291,1.0,2848.7802460522184,0.4334188867388498,1.3063815651676183,0.9746439904004884,0.2862079221300308,0.700670715961226
0.051000000000000004,1.7408935198228395,1.0,2853.414822279236,0.4365969636240537,1.305938257521225,0.9749722710389828,0.28617052783255925,0.7015362965078973
0.051500000000000004,1.7400031794068496,1.0,2858.0411189250276,0.43975721097191656,1.3054950568815404,0.9752919193468749,0.2861331335350877,0.7024004152453583
0.052000000000000005,1.7391128389908599,1.0,2862.6575918628496,0.44289972881351647,1.305051976694058,0.975603241466058,0.2860957392376161,0.7032630469229844
0.0525,1.7382224985748702,1.0,2867.2626921678375,0.44602461717993125,1.3046090304042712,0.975906529980843,0.28605834494014454,0.7041241664418678
0.053,1.7373321581588805,1.0,2871.854866154854,0.44913197610223915,1.3041662314576736,0.9762020646363302,0.28602095064267297,0.7049837488547096
0.0535,1.7364418177428909,1.0,2876.432555420407,0.4522219056115179,1.3037235932997586,0.9764901130127494,0.2859835563452014,0.7058417693656978
0.054,1.7355514773269012,1.0,2880.994434014553,0.455294502946944,1.3032811272780698,0.9767709307543161,0.2859461620477298,0.7066982073882119
0.0545,1.7346611369109115,1.0,2885.5419286476294,0.4583498410095777,1.3028388203711743,0.9770447587596623,0.2859087677502583,0.7075530895286851
0.055,1.7337707964949218,1.0,2890.071397874012,0.4613880575349893,1.3023967043698002,0.9773118366757101,0.2858713734527867,0.7084063558236087
0.0555,1.7328804560789322,1.0,2894.582751224429,0.46440924419470525,1.3019547796238662,0.97757238780688,0.28583397915531517,0.7092580072139745
0.056,1.7319901156629425,1.0,2899.0758983485225,0.4674134926602523,1.301513046483291,0.9778266261927365,0.2857965848578436,0.7101080446440206
0.0565,1.7310997752469528,1.0,2903.5507490171035,0.4704008946031569,1.3010715052979929,0.97807475706856,0.285759190560372,0.7109564690612267
0.057,1.7302094348309631,1.0,2908.007213123308,0.4733715416949457,1.3006301564178904,0.9783169772994001,0.28572179626290045,0.7118032814163099
0.0575,1.7293190944149734,1.0,2912.4452006840515,0.4763255256071453,1.300189000192902,0.9785534757893338,0.2856844019654289,0.7126484826632205
0.058,1.7284287539989838,1.0,2916.864621841555,0.4792629380112822,1.2997480369729464,0.9787844338675338,0.2856470076679573,0.7134920737591364
0.0585,1.727538413582994,1.0,2921.265386865012,0.482183870578883,1.299307267107942,0.9790100256526407,0.28560961337048574,0.7143340556644613
0.059000000000000004,1.7266480731670044,1.0,2925.6474061518493,0.48508841498147437,1.298866690947807,0.9792304183968147,0.28557221907301417,0.7151744293428188
0.059500000000000004,1.7257577327510145,1.0,2930.010590229331,0.48797666289058284,1.2984263088424606,0.9794457728107577,0.2855348247755426,0.7160131957610469
0.06,1.7248673923350248,1.0,2934.3548497561283,0.4908487059777349,1.2979861211418207,0.9796562433708941,0.285497430478071,0.716850355889197
0.0605,1.7239770519190352,1.0,2938.680095523694,0.49370463591445723,1.297546128195806,0.9798619786098257,0.28546003618059945,0.717685910700526
0.061,1.7230867115030455,1.0,2942.986238457905,0.49654454437227646,1.297106330354335,0.9800631213910896,0.28542264188312794,0.7185198611714946
0.0615,1.7221963710870558,1.0,2947.2731896203045,0.49936852302271906,1.2966667279673265,0.9802598091691833,0.2853852475856563,0.7193522082817612
0.062,1.7213060306710661,1.0,2951.5408602101934,0.5021766635373117,1.2962273213846986,0.9804521742357539,0.2853478532881848,0.7201829530141788
0.0625,1.7204156902550765,1.0,2955.789304847025,0.5049690323818335,1.2957881097048403,0.9806403420012859,0.2853104589907132,0.7210120987156805
0.063,1.7195253498390868,1.0,2960.018910749371,0.5077457023912307,1.295349089127851,0.9808244336044956,0.28527306469324165,0.7218396541815968
0.0635,1.718635009423097,1.0,2964.229621158687,0.5105068249544038,1.2949102597393365,0.9810045716753382,0.2852356703957701,0.7226656208561132
0.064,1.7177446690071074,1.0,2968.4216290841146,0.5132524818853336,1.294471619449767,0.9811808691919889,0.2851982760982985,0.7234900042685958
0.0645,1.7168543285911178,1.0,2972.5951284517396,0.515982754998001,1.2940331661696125,0.9813534350674604,0.28516088180082694,0.7243128099243401
0.065,1.715963988175128,1.0,2976.750314095808,0.5186977261063866,1.2935948978093432,0.981522374325565,0.28512348750335537,0.7251340433045961
0.0655,1.7150736477591384,1.0,2980.8873817501494,0.5213974770244717,1.2931568122794297,0.9816877882680339,0.2850860932058838,0.725953709866592
0.066,1.7141833073431485,1.0,2985.006528039859,0.5240820895662368,1.2927189074903416,0.9818497746332964,0.2850486989084122,0.7267718150435614
0.0665,1.7132929669271588,1.0,2989.1079504725367,0.5267516455456629,1.2922811813525494,0.9820084277473933,0.28501130461094065,0.7275883642447644
0.067,1.7124026265111691,1.0,2993.1918474302015,0.5294062267767307,1.2918436317765232,0.9821638386674656,0.2849739103134691,0.7284033628555139
0.0675,1.7115122860951795,1.0,2997.25841816113,0.5320459150734211,1.2914062566727331,0.9823160953182356,0.28493651601599757,0.7292168162371977
0.068,1.7106219456791898,1.0,3001.3078627711434,0.5346707922497151,1.2909690539516494,0.9824652826218664,0.28489912171852594,0.7300287297273027
0.0685,1.7097316052632001,1.0,3005.340382216603,0.5372809401195934,1.2905320215237421,0.9826114826215683,0.2848617274210544,0.7308391086394384
0.069,1.7088412648472104,1.0,3009.3561782954757,0.5398764404970368,1.2900951572994817,0.9827547745992922,0.28482433312358285,0.7316479582633577
0.0695,1.7079509244312208,1.0,3013.355453640111,0.5424573751960261,1.2896584591893379,0.9828952351878311,0.2847869388261113,0.7324552838649832
0.07,1.707060584015231,1.0,3017.3384117091214,0.5450238260305423,1.289221925103781,0.9830329384776334,0.2847495445286397,0.733261090686425
0.07050000000000001,1.7061702435992414,1.0,3021.3052567800746,0.5475758748145663,1.2887855529532817,0.9831679561186122,0.28471215023116814,0.7340653839460056
0.07100000000000001,1.7052799031832517,1.0,3025.256193941707,0.5501136033620787,1.2883493406483093,0.9833003574172126,0.28467475593369657,0.7348681688382821
0.07150000000000001,1.704389562767262,1.0,3029.191429086465,0.5526370934870606,1.2879132860993348,0.9834302094289943,0.284637361636225,0.7356694505340644
