Time [s],Phi [rad],STIM [ ],Fsee [N],Gamma [ ],Lcerel [ ],q [ ],Lmtc [m],fisomrel [ ]
0.0,1.8,1.0,18.076177088363828,0.00033793217274000897,1.3793275509259821,0.005029600189207054,0.288653,0.5411690341469912
0.0005,1.79999375,1.0,18.49087595656046,0.0059452459493381515,1.3792786711776301,0.0138759575794191,0.2886527375,0.5412872754774589
0.001,1.799975,1.0,22.075978024088958,0.011521107129046648,1.3788918101057923,0.037337890091790504,0.28865195,0.5422225645240951
0.0015,1.79994375,1.0,32.05725962638612,0.01706569213707034,1.37796268629098,0.07295549224408278,0.2886506375,0.5444649482516144
0.002,1.7999,1.0,55.62316977055092,0.02257917640674316,1.3762369734510735,0.11749686422953025,0.2886488,0.5486152417358935
0.0025,1.79984375,1.0,100.47564963267203,0.02806173438878175,1.3737747893303556,0.16759256984418527,0.28864643749999996,0.5545038484089551
0.003,1.7997750000000001,1.0,165.27864965160524,0.03351353955643473,1.3710536948784826,0.22039012694334997,0.28864354999999997,0.5609666948884755
0.0035,1.79969375,1.0,242.53903052490014,0.03893476440732366,1.3684359220485238,0.2737033506359905,0.2886401375,0.5671395769906062
0.004,1.7996,1.0,326.6176568673309,0.044325580473392315,1.3660202072736551,0.3259064717522804,0.2886362,0.5727972189647657
0.0045000000000000005,1.7994937500000001,1.0,414.5915733753212,0.04968615832640243,1.3637982475448107,0.37587222730584186,0.2886317375,0.5779682241177444
0.005,1.799375,1.0,504.83757955241765,0.0550166675693962,1.3617433924669193,0.4229015498987416,0.28862675,0.5827223150718253
0.0055,1.79924375,1.0,596.2570486347372,0.06031727687500422,1.3598322762471176,0.4666304336195318,0.2886212375,0.58711968421817
0.006,1.7991000000000001,1.0,687.9852115102394,0.06558815395333754,1.3580472355785709,0.5069373596963883,0.2886152,0.5912059218576
0.006500000000000001,1.79894375,1.0,779.3103191233865,0.0708294655573487,1.3563747379537057,0.5438645979332094,0.2886086375,0.5950160910345269
0.007,1.798775,1.0,869.6480686280318,0.07604137760671367,1.3548039112911041,0.5775574557633766,0.28860155,0.5985783945552753
0.0075,1.79859375,1.0,958.5078919015376,0.08122405482679218,1.3533259145242755,0.6082203920870329,0.2885939375,0.60191581034944
0.008,1.7984,1.0,1045.51636838958,0.08637766149294325,1.3519328003472577,0.6360861728814647,0.2885858,0.6050488011471213
0.0085,1.79819375,1.0,1130.353438190826,0.0915023604506552,1.3506179844868165,0.6613961829329446,0.2885771375,0.6079943525331714
0.009000000000000001,1.797975,1.0,1212.775580385132,0.09659831367999262,1.3493754855928695,0.6843873511968592,0.28856795,0.6107677616924321
0.0095,1.79774375,1.0,1292.6208525917523,0.10166568293823121,1.34819960849036,0.7052845257947609,0.2885582375,0.6133833949207909
0.01,1.7975,1.0,1369.7539975392206,0.10670462831088856,1.3470854800331833,0.7242967876396028,0.288548,0.615853538106297
0.0105,1.79724375,1.0,1444.0863262176863,0.11171530891987447,1.3460285837760702,0.7416154780100285,0.2885372375,0.6181894745214516
0.011,1.796975,1.0,1515.5720631751008,0.11669788327011162,1.3450246763441807,0.7574138949183888,0.28852595000000003,0.6204016987040606
0.0115,1.79669375,1.0,1584.2168459579314,0.12165251007788448,1.3440695836805046,0.771847807827292,0.2885141375,0.6225003877102178
0.012,1.7964,1.0,1650.0081212550197,0.12657934530849024,1.3431599456180332,0.7850568833676662,0.28850180000000003,0.6244937873833818
0.0125,1.79609375,1.0,1712.9609812693234,0.13147854444299475,1.3422925587580714,0.7971656905375399,0.2884889375,0.6263896818203196
0.013000000000000001,1.7957750000000001,1.0,1773.1224614672094,0.13635026267139638,1.3414642730634514,0.8082850761550993,0.28847555,0.6281956320830635
0.0135,1.79544375,1.0,1830.5578446901116,0.14119465479878418,1.3406721031577582,0.8185136169404301,0.2884616375,0.6299187440372123
0.014,1.7951000000000001,1.0,1885.327366305857,0.1460118741954554,1.3399134380643747,0.8279390237485903,0.2884472,0.6315652252017109
0.0145,1.79474375,1.0,1937.4860943296803,0.15080207244086663,1.3391859883430344,0.8366393358018315,0.2884322375,0.6331405143869865
0.015,1.794375,1.0,1987.1100234960913,0.15556540111447448,1.3384874645534697,0.8446839215389224,0.28841675,0.6346499883296034
0.0155,1.79399375,1.0,2034.2776524080357,0.16030201071521027,1.3378157521387763,0.8521345506125041,0.2884007375,0.6360985893077578
0.016,1.7936,1.0,2079.0926870955536,0.16501205289185442,1.3371686478235727,0.8590462075908465,0.2883842,0.6374913996327284
0.0165,1.7931937500000001,1.0,2121.627174813563,0.16969567579653097,1.3365444351890021,0.8654680670133167,0.2883671375,0.6388324079825114
0.017,1.792775,1.0,2161.9540994677727,0.17435302675094513,1.3359415143781013,0.8714440676467577,0.28834955,0.6401253154252168
0.0175,1.7923437500000001,1.0,2200.1573393505087,0.1789842530768022,1.3353582855339072,0.8770134972705838,0.2883314375,0.641373789297699
0.018000000000000002,1.7919,1.0,2236.325257085104,0.18358950146542602,1.3347932038590826,0.8822115537279593,0.2883128,0.6425813477352383
0.0185,1.79144375,1.0,2270.548448619654,0.18816891854176931,1.334244791292067,0.8870698252311642,0.2882936375,0.6437513376725847
0.019,1.790975,1.0,2302.9111707253533,0.1927226498546252,1.3337117111817076,0.8916167250608394,0.28827395,0.6448867787633181
0.0195,1.79049375,1.0,2333.480715095906,0.1972508381496052,1.3331928611443118,0.8958778747995714,0.2882537375,0.645990169905827
0.02,1.79,1.0,2362.330048522212,0.20175362617232084,1.3326871387961867,0.8998763654961299,0.288233,0.6470639913252768
0.0205,1.78949375,1.0,2389.537340583328,0.20623115666838374,1.3321934417536394,0.9036330416691135,0.2882117375,0.6481107055353041
0.021,1.788975,1.0,2415.1753752237883,0.21068357079076352,1.3317107656454827,0.907166770886894,0.28818995000000003,0.649132550876555
0.021500000000000002,1.78844375,1.0,2439.3285106752287,0.21511101178763473,1.3312380345863304,0.9104946259819898,0.2881676375,0.6501319019240592
0.022,1.7879,1.0,2462.0636826578702,0.21951361967511468,1.3307743769025366,0.9136321330982676,0.2881448,0.651110687451335
0.0225,1.78734375,1.0,2483.4376517834025,0.22389153225458405,1.3303190482373686,0.9165934204622965,0.28812143749999997,0.652070556031757
0.023,1.786775,1.0,2503.5098723689985,0.22824488732742348,1.3298713042340926,0.9193913414501088,0.28809755,0.6530131461827128
0.0235,1.78619375,1.0,2522.342267956518,0.23257382269501353,1.3294304005359752,0.9220376072606817,0.28807313749999996,0.6539400867433258
0.024,1.7856,1.0,2539.999019116407,0.23687847615873492,1.3289955927862829,0.924542904197054,0.2880482,0.6548529972168442
0.0245,1.78499375,1.0,2556.534487088634,0.24115898213700468,1.3285662481726324,0.9269170154765378,0.2880227375,0.6557532543423474
0.025,1.784375,1.0,2572.0184595082223,0.245415480835579,1.3281416055934205,0.9291688742644036,0.28799675,0.6566424957862629
0.025500000000000002,1.78374375,1.0,2586.495452907871,0.2496481050941233,1.327721156055459,0.931306705331936,0.2879702375,0.6575218235767651
0.026000000000000002,1.7831000000000001,1.0,2600.009929752464,0.2538569873552556,1.3273044029680305,0.9333380568948123,0.2879432,0.6583923080285112
0.0265,1.78244375,1.0,2612.6075091001867,0.25804226006159386,1.3268908497404186,0.9352698637014697,0.2879156375,0.6592550138902649
0.027,1.781775,1.0,2624.334866484056,0.26220405565575605,1.3264799997819063,0.9371085051192712,0.28788755,0.6601110004541022
0.0275,1.7810937500000001,1.0,2635.2396392602896,0.2663425065803602,1.3260713565017763,0.9388598570133316,0.2878589375,0.6609613216488888
0.028,1.7804,1.0,2645.3662636391136,0.27045774428017566,1.3256644609226986,0.9405293432833144,0.2878298,0.6618069479972197
0.0285,1.77969375,1.0,2654.7546760356486,0.27454989973260413,1.3252589025452237,0.9421219785900586,0.2878001375,0.6626487446271578
0.029,1.778975,1.0,2663.441662472396,0.27861910179912946,1.3248543058642677,0.9436424023514726,0.28776995,0.6634874998770562
0.029500000000000002,1.7782437500000001,1.0,2671.4621926115997,0.2826654784442489,1.324450317282472,0.9450949105580229,0.2877392375,0.6643239528549212
0.03,1.7775,1.0,2678.8517375540896,0.2866891576324597,1.3240465832024784,0.9464834831180916,0.287708,0.6651588390140283
0.0305,1.7767437861707882,1.0,2685.6506030930163,0.2906902648455471,1.3236427262176935,0.9478118071761454,0.2876762390191731,0.6659929393060557
0.031,1.7759822371017568,1.0,2692.2273629109445,0.29466892792050425,1.3232385713719674,0.9490833326628205,0.28764425395827375,0.6668266134483722
0.0315,1.7752206880327253,1.0,2698.8282801026776,0.29862527865080046,1.322834269221654,0.9503013072857802,0.28761226889737446,0.6676595491585481
0.032,1.7744591389636937,1.0,2705.44503211223,0.30255943952457104,1.3224298962912433,0.9514687393530601,0.28758028383647516,0.6684915879388332
0.0325,1.773697589894662,1.0,2712.0692554301527,0.3064715330299511,1.3220255291052259,0.9525884295340581,0.2875482987755758,0.6693225720806739
0.033,1.7729360408256307,1.0,2718.6925455387914,0.310361681655076,1.3216212441880917,0.953662987710783,0.2875163137146765,0.6701523446648722
0.0335,1.7721744917565991,1.0,2725.306456986292,0.3142300078880808,1.3212171180643313,0.9546948482707016,0.28748432865377715,0.6709807495613694
0.034,1.7714129426875675,1.0,2731.9025035918235,0.3180766342171009,1.3208132272584348,0.9556862840017535,0.28745234359287786,0.6718076314286605
0.0345,1.770651393618536,1.0,2738.4721587792283,0.32190168313027145,1.3204096482948922,0.9566394187319865,0.2874203585319785,0.6726328357128302
0.035,1.7698898445495044,1.0,2745.006856041817,0.32570527711572766,1.3200064576981938,0.9575562388403719,0.28738837347107915,0.6734562086462185
0.035500000000000004,1.769128295480473,1.0,2751.5032611928664,0.32948753245232787,1.3196036842674155,0.9584385972241715,0.28735638841017985,0.6742776945238973
0.036000000000000004,1.7683667464114414,1.0,2757.953195883817,0.3332485766226141,1.319201400479582,0.9592882371079658,0.28732440334928055,0.6750971490174538
0.0365,1.7676051973424098,1.0,2764.353948054707,0.3369885273373323,1.3187996291137047,0.9601067856972746,0.2872924182883812,0.6759145295821566
0.037,1.7668436482733783,1.0,2770.7037784934596,0.34070750076525763,1.3183983840818458,0.960895768871428,0.2872604332274819,0.676729811907109
0.0375,1.7660820992043467,1.0,2777.000942726331,0.34440561307516504,1.3179976792960675,0.9616566197917807,0.28722844816658255,0.6775429718186079
0.038,1.7653205501353153,1.0,2783.243691182734,0.3480829804358295,1.3175975286684318,0.9623906855671416,0.28719646310568325,0.6783539852796704
0.0385,1.7645590010662837,1.0,2789.4302693634622,0.35173971901602613,1.317197946111001,0.963099233369851,0.2871644780447839,0.6791628283895488
0.039,1.7637974519972521,1.0,2795.558918014559,0.35537594498452985,1.316798945535837,0.9637834560532652,0.2871324929838846,0.6799694773832325
0.0395,1.7630359029282205,1.0,2801.627873303858,0.35899177451011566,1.3164005408550024,0.9644444773162483,0.28710050792298525,0.6807739086309375
0.04,1.7622743538591892,1.0,2807.6372774568863,0.36258731126607774,1.3160027288586014,0.9650833526118008,0.28706852286208595,0.6815761331438688
0.0405,1.7615128047901576,1.0,2813.585826570437,0.36616267682145265,1.3156055193183152,0.9657010820833085,0.2870365378011866,0.6823761357647213
0.041,1.760751255721126,1.0,2819.4713608995817,0.3697179998155426,1.3152089296400389,0.9662986116873633,0.2870045527402873,0.6831738860815721
0.0415,1.7599897066520944,1.0,2825.294573083059,0.3732533885326835,1.3148129516956826,0.9668768292056252,0.28697256767938795,0.6839694051168745
0.042,1.7592281575830628,1.0,2831.056162023263,0.37676895125721127,1.3144175773571567,0.9674365738535846,0.28694058261848865,0.6847627138037513
0.0425,1.7584666085140315,1.0,2836.756832776368,0.38026479627346155,1.3140227984963717,0.9679786394362254,0.28690859755758935,0.685553832986311
0.043000000000000003,1.7577050594449999,1.0,2842.397296444616,0.3837410318657703,1.3136286069852376,0.9685037772677327,0.28687661249669,0.6863427834199596
0.043500000000000004,1.7569435103759683,1.0,2847.978270069606,0.3871977663184733,1.3132349946956652,0.9690126988750999,0.28684462743579064,0.6871295857717048
0.044,1.7561819613069367,1.0,2853.5004765272097,0.39063510791590633,1.3128419534995641,0.9695060785036377,0.28681264237489135,0.6879142606204609
0.0445,1.7554204122379051,1.0,2858.964644423754,0.3940531649424054,1.3124494752688451,0.9699845554407374,0.286780657313992,0.6886968284573448
0.045,1.7546588631688738,1.0,2864.371507994107,0.3974520456823062,1.3120575518754183,0.9704487361727361,0.2867486722530927,0.6894773096859714
0.0455,1.7538973140998422,1.0,2869.721807000684,0.4008318584199446,1.3116661751911942,0.9708991963883936,0.28671668719219334,0.6902557246227419
0.046,1.7531357650308106,1.0,2875.016286634529,0.4041927114396565,1.3112753370880827,0.9713364828412772,0.28668470213129404,0.6910320934971316
0.0465,1.752374215961779,1.0,2880.2556974171234,0.40753471302577765,1.3108850294379946,0.9717611150822566,0.28665271707039475,0.6918064364519683
0.047,1.7516126668927474,1.0,2885.4407951042235,0.4108579714626439,1.3104952441128401,0.9721735870723303,0.2866207320094954,0.6925787735437112
0.0475,1.750851117823716,1.0,2890.5716115086,0.4141625479554911,1.3101059794243275,0.9725743631033383,0.28658874694859604,0.6933491120066282
0.048,1.7500895687546845,1.0,2895.6508786154473,0.4174486034294549,1.3097172098770984,0.9729638961242171,0.28655676188769674,0.694117506077632
0.0485,1.7493280196856529,1.0,2900.679783547932,0.42071624633332344,1.30932892370165,0.9733426116832499,0.28652477682679744,0.6948839826580955
0.049,1.7485664706166213,1.0,2905.659282317265,0.42396557490886844,1.3089411112192348,0.9737109140972429,0.2864927917658981,0.6956485644088788
0.0495,1.74780492154759,1.0,2910.590336214953,0.42719668739786165,1.3085537627511046,0.9740691887691296,0.2864608067049988,0.6964112738907369
0.05,1.7470433724785583,1.0,2915.473911711711,0.43040968204207486,1.3081668686185122,0.9744178032440242,0.28642882164409944,0.6971721335646067
0.0505,1.7462818234095268,1.0,2920.3109803597417,0.4336046570832797,1.3077804191427094,0.9747571081971296,0.28639683658320014,0.6979311657918946
0.051000000000000004,1.7455202743404952,1.0,2925.102518695327,0.43678171076324807,1.3073944046449488,0.9750874383584783,0.2863648515223008,0.6986883928347496
0.051500000000000004,1.7447587252714636,1.0,2929.8495081452597,0.43994094132375156,1.3070088154464825,0.9754091133790628,0.28633286646140144,0.6994438368563383
0.052000000000000005,1.7439971762024322,1.0,2934.5529349340663,0.443082447006562,1.3066236418685628,0.9757224386425617,0.28630088140050214,0.7001975199211076
0.0525,1.7432356271334006,1.0,2939.2137899938775,0.4462063260534511,1.306238874232442,0.9760277060265253,0.28626889633960284,0.7009494639950464
0.053,1.742474078064369,1.0,2943.8330688763162,0.44931267670619074,1.3058545028593724,0.9763251946165764,0.2862369112787035,0.701699690945938
0.0535,1.7417125289953375,1.0,2948.4117716665555,0.4524015972065525,1.3054705180706063,0.9766151713769108,0.2862049262178042,0.7024482225436077
0.054,1.740950979926306,1.0,2952.950902898986,0.45547318579630813,1.305086910187396,0.9768978917801224,0.28617294115690484,0.703195080460165
0.0545,1.7401894308572745,1.0,2957.4514714758034,0.45852754071722945,1.3047036695309937,0.9771736003991448,0.28614095609600554,0.7039402862702391
0.055,1.739427881788243,1.0,2961.9144905863855,0.4615647602110882,1.3043207864226518,0.9774425314638896,0.2861089710351062,0.7046838614512076
0.0555,1.7386663327192113,1.0,2966.3409776305466,0.4645849425196561,1.3039382511836224,0.9777049093849658,0.2860769859742069,0.7054258273834224
0.056,1.7379047836501798,1.0,2970.731954141895,0.46758818588470485,1.3035560541351576,0.9779609492466825,0.28604500091330753,0.706166205350425
0.0565,1.7371432345811484,1.0,2975.0884457148704,0.4705745885480063,1.3031741855985102,0.9782108572713791,0.28601301585240824,0.7069050165391586
0.057,1.7363816855121168,1.0,2979.4101399411807,0.47354421196257035,1.3027926475703375,0.9784548286535706,0.2859810307915089,0.7076422594940861
0.0575,1.7356201364430852,1.0,2983.699075561216,0.4764971832002919,1.3024114216073692,0.9786930553480337,0.2859490457306096,0.7083779721983736
0.058,1.7348585873740536,1.0,2987.956527332702,0.47943360892574965,1.3020304959623759,0.9789257201510756,0.28591706066971023,0.7091121795558715
0.0585,1.734097038305022,1.0,2992.183100816527,0.48235357734835327,1.3016498647365513,0.9791529973229052,0.28588507560881093,0.7098448951033811
0.059000000000000004,1.7333354892359907,1.0,2996.379404078161,0.48525717667751245,1.3012695220310901,0.9793750542620967,0.28585309054791164,0.7105761323187452
0.059500000000000004,1.732573940166959,1.0,3000.546047649394,0.48814449512263686,1.3008894619471862,0.979592051829648,0.2858211054870123,0.7113059046209591
0.06,1.7318123910979275,1.0,3004.683644491334,0.4910156208931361,1.3005096785860342,0.9798041446552938,0.28578912042611293,0.7120342253702756
0.0605,1.731050842028896,1.0,3008.7928099576225,0.49387064219842,1.3001301660488278,0.9800114814271705,0.28575713536521363,0.7127611078683134
0.061,1.7302892929598643,1.0,3012.874161758354,0.496709647247898,1.2997509184367617,0.9802142051658672,0.2857251503043143,0.7134865653581564
0.0615,1.729527743890833,1.0,3016.9283199256965,0.49953272425098,1.29937192985103,0.9804124534838083,0.285693165243415,0.7142106110244579
0.062,1.7287661948218014,1.0,3020.955906778835,0.5023399614170756,1.298993194392827,0.9806063588308662,0.28566118018251563,0.7149332579935368
0.0625,1.7280046457527698,1.0,3024.9575468913777,0.5051314469555943,1.2986147061633468,0.9807960487270277,0.28562919512161633,0.7156545193334759
0.063,1.7272430966837382,1.0,3028.9338670576713,0.507907269075946,1.2982364592637838,0.9809816459828935,0.28559721006071703,0.7163744080542136
0.0635,1.7264815476147066,1.0,3032.8854962616456,0.5106675159875402,1.297858447795332,0.9811632689087282,0.2855652249998177,0.7170929371076384
0.064,1.7257199985456753,1.0,3036.8130656451876,0.5134122758997868,1.297480665859186,0.9813410315127401,0.2855332399389183,0.7178101193876765
0.0645,1.7249584494766437,1.0,3040.7172084780136,0.5161416370220951,1.2971031075565398,0.981515043689217,0.28550125487801903,0.7185259677303799
0.065,1.724196900407612,1.0,3044.598560127793,0.5188556875638752,1.2967257669885874,0.9816854113971105,0.28546926981711973,0.7192404949140132
0.0655,1.7234353513385805,1.0,3048.457758031251,0.5215545157345365,1.2963486382565237,0.9818522368296158,0.2854372847562204,0.7199537136591329
0.066,1.7226738022695491,1.0,3052.295441666633,0.5242382097434887,1.2959717154615422,0.9820156185752669,0.2854052996953211,0.7206656366286731
0.0665,1.7219122532005176,1.0,3056.111157214146,0.5269068098242773,1.2955950021137697,0.9821756490388478,0.2853733146344217,0.7213762586905629
0.067,1.721150704131486,1.0,3059.9059450495283,0.5295604284301844,1.2952184888895866,0.9823324215925193,0.28534132957352243,0.7220855989086385
0.0675,1.7203891550624544,1.0,3063.681131515982,0.5321991895721472,1.2948421640373682,0.9824860269869905,0.2853093445126231,0.7227936808219442
0.068,1.7196276059934228,1.0,3067.4370249268795,0.5348231713152448,1.294466024565466,0.9826365503030839,0.2852773594517237,0.7235005114050076
0.0685,1.7188660569243914,1.0,3071.173934681213,0.5374324517245569,1.2940900674822318,0.982784073742278,0.2852453743908244,0.7242060976029858
0.069,1.7181045078553598,1.0,3074.892171251534,0.5400271088651626,1.2937142897960165,0.9829286767441063,0.2852133893299251,0.7249104463317015
0.0695,1.7173429587863283,1.0,3078.5920461718883,0.5426072208021413,1.293338688515172,0.9830704360979956,0.2851814042690258,0.7256135644776749
0.07,1.7165814097172967,1.0,3082.2738720262923,0.5451728656005725,1.2929632606480495,0.9832094260498392,0.2851494192081265,0.7263154588981602
0.07050000000000001,1.715819860648265,1.0,3085.937962436679,0.5477241213255356,1.2925880032030004,0.9833457184035924,0.2851174341472271,0.7270161364211769
0.07100000000000001,1.7150583115792337,1.0,3089.5846320519845,0.5502610660421097,1.2922129131883764,0.9834793826181483,0.2850854490863278,0.7277156038455435
