Time [s],Phi [rad],STIM [ ],Fsee [N],Gamma [ ],Lcerel [ ],q [ ],Lmtc [m],fisomrel [ ]
0.0,1.8,1.0,17.965783292089736,1.0192560068063846e-05,1.3793399002547027,0.005000027683912203,0.288653,0.5411391584016334
0.0005,1.79999375,1.0,18.275307194798234,0.005619344696661716,1.379302547409957,0.012941051886333727,0.2886527375,0.5412295201795835
0.001,1.799975,1.0,21.61714478362335,0.011197033924689497,1.3789384284337836,0.03560959076944052,0.28865195,0.5421099089800201
0.0015,1.79994375,1.0,31.068220903872422,0.016743436727054594,1.3780462902127502,0.07060309713203299,0.2886506375,0.544263400689978
0.002,1.7999,1.0,53.58168995530278,0.022258728595005568,1.3763681769622376,0.11471948622739642,0.2886488,0.5483003678894192
0.0025,1.79984375,1.0,97.11866404112168,0.027743084035707355,1.37393518044396,0.1645764667965909,0.28864643749999996,0.5541214312064514
0.003,1.7997750000000001,1.0,160.95843106728356,0.03319667657995161,1.371214333865281,0.2172820741232211,0.28864354999999997,0.5605864742760069
0.0035,1.79969375,1.0,237.68398153116243,0.038619678781752466,1.3685847142118122,0.2706144965934843,0.2886401375,0.566789886637107
0.004,1.7996,1.0,321.4677145689002,0.044012262229127824,1.3661560674136242,0.3229173563491757,0.2886362,0.5724800200771349
0.0045000000000000005,1.7994937500000001,1.0,409.26893222690336,0.049374597549283854,1.363922786433754,0.3730359818994628,0.2886317375,0.5776792267675137
0.005,1.799375,1.0,499.41486661727316,0.054706854399712894,1.361858313394894,0.4202488392782681,0.28862675,0.5824571461320237
0.0055,1.79924375,1.0,590.791913199957,0.06000920151560124,1.3599388058085906,0.4641749743189905,0.2886212375,0.5868751788044825
0.006,1.7991000000000001,1.0,682.51971618196,0.06528180665311571,1.358146385520911,0.5046811347899407,0.2886152,0.5909794851349075
0.006500000000000001,1.79894375,1.0,773.8632706454689,0.0705248363555697,1.3564675606726317,0.5418020453722782,0.2886086375,0.5948050962630855
0.007,1.798775,1.0,864.2923536184364,0.07573845743822018,1.3548902893156063,0.5756777107269199,0.28860155,0.5983829162930014
0.0075,1.79859375,1.0,953.2589940378681,0.08092283404906551,1.353406536500556,0.6065106750618207,0.2885939375,0.6017341197662025
0.008,1.7984,1.0,1040.3598709548585,0.08607813006122714,1.352008625491509,0.6345328724108201,0.2885858,0.6048785955981462
0.0085,1.79819375,1.0,1125.320058535884,0.09120450908945715,1.350689158952769,0.659985141198825,0.2885771375,0.6078351842889016
0.009000000000000001,1.797975,1.0,1207.8829145174464,0.0963021331869997,1.349442270971659,0.683105010573233,0.28856795,0.6106189389610004
0.0095,1.79774375,1.0,1287.872201318942,0.1013711637222168,1.3482623885161775,0.7041182448890757,0.2885582375,0.6132439692123949
0.01,1.7975,1.0,1365.1553279998952,0.1064117609138194,1.3471445359295309,0.723234875155282,0.288548,0.6157228034893836
0.0105,1.79724375,1.0,1439.6536590746348,0.11142408438334742,1.3460840194810786,0.7406472162394767,0.2885372375,0.6180671283795294
0.011,1.796975,1.0,1511.312180475105,0.11640829276203767,1.3450766762093598,0.7565296612778049,0.28852595000000003,0.6202872689295302
0.0115,1.79669375,1.0,1580.1041022518004,0.12136454342546439,1.3441186850777647,0.771039136095798,0.2885141375,0.622392635779178
0.012,1.7964,1.0,1646.0315185012805,0.12629299275446512,1.3432064633413041,0.7843161170680774,0.28850180000000003,0.6243919755126087
0.0125,1.79609375,1.0,1709.1615222193423,0.13119379899059264,1.3423361778313938,0.7964857520791945,0.2884889375,0.6262944558284194
0.013000000000000001,1.7957750000000001,1.0,1769.5009947381755,0.1360671156037877,1.341505135516571,0.8076598552951098,0.28847555,0.6281066403565321
0.0135,1.79544375,1.0,1827.0871820360687,0.14091309606399105,1.340710643365373,0.8179377959451778,0.2884616375,0.6298350047753623
0.014,1.7951000000000001,1.0,1881.9850949167533,0.14573189384114338,1.3399500083463376,0.8274078477961455,0.2884472,0.6314859433205517
0.0145,1.79474375,1.0,1934.2766597321227,0.1505236619081456,1.3392206282386272,0.8361484698406416,0.2884322375,0.6330655783717829
0.015,1.794375,1.0,1984.046844428364,0.15528855262356672,1.3385201095233599,0.8442294761942465,0.28841675,0.6345795135468509
0.0155,1.79399375,1.0,2031.3679521442916,0.16002671639904897,1.3378463989926426,0.8517130843539299,0.2884007375,0.6360325595908933
0.016,1.7936,1.0,2076.310120906694,0.1647383024129799,1.3371976373645973,0.8586547592644984,0.2883842,0.637429060445579
0.0165,1.7931937500000001,1.0,2118.9577398055644,0.16942345984374702,1.336571965357345,0.8651039523015922,0.2883671375,0.6387733167585913
0.017,1.792775,1.0,2159.392295390343,0.17408233664620867,1.3359676864899344,0.8711048604577719,0.28834955,0.6400692399062538
0.0175,1.7923437500000001,1.0,2197.71978855755,0.17871508215982837,1.3353829706128828,0.8766969638064931,0.2883314375,0.6413209917821371
0.018000000000000002,1.7919,1.0,2234.0127414321555,0.18332184192856493,1.3348164321304443,0.8819157341454227,0.2883128,0.6425317499216823
0.0185,1.79144375,1.0,2268.344512025937,0.18790276086531685,1.3342667611128431,0.8867930026991369,0.2882936375,0.6437045038747751
0.019,1.790975,1.0,2300.795955949784,0.1924579838829826,1.3337326476303044,0.8913573621485766,0.28827395,0.6448422190869486
0.0195,1.79049375,1.0,2331.4500892202673,0.19698765525024572,1.33321282800092,0.8956345489345691,0.2882537375,0.645947739973308
0.02,1.79,1.0,2360.3909589595605,0.2014919190974885,1.332706088573401,0.8996477683896772,0.288233,0.6470237838845289
0.0205,1.78949375,1.0,2387.699792909614,0.20597091897319045,1.3322112964553703,0.9034179849933947,0.2882117375,0.6480728778936291
0.021,1.788975,1.0,2413.438748956193,0.2104247951317329,1.3317275497238423,0.9069642012834616,0.28818995000000003,0.6490970432213512
0.021500000000000002,1.78844375,1.0,2437.6739019452802,0.21485368782749734,1.3312539464558313,0.9103036237598123,0.2881676375,0.650098287491828
0.022,1.7879,1.0,2460.4749189403274,0.21925773731486517,1.3307895847283515,0.9134518573959083,0.2881448,0.6510786053419795
0.0225,1.78734375,1.0,2481.909786976663,0.22363708292050552,1.3303336099510346,0.9164230857582393,0.28812143749999997,0.6520398792624928
0.023,1.786775,1.0,2502.046377054182,0.22799186392777826,1.3298851963226759,0.9192302175980297,0.28809755,0.6529839197932066
0.0235,1.78619375,1.0,2520.9571155453445,0.23232222027601432,1.3294434996694502,0.9218850108538962,0.28807313749999996,0.6539125654513551
0.024,1.7856,1.0,2538.6917663538275,0.23662828712502046,1.3290079120871507,0.9243982345985844,0.2880482,0.6548271485460896
0.0245,1.78499375,1.0,2555.3019475912843,0.24091019963460353,1.3285778256715712,0.9267797283080649,0.2880227375,0.6557289938678015
0.025,1.784375,1.0,2570.8409772488376,0.24516809296457034,1.328152632518505,0.9290384948563625,0.28799675,0.6566194189131859
0.025500000000000002,1.78374375,1.0,2585.3637270618424,0.24940210227472775,1.3277317247237452,0.9311827830768119,0.2879702375,0.6574997340867323
0.026000000000000002,1.7831000000000001,1.0,2598.9206155607676,0.2536123613310936,1.3273145490538683,0.9332201694575546,0.2879432,0.6583711287553026
0.0265,1.78244375,1.0,2611.5619884387197,0.25779900431096797,1.3269005643727425,0.9351576164984111,0.2879156375,0.659234760882597
0.027,1.781775,1.0,2623.3448134227847,0.2619621663036098,1.3264891783976742,0.9370015211807224,0.28788755,0.6600918889962106
0.0275,1.7810937500000001,1.0,2634.3059013775132,0.26610197697318017,1.3260799950502689,0.9387578028158035,0.2878589375,0.6609433572321959
0.028,1.7804,1.0,2644.4828435596664,0.2702185659838402,1.325672618252132,0.9404319195880674,0.2878298,0.6617900054872486
0.0285,1.77969375,1.0,2653.913944440648,0.2743120629997509,1.3252666519248688,0.9420289105282723,0.2878001375,0.6626326694693438
0.029,1.778975,1.0,2662.63815800733,0.2783825976850734,1.3248616999900853,0.9435534331601381,0.28776995,0.6634721807383668
0.029500000000000002,1.7782437500000001,1.0,2670.6950275408994,0.28243029970396877,1.3244573663693868,0.9450097973134215,0.2877392375,0.6643093667367395
0.03,1.7775,1.0,2678.1181127517393,0.28645529602529746,1.3240533147789124,0.9464020025892738,0.287708,0.665144927234691
0.0305,1.77674375,1.0,2684.948036898479,0.29045771732794246,1.3236491482872768,0.9477337514235434,0.2876762375,0.6659796837146694
0.031,1.775975,1.0,2691.215900490244,0.2944376901276795,1.3232445611075265,0.9490084913363673,0.28764395,0.6668142656709266
0.0315,1.7751937500000001,1.0,2696.9478240874046,0.2983953386178705,1.3228392961414164,0.9502294314554833,0.2876111375,0.6676491991929683
0.032,1.7744,1.0,2702.1702177572415,0.30233078699187754,1.3224330962907014,0.9513995569807663,0.2875778,0.6684850077053295
0.0325,1.77359375,1.0,2706.9097534916004,0.3062441594430626,1.3220257044571364,0.9525216475524199,0.2875439375,0.6693222119543528
0.033,1.772775,1.0,2711.1933390896065,0.3101355801647878,1.3216168635424763,0.9535982939010588,0.28750955,0.6701613299907532
0.0335,1.7719437500000002,1.0,2715.048093506435,0.3140051733504151,1.3212063164484762,0.9546319129587462,0.2874746375,0.6710028771479636
0.034,1.7711000000000001,1.0,2718.494362108186,0.3178530543136221,1.3207938694827492,0.9556247663414995,0.2874392,0.6718472362955512
0.0345,1.7702437500000001,1.0,2721.5683496514653,0.3216793583532662,1.320379185957245,0.9565789572424288,0.2874032375,0.6726950803742764
0.035,1.7693750000000001,1.0,2724.2873753292192,0.32548420385931504,1.3199621025225121,0.9574964674558336,0.28736675,0.6735467249661143
0.035500000000000004,1.76849375,1.0,2726.6683632518407,0.32926770868584115,1.3195424604071053,0.9583791526883204,0.2873297375,0.6744024744801451
0.036000000000000004,1.7676,1.0,2728.7283336190703,0.33302999068691724,1.3191201008395796,0.9592287517010616,0.2872922,0.6752626315055374
0.0365,1.76669375,1.0,2730.4843921349384,0.3367711677166158,1.3186948650484895,0.9600468950087383,0.2872541375,0.6761274967848375
0.037,1.765775,1.0,2731.953719980532,0.34049135762900956,1.3182665942623903,0.9608351128372454,0.28721555,0.6769973691856473
0.0375,1.76484375,1.0,2733.153564346784,0.34419067827817107,1.3178351297098367,0.9615948424108808,0.2871764375,0.6778725456706991
0.038,1.7639,1.0,2734.1012295252544,0.347869247518173,1.3174003126193832,0.9623274346323144,0.28713679999999997,0.6787533212663197
0.0385,1.76294375,1.0,2734.814068558275,0.3515271832030879,1.316961984219585,0.9630341602120459,0.28709663750000003,0.6796399890292844
0.039,1.761975,1.0,2735.304549309101,0.355164602245398,1.3165200304681808,0.9637162192621028,0.28705595,0.6805327497207332
0.0395,1.7609937500000001,1.0,2735.591801157041,0.35878161914714635,1.3160742771364782,0.9643747362971796,0.2870147375,0.6814319238923878
0.04,1.76,1.0,2735.687192954643,0.3623783476511377,1.3156246207120232,0.9650107775816895,0.286973,0.6823376875012483
0.0405,1.7589937500000001,1.0,2735.5953585114794,0.36595490100308775,1.3151710190310522,0.9656253542143656,0.2869307375,0.6832500917185209
0.041,1.7579769264758627,1.0,2735.416769613923,0.3695113924487121,1.3147134299298018,0.966219420529934,0.2868880309119862,0.6841691869318232
0.0415,1.756958866353136,1.0,2735.6142581961135,0.3730479346031621,1.3142518677203665,0.9667938825835246,0.2868452723868317,0.685094909548027
0.042,1.7559408062304092,1.0,2736.2081300635095,0.3765646402387262,1.3137867068903053,0.9673496268899914,0.2868025138616772,0.6860264750603878
0.0425,1.7549227461076826,1.0,2737.1663721485334,0.38006162001114463,1.313318239189094,0.9678874843440811,0.28675975533652265,0.68696326846762
0.043000000000000003,1.7539046859849559,1.0,2738.4597847697764,0.38353898412343707,1.3128467313318102,0.9684082388957558,0.28671699681136814,0.687904727981512
0.043500000000000004,1.752886625862229,1.0,2740.059205708537,0.3869968427786232,1.3123724500335312,0.9689126326676818,0.28667423828621363,0.6888502948343401
0.044,1.7518685657395023,1.0,2741.937918121415,0.3904353054174751,1.3118956400161248,0.969401366760792,0.28663147976105907,0.6897994570756757
0.0445,1.7508505056167756,1.0,2744.069750356426,0.39385448170826415,1.3114165411354208,0.9698751053361415,0.28658872123590456,0.690751715265468
0.045,1.7498324454940488,1.0,2746.434604573429,0.3972544790881356,1.3109353381754183,0.9703344737122975,0.28654596271075006,0.6917066819953389
0.0455,1.748814385371322,1.0,2749.0129017309478,0.40063540479916454,1.3104522111860681,0.9707800649049219,0.2865032041855955,0.6926639814084214
0.046,1.7477963252485953,1.0,2751.785106823472,0.4039973660472925,1.309967339718493,0.9712124419348983,0.286460445660441,0.6936232407775522
0.0465,1.7467782651258685,1.0,2754.7423891111916,0.4073404631707249,1.309480806307491,0.9716321316262148,0.2864176871352865,0.6945842810180652
0.047,1.7457602050031418,1.0,2757.8506868380323,0.4106648140586741,1.3089929216405018,0.9720396536501132,0.2863749286101319,0.6955464744134779
0.0475,1.744742144880415,1.0,2761.0999664653436,0.4139705211803632,1.3085037786788727,0.9724354845719939,0.2863321700849774,0.6965096254491618
0.048,1.7437240847576883,1.0,2764.480181306496,0.41725768700501525,1.3080134703839508,0.9728200779014207,0.2862894115598229,0.6974735397386322
0.0485,1.7427060246349615,1.0,2767.9812690295107,0.4205264140018534,1.3075220897170836,0.9731938654239288,0.2862466530346684,0.6984380240307333
0.049,1.7416879645122347,1.0,2771.5931493508706,0.42377680464010076,1.3070297296396185,0.9735572584441162,0.2862038945095139,0.6994028862162716
0.0495,1.740669904389508,1.0,2775.3057219209954,0.42700896138898037,1.3065364831129027,0.9739106489466871,0.2861611359843593,0.7003679353340979
0.05,1.7396518442667812,1.0,2779.1088644018164,0.43022298671771536,1.3060424430982835,0.9742544106815618,0.2861183774592048,0.7013329815766387
0.0505,1.7386337841440547,1.0,2782.9924307348283,0.43341898309552884,1.3055477025571083,0.9745889001786553,0.2860756189340503,0.7022978362948753
0.051000000000000004,1.737615724021328,1.0,2786.9462496018664,0.43659705299164386,1.3050523544507244,0.9749144576974713,0.28603286040889575,0.703262312002773
0.051500000000000004,1.7365976638986012,1.0,2790.9649752065093,0.4397572928850403,1.3045564481247907,0.9752314046441969,0.28599010188374124,0.7042263070969761
0.052000000000000005,1.7355796037758744,1.0,2795.0380012877963,0.4428998097162825,1.3040600800543691,0.9755400521904831,0.28594734335858674,0.7051896292006716
0.0525,1.7345615436531476,1.0,2799.15915682379,0.4460247032110032,1.3035633066382695,0.9758406943991755,0.2859045848334322,0.706152164741199
0.053,1.7335434835304209,1.0,2803.32430890824,0.44913207007873773,1.3030661658399245,0.9761336109601076,0.28586182630827767,0.7071138364894368
0.0535,1.732525423407694,1.0,2807.5293130151767,0.45222200702902127,1.3025686956227664,0.9764190694056839,0.28581906778312316,0.7080745676949545
0.054,1.7315073632849673,1.0,2811.7700127056924,0.45529461077138905,1.3020709339502283,0.9766973257440011,0.2857763092579686,0.709034282086852
0.0545,1.7304893031622406,1.0,2816.042239366978,0.45834997801537625,1.301572918785742,0.9769686250538402,0.2857335507328141,0.709992903874516
0.055,1.7294712430395138,1.0,2820.3418119824796,0.4613882054705182,1.3010746880927408,0.9772332020441169,0.2856907922076596,0.7109503577482743
0.0555,1.728453182916787,1.0,2824.664536934744,0.46440938984635005,1.3005762798346567,0.9774912815802017,0.285648033682505,0.7119065688799686
0.056,1.7274351227940603,1.0,2829.006207840183,0.46741362785240703,1.3000777319749224,0.9777430791793267,0.2856052751573505,0.7128614629234269
0.0565,1.7264170626713335,1.0,2833.365635915413,0.4704010048465848,1.2995790554404687,0.9779887988812928,0.285562516632196,0.7138150176702698
0.057,1.7253990025486068,1.0,2837.738633330258,0.47337162149989176,1.2990802878609082,0.9782286393164072,0.2855197581070415,0.7147671601181004
0.0575,1.72438094242588,1.0,2842.1190993563077,0.4763255866151226,1.2985814837901244,0.9784627927330968,0.285476999581887,0.7157177855155857
0.058,1.7233628823031533,1.0,2846.5057827013784,0.4792629899997847,1.2980826544500073,0.9786914395585105,0.28543424105673243,0.7166668721812423
0.0585,1.7223448221804265,1.0,2850.8974281918977,0.48218392146138556,1.2975838110624474,0.9789147530507628,0.2853914825315779,0.7176143985763701
0.059000000000000004,1.7213267620577,1.0,2855.2927767675105,0.48508847080743245,1.297084964849335,0.9791328996409527,0.2853487240064234,0.7185603433050682
0.059500000000000004,1.7203087019349732,1.0,2859.690565479483,0.48797672784543283,1.2965861270325605,0.9793460392562696,0.28530596548126885,0.7195046851142408
0.06,1.7192906418122464,1.0,2864.089527491193,0.490848782382894,1.2960873088340144,0.9795543256253729,0.28526320695611435,0.7204474028935939
0.0605,1.7182725816895197,1.0,2868.488392081552,0.4937047242273235,1.2955885214755867,0.97975790656715,0.28522044843095984,0.721388475675627
0.061,1.717254521566793,1.0,2872.885884651242,0.49654464318622854,1.295089776179168,0.9799569242638744,0.2851776899058053,0.722327882635614
0.0615,1.7162364614440662,1.0,2877.2807267321946,0.49936862906711665,1.2945910841666486,0.9801515155197237,0.28513493138065077,0.7232656030915772
0.062,1.7152184013213394,1.0,2881.6716359988445,0.5021767716774952,1.2940924566599188,0.9803418120055475,0.28509217285549626,0.7242016165042532
0.0625,1.7142003411986126,1.0,2886.0573262831513,0.5049691608248714,1.2935939048808693,0.9805279404907105,0.2850494143303417,0.7251359024770505
0.063,1.7131822810758859,1.0,2890.4365075922155,0.5077458863167529,1.29309544005139,0.9807100230627924,0.2850066558051872,0.7260684407560013
0.0635,1.7121642209531591,1.0,2894.8078861279437,0.510507037960647,1.2925970733933716,0.9808881773358605,0.2849638972800327,0.7269992112297
0.064,1.7111461608304324,1.0,2899.171129640227,0.5132526915176362,1.2920988076148512,0.9810625152088367,0.2849211387548781,0.7279282097894839
0.0645,1.7101281007077056,1.0,2903.5262544636626,0.5159829292421403,1.2916006423442232,0.9812331448723209,0.2848783802297236,0.7288554380881264
0.065,1.7091100405849788,1.0,2907.870860983866,0.5186978693084211,1.2911025984874653,0.9814001742183429,0.2848356217045691,0.7297808582711911
0.0655,1.708091980462252,1.0,2912.2047774125554,0.5213975933288365,1.2906046772842898,0.9815637037797085,0.2847928631794146,0.730704469198003
0.066,1.7070739203395253,1.0,2916.5278316413114,0.5240821829157442,1.2901068799744095,0.9817238305552354,0.2847501046542601,0.7316262697433468
0.0665,1.7060558602167988,1.0,2920.8398512449617,0.5267517196815018,1.2896092077975367,0.9818806481594216,0.28470734612910553,0.7325462587974592
0.067,1.705037800094072,1.0,2925.1406634852797,0.5294062852384672,1.289111661993384,0.9820342469647527,0.284664587603951,0.7334644352660181
0.0675,1.7040197399713453,1.0,2929.430095314063,0.5320459611989982,1.2886142438016641,0.9821847142370598,0.2846218290787965,0.7343807980701327
0.068,1.7030016798486185,1.0,2933.7079733767628,0.5346708291754524,1.2881169544620894,0.9823321342643118,0.28457907055364196,0.7352953461463339
0.0685,1.7019836197258917,1.0,2937.974124016211,0.5372809707801876,1.2876197952143726,0.9824765884792045,0.28453631202848745,0.7362080784465637
0.069,1.700965559603165,1.0,2942.2283732758738,0.5398764676255615,1.2871227672982262,0.9826181555758893,0.28449355350333294,0.7371189939381654
0.0695,1.6999474994804382,1.0,2946.470546903613,0.5424574013239319,1.2866258719533628,0.9827569116211525,0.2844507949781784,0.7380280916038728
0.07,1.6989294393577115,1.0,2950.700470355316,0.5450238534876566,1.286129110419495,0.9828929301603553,0.28440803645302387,0.7389353704418
0.07050000000000001,1.6979113792349847,1.0,2954.9179687984847,0.5475759057290933,1.2856324839363353,0.9830262823184053,0.28436527792786936,0.739840829465431
0.07100000000000001,1.696893319112258,1.0,2959.1228671158988,0.5501136396605997,1.2851359937435964,0.9831570368960323,0.2843225194027148,0.7407444677036088
0.07150000000000001,1.6958752589895312,1.0,2963.3149899096175,0.5526371368945335,1.2846396410809906,0.9832852604616121,0.2842797608775603,0.7416462842005257
