Time [s],Phi [rad],STIM [ ],Fsee [N],Gamma [ ],Lcerel [ ],q [ ],Lmtc [m],fisomrel [ ]
0.0,1.8,1.0,17.96812414208323,1.7688063236466272e-05,1.3793396379997263,0.005000083010307448,0.288653,0.541139792864275
0.0005,1.79999375,1.0,18.279958776551343,0.005626798155986879,1.3793020307223312,0.012961870095302384,0.2886527375,0.5412307700571294
0.001,1.799975,1.0,21.62725698506257,0.011204445576001355,1.3789373957124598,0.03564864521584747,0.28865195,0.5421124047533759
0.0015,1.79994375,1.0,31.0901799068066,0.016750806804865365,1.3780444196810047,0.07065654704198365,0.2886506375,0.5442679105486365
0.002,1.7999,1.0,53.62736965947616,0.0222660573325015,1.376365214110463,0.11478278467224286,0.2886488,0.5483074796160248
0.0025,1.79984375,1.0,97.19448347080713,0.02775037166478486,1.373931527594251,0.1646453331832638,0.28864643749999996,0.5541301424458862
0.003,1.7997750000000001,1.0,161.0566045050703,0.03320392333119147,1.371210659703249,0.21735312610658042,0.28864354999999997,0.5605951725850724
0.0035,1.79969375,1.0,237.79462286582321,0.03862688488444361,1.368581306567201,0.2706851714654663,0.2886401375,0.5667978968406091
0.004,1.7996,1.0,321.58522440439066,0.04401942791127825,1.366152955315855,0.3229857934490778,0.2886362,0.5724872873516121
0.0045000000000000005,1.7994937500000001,1.0,409.39046131949294,0.04938172303763557,1.3639199338985848,0.373100949966435,0.2886317375,0.5776858472935258
0.005,1.799375,1.0,499.53873157783283,0.05471393991975937,1.3618556814415423,0.42030962432989605,0.28862675,0.5824632200525417
0.0055,1.79924375,1.0,590.9168039538604,0.060016247291394355,1.3599363658781567,0.4642312532332418,0.2886212375,0.5868807797143677
0.006,1.7991000000000001,1.0,682.6446805331583,0.06528881290764223,1.3581441141082702,0.504732855819194,0.2886152,0.5909846732449054
0.006500000000000001,1.79894375,1.0,774.0094823057184,0.07053180360018864,1.3564650648325367,0.541849098288435,0.2886086375,0.5948107702612736
0.007,1.798775,1.0,864.4141042282627,0.07574538525947076,1.354888322729828,0.5757208168613159,0.28860155,0.598387367315081
0.0075,1.79859375,1.0,953.370556378256,0.08092972285173922,1.3534048206208704,0.6065499564822859,0.2885939375,0.6017379871235026
0.008,1.7984,1.0,1040.4763174156674,0.08608498020027007,1.3520069111011197,0.6345685007381485,0.2885858,0.6048824443145677
0.0085,1.79819375,1.0,1125.4336981314307,0.09121132072672099,1.3506875502786917,0.6600175063456114,0.2885771375,0.6078387821413587
0.009000000000000001,1.797975,1.0,1208.014288961054,0.09630890712187762,1.3494404759320326,0.6831342653687352,0.28856795,0.6106229393507479
0.0095,1.79774375,1.0,1288.0046839299366,0.10137789974159343,1.348260635448414,0.7041448166342714,0.2885582375,0.6132478628733002
0.01,1.7975,1.0,1365.2766832014947,0.10641845894172197,1.3471429762151066,0.7232591147813928,0.288548,0.6157262565832843
0.0105,1.79724375,1.0,1439.7664463667995,0.1114307447542948,1.3460826078863442,0.7406693442463964,0.2885372375,0.6180702440005963
0.011,1.796975,1.0,1511.4198941639372,0.11641491577254232,1.3450753604591497,0.7565498730089486,0.28852595000000003,0.620290164553533
0.0115,1.79669375,1.0,1580.2097520297662,0.12137112941447196,1.3441174229426285,0.7710576115689514,0.2885141375,0.6223954056993755
0.012,1.7964,1.0,1646.143824077767,0.12629954228681523,1.3432051488363763,0.7843329896997746,0.28850180000000003,0.624394852717477
0.0125,1.79609375,1.0,1709.2608220555853,0.1312003114677598,1.3423350372190979,0.7965012786018799,0.2884889375,0.6262969460848179
0.013000000000000001,1.7957750000000001,1.0,1769.580718928887,0.13607359099250432,1.3415042355068503,0.807674199893986,0.28847555,0.6281086005449036
0.0135,1.79544375,1.0,1827.1540698144195,0.14091953484464542,1.3407099002597642,0.8179510467240985,0.2884616375,0.6298366194674156
0.014,1.7951000000000001,1.0,1882.048003271327,0.14573829623393508,1.3399493197194354,0.8274200755266027,0.2884472,0.6314874362955775
0.0145,1.79474375,1.0,1934.3477775708882,0.15053002903219984,1.339219860342211,0.836159728047523,0.2884322375,0.6330672396346011
0.015,1.794375,1.0,1984.1220523789527,0.1552948846791665,1.3385193077141215,0.8442398726621552,0.28841675,0.6345812445942345
0.0155,1.79399375,1.0,2031.4340324534287,0.1600330128511596,1.337845702748405,0.8517227449285164,0.2884007375,0.636034059739912
0.016,1.7936,1.0,2076.3629919718765,0.1647445632245037,1.3371970863582991,0.8586637649962425,0.2883842,0.637430245380975
0.0165,1.7931937500000001,1.0,2119.0017147022795,0.16942968535681724,1.3365715116991035,0.8651123491945152,0.2883671375,0.6387742905375646
0.017,1.792775,1.0,2159.436248429424,0.17408852729356236,1.3359672373224563,0.8711126765115187,0.28834955,0.6400702023147843
0.0175,1.7923437500000001,1.0,2197.7667028995124,0.1787212383401826,1.3353824953821372,0.8767042417520706,0.2883314375,0.641322008262917
0.018000000000000002,1.7919,1.0,2234.0597016750476,0.18332796356575254,1.3348159603145062,0.8819225281537237,0.2883128,0.642532757393734
0.0185,1.79144375,1.0,2268.3901007655436,0.18790884803934668,1.334266306555923,0.8867993574651539,0.2882936375,0.6437054729000692
0.019,1.790975,1.0,2300.8403071010935,0.19246403683003963,1.333732208542747,0.8913633140495831,0.28827395,0.6448431536389683
0.0195,1.79049375,1.0,2331.4916874789023,0.19699367395998602,1.3332124188839158,0.8956401344910961,0.2882537375,0.6459486093798783
0.02,1.79,1.0,2360.432619630548,0.20149790422810715,1.3327056813621665,0.8996530110638281,0.288233,0.6470246479251803
0.0205,1.78949375,1.0,2387.7411794505556,0.20597687069070636,1.3322108942436097,0.9034229126895337,0.2882117375,0.6480737300569552
0.021,1.788975,1.0,2413.479245977813,0.2104307135785402,1.3317271582610413,0.9069688398255008,0.28818995000000003,0.6490978714032337
0.021500000000000002,1.78844375,1.0,2437.7126103423825,0.2148595731223653,1.3312535741472573,0.9103079971067344,0.2881676375,0.6500990740263632
0.022,1.7879,1.0,2460.510651837965,0.2192635895529382,1.330789242635054,0.9134559878316989,0.2881448,0.6510793270310183
0.0225,1.78734375,1.0,2481.943452446056,0.2236429026677205,1.330333289045222,0.9164269898192988,0.28812143749999997,0.6520405553206818
0.023,1.786775,1.0,2502.072900874355,0.2279976505876721,1.3298849445117185,0.9192339206813576,0.28809755,0.6529844495679223
0.0235,1.78619375,1.0,2520.9801083868483,0.23232797429823285,1.3294432822009774,0.9218885211307205,0.28807313749999996,0.6539130223617575
0.024,1.7856,1.0,2538.7137392415966,0.2366340088729443,1.3290077049926396,0.9244015614472028,0.2880482,0.6548275830850645
0.0245,1.78499375,1.0,2555.324291437488,0.24091588938534803,1.3285776157663465,0.9267828821743798,0.2880227375,0.6557294337286454
0.025,1.784375,1.0,2570.8639453693677,0.24517375090898566,1.328152417401739,0.9290414871292301,0.28799675,0.6566198691115909
0.025500000000000002,1.78374375,1.0,2585.386420388471,0.24940772851739873,1.3277315127784584,0.9311856259767893,0.2879702375,0.6575001770789005
0.026000000000000002,1.7831000000000001,1.0,2598.9429392339393,0.25361795641240437,1.3273143411054626,0.9332228731833222,0.2879432,0.6583715628402323
0.0265,1.78244375,1.0,2611.5809137192273,0.257804567841175,1.326900388508014,0.9351601943373037,0.2879156375,0.659235127529686
0.027,1.781775,1.0,2623.361473688819,0.26196769844410833,1.3264890239288176,0.9370039795988501,0.28788755,0.6600922106314029
0.0275,1.7810937500000001,1.0,2634.3211703589786,0.2661074779114244,1.3260798537757899,0.9387601481566112,0.2878589375,0.6609436510253811
0.028,1.7804,1.0,2644.4973320922663,0.27022403593334327,1.325672484456847,0.9404341580800268,0.2878298,0.6617902833791605
0.0285,1.77969375,1.0,2653.927997702838,0.274317502200085,1.3252665223799052,0.9420310482917809,0.2878001375,0.6626329381979676
0.029,1.778975,1.0,2662.651853196024,0.27838800640186956,1.3248615739528804,0.943555476213762,0.28776995,0.6634724418649784
0.029500000000000002,1.7782437500000001,1.0,2670.7081719425396,0.2824356782289171,1.3244572455836885,0.9450117515795827,0.2877392375,0.6643096166717031
0.03,1.7775,1.0,2678.1327594187082,0.2864606444743096,1.3240531803753661,0.9464038707360534,0.287708,0.6651452050019466
0.0305,1.77674375,1.0,2684.962688424401,0.2904630362213968,1.3236490140102548,0.9477355403237889,0.2876762375,0.66597996087433
0.031,1.775975,1.0,2691.227037262266,0.294442979184658,1.3232444591611048,0.9490102094727236,0.28764395,0.6668144758343268
0.0315,1.7751937500000001,1.0,2696.953611640613,0.2984005977394517,1.322839243218244,0.9502310848535677,0.2876111375,0.6676493081577534
0.032,1.7744,1.0,2702.1705153555663,0.3023360162611364,1.322433093572,0.951401149417875,0.2875778,0.6684850132958864
0.0325,1.77359375,1.0,2706.9061209902784,0.30624935912507056,1.3220257376126998,0.9525231807467458,0.2875439375,0.6693221438615964
0.033,1.772775,1.0,2711.189042261741,0.3101407507066128,1.3216169027306715,0.9535997676833041,0.28750955,0.6701612496107456
0.0335,1.7719437500000002,1.0,2715.0402046999657,0.31401030966749216,1.3212063883453873,0.9546333321064709,0.2874746375,0.6710027298664294
0.034,1.7711000000000001,1.0,2718.484006311648,0.3178581594744454,1.3207939638034638,0.955626133398467,0.2874392,0.6718470433267282
0.0345,1.7702437500000001,1.0,2721.559549207019,0.3216844350324307,1.3203792660665032,0.9565802715600724,0.2874032375,0.6726949166922472
0.035,1.7693750000000001,1.0,2724.282697996387,0.3254892536992104,1.319962145078373,0.9574977295635854,0.28736675,0.6735466381276984
0.035500000000000004,1.76849375,1.0,2726.669421510658,0.32927273283254666,1.3195424507829399,0.9583803638611955,0.2873297375,0.6744024940932158
0.036000000000000004,1.7676,1.0,2728.735782331551,0.3330349897902017,1.3191200331240716,0.9592299139085939,0.2872922,0.6752627693204447
0.0365,1.76669375,1.0,2730.4979268213438,0.33677614192993777,1.3186947420456354,0.960048010867905,0.2872541375,0.6761277467872
0.037,1.765775,1.0,2731.972075651789,0.34049630660951713,1.3182664274914988,0.9608361855690754,0.28721555,0.6769977076906841
0.0375,1.76484375,1.0,2733.174514832255,0.34419560118670206,1.3178349394055286,0.9615958758004673,0.2871764375,0.6778729314192729
0.038,1.7639,1.0,2734.1215872368766,0.34787414301925473,1.3174001277315925,0.9623284329919726,0.28713679999999997,0.6787536955228596
0.0385,1.76294375,1.0,2734.8296846314574,0.35153204946493743,1.3169618424135578,0.9630351283473775,0.28709663750000003,0.6796402756817695
0.039,1.761975,1.0,2735.315240198725,0.3551694378815124,1.3165199333952917,0.9637171584768777,0.28705595,0.6805329456742351
0.0395,1.7609937500000001,1.0,2735.594430295824,0.3587864250912738,1.3160742532652292,0.9643756507143822,0.2870147375,0.681431972011568
0.04,1.76,1.0,2735.6769349396936,0.36238311638213355,1.3156247138480903,0.965011670906253,0.286973,0.6823375000265022
0.0405,1.7589937500000001,1.0,2735.5831126995477,0.3659596412975224,1.315171130216902,0.9656262203632026,0.2869307375,0.6832498682327826
0.041,1.757975,1.0,2735.32162630595,0.36951610964662873,1.3147134237968576,0.9662202499025325,0.28688795,0.6841691992412611
0.0415,1.75694375,1.0,2734.9011527944344,0.3730526312386412,1.31425151601315,0.96679465760648,0.2868446375,0.6850956144242248
0.042,1.7559,1.0,2734.330380922287,0.3765693158827483,1.3137853282909722,0.9673502922879266,0.28680079999999997,0.6860292338945371
0.0425,1.75484375,1.0,2733.6180087212883,0.3800662733881385,1.3133147820555173,0.9678879566940722,0.2867564375,0.6869701764843867
0.043000000000000003,1.753775,1.0,2732.772741187737,0.3835436135640003,1.3128397987319786,0.9684084104703548,0.28671155,0.687918559723645
0.043500000000000004,1.75269375,1.0,2731.8032881098957,0.38700144621952237,1.312360299745549,0.9689123729048009,0.28666613750000003,0.6888744998178278
0.044,1.7516,1.0,2730.7183620311575,0.39043988116389305,1.3118762065214213,0.9694005254711172,0.2866202,0.6898381116256624
0.0445,1.75049375,1.0,2729.5266763512986,0.39385902820630103,1.3113874404847892,0.9698735141871369,0.2865737375,0.6908095086362624
0.045,1.7493750000000001,1.0,2728.236943563914,0.3972589971559347,1.310893923060845,0.9703319518037198,0.28652675,0.6917888029459102
0.0455,1.74824375,1.0,2726.855333774873,0.400639896973358,1.3103955987722995,0.9707764214632697,0.2864792375,0.692776059511434
0.046,1.7471,1.0,2725.38840422202,0.4040018334057312,1.3098924086085586,0.9712074761709869,0.2864312,0.6937713491287825
0.0465,1.7459437500000001,1.0,2723.843648476919,0.4073449120778521,1.3093842850144222,0.971625640674635,0.28638263750000004,0.6947747582465396
0.047,1.744775,1.0,2722.2264794099556,0.4106692384473759,1.3088711793287853,0.9720314151290443,0.28633355,0.6957863347577977
0.0475,1.74359375,1.0,2720.538004935863,0.41397491781005213,1.3083530820555007,0.9724252779801013,0.28628393750000003,0.6968060484275308
0.048,1.7424,1.0,2718.794349578785,0.4172620551718727,1.3078298469487923,0.9728076747771846,0.2862338,0.6978341368861067
0.0485,1.7411949867451455,1.0,2717.0582795307496,0.42053075452321653,1.3073014611978426,0.9731790388708247,0.2861831894432961,0.6988705738063483
0.049,1.7399880471973426,1.0,2715.7598370039736,0.42378111881591185,1.3067682224814534,0.9735398042215334,0.2861324979822884,0.6999147247307701
0.0495,1.7387811076495399,1.0,2714.9614978179948,0.4270132510017869,1.3062304284784263,0.9738903842791522,0.2860818065212807,0.7009659587816308
0.05,1.737574168101737,1.0,2714.627676012746,0.4302272534248435,1.3056884015262802,0.9742311747296307,0.28603111506027296,0.7020236006770015
0.0505,1.7363672285539342,1.0,2714.7168565501984,0.43342322826727026,1.305142519224883,0.9745625565674534,0.28598042359926523,0.7030868716871556
0.051000000000000004,1.7351602890061313,1.0,2715.197352607413,0.43660127605402677,1.3045930705421964,0.9748848873142852,0.2859297321382575,0.7041551702094277
0.051500000000000004,1.7339533494583286,1.0,2716.0376421570513,0.43976149729065644,1.3040403436564996,0.9751985082091179,0.2858790406772498,0.7052278999656812
0.052000000000000005,1.7327464099105256,1.0,2717.2160547136714,0.4429039888190749,1.303484537509765,0.975503739052625,0.28582834921624206,0.7063046412387883
0.0525,1.7315394703627227,1.0,2718.6896928387705,0.44602885602975334,1.3029260447992057,0.9758008985749933,0.28577765775523434,0.7073846026221609
0.053,1.73033253081492,1.0,2720.4341081928696,0.4491361978869983,1.3023650903043904,0.9760902802720048,0.28572696629422667,0.7084673219554141
0.0535,1.729125591267117,1.0,2722.4315007905784,0.45222611087650855,1.3018018383974455,0.9763721608480358,0.2856762748332189,0.7095524564410786
0.054,1.7279186517193144,1.0,2724.6640809828514,0.45529869148398244,1.301236453450498,0.9766468050565623,0.2856255833722112,0.7106396655375188
0.0545,1.7267117121715114,1.0,2727.114061383142,0.4583540361951187,1.300669099835675,0.976914466321686,0.28557489191120344,0.7117286109821587
0.055,1.7255047726237085,1.0,2729.763649394039,0.4613922414956159,1.300099941925103,0.9771753873223664,0.2855242004501958,0.7128189568129779
0.0555,1.7242978330759058,1.0,2732.5950403316215,0.4644134038711726,1.2995291440909087,0.9774298005418869,0.28547350898918805,0.7139103693882898
0.056,1.7230908935281029,1.0,2735.5904111498994,0.4674176198074874,1.2989568707052193,0.9776779287848886,0.28542281752818033,0.7150025174047923
0.0565,1.7218839539803001,1.0,2738.736642778944,0.4704049824193804,1.2983832432368005,0.977919982869168,0.2853721260671726,0.7160951535570419
0.057,1.7206770144324972,1.0,2742.0180671319886,0.4733755888825752,1.29780840610958,0.9781561666822297,0.2853214346061649,0.7171879886813504
0.0575,1.7194700748846943,1.0,2745.4190243464277,0.4763295365277644,1.2972325034230408,0.9783866758425548,0.28527074314515716,0.7182807363165564
0.058,1.7182631353368916,1.0,2748.9315074323763,0.4792669166894824,1.29665560967928,0.9786116936729913,0.28522005168414943,0.7193732437685416
0.0585,1.7170561957890886,1.0,2752.547495245484,0.4821878207022635,1.2960777993803954,0.9788313962045101,0.2851693602231417,0.7204653594198417
0.059000000000000004,1.715849256241286,1.0,2756.258950911347,0.4850923399006421,1.2954991470284836,0.9790459525259048,0.285118668762134,0.7215569327341794
0.059500000000000004,1.714642316693483,1.0,2760.057820373184,0.4879805656191526,1.2949197271256419,0.9792555251140904,0.28506797730112626,0.7226478142606408
0.06,1.7134353771456803,1.0,2763.9360310622515,0.4908525891923293,1.2943396141739674,0.9794602701462207,0.28501728584011854,0.7237378556375001
0.0605,1.7122284375978774,1.0,2767.8854906916768,0.4937085019547067,1.2937588826755573,0.9796603377947558,0.28496659437911087,0.7248269095956894
0.061,1.7110214980500744,1.0,2771.8980861729337,0.49654839524081906,1.293177607132509,0.9798558725065357,0.2849159029181031,0.725914829961914
0.0615,1.7098145585022717,1.0,2775.9689702334954,0.4993723546393815,1.2925958324152464,0.9800470112573408,0.2848652114570954,0.7270015269554497
0.062,1.7086076189544688,1.0,2780.0919545145202,0.5021804709642901,1.2920136153570403,0.980233886919067,0.2848145199960877,0.7280868891776484
0.0625,1.707400679406666,1.0,2784.2564129195416,0.5049728437066968,1.2914310525741617,0.9804166301371608,0.28476382853508,0.7291707321285593
0.063,1.7061937398588631,1.0,2788.4593421137547,0.5077495582951307,1.2908481718509968,0.9805953621449973,0.28471313707407225,0.7302530004175161
0.0635,1.7049868003110602,1.0,2792.697730158451,0.510510700158121,1.2902650009719316,0.9807701997430929,0.28466244561306453,0.7313336390649379
0.064,1.7037798607632575,1.0,2796.9685563239527,0.5132563547241967,1.2896815677213527,0.9809412554947368,0.2846117541520568,0.7324125935028679
0.0645,1.7025729212154546,1.0,2801.2687909193287,0.5159866074218872,1.2890978998836455,0.9811086379116088,0.2845610626910491,0.7334898095754645
0.065,1.7013659816676518,1.0,2805.5953951392585,0.5187015436797213,1.2885140252431968,0.9812724516299716,0.28451037123004136,0.7345652335394388
0.0655,1.700159042119849,1.0,2809.9453209282137,0.5214012489262285,1.2879299715843924,0.9814327975779726,0.28445967976903364,0.7356388120644484
0.066,1.6989521025720462,1.0,2814.3155108615856,0.5240858085899378,1.2873457666916186,0.9815897731345751,0.28440898830802597,0.7367104922334372
0.0665,1.6977451630242433,1.0,2818.702898043667,0.5267553080993782,1.2867614383492614,0.9817434722805852,0.2843582968470182,0.7377802215429298
0.067,1.6965382234764403,1.0,2823.1044060237764,0.5294098328830791,1.286177014341707,0.9818939857422262,0.2843076053860105,0.738847947903273
0.0675,1.6953312839286376,1.0,2827.516948727905,0.5320494683695695,1.2855925224533415,0.982041401127676,0.2842569139250028,0.7399136196388316
0.068,1.6941243443808347,1.0,2831.9389018270726,0.5346742919698944,1.28500797733804,0.9821858019122381,0.2842062224639951,0.7409772093548446
0.0685,1.692917404833032,1.0,2836.369961179284,0.5372843795509472,1.284423381832376,0.9823272680964094,0.28415553100298735,0.7420387113106965
0.069,1.691710465285229,1.0,2840.804127134999,0.5398798398660932,1.283838789509884,0.9824658814561872,0.2841048395419796,0.7430980279641703
0.0695,1.6905035257374261,1.0,2845.24058890912,0.5424607513269266,1.283254207581392,0.9826017169678899,0.2840541480809719,0.7441551463247376
0.07,1.6892965861896234,1.0,2849.678533190196,0.5450271923450414,1.2826696432577278,0.9827348471287839,0.2840034566199642,0.7452100535094034
0.07050000000000001,1.6880896466418205,1.0,2854.117144142831,0.5475792413320316,1.2820851037497196,0.9828653420562184,0.28395276515895645,0.7462627367426975
0.07100000000000001,1.6868827070940178,1.0,2858.5556034107362,0.5501169766994913,1.2815005962681953,0.9829932695821512,0.28390207369794873,0.7473131833566662
0.07150000000000001,1.6856757675462148,1.0,2862.993090121746,0.5526404768590147,1.2809161280239827,0.9831186953433145,0.283851382236941,0.7483613807908589
0.07200000000000001,1.684468827998412,1.0,2867.4287808930103,0.5551498202221959,1.2803317062279098,0.9832416828672496,0.2838006907759333,0.7494073165923114
0.0725,1.6832618884506092,1.0,2871.8618498382143,0.5576450852006288,1.2797473380908044,0.9833622936544214,0.2837499993149256,0.7504509784155267
