Time [s],Phi [rad],STIM [ ],Fsee [N],Gamma [ ],Lcerel [ ],q [ ],Lmtc [m],fisomrel [ ]
0.0,1.8,1.0,17.966476394162207,1.3666542861977107e-05,1.379339822601869,0.005000049656144725,0.288653,0.5411393462639752
0.0005,1.79999375,1.0,18.277106790050535,0.005622799193160501,1.3793023475070163,0.012950698122174063,0.2886527375,0.541230003748937
0.001,1.799975,1.0,21.621495940677683,0.011200469044194304,1.3789379840367824,0.035627691362596685,0.28865195,0.5421109829532502
0.0015,1.79994375,1.0,31.078063641556554,0.016746852578256373,1.3780454516980054,0.07062787220710283,0.2886506375,0.5442654223547547
0.002,1.7999,1.0,53.60251821397467,0.022262125285980174,1.3763668258546322,0.11474882765573483,0.2886488,0.5483036109569801
0.0025,1.79984375,1.0,97.15346757769507,0.027746461673933326,1.3739335034924607,0.16460838947907758,0.28864643749999996,0.5541254303758096
0.003,1.7997750000000001,1.0,161.0036220409861,0.03320003527229741,1.3712126424442284,0.2173150096960945,0.28864354999999997,0.5605904786019562
0.0035,1.79969375,1.0,237.734984583513,0.03862301863448783,1.3685831432692994,0.270647257063887,0.2886401375,0.5667935793932497
0.004,1.7996,1.0,321.52193232315045,0.044015583347928953,1.3661546314550508,0.3229490792896641,0.2886362,0.5724833732908672
0.0045000000000000005,1.7994937500000001,1.0,409.32503989953744,0.04937790003924044,1.3639214694198516,0.37306609664042634,0.2886317375,0.5776822834671429
0.005,1.799375,1.0,499.4720818821436,0.054710138365338355,1.3618570976117454,0.42027701488795993,0.28862675,0.5824599518750119
0.0055,1.79924375,1.0,590.8496231507402,0.060012467060730414,1.359937678325063,0.4642010610881733,0.2886212375,0.5868777669705469
0.006,1.7991000000000001,1.0,682.5774804552298,0.06528505388110045,1.358145335543629,0.5047051087163108,0.2886152,0.5909818833811906
0.006500000000000001,1.79894375,1.0,773.9428316573196,0.07052806565965034,1.3564662025330811,0.5418237264484304,0.2886086375,0.5948081838381518
0.007,1.798775,1.0,864.3471732431082,0.07574166828395072,1.354889403820401,0.5756977061598698,0.28860155,0.598384920459185
0.0075,1.79859375,1.0,953.3020619271156,0.0809260267256504,1.3534058740848751,0.606528962757915,0.2885939375,0.6017356127624535
0.008,1.7984,1.0,1040.4155871814705,0.08608130500664679,1.352007805193866,0.6345493707992214,0.2885858,0.6048804371256291
0.0085,1.79819375,1.0,1125.3763161745026,0.09120766625581407,1.3506883625634638,0.6600001133383075,0.2885771375,0.6078369654418257
0.009000000000000001,1.797975,1.0,1207.9417234579023,0.09630527265243467,1.3494414674214326,0.6831185854286524,0.28856795,0.6106207297396553
0.0095,1.79774375,1.0,1287.9314503362511,0.10137428561295762,1.3482616044961615,0.7041305756562798,0.2885582375,0.6132457105668341
0.01,1.7975,1.0,1365.2083120861096,0.10641486520369546,1.3471438549444794,0.7232461314398089,0.288548,0.6157243111424944
0.0105,1.79724375,1.0,1439.6882258415715,0.11142717061681667,1.3460835868531822,0.7406575805312482,0.2885372375,0.6180680832615941
0.011,1.796975,1.0,1511.361748206163,0.11641136227057519,1.3450760707210458,0.7565390309833285,0.28852595000000003,0.6202886014532007
0.0115,1.79669375,1.0,1580.173088085652,0.12136759644354338,1.3441178609402082,0.7710475911388108,0.2885141375,0.6223944444577025
0.012,1.7964,1.0,1646.1128048801197,0.12629602941429352,1.3432055119028068,0.784323789661286,0.28850180000000003,0.6243940580342231
0.0125,1.79609375,1.0,1709.213742112076,0.1311968174613979,1.3423355780009796,0.7964929186391481,0.2884889375,0.6262957654168854
0.013000000000000001,1.7957750000000001,1.0,1769.5282209325437,0.13607011607316494,1.3415048281566453,0.8076665466685975,0.28847555,0.6281073097758296
0.0135,1.79544375,1.0,1827.1145004875352,0.14091607993037403,1.3407103398629256,0.8179439526741933,0.2884616375,0.6298356642553882
0.014,1.7951000000000001,1.0,1882.020755489822,0.14573486159858465,1.339949617986122,0.8274134894656299,0.2884472,0.6314867896399543
0.0145,1.79474375,1.0,1934.3147015741772,0.15052661339830675,1.3392202174792516,0.8361536691384877,0.2884322375,0.6330664670067898
0.015,1.794375,1.0,1984.0692774481658,0.15529148675395177,1.3385198703581922,0.8442343392731166,0.28841675,0.6345800298873494
0.0155,1.79399375,1.0,2031.3854536547053,0.16002963399842926,1.3378462145897732,0.851717606523745,0.2884007375,0.6360329569112275
0.016,1.7936,1.0,2076.3333163437546,0.1647412042028668,1.337197395627883,0.8586589377156959,0.2883842,0.6374295802990207
0.0165,1.7931937500000001,1.0,2118.985294347403,0.16942634569974216,1.336571681095865,0.8651078222231775,0.2883671375,0.6387739269269878
0.017,1.792775,1.0,2159.426336261891,0.17408520682153303,1.3359673386170616,0.8711084432822159,0.28834955,0.6400699852760481
0.0175,1.7923437500000001,1.0,2197.7433490618964,0.17871793493940383,1.3353827319501343,0.8767003312720805,0.2883314375,0.6413215022629604
0.018000000000000002,1.7919,1.0,2234.031030978216,0.18332467816810114,1.3348162483723016,0.8819188914773597,0.2883128,0.6425321423019683
0.0185,1.79144375,1.0,2268.3657126144135,0.18790558176856048,1.334266549725115,0.8867959474798035,0.2882936375,0.6437049545116942
0.019,1.790975,1.0,2300.8197534537176,0.19246078968066277,1.3337324120285015,0.8913601130272294,0.28827395,0.6448427205409393
0.0195,1.79049375,1.0,2331.472122679035,0.19699044584428876,1.3332126113023886,0.895637132130135,0.2882537375,0.6459482004752657
0.02,1.79,1.0,2360.4062939397195,0.20149469396647346,1.3327059386815854,0.8996502082981777,0.288233,0.6470241019324143
0.0205,1.78949375,1.0,2387.6952868966823,0.20597367601193503,1.332211340246904,0.9034203204001664,0.2882117375,0.6480727851127417
0.021,1.788975,1.0,2413.430256024179,0.21042753672786205,1.3317276318208384,0.9069664083798854,0.28818995000000003,0.6490968695361552
0.021500000000000002,1.78844375,1.0,2437.669867096832,0.21485641519964777,1.3312539852643424,0.9103056958129052,0.2881676375,0.6500982055053919
0.022,1.7879,1.0,2460.4762026695266,0.21926045051268542,1.330789572438369,0.9134538027546407,0.2881448,0.6510786312692637
0.0225,1.78734375,1.0,2481.9144812819063,0.22363978175236834,1.3303335652038721,0.9164249171920262,0.28812143749999997,0.652039973532204
0.023,1.786775,1.0,2502.0527918683783,0.22799454800408972,1.3298851354218049,0.9192319461702326,0.28809755,0.6529840479200812
0.0235,1.78619375,1.0,2520.953423697856,0.23232488630280135,1.3294435345873856,0.9218866629967797,0.28807313749999996,0.653912492087277
0.024,1.7856,1.0,2538.6827397848365,0.23663093645580152,1.3290079971628412,0.9243998083106804,0.2880482,0.6548269700347444
0.0245,1.78499375,1.0,2555.2958033860987,0.24091283478165842,1.3285778833923572,0.9267812166709898,0.2880227375,0.6557288729126229
0.025,1.784375,1.0,2570.84071387256,0.24517071508000357,1.328152634985262,0.9290398993402768,0.28799675,0.6566194137507317
0.025500000000000002,1.78374375,1.0,2585.367054077366,0.2494047111504685,1.3277316936508843,0.9311841126806748,0.2879702375,0.6574997990329176
0.026000000000000002,1.7831000000000001,1.0,2598.925763650315,0.25361495679268475,1.327314501098553,0.9332214316491093,0.2879432,0.6583712288603487
0.0265,1.78244375,1.0,2611.569019323013,0.25780158580628376,1.3269004990375965,0.9351588152403951,0.2879156375,0.6592348970949309
0.027,1.781775,1.0,2623.340728109031,0.2619647293919758,1.3264892162755202,0.937002677224857,0.28788755,0.6600918101269024
0.0275,1.7810937500000001,1.0,2634.289532786998,0.2661045219195397,1.3260801464992076,0.9387589207249623,0.2878589375,0.660943042280151
0.028,1.7804,1.0,2644.465131835319,0.2702210968466725,1.3256727818126859,0.9404329886138312,0.2878298,0.6617896657729168
0.0285,1.77969375,1.0,2653.900953644624,0.2743145821251988,1.3252667716761741,0.9420299265147384,0.2878001375,0.6626324210566314
0.029,1.778975,1.0,2662.631034299984,0.2783851057069435,1.3248617655498918,0.9435543979566714,0.28776995,0.6634720449100994
0.029500000000000002,1.7782437500000001,1.0,2670.689964541479,0.2824327955437312,1.324457412894058,0.9450107182424641,0.2877392375,0.6643092704658633
0.03,1.7775,1.0,2678.1128394489306,0.28645777958738655,1.324053363168892,0.946402884910403,0.287708,0.6651448272287315
0.0305,1.77674375,1.0,2684.935210851193,0.2904601857897344,1.3236492658346128,0.9477346051690253,0.2876762375,0.6659794410864672
0.031,1.775975,1.0,2691.1930424599655,0.29444014210259944,1.32324477035144,0.9490093206387629,0.28764395,0.6668138343126429
0.0315,1.7751937500000001,1.0,2696.915268350597,0.29839777129271805,1.3228395938421778,0.9502302365089147,0.2876111375,0.6676485862494188
0.032,1.7744,1.0,2702.1384384326016,0.30233320530523095,1.3224333866107092,0.9514003290417578,0.2875778,0.6684844107102963
0.0325,1.77359375,1.0,2706.885755290274,0.3062465666485786,1.3220259235005223,0.952522381700534,0.2875439375,0.6693217620970529
0.033,1.772775,1.0,2711.179971410033,0.3101379773100164,1.3216169854593158,0.953598989313113,0.28750955,0.6701610799236679
0.0335,1.7719437500000002,1.0,2715.044035224168,0.3140075592767999,1.321206353434788,0.9546325726015346,0.2874746375,0.6710028013811418
0.034,1.7711000000000001,1.0,2718.501071389007,0.3178554345361845,1.3207938083746378,0.9556253919381958,0.2874392,0.6718473613153577
0.0345,1.7702437500000001,1.0,2721.5743621272172,0.3216817250754255,1.3203791312265636,0.9565795598602524,0.2874032375,0.6726951922018889
0.035,1.7693750000000001,1.0,2724.2873296336916,0.32548655288177847,1.3199621029382642,0.9574970524673858,0.28736675,0.6735467241177411
0.035500000000000004,1.76849375,1.0,2726.6549925550617,0.3292700324256464,1.3195425820049258,0.9583797261884975,0.2873297375,0.674402226676101
0.036000000000000004,1.7676,1.0,2728.7031537885287,0.33303228911741845,1.3191203297476122,0.9592293129811486,0.2872922,0.675262165630661
0.0365,1.76669375,1.0,2730.4594913608917,0.3367734508049747,1.3186950913468285,0.960047435901531,0.2872541375,0.6761270368349384
0.037,1.765775,1.0,2731.937231102304,0.34049363235531677,1.3182667440729667,0.96083562848545,0.28721555,0.6769970651058441
0.0375,1.76484375,1.0,2733.1496576595805,0.344192948635446,1.3178351651964177,0.9615953310590232,0.2871764375,0.6778724737390494
0.038,1.7639,1.0,2734.110107761091,0.34787151451236387,1.3174002319875735,0.9623278974338041,0.28713679999999997,0.6787534844841663
0.0385,1.76294375,1.0,2734.8319638168305,0.3515294448530718,1.3169618217168249,0.9630346010503233,0.28709663750000003,0.6796403175189788
0.039,1.761975,1.0,2735.3286478511304,0.35516685452457125,1.3165198116545633,0.9637166406209948,0.28705595,0.6805331914227033
0.0395,1.7609937500000001,1.0,2735.6136157706815,0.3587838583938637,1.3160740790711805,0.9643751453181553,0.2870147375,0.6814323231482946
0.04,1.76,1.0,2735.7003519653617,0.36238057132795054,1.3156245012370678,0.9650111795483828,0.286973,0.682337927993789
0.0405,1.7589937500000001,1.0,2735.6023642439136,0.3659571081938333,1.315170955422616,0.9656257473501378,0.2869307375,0.6832502195726893
0.041,1.757975,1.0,2735.333179102826,0.36951358385851335,1.3147133188982174,0.9662197964481093,0.28688795,0.684169409783383
0.0415,1.75694375,1.0,2734.903622212531,0.3730501088378568,1.3142514935892533,0.9667942233511386,0.2868446375,0.6850956593651898
0.042,1.7559,1.0,2734.3227512535514,0.37656679279153593,1.3137853975805427,0.9673498766060203,0.28680079999999997,0.6860290952334845
0.0425,1.75484375,1.0,2733.607258066659,0.3800637592264166,1.31331487970137,0.9678875552444662,0.2867564375,0.6869699813702679
0.043000000000000003,1.753775,1.0,2732.7639481985957,0.3835411154206446,1.3128398786091187,0.9684080200704303,0.28671155,0.6879184003566068
0.043500000000000004,1.75269375,1.0,2731.799632333825,0.3869989686523658,1.3123603329611715,0.9689119914768496,0.28666613750000003,0.6888744336491903
0.044,1.7516,1.0,2730.721124755343,0.39043742619972605,1.3118761814149116,0.969400151991803,0.2866202,0.6898381615626695
0.0445,1.75049375,1.0,2729.535241889865,0.3938565953408712,1.311387362627722,0.9698731486398737,0.2865737375,0.690809663251759
0.045,1.7493750000000001,1.0,2728.248800935883,0.3972565833539471,1.310893815256986,0.9703315951338259,0.28652675,0.6917890166930964
0.0455,1.74824375,1.0,2726.868618575422,0.40063749751709954,1.3103954779600866,0.9707760739103226,0.2864792375,0.6927762986668667
0.046,1.7471,1.0,2725.4015097692472,0.4039994451084744,1.3098922893944067,0.971207138022196,0.2864312,0.6937715847381801
0.0465,1.7459437500000001,1.0,2723.854286635186,0.4073425334062175,1.3093841882173296,0.9716253128986576,0.28638263750000004,0.6947749492382143
0.047,1.744775,1.0,2722.233757410165,0.4106668696884747,1.3088711130862383,0.9720310979838435,0.28633355,0.6957864652451156
0.0475,1.74359375,1.0,2720.545566008684,0.4139725578680157,1.3083530132151464,0.9724249685838829,0.28628393750000003,0.6968061838046549
0.048,1.7424,1.0,2718.7913486018397,0.4172596910495379,1.3078298742801986,0.9728073781746003,0.2862338,0.6978340832290726
0.0485,1.74119375,1.0,2716.9844859908344,0.4205283980607156,1.307301574961713,0.9731787554646232,0.2861831375,0.698870350848376
0.049,1.739975,1.0,2715.128208136406,0.42377877838984185,1.3067680863066262,0.9735395114845338,0.28613195,0.6999149911472269
0.0495,1.73874375,1.0,2713.225742098542,0.4270109315252097,1.3062293793618758,0.973890037919286,0.2860802375,0.7009680077029349
0.05,1.7375,1.0,2711.280311753295,0.43022495695511226,1.3056854251743981,0.9742307081908154,0.286028,0.7020294031758529
0.0505,1.73624375,1.0,2709.2951375276602,0.4334209541678426,1.3051361947911302,0.9745618784706511,0.2859752375,0.7030991792997112
0.051000000000000004,1.734975,1.0,2707.273436153756,0.4365990226516938,1.304581659259009,0.9748838886276362,0.28592195,0.7041773368719036
0.051500000000000004,1.73369375,1.0,2705.2184204410746,0.43975926189495895,1.304021789624971,0.975197063115458,0.2858681375,0.7052638757437176
0.052000000000000005,1.7324,1.0,2703.1332990675046,0.4429017713859312,1.3034565569359537,0.9755017118043058,0.2858138,0.706358794810511
0.0525,1.73109375,1.0,2701.0212763891427,0.4460266506129035,1.302885932238894,0.9757981307606328,0.28575893750000003,0.7074620920018373
0.053,1.729775,1.0,2698.8855522682984,0.44913399906416906,1.302309886580728,0.9760866029786777,0.28570355000000003,0.7085737642715157
0.0535,1.72844375,1.0,2696.7293219202784,0.4522239162280209,1.3017283910083932,0.9763673990671263,0.2856476375,0.7096938075876473
0.054,1.7271,1.0,2694.555775778985,0.45529650159275215,1.3011414165688264,0.9766407778940199,0.2855912,0.7108222169225783
0.0545,1.7257437500000001,1.0,2692.3680993805856,0.4583518546466559,1.3005489343089645,0.976906987192782,0.2855342375,0.7119589862428117
0.055,1.724375,1.0,2690.1673104687984,0.46139004542338974,1.2999509350779466,0.9771662624796216,0.28547675,0.7131040706181935
0.0555,1.72299375,1.0,2687.95700837647,0.4644112059755479,1.299347386064673,0.9774188338583094,0.2854187375,0.7142574695671163
0.056,1.7216,1.0,2685.7387355562373,0.46741543305185607,1.2987382732527368,0.9776649195171628,0.2853602,0.7154191457078225
0.0565,1.72019375,1.0,2683.5136988003037,0.4704028177118359,1.2981235856800866,0.9779047282362985,0.28530113749999997,0.7165890550422451
0.057,1.718775,1.0,2681.283102955019,0.47337345101500933,1.29750331238467,0.9781384602068136,0.28524155,0.7177671528065991
0.0575,1.71734375,1.0,2679.0481509046735,0.47632742402089806,1.2968774424044351,0.97836630745139,0.2851814375,0.7189533934674787
0.058,1.7159,1.0,2676.8100435590068,0.47926482778902396,1.2962459647773301,0.9785884542210249,0.2851208,0.7201477307179494
0.0585,1.71444375,1.0,2674.569979842559,0.4821857533789088,1.295608868541303,0.9788050773694295,0.2850596375,0.721350117473631
0.059000000000000004,1.7129750000000001,1.0,2672.329156686562,0.48509029185007446,1.2949661427343018,0.9790163467065113,0.28499795,0.7225605058687741
0.059500000000000004,1.71149375,1.0,2670.0887690244012,0.4879785342620427,1.2943177763942741,0.9792224253322707,0.2849357375,0.7237788472523279
0.06,1.71,1.0,2667.850009788511,0.49085057167433527,1.2936637585591686,0.9794234699523362,0.284873,0.7250050921839999
0.0605,1.7084937500000001,1.0,2665.614069911232,0.4937064951464741,1.2930040782669328,0.9796196311762838,0.2848097375,0.7262391904303098
0.061,1.7069750000000001,1.0,2663.3821383270947,0.49654639573798093,1.2923387245555147,0.9798110537998062,0.28474595,0.7274810909606343
0.0615,1.7054437500000001,1.0,2661.1554019785854,0.4993703645083776,1.2916676864628627,0.9799978770717216,0.2846816375,0.7287307419432438
0.062,1.7039,1.0,2658.935045824735,0.5021784925171859,1.2909909530269243,0.9801802349467451,0.2846168,0.7299880907413339
0.0625,1.70234375,1.0,2656.7222528512375,0.5049708708239277,1.290308513285648,0.9803582563248823,0.2845514375,0.7312530839090458
0.063,1.7007750000000001,1.0,2654.5178037569754,0.5077475815469424,1.289620359966843,0.980532064798835,0.28448555,0.7325256603720545
0.0635,1.69919375,1.0,2652.3203571242516,0.5105086714052335,1.288926505354375,0.9807017777651008,0.28441913750000003,0.733805722269478
0.064,1.6976,1.0,2650.1332353554712,0.5132542990335831,1.2882269187302056,0.9808675143220927,0.2843522,0.7350932503803937
0.0645,1.69599375,1.0,2647.9565393898547,0.5159845460156274,1.287521599055279,0.9810293850678249,0.2842847375,0.7363881698874214
0.065,1.694375,1.0,2645.7903700324664,0.5186994939350025,1.28681054529054,0.9811874965920486,0.28421675,0.7376904053257114
0.0655,1.69274375,1.0,2643.634827956249,0.5213992243753444,1.2860937563969328,0.9813419516488551,0.2841482375,0.7389998805825653
0.066,1.6911,1.0,2641.4900137041845,0.5240838189202892,1.285371231335402,0.9814928493206414,0.2840792,0.7403165188970551
0.0665,1.6894437500000001,1.0,2639.3560276914727,0.526753359153473,1.284642969066892,0.981640285173927,0.2840096375,0.7416402428596442
0.067,1.687775,1.0,2637.232970207253,0.5294079266585319,1.2839089685523473,0.9817843514074807,0.28393955,0.7429709744118058
0.0675,1.68609375,1.0,2635.120941417253,0.5320476030191019,1.2831692287527126,0.9819251369931887,0.2838689375,0.744308634845644
0.068,1.6844000000000001,1.0,2633.02004136556,0.5346724698188192,1.2824237486289323,0.9820627278100706,0.2837978,0.7456531448035131
0.0685,1.68269375,1.0,2630.9303699768625,0.5372826086413198,1.2816725271419507,0.9821972067718145,0.2837261375,0.7470044242776372
0.069,1.680975,1.0,2628.8520270589142,0.5398781010702398,1.2809155632527127,0.9823286539481951,0.28365395,0.7483623926097295
0.0695,1.67924375,1.0,2626.7851123044416,0.5424590286892151,1.2801528559221622,0.9824571466807016,0.28358123749999997,0.7497269684906129
0.07,1.6775,1.0,2624.7297252934554,0.5450254730818822,1.2793844041112443,0.9825827596926926,0.283508,0.7510980699598371
0.07050000000000001,1.67574375,1.0,2622.6859654957916,0.5475775158318767,1.278610206780903,0.9827055651943704,0.2834342375,0.7524756144053011
0.07100000000000001,1.673975,1.0,2620.6539322730173,0.5501152385228351,1.2778302628920832,0.9828256329828517,0.28335995,0.7538595185628696
0.07150000000000001,1.67219375,1.0,2618.6337248810173,0.5526387227383931,1.2770445714057292,0.9829430305375942,0.2832851375,0.7552496985159942
0.07200000000000001,1.6704,1.0,2616.625442472375,0.555148050062187,1.2762531312827856,0.9830578231114262,0.2832098,0.7566460696953317
0.0725,1.66859375,1.0,2614.629184098514,0.5576433020778528,1.2754559414841966,0.9831700738174056,0.2831339375,0.7580485468783638
0.073,1.6667750000000001,1.0,2612.6450487122593,0.5601245603690268,1.2746530009709072,0.9832798437117288,0.28305755,0.7594570441890143
0.0735,1.66494375,1.0,2610.6731351703506,0.5625919065193448,1.2738443087038611,0.9833871918728913,0.2829806375,0.7608714750972718
0.074,1.6631,1.0,2608.7115407822666,0.5650453757704841,1.2730298822528614,0.9834921736493977,0.2829032,0.7622917200159076
0.0745,1.6612437500000001,1.0,2606.761269997054,0.5674850840855661,1.2722097121749454,0.9835948460336058,0.2828252375,0.7637177059873514
0.075,1.659375,1.0,2604.8230581932776,0.5699111292897886,1.2713837915171786,0.9836952632743977,0.28274675,0.7651493549163283
0.0755,1.65749375,1.0,2602.896649848603,0.5723235834888639,1.2705521225402943,0.9837934768682866,0.2826677375,0.7665865720310638
