Time [s],Phi [rad],STIM [ ],Fsee [N],Gamma [ ],Lcerel [ ],q [ ],Lmtc [m],fisomrel [ ]
0.0,1.8,1.0,17.968411065121312,2.784592336473982e-05,1.3793396058557428,0.0050002049931768015,0.288653,0.5411398706288576
0.0005,1.79999375,1.0,18.28365218778684,0.0056368990385563976,1.3793016205130304,0.012990130869620992,0.2886527375,0.5412317623602968
0.001,1.799975,1.0,21.638515642115188,0.01121448980060583,1.3789362461919135,0.03570162610115676,0.28865195,0.542115182786931
0.0015,1.79994375,1.0,31.117531777171685,0.01676079468931593,1.3780420906927262,0.07072904102237729,0.2886506375,0.5442735257164304
0.002,1.7999,1.0,53.6868466267878,0.022275989192808862,1.3763613582387213,0.11486862341403657,0.2886488,0.548316734772656
0.0025,1.79984375,1.0,97.29484735605311,0.027760247815215154,1.373926694425437,0.16473870954426764,0.28864643749999996,0.5541416683548022
0.003,1.7997750000000001,1.0,161.18742411432606,0.03321374408422545,1.3712057654910716,0.21744945397852736,0.28864354999999997,0.5606067591396287
0.0035,1.79969375,1.0,237.94255947001605,0.03863665055081177,1.3685767515032503,0.27078097855284006,0.2886401375,0.5668086041177018
0.004,1.7996,1.0,321.7426865005346,0.04402913879997604,1.3661487860248305,0.32307855998693014,0.2886362,0.5724970232542823
0.0045000000000000005,1.7994937500000001,1.0,409.5535627176018,0.04939137945594424,1.363916106242118,0.37318900919044107,0.2886317375,0.5776947309233915
0.005,1.799375,1.0,499.70517816290726,0.05472354217328663,1.3618521452033385,0.42039201001733595,0.28862675,0.5824713807772386
0.0055,1.79924375,1.0,591.0847752267364,0.06002579568372046,1.3599330847109536,0.46430752900028066,0.2886212375,0.5868883116404895
0.006,1.7991000000000001,1.0,682.8128910723225,0.06529830774097645,1.3581410569601953,0.5048029521681103,0.2886152,0.5909916559930937
0.006500000000000001,1.79894375,1.0,774.157867544066,0.07054124493418738,1.356462532130364,0.5419133933675717,0.2886086375,0.5948165280204375
0.007,1.798775,1.0,864.5839564110785,0.07575477395146007,1.354885579411179,0.5757791775142891,0.28860155,0.5983935762946169
0.0075,1.79859375,1.0,953.5435572317303,0.08093905897736979,1.3534021599873673,0.6066029790662322,0.2885939375,0.6017439837891047
0.008,1.7984,1.0,1040.639488340546,0.08609426399379091,1.3520045089682409,0.6346167326645132,0.2885858,0.6048878369452412
0.0085,1.79819375,1.0,1125.5948241024762,0.09122055254413475,1.3506852695300497,0.6600613061901148,0.2885771375,0.6078438830823865
0.009000000000000001,1.797975,1.0,1208.1552046132153,0.09631808669753145,1.349438550634241,0.6831741880414044,0.28856795,0.6106272300084216
0.0095,1.79774375,1.0,1288.1238536322146,0.10138702723280434,1.3482590586198953,0.7041812481464294,0.2885582375,0.6132513650803073
0.01,1.7975,1.0,1365.4098947692091,0.106427535769404,1.3471412641968659,0.7232921670271228,0.288548,0.6157300468488578
0.0105,1.79724375,1.0,1439.9118379134418,0.11143977121126415,1.3460807883130803,0.740699375685233,0.2885372375,0.618074260078434
0.011,1.796975,1.0,1511.5601128201286,0.11642389149711208,1.345073647722704,0.7565772946161677,0.28852595000000003,0.6202939338244488
0.0115,1.79669375,1.0,1580.340655102686,0.12138005456567508,1.3441158591799025,0.77108271302344,0.2885141375,0.6223988375665737
0.012,1.7964,1.0,1646.2708174452491,0.1263084175007463,1.3432036624690387,0.7843559805061857,0.28850180000000003,0.6243981060836676
0.0125,1.79609375,1.0,1709.3830750317338,0.13120913678430488,1.342333632999972,0.79652237625115,0.2884889375,0.6263000118528077
0.013000000000000001,1.7957750000000001,1.0,1769.6991124533122,0.1360823666762482,1.3415028989948135,0.8076935905310421,0.28847555,0.6281115114098796
0.0135,1.79544375,1.0,1827.2701202647868,0.14092826133399577,1.340708611002083,0.8179688938040108,0.2884616375,0.6298394208833907
0.014,1.7951000000000001,1.0,1882.1546796114742,0.14574697387251992,1.339948152012167,0.8274365593999927,0.2884472,0.6314899679321193
0.0145,1.79474375,1.0,1934.4527514692938,0.15053865839722208,1.3392187269100477,0.836174951377012,0.2884322375,0.633069691688541
0.015,1.794375,1.0,1984.221071964362,0.1553034654143868,1.3385182520667485,0.8442539702074758,0.28841675,0.6345835236532951
0.0155,1.79399375,1.0,2031.5275153484536,0.16004154506637522,1.3378447178006982,0.8517358206710697,0.2884007375,0.6360361819329292
0.016,1.7936,1.0,2076.4562536488042,0.16475304749554828,1.3371961144303257,0.8586758962326094,0.2883842,0.637432335500927
0.0165,1.7931937500000001,1.0,2119.0901991964,0.16943812175349357,1.336570598880752,0.8651236359252445,0.2883671375,0.6387762499013139
0.017,1.792775,1.0,2159.5328366357776,0.1740969175908631,1.3359662502786458,0.8711231575210336,0.28834955,0.6400723171993187
0.0175,1.7923437500000001,1.0,2197.857894089604,0.1787295814854263,1.3353815716523207,0.8767140250298869,0.2883314375,0.6413239840434288
0.018000000000000002,1.7919,1.0,2234.1398384097656,0.183336259266013,1.3348151551813,0.8819316889000607,0.2883128,0.642534476597328
0.0185,1.79144375,1.0,2268.4616616138333,0.1879170967614529,1.3342655930451064,0.8868079423157694,0.2882936375,0.6437069939611075
0.019,1.790975,1.0,2300.9060922636954,0.19247223880444572,1.3337315572608783,0.8913713640525021,0.28827395,0.6448445398221592
0.0195,1.79049375,1.0,2331.563671316139,0.1970018311177057,1.3332117109347343,0.8956476662857824,0.2882537375,0.6459501138263617
0.02,1.79,1.0,2360.5091254228096,0.20150601682651692,1.332704933567485,0.8996600702793438,0.288233,0.6470262346296409
0.0205,1.78949375,1.0,2387.808839890766,0.2059849372672129,1.332210236698585,0.9034295650485833,0.2882117375,0.6480751231909123
0.021,1.788975,1.0,2413.533702188347,0.21043873377612707,1.3317266318674892,0.9069751259619084,0.28818995000000003,0.6490989850441687
0.021500000000000002,1.78844375,1.0,2437.758724306687,0.21486754768959299,1.3312531306136512,0.9103139355502333,0.2881676375,0.6501000110288754
0.022,1.7879,1.0,2460.550211159886,0.2192715181926881,1.3307888639119096,0.9134616008986804,0.2881448,0.6510801259944774
0.0225,1.78734375,1.0,2481.9906498146593,0.22365078790288684,1.330332839154374,0.916432276005678,0.28812143749999997,0.652041503112916
0.023,1.786775,1.0,2502.138515877498,0.22800549455535854,1.3298843215839296,0.9192388849624051,0.28809755,0.6529857601183373
0.0235,1.78619375,1.0,2521.047234087262,0.23233577448216683,1.3294426473254186,0.921893214929204,0.28807313749999996,0.6539143562602674
0.024,1.7856,1.0,2538.772359212192,0.2366417640153753,1.3290071525036842,0.9244060202959419,0.2880482,0.6548287423514589
0.0245,1.78499375,1.0,2555.371397116123,0.24092359948704756,1.3285771732435687,0.9267871273963909,0.2880227375,0.6557303610435773
0.025,1.784375,1.0,2570.9036355967733,0.24518141722924727,1.3281520456699154,0.9290455273367635,0.28799675,0.656620647074776
0.025500000000000002,1.78374375,1.0,2585.4203045668214,0.249415349999353,1.327731196317468,0.9311894718289786,0.2879702375,0.6575008385214325
0.026000000000000002,1.7831000000000001,1.0,2598.9830660446855,0.2536255368346916,1.3273139673203735,0.9332265209289781,0.2879432,0.6583723431026705
0.0265,1.78244375,1.0,2611.6337129029707,0.25781210929589293,1.3268998978706155,0.9351636481144867,0.2879156375,0.6592361504214961
0.027,1.781775,1.0,2623.4132824641542,0.26197519823172644,1.3264885435769405,0.9370072700571627,0.28788755,0.6600932108195416
0.0275,1.7810937500000001,1.0,2634.3637247813867,0.2661149344909616,1.3260794600480958,0.938763296442035,0.2878589375,0.660944469817418
0.028,1.7804,1.0,2644.5278224553267,0.2702314489223677,1.3256722028928283,0.940437176730619,0.2878298,0.6617908681853715
0.0285,1.77969375,1.0,2653.9491148291963,0.2743248723747142,1.3252663277198846,0.9420339420442687,0.2878001375,0.6626333420013413
0.029,1.778975,1.0,2662.665520391059,0.2783953328456118,1.3248614481736245,0.9435582497957038,0.28776995,0.6634727024570647
0.029500000000000002,1.7782437500000001,1.0,2670.713265123879,0.28244295931730956,1.3244571987818305,0.9450144129703595,0.2877392375,0.664309713516096
0.03,1.7775,1.0,2678.142494011494,0.28646788773376547,1.3240530910471375,0.9464064129693568,0.287708,0.6651453896135064
0.0305,1.77674375,1.0,2684.979425543491,0.2904702424216876,1.3236488606198198,0.9477379675662471,0.2876762375,0.6659802774856265
0.031,1.775975,1.0,2691.2506346818745,0.294450147707784,1.3232442431501517,0.9490125280668521,0.28764395,0.6668149211424925
0.0315,1.7751937500000001,1.0,2696.983021268644,0.2984077279187627,1.3228389742884077,0.950233301730145,0.2876111375,0.6676498618635487
0.032,1.7744,1.0,2702.203779982174,0.30234310738133174,1.322432789684862,0.9514032720412909,0.2875778,0.6684856381888953
0.0325,1.77359375,1.0,2706.9403718435497,0.30625641042219914,1.3220254249897894,0.9525252170657219,0.2875439375,0.6693227859060764
0.033,1.772775,1.0,2711.2204972716686,0.310147761368073,1.321616615853464,0.9536017260864825,0.28750955,0.6701618380324152
0.0335,1.7719437500000002,1.0,2715.0720706884026,0.31401728454566136,1.32120609792616,0.9546352147037657,0.2874746375,0.6710033247928895
0.034,1.7711000000000001,1.0,2718.52109558798,0.3178651024422522,1.3207936259947366,0.9556279402125656,0.2874392,0.6718477344424396
0.0345,1.7702437500000001,1.0,2721.58845516116,0.321691334554217,1.3203790029399884,0.9565820168311714,0.2874032375,0.6726954543213612
0.035,1.7693750000000001,1.0,2724.3037836686854,0.3254961102673894,1.3199619532345128,0.9574994162570376,0.28736675,0.6735470295993478
0.035500000000000004,1.76849375,1.0,2726.683335999785,0.32927954708744517,1.3195423242400217,0.9583819945105213,0.2873297375,0.6744027519747604
0.036000000000000004,1.7676,1.0,2728.7434609918655,0.3330417625200601,1.3191199633182267,0.9592314906471314,0.2872922,0.6752629113895845
0.0365,1.76669375,1.0,2730.50059131353,0.33678287407091,1.3186947178308404,0.9600495354577893,0.2872541375,0.6761277960035748
0.037,1.765775,1.0,2731.9712338635018,0.3405029992456706,1.318266435139574,0.9608376594277834,0.28721555,0.6769976921669238
0.0375,1.76484375,1.0,2733.171960686769,0.3442022555500178,1.31783496260614,0.961597300025147,0.2871764375,0.6778728843914335
0.038,1.7639,1.0,2734.1194004065987,0.34788076048962735,1.3174001475922503,0.9623298083817495,0.28713679999999997,0.6787536553202096
0.0385,1.76294375,1.0,2734.8302301739996,0.35153863157017495,1.3169618374596168,0.9630364554238183,0.28709663750000003,0.6796402856958657
0.039,1.761975,1.0,2735.318807544196,0.35517598260219874,1.3165199010039665,0.9637184387660696,0.28705595,0.680533011060074
0.0395,1.7609937500000001,1.0,2735.5955600033876,0.35879292313532685,1.3160742430080605,0.9643768890355029,0.2870147375,0.6814319926877599
0.04,1.76,1.0,2735.683766736262,0.36238958546875033,1.315624651819826,0.9650128658245466,0.286973,0.6823376248839719
0.0405,1.7589937500000001,1.0,2735.592594900594,0.36596607965855316,1.3151710441232356,0.9656273758391648,0.2869307375,0.6832500412827471
0.041,1.757975,1.0,2735.3312293024514,0.3695225157608192,1.3147133366022616,0.9662213693346277,0.28688795,0.6841693742495905
0.0415,1.75694375,1.0,2734.908869464896,0.37305900383163215,1.3142514459408767,0.9667957438652018,0.2868446375,0.6850957548599115
0.042,1.7559,1.0,2734.3347268501598,0.37657565392707604,1.3137852888230535,0.967351347747392,0.28680079999999997,0.6860293128770183
0.0425,1.75484375,1.0,2733.61802223622,0.3800725761032347,1.3133147819327642,0.9678889832613297,0.2867564375,0.6869701767296698
0.043000000000000003,1.753775,1.0,2732.7679832464237,0.3835498804161919,1.3128398419539817,0.9684094096125837,0.28671155,0.6879184734891828
0.043500000000000004,1.75269375,1.0,2731.793842034103,0.3870076769220316,1.3123603855706785,0.9689133456745589,0.28666613750000003,0.6888743288461003
0.044,1.7516,1.0,2730.7048331200403,0.39044607567683753,1.311876329466827,0.9694014725297775,0.2866202,0.6898378670864134
0.0445,1.75049375,1.0,2729.5101913847648,0.3938651867366937,1.3113875903263998,0.9698744358266536,0.2865737375,0.6908092110673412
0.045,1.7493750000000001,1.0,2728.2191502140577,0.39726512015768384,1.3108940848333692,0.9703328479668393,0.28652675,0.6917884821926716
0.0455,1.74824375,1.0,2726.835588392434,0.4006459757098737,1.3103957783377025,0.9707772923630149,0.2864792375,0.6927757040501654
0.046,1.7471,1.0,2725.365901243587,0.4040078646907136,1.3098926133067836,0.9712083229106507,0.2864312,0.6937709445723605
0.0465,1.7459437500000001,1.0,2723.82227837656,0.4073509069484938,1.3093844794625222,0.9716264630934652,0.28638263750000004,0.6947743745781383
0.047,1.744775,1.0,2722.2088584698854,0.41067520445658984,1.308871339710565,0.9720322134065388,0.28633355,0.6957860188309974
0.0475,1.74359375,1.0,2720.529778198356,0.4139808591883772,1.308353156956558,0.9724260498547531,0.28628393750000003,0.6968059011317738
0.048,1.7424,1.0,2718.789171721943,0.4172679731172312,1.3078298941061481,0.9728084253767117,0.2862338,0.6978340443067526
0.0485,1.74119375,1.0,2716.991170206435,0.4205366482165274,1.3073015140649817,0.9731797711730914,0.2861831375,0.6988704701956947
0.049,1.739975,1.0,2715.1399013734017,0.4237869864596413,1.3067679797387055,0.9735404979466628,0.28613195,0.6999151996397741
0.0495,1.73874375,1.0,2713.239489081687,0.4270190898199483,1.3062292540329654,0.9738909970606109,0.2860802375,0.700968252469431
0.05,1.7375,1.0,2711.2940529386506,0.43023306027082386,1.3056852998534085,0.9742316416212322,0.286028,0.7020296474921293
0.0505,1.73624375,1.0,2709.3077079422796,0.4334289997856435,1.3051360801056813,0.9745627874905798,0.2859752375,0.7030994024800359
0.051000000000000004,1.734975,1.0,2707.284564154007,0.43660701033778254,1.3045815576954296,0.9748847742341835,0.28592195,0.7041775341576075
0.051500000000000004,1.73369375,1.0,2705.2287264012493,0.43976719390061664,1.3040216955283006,0.9751979260085384,0.2858681375,0.7052640581890857
0.052000000000000005,1.7324,1.0,2703.144294011368,0.4429096524475211,1.3034564565099407,0.9755025523926935,0.2858138,0.7063589891659136
0.0525,1.73109375,1.0,2701.0313863959723,0.44603447841596944,1.3028858398596468,0.9757989504574819,0.28575893750000003,0.7074622704480753
0.053,1.729775,1.0,2698.8908809994377,0.4491417684807152,1.3023098378706595,0.9760874041840943,0.28570355000000003,0.708573858184361
0.0535,1.72844375,1.0,2696.73413226855,0.45223164191884735,1.3017283470192984,0.9763681815083469,0.2856476375,0.7096938922353375
0.054,1.7271,1.0,2694.562561472389,0.45530419251869586,1.301141354490822,0.9766415416866278,0.2855912,0.7108223361461516
0.0545,1.7257437500000001,1.0,2692.377587768159,0.45835951406859066,1.3005488474704885,0.9769077328409884,0.2855342375,0.7119591526918401
0.055,1.724375,1.0,2690.180628162311,0.46139770035686156,1.2999508131435564,0.9771669925283587,0.28547675,0.7131043038728294
0.0555,1.72299375,1.0,2687.9730974749746,0.4644188451718385,1.2993472386952847,0.9774195482760742,0.2854187375,0.7142577509104218
0.056,1.7216,1.0,2685.7564083087505,0.46742304230185144,1.298738111310931,0.977665618085972,0.2853602,0.715419454242276
0.0565,1.72019375,1.0,2683.531971020196,0.4704103855352301,1.2981234181757546,0.9779054109091383,0.28530113749999997,0.7165893735178703
0.057,1.718775,1.0,2681.3011936959356,0.4733809686603046,1.2975031464750135,0.978139127093248,0.28524155,0.7177674675939625
0.0575,1.71734375,1.0,2679.065482131326,0.4763348854654047,1.2968772833939661,0.9783669588042828,0.2851814375,0.7189536945300342
0.058,1.7159,1.0,2676.826239813948,0.4792722297388603,1.2962458161178712,0.9785890904242898,0.2851208,0.720148011583726
0.0585,1.71444375,1.0,2674.58486790972,0.48219309526900134,1.2956087318319869,0.9788056989267252,0.2850596375,0.7213503752062642
0.059000000000000004,1.7129750000000001,1.0,2672.3427652533705,0.4850975758441577,1.2949660177215718,0.9790169542308088,0.28499795,0.7225607410378743
0.059500000000000004,1.71149375,1.0,2670.101328342037,0.48798576525265924,1.2943176609718845,0.9792230195362235,0.2849357375,0.7237790639031851
0.06,1.71,1.0,2667.8619513328235,0.4908577572828359,1.2936636487681834,0.9794240516393915,0.284873,0.7250052978066232
0.0605,1.7084937500000001,1.0,2665.627689951704,0.4937136176467873,1.2930039529913055,0.9796201981479389,0.2848097375,0.7262394245263674
0.061,1.7069750000000001,1.0,2663.3991378330547,0.49655347125752064,1.2923385681304855,0.979811606914175,0.28474595,0.7274813826001834
0.0615,1.7054437500000001,1.0,2661.1766498345914,0.4993774068531162,1.2916674908639179,0.979998417358827,0.2846816375,0.7287311057817168
0.062,1.7039,1.0,2658.9606744051503,0.5021855101416504,1.2909907170024613,0.9801807633291562,0.2846168,0.7299885287576324
0.0625,1.70234375,1.0,2656.7516592521165,0.5049778668311993,1.2903082423569732,0.9803587736320711,0.2845514375,0.7312535855216995
0.063,1.7007750000000001,1.0,2654.550051346499,0.5077545626298393,1.2896200627383116,0.9805325722598968,0.28448555,0.7325262093732667
0.0635,1.69919375,1.0,2652.3562969285163,0.5105156832456469,1.288926173957335,0.980702278604402,0.28441913750000003,0.7338063329157392
0.064,1.6976,1.0,2650.1708415127277,0.5132613143866982,1.288226571824901,0.9808680076597747,0.2843522,0.7350938880550546
0.0645,1.69599375,1.0,2647.9941298948884,0.5159915417610695,1.2875212521518675,0.9810298702151939,0.2842847375,0.7363888059981576
0.065,1.694375,1.0,2645.826606158056,0.5187064510768374,1.2868102107490926,0.9811879730376021,0.28421675,0.7376910172514703
0.0655,1.69274375,1.0,2643.668713679474,0.5214061280420779,1.2860934434274345,0.9813424190452438,0.2841482375,0.7390004516193666
0.066,1.6911,1.0,2641.5208951382015,0.5240906583648675,1.285370945997751,0.9814933074725009,0.2840792,0.7403170382026427
0.0665,1.6894437500000001,1.0,2639.383592522616,0.5267601277532823,1.2846427142708998,0.9816407340265177,0.2840096375,0.7416407053969862
0.067,1.687775,1.0,2637.25724713827,0.5294146219153988,1.2839087440577392,0.9817847910360824,0.28393955,0.7429713808914449
0.0675,1.68609375,1.0,2635.142299616785,0.5320542265592932,1.2831690311691273,0.9819255675931956,0.2838689375,0.7443089916668936
0.068,1.6844000000000001,1.0,2633.039189924553,0.5346790273930421,1.2824235714159218,0.9820631496877388,0.2837978,0.7456534639945017
0.0685,1.68269375,1.0,2630.934514259306,0.5372891088756189,1.2816724887728275,0.9821976263360226,0.2837261375,0.7470044932031932
0.069,1.680975,1.0,2628.857835368993,0.5398845511612461,1.2809155094562328,0.9823290645200403,0.28365395,0.7483624889889834
0.0695,1.6792441749874887,1.0,2626.823161875768,0.5424654355133927,1.2801526952999005,0.9824575446288198,0.28358125534947454,0.7497272554725801
0.07,1.677509934540712,1.0,2625.2131354073945,0.5450318429395673,1.279384410030085,0.9825831583762586,0.2835084172507099,0.7510980594137159
0.07050000000000001,1.6757756940939355,1.0,2624.15451586966,0.5475838544472791,1.278611017373041,0.9827059945254568,0.2834355791519453,0.7524741741019103
0.07100000000000001,1.674041453647159,1.0,2623.6077380996358,0.5501215510440369,1.2778328810550226,0.9828261390139151,0.2833627410531807,0.7538548794791635
0.07150000000000001,1.6723072132003824,1.0,2623.5352267636204,0.5526450128974028,1.2770503479667645,0.9829436742537071,0.28328990295441603,0.7552394920009398
0.07200000000000001,1.6705729727536058,1.0,2623.8891437379025,0.555154320930979,1.2762638614190291,0.9830586845030646,0.28321706485565146,0.7566271647762993
0.0725,1.6688387323068294,1.0,2624.637144870509,0.557649553917707,1.275473722022332,0.9831712448878824,0.28314422675688683,0.7580173101886574
0.073,1.6671044918600528,1.0,2625.7488863250687,0.5601307903145578,1.2746802125475145,0.9832814274095004,0.2830713886581222,0.7594093776621564
0.0735,1.6653702514132762,1.0,2627.1940783710247,0.5625981085785028,1.2738836157654176,0.9833893018759973,0.28299855055935763,0.7608028221149907
0.074,1.6636360109664996,1.0,2628.9429528450237,0.5650515870365233,1.273084209929854,0.9834949357832077,0.28292571246059295,0.7621971118845261
0.0745,1.661901770519723,1.0,2630.969256910325,0.5674913033674073,1.2722822408982828,0.9835983931479582,0.2828528743618284,0.7635917770771987
