Time [s],Phi [rad],STIM [ ],Fsee [N],Gamma [ ],Lcerel [ ],q [ ],Lmtc [m],fisomrel [ ]
0.0,1.8,1.0,17.97824949751282,0.00010100924305062858,1.3793385038115507,0.005002670054836667,0.288653,0.5411425367538718
0.0005,1.79999375,1.0,18.317589653643875,0.005709651969896701,1.3792978531807907,0.013195101655967274,0.2886527375,0.5412408755498832
0.001,1.799975,1.0,21.726793071683876,0.011286834645528245,1.3789272433202628,0.03608438377615455,0.28865195,0.5421369396355431
0.0015,1.79994375,1.0,31.322370729790048,0.016832733736886926,1.378024681268885,0.07125200038401812,0.2886506375,0.5443154985700189
0.002,1.7999,1.0,54.12408347906235,0.022347524719145067,1.3763330776379201,0.11548735213206865,0.2886488,0.5483846131236326
0.0025,1.79984375,1.0,98.02635633556069,0.02783138208385578,1.3738915425821898,0.16541145249287717,0.28864643749999996,0.5542254923007351
0.003,1.7997750000000001,1.0,162.137013066997,0.0332844793458525,1.3711702989175625,0.21814325524816483,0.28864354999999997,0.5606907181168601
0.0035,1.79969375,1.0,239.01423604143008,0.038706989043507396,1.3685437960821039,0.2714708835128669,0.2886401375,0.5668860662289308
0.004,1.7996,1.0,322.8820790246137,0.044099082749319445,1.3661186474704046,0.32374646635932336,0.2886362,0.5725673978776837
0.0045000000000000005,1.7994937500000001,1.0,410.73288975016135,0.049460931075157616,1.3638884524959487,0.37382295143023264,0.2886317375,0.5777589098855347
0.005,1.799375,1.0,500.9081342797692,0.054792703663829184,1.3618266053087242,0.42098505838497235,0.28862675,0.5825303178914691
0.0055,1.79924375,1.0,592.297837055858,0.060094569231721226,1.3599094024709422,0.46485656881705534,0.2886212375,0.5869426722353616
0.006,1.7991000000000001,1.0,684.0267317852565,0.06536669552321492,1.3581190071254658,0.5053074985560703,0.2886152,0.591042017651373
0.006500000000000001,1.79894375,1.0,775.3812353028703,0.07060924935621256,1.3564416604137088,0.5423745224316785,0.2886086375,0.5948639755150456
0.007,1.798775,1.0,865.7691260611587,0.07582239659380086,1.3548664449799481,0.576199635757754,0.28860155,0.5984368821023388
0.0075,1.79859375,1.0,954.7046797571678,0.08100630224154841,1.3533843089684012,0.606985421471754,0.2885939375,0.6017842161190228
0.008,1.7984,1.0,1041.7861350520834,0.08616113019503552,1.3519876338325836,0.6349641394941457,0.2885858,0.6049257194800353
0.0085,1.79819375,1.0,1126.7123895171649,0.09128704374360444,1.3506694548092688,0.6603769100259609,0.2885771375,0.6078792521166141
0.009000000000000001,1.797975,1.0,1209.2366576477225,0.09638420489283424,1.3494237787286811,0.6834610398849683,0.28856795,0.610660149422735
0.0095,1.79774375,1.0,1289.1857705307282,0.10145277502585488,1.3482450107777244,0.7044420472608519,0.2885582375,0.6132825652692049
0.01,1.7975,1.0,1366.4258352340648,0.10649291436155602,1.3471282102045852,0.7235297036101315,0.288548,0.615758946684188
0.0105,1.79724375,1.0,1440.8852591013301,0.11150478281087654,1.3460686083256033,0.7409159929165895,0.2885372375,0.6181011426389675
0.011,1.796975,1.0,1512.5001218172965,0.1164885384512096,1.3450621677944767,0.7567750800425401,0.28852595000000003,0.6203191975668889
0.0115,1.79669375,1.0,1581.2509900697908,0.1214443390395957,1.3441049861466148,0.7712635752100258,0.2885141375,0.6224226993272897
0.012,1.7964,1.0,1647.1524018101363,0.12637234171523593,1.343193345728995,0.784521642729518,0.28850180000000003,0.6244206870131968
0.0125,1.79609375,1.0,1710.2241869541497,0.13127270211895858,1.342323973201794,0.7966744349963658,0.2884889375,0.6263211013116627
0.013000000000000001,1.7957750000000001,1.0,1770.5002593654249,0.13614557526803817,1.3414938562415415,0.8078334097060649,0.28847555,0.6281312058331677
0.0135,1.79544375,1.0,1828.0424949679837,0.14099111564646902,1.3407000313800266,0.818097641532642,0.2884616375,0.6298580631940336
0.014,1.7951000000000001,1.0,1882.9101906813212,0.14580947626729523,1.3399398829362619,0.8275552739514145,0.2884472,0.6315078953739814
0.0145,1.79474375,1.0,1935.1653563996672,0.15060080947029392,1.339211033530701,0.8362847019700249,0.2884322375,0.6330863352392654
0.015,1.794375,1.0,1984.893287353539,0.155365267534144,1.338511086277649,0.8443556026231053,0.28841675,0.6345989938364989
0.0155,1.79399375,1.0,2032.1679327398342,0.1601030006895034,1.3378379708906782,0.8518300677064431,0.2884007375,0.6360507188280269
0.016,1.7936,1.0,2077.069055266236,0.16481415862450824,1.3371897286518393,0.8587634264005208,0.2883842,0.6374460678944484
0.0165,1.7931937500000001,1.0,2119.67654837116,0.1694988900139648,1.3365645505026018,0.8652050556065043,0.2883671375,0.638789232605171
0.017,1.792775,1.0,2160.0932051916284,0.1741573449675114,1.3359605242560297,0.8711990116009674,0.28834955,0.6400845859107578
0.0175,1.7923437500000001,1.0,2198.3932345468133,0.17878967001942322,1.3353761492567622,0.876784800088916,0.2883314375,0.6413355819824809
0.018000000000000002,1.7919,1.0,2234.6504408954584,0.18339601086669255,1.3348100255008195,0.8819978229759595,0.2883128,0.6425454299239177
0.0185,1.79144375,1.0,2268.9471204404567,0.1879765132063117,1.3342607529842225,0.8868698305124353,0.2882936375,0.6437173119082289
0.019,1.790975,1.0,2301.3682943501344,0.19253132208612164,1.3337269816611639,0.8914293562096689,0.28827395,0.6448542784162283
0.0195,1.79049375,1.0,2332.0003574749912,0.19706058246659508,1.3332074164325174,0.8957020869662307,0.2882537375,0.6459592399055069
0.02,1.79,1.0,2360.9263872781867,0.2015644386344736,1.3327008553157462,0.899711193991936,0.288233,0.6470348879852389
0.0205,1.78949375,1.0,2388.2101354183046,0.20604303164281715,1.3322063369763564,0.9034776457441701,0.2882117375,0.6480833854360701
0.021,1.788975,1.0,2413.919778889625,0.21049650254468572,1.3317229000798543,0.9070203992168485,0.28818995000000003,0.6491068799828158
0.021500000000000002,1.78844375,1.0,2438.1275532619075,0.21492499239313928,1.3312495832917466,0.910356620481663,0.2881676375,0.6501075050033298
0.022,1.7879,1.0,2460.9042537683863,0.21932864123124393,1.3307854746028502,0.9135018881060046,0.2881448,0.6510872761217064
0.0225,1.78734375,1.0,2482.321319016671,0.22370758940265587,1.3303296872967554,0.9164703585076581,0.28812143749999997,0.6520481431454969
0.023,1.786775,1.0,2502.4497927901893,0.2280619771644088,1.3298813665320628,0.9192749167518973,0.28809755,0.6529919770884529
0.0235,1.78619375,1.0,2521.342217244537,0.23239194051109785,1.3294398574718889,0.921927337877946,0.28807313749999996,0.6539202178217525
0.024,1.7856,1.0,2539.053243380044,0.23669761543731815,1.3290045052793507,0.9244383653922343,0.2880482,0.654834296893781
0.0245,1.78499375,1.0,2555.639454937325,0.24097913793766482,1.3285746551175652,0.9268178158387509,0.2880227375,0.6557356378009345
0.025,1.784375,1.0,2571.1592018010465,0.24523664400673298,1.3281496521496494,0.92907467150207,0.28799675,0.6566256562310717
0.025500000000000002,1.78374375,1.0,2585.663511428536,0.24947026750518228,1.327728924949948,0.9312171756831285,0.2879702375,0.6575055859411714
0.026000000000000002,1.7831000000000001,1.0,2599.2097991842375,0.2536801448876546,1.3273118553336523,0.9332528851650496,0.2879432,0.6583767517794716
0.0265,1.78244375,1.0,2611.850887448413,0.25786641069144906,1.3268978798242606,0.9351887503547363,0.2879156375,0.65924035767348
0.027,1.781775,1.0,2623.625471028748,0.26202919537782604,1.3264865762922378,0.9370311850029425,0.28788755,0.6600973070821838
0.0275,1.7810937500000001,1.0,2634.573129948194,0.26616862940804603,1.3260775226080495,0.9387860961285415,0.2878589375,0.6609484988832812
0.028,1.7804,1.0,2644.734253578653,0.27028484324336943,1.3256702966421612,0.9404589307534363,0.2878298,0.6617948274394347
0.0285,1.77969375,1.0,2654.1499687248383,0.2743779673450567,1.325264476265038,0.9420547177615076,0.2878001375,0.6626371826531585
0.029,1.778975,1.0,2662.8620716593387,0.27844813217436826,1.3248596393471457,0.9435781054433225,0.28776995,0.6634764500103394
0.029500000000000002,1.7782437500000001,1.0,2670.904445669644,0.28249546434134004,1.3244554420330068,0.9450334045348987,0.2877392375,0.6643133486453003
0.03,1.7775,1.0,2678.322112828763,0.2865200969572516,1.3240514428274839,0.9464245976568483,0.287708,0.6651487959229143
0.0305,1.77674375,1.0,2685.147006427248,0.29052215706253975,1.323647324820054,0.9477553925755594,0.2876762375,0.6659834475026227
0.031,1.775975,1.0,2691.4063995245206,0.2945017692804607,1.3232428173013917,0.9490292365308408,0.28764395,0.666817860532714
0.0315,1.7751937500000001,1.0,2697.1278930158637,0.2984590582342705,1.322837649562171,0.9502493330542287,0.2876111375,0.667652589365985
0.032,1.7744,1.0,2702.339384899873,0.3023941485472254,1.3224315508930662,0.9514186622101857,0.2875778,0.6684881855506764
0.0325,1.77359375,1.0,2707.0690411716,0.3063071648425815,1.3220242505847513,0.9525399989216088,0.2875439375,0.6693251978167389
0.033,1.772775,1.0,2711.345268339451,0.3101982317435951,1.3216154779279008,0.9536159295815209,0.28750955,0.6701641720574234
0.0335,1.7719437500000002,1.0,2715.191778214737,0.31406747026848136,1.3212050069547578,0.9546488712614996,0.2874746375,0.671005559653042
0.034,1.7711000000000001,1.0,2718.6333478897755,0.31791500345696616,1.3207926036160282,0.9556410806176484,0.2874392,0.671849826100924
0.0345,1.7702437500000001,1.0,2721.7030785921083,0.32174096151039333,1.3203779595540435,0.9565946604282741,0.2874032375,0.6726975861989404
0.035,1.7693750000000001,1.0,2724.4177951317665,0.3255454623855305,1.319960915936403,0.9575115907568401,0.28736675,0.6735491462791392
0.035500000000000004,1.76849375,1.0,2726.794429526737,0.3293286240391453,1.3195413139307064,0.9583937253599062,0.2873297375,0.6744048108783092
0.036000000000000004,1.7676,1.0,2728.850009852729,0.3330905644280052,1.3191189947045532,0.9592428011928821,0.2872922,0.6752648827128679
0.0365,1.76669375,1.0,2730.6016496529933,0.33683140150887786,1.3186937994255428,0.9600604470967335,0.2872541375,0.6761296626521427
0.037,1.765775,1.0,2732.06653790683,0.34055125323853086,1.3182655692612744,0.9608481917446158,0.28721555,0.6769994496900413
0.0375,1.76484375,1.0,2733.2619295577256,0.34425023757373185,1.3178341453793478,0.9616074709190294,0.2871764375,0.6778745409151135
0.038,1.7639,1.0,2734.205136600823,0.34792847247124825,1.3173993689473624,0.9623396341826894,0.28713679999999997,0.6787552314790055
0.0385,1.76294375,1.0,2734.9135197298338,0.35158607588784785,1.3169610811329178,0.963045950999724,0.28709663750000003,0.6796418145633034
0.039,1.761975,1.0,2735.3948781676168,0.3552231592365633,1.3165192102913987,0.9637276231593968,0.28705595,0.6805344053460118
0.0395,1.7609937500000001,1.0,2735.6698670438327,0.35883984405210634,1.316073568342645,0.9643857740478476,0.2870147375,0.6814333526630973
0.04,1.76,1.0,2735.7557079221656,0.36243624730804636,1.3156239986454052,0.9650214645963935,0.286973,0.6823389396654503
0.0405,1.7589937500000001,1.0,2735.661771004092,0.36601248006940024,1.3151704160431572,0.9656357008174035,0.2869307375,0.6832513037346403
0.041,1.757975,1.0,2735.3974442004796,0.369568653401185,1.314712735379378,0.966229432310507,0.28688795,0.6841705809631047
0.0415,1.75694375,1.0,2734.9721301302993,0.37310487836841755,1.3142508714975447,0.9668035560099077,0.2868446375,0.6850969061321226
0.042,1.7559,1.0,2734.395243280112,0.37662126603611484,1.3137847392411348,0.9673589196454052,0.28680079999999997,0.6860304126893273
0.0425,1.75484375,1.0,2733.676207324305,0.38011792746929385,1.3133142534536255,0.9678963249417156,0.2867564375,0.6869712327257568
0.043000000000000003,1.753775,1.0,2732.8244526055482,0.3835949737329715,1.312839328978494,0.968416530578353,0.28671155,0.6879194969524411
0.043500000000000004,1.75269375,1.0,2731.849413777314,0.38705251589216483,1.3123598806592178,0.9689202549302262,0.28666613750000003,0.6888753346765281
0.044,1.7516,1.0,2730.760527605529,0.3904906650118906,1.311875823339274,0.9694081786072424,0.2866202,0.689838873776945
0.0445,1.75049375,1.0,2729.5682539616623,0.3939095302283659,1.3113870625633082,0.9698809458016534,0.2865737375,0.6908102591460281
0.045,1.7493750000000001,1.0,2728.2767667521593,0.39730921878184394,1.3108935610006534,0.9703391716535543,0.28652675,0.6917895208173885
0.0455,1.74824375,1.0,2726.8934032791294,0.4006898376249369,1.3103952525683364,0.9707834377358739,0.2864792375,0.6927767448438732
0.046,1.7471,1.0,2725.4258235710686,0.40405149363662307,1.3098920682255177,0.9712142960595338,0.2864312,0.6937720218460175
0.0465,1.7459437500000001,1.0,2723.8657295437583,0.4073942918628595,1.3093840840979876,0.9716322814896042,0.28638263750000004,0.6947751546774534
0.047,1.744775,1.0,2722.2487803037607,0.4107183412857213,1.308870976351878,0.9720378739443191,0.28633355,0.6957867345900435
0.0475,1.743599186465996,1.0,2720.8256686138884,0.4140237467319748,1.3083529182455718,0.9724315649241686,0.28628416583157185,0.6968063705658155
0.048,1.7424233445811912,1.0,2719.90928193572,0.4173106114686833,1.3078302364568064,0.972813832663942,0.28623478047241,0.6978333722032738
0.0485,1.7412475026963863,1.0,2719.4648967614326,0.42057903876291036,1.30730325766332,0.9731851323488532,0.28618539511324825,0.6988670530277781
0.049,1.7400716608115814,1.0,2719.456523859843,0.4238291318817193,1.3067723085428498,0.9735458974467787,0.28613600975408643,0.6999067305844726
0.0495,1.7388958189267765,1.0,2719.848285058992,0.42706099409217346,1.306237715773134,0.9738965409519518,0.2860866243949246,0.7009517265244044
0.05,1.7377199770419718,1.0,2720.607263215264,0.4302747277066986,1.3056997798334122,0.9742374546791746,0.28603723903576284,0.7020014177608523
0.0505,1.7365441351571669,1.0,2721.7015010240193,0.4334704350458827,1.3051587930173045,0.9745690117704502,0.285987853676601,0.7030552010338709
0.051000000000000004,1.735368293272362,1.0,2723.0990027436364,0.43664821888094185,1.3046150483343435,0.9748915683685547,0.2859384683174392,0.7041124755365612
0.051500000000000004,1.734192451387557,1.0,2724.7789835192084,0.43980817827833557,1.3040687369968718,0.9752054574681087,0.2858890829582774,0.7051728417765537
0.052000000000000005,1.7330166095027522,1.0,2726.7206786490146,0.44295041230452314,1.3035200502172315,0.9755109971252526,0.2858396975991156,0.7062359027937797
0.0525,1.7318407676179473,1.0,2728.903333108988,0.4460750200259638,1.3029691792077656,0.9758084912630709,0.28579031223995377,0.7073012641906022
0.053,1.7306649257331423,1.0,2731.3061918874296,0.449182100509117,1.3024163151808164,0.9760982304269471,0.285740926880792,0.7083685341596211
0.0535,1.7294890838483374,1.0,2733.908491129863,0.452271752820442,1.3018616493487267,0.9763804924933654,0.2856915415216302,0.7094373235091402
0.054,1.7283132419635325,1.0,2736.7005852213792,0.4553440694892224,1.3013052718428935,0.9766555365088777,0.28564215616246835,0.7105074399224492
0.0545,1.7271374000787276,1.0,2739.6519587960856,0.4583991576630973,1.3007474621400228,0.9769236233288605,0.2855927708033066,0.7115783291337231
0.055,1.7259615581939227,1.0,2742.751135948517,0.46143711244388774,1.3001883266129892,0.9771849912154094,0.28554338544414476,0.7126497722107568
0.0555,1.724785716309118,1.0,2745.9882095263006,0.4644580279295544,1.299627957289701,0.9774398674891686,0.28549400008498294,0.7137215791147996
0.056,1.7236098744243131,1.0,2749.353259075189,0.46746199821805756,1.2990664461980659,0.9776884700194862,0.28544461472582117,0.714793561092026
0.0565,1.7224340325395082,1.0,2752.8363484152133,0.47044911740735795,1.2985038853659927,0.9779310076973191,0.28539522936665934,0.7158655306805048
0.057,1.7212581906547033,1.0,2756.4275234055385,0.4734194795954161,1.2979403668213894,0.9781676808807804,0.2853458440074975,0.7169373017166325
0.0575,1.7200823487698984,1.0,2760.1168098960297,0.4763731788801924,1.2973759825921642,0.9783986818151301,0.28529645864833575,0.7180086893410231
0.058,1.7189065068850935,1.0,2763.8942118669947,0.4793103093596476,1.2968108247062258,0.978624195028862,0.2852470732891739,0.7190795100038588
0.0585,1.7177306650002886,1.0,2767.749709757024,0.4822309651317421,1.296244985191482,0.9788443977074285,0.2851976879300121,0.7201495814697024
0.059000000000000004,1.7165548231154837,1.0,2771.6780393999175,0.48513523396857855,1.2956785129554795,0.9790594571362059,0.28514830257085033,0.7212188041340444
0.059500000000000004,1.7153789812306788,1.0,2775.6689126055194,0.48802321392928544,1.2951115020775377,0.9792695373860447,0.2850989172116885,0.7222869940737866
0.06,1.7142031393458739,1.0,2779.713998469935,0.49089499989891144,1.2945440287565535,0.9794747949302955,0.2850495318525267,0.7233540023082226
0.0605,1.713027297461069,1.0,2783.809346701025,0.4937506802773368,1.2939761295562566,0.9796753775764754,0.2850001464933649,0.7244197552650606
0.061,1.711851455576264,1.0,2787.950996327778,0.4965903434644417,1.293407841040377,0.9798714275005743,0.2849507611342031,0.7254841798980383
0.0615,1.7106756136914592,1.0,2792.134975370379,0.49941407786010616,1.292839199772645,0.9800630815056729,0.28490137577504127,0.726547203687873
0.062,1.7094997718066542,1.0,2796.357300539059,0.5022219718642105,1.2922702423167904,0.9802504712667989,0.2848519904158795,0.7276087546431269
0.0625,1.7083239299218496,1.0,2800.613976962947,0.5050141138766348,1.2917010052365432,0.9804337235628529,0.2848026050567177,0.7286687613009892
0.063,1.7071480880370447,1.0,2804.900997948833,0.5077905922972591,1.2911315250956332,0.9806129604963765,0.28475321969755585,0.7297271527279677
0.0635,1.7059722461522397,1.0,2809.2143447691383,0.5105514955259637,1.2905618384577906,0.9807882997018893,0.2847038343383941,0.7307838585205
0.064,1.7047964042674348,1.0,2813.549986479492,0.5132969119626287,1.2899919818867454,0.9809598545434653,0.28465444897923226,0.7318388088054769
0.0645,1.70362056238263,1.0,2817.9038797665185,0.5160269300071343,1.2894219919462273,0.9811277343021814,0.28460506362007043,0.7328919342406822
0.065,1.702444720497825,1.0,2822.278066296076,0.5187416159850906,1.2888518506948243,0.9812920400952194,0.28455567826090866,0.7339432664227517
0.0655,1.7012688786130201,1.0,2826.6631510668244,0.5214410857951941,1.2882816424005663,0.9814528779497413,0.28450629290174684,0.7349926487717857
0.066,1.7000930367282152,1.0,2831.0574812627,0.5241254229720929,1.2877113819709458,0.9816103445292399,0.284456907542585,0.7360400532027058
0.0665,1.6989171948434103,1.0,2835.4598504450996,0.5267947092349784,1.2871410802865226,0.9817645328075766,0.28440752218342324,0.7370854592215841
0.067,1.6977413529586054,1.0,2839.8690483986416,0.5294490263030425,1.2865707482278577,0.9819155325414126,0.2843581368242614,0.7381288464927481
0.0675,1.6965655110738005,1.0,2844.283861123296,0.5320884558954765,1.2860003966755107,0.9820634304046476,0.2843087514650996,0.7391701948388092
0.068,1.6953896691889958,1.0,2848.703070827803,0.5347130797314722,1.285430036510042,0.9822083101163358,0.2842593661059378,0.7402094842406763
0.0685,1.694213827304191,1.0,2853.125455926278,0.537322979530221,1.2848596786120121,0.98235025256244,0.284209980746776,0.7412466948375676
0.069,1.693037985419386,1.0,2857.549791037854,0.5399182370109146,1.2842893338619814,0.9824893359117607,0.2841605953876142,0.7422818069270117
0.0695,1.691862143534581,1.0,2861.9748469883,0.5424989338927446,1.2837190131405098,0.9826256357263552,0.2841112100284524,0.7433148009648445
0.07,1.6906863016497762,1.0,2866.3993908143107,0.5450651518949025,1.2831487273281579,0.9827592250667465,0.2840618246692906,0.744345657565193
0.07050000000000001,1.6895104597649713,1.0,2870.8221857710128,0.5476169727365798,1.2825784873054857,0.9828901745922022,0.28401243931012876,0.7453743575004574
0.07100000000000001,1.6883346178801664,1.0,2875.241991341465,0.5501544781369684,1.2820083039530537,0.9830185526563435,0.283963053950967,0.7464008817012822
0.07150000000000001,1.6871587759953615,1.0,2879.65756324892,0.5526777498152595,1.281438188151422,0.9831444253983329,0.28391366859180517,0.7474252112565203
0.07200000000000001,1.6859829341105566,1.0,2884.0676534720023,0.555186869490645,1.2808681507811512,0.9832678568298738,0.28386428323264334,0.7484473274131904
0.0725,1.6848070922257516,1.0,2888.4721322163796,0.5576819024379884,1.2802981928092703,0.9833889075189319,0.2838148978734816,0.7494672292980139
