Time [s],Phi [rad],STIM [ ],Fsee [N],Gamma [ ],Lcerel [ ],q [ ],Lmtc [m],fisomrel [ ]
0.0,1.8,1.0,17.978979386577937,0.00011099666174917144,1.379338422065623,0.005003221768388026,0.288653,0.5411427345177399
0.0005,1.79999375,1.0,18.32170275424162,0.005719583367076926,1.3792973968306705,0.013223278518778098,0.2886527375,0.54124197945624
0.001,1.799975,1.0,21.73839443481735,0.011296710335423465,1.3789260615294163,0.036136801815011686,0.28865195,0.5421397955797354
0.0015,1.79994375,1.0,31.34998297860106,0.01684255403197407,1.378022338841364,0.07132351806476532,0.2886506375,0.5443211458447227
0.002,1.7999,1.0,54.18353025380826,0.02235728993013332,1.3763292414383204,0.11557190019956644,0.2886488,0.5483938202756964
0.0025,1.79984375,1.0,98.12596844780747,0.027841092519738098,1.3738867659939031,0.16550333640548903,0.28864643749999996,0.554236882061927
0.003,1.7997750000000001,1.0,162.26632804966133,0.033294135313865464,1.371165477124462,0.21823798412614182,0.28864354999999997,0.5607021319865133
0.0035,1.79969375,1.0,239.16019190989985,0.03871659084916867,1.3685393134740316,0.2715650578208139,0.2886401375,0.5668966021176324
0.004,1.7996,1.0,323.0372882545177,0.04410863069643975,1.3661145460832225,0.3238376215665768,0.2886362,0.5725769743184821
0.0045000000000000005,1.7994937500000001,1.0,410.8935712355125,0.049470425465860474,1.3638846877904622,0.37390945988414975,0.2886317375,0.5777676466570084
0.005,1.799375,1.0,501.0720743355002,0.054802144798633365,1.361823127082028,0.4210659785014311,0.28862675,0.5825383440962455
0.0055,1.79924375,1.0,592.4631976152964,0.06010395740894206,1.3599061760655955,0.4649314786147522,0.2886212375,0.5869500779012774
0.006,1.7991000000000001,1.0,684.1921740486965,0.06537603104018484,1.3581160033252357,0.5053763348846825,0.2886152,0.5910488780687493
0.006500000000000001,1.79894375,1.0,775.5450937112353,0.07061853249627671,1.356438866097666,0.5424374644031111,0.2886086375,0.5948703275988843
0.007,1.798775,1.0,865.9332275825301,0.07583162769345592,1.3548637966117745,0.5762569709647045,0.28860155,0.5984428758108329
0.0075,1.79859375,1.0,954.8654139951461,0.08101548153515861,1.3533818387066743,0.6070375722752114,0.2885939375,0.601789783393782
0.008,1.7984,1.0,1041.9392154642642,0.08617025789780122,1.3519853816595122,0.635011561423237,0.2885858,0.6049307751849731
0.0085,1.79819375,1.0,1126.8698899108276,0.09129612038719889,1.3506672266444626,0.6604199232631967,0.2885771375,0.6078842351960495
0.009000000000000001,1.797975,1.0,1209.3957593100158,0.09639323067912821,1.349421606066731,0.6835000840734669,0.28856795,0.6106649911152624
0.0095,1.79774375,1.0,1289.3348619129683,0.1014617499901194,1.3482430389470796,0.7044775948399701,0.2885582375,0.6132869445947156
0.01,1.7975,1.0,1366.5759532272166,0.10650183913373241,1.3471262817244574,0.7235620321271724,0.288548,0.6157632159953847
0.0105,1.79724375,1.0,1441.0293609435216,0.11151365754575349,1.3460668055928318,0.7409454743722016,0.2885372375,0.6181051213863942
0.011,1.796975,1.0,1512.6344857684621,0.11649736333088254,1.3450605271563858,0.7568020271444581,0.28852595000000003,0.6203228080311134
0.0115,1.79669375,1.0,1581.3731287331268,0.1214531140595926,1.344103527561593,0.7712882597747017,0.2885141375,0.6224259002540437
0.012,1.7964,1.0,1647.273789356403,0.12638106765112528,1.3431919254076374,0.7845442372298972,0.28850180000000003,0.6244237957110925
0.0125,1.79609375,1.0,1710.3505001068474,0.1312813795786716,1.3423225227563031,0.7966951249088992,0.2884889375,0.6263242679010215
0.013000000000000001,1.7957750000000001,1.0,1770.626807894781,0.1361542041768454,1.3414924280425469,0.8078524075575129,0.28847555,0.6281343162933863
0.0135,1.79544375,1.0,1828.1578912420864,0.14099969578026064,1.340698749701325,0.818115163738417,0.2884616375,0.6298608480610777
0.014,1.7951000000000001,1.0,1883.0071053435483,0.14581800775456638,1.3399388223244164,0.8275714946170492,0.2884472,0.6315101947598496
0.0145,1.79474375,1.0,1935.2682035279847,0.1506092937747949,1.3392099232961532,0.8362996545042621,0.2884322375,0.6330887370453376
0.015,1.794375,1.0,1984.999252243858,0.15537370445433354,1.3385099568068863,0.8443694176660754,0.28841675,0.6346014322149234
0.0155,1.79399375,1.0,2032.269146267763,0.1601113900438324,1.3378369046856249,0.8518428788520905,0.2884007375,0.6360530160473088
0.016,1.7936,1.0,2077.1630969801527,0.16482250079394148,1.3371887487613776,0.8587753345961552,0.2883842,0.6374481750916345
0.0165,1.7931937500000001,1.0,2119.7675379670363,0.16950718556928582,1.3365636119909774,0.8652161303622949,0.2883671375,0.6387912470777641
0.017,1.792775,1.0,2160.18330273667,0.17416559416937408,1.3359596036802135,0.8712093209504479,0.28834955,0.640086558338756
0.0175,1.7923437500000001,1.0,2198.4783931072184,0.17879787270118602,1.3353752867573774,0.8767944224106005,0.2883314375,0.6413374267615016
0.018000000000000002,1.7919,1.0,2234.729808797595,0.18340416723428038,1.3348092281974042,0.8820068199258689,0.2883128,0.6425471323783754
0.0185,1.79144375,1.0,2269.0231535593957,0.1879846238382157,1.3342599949752292,0.8868782491319473,0.2882936375,0.6437189278034432
0.019,1.790975,1.0,2301.4360417071593,0.19253938674546295,1.3337263110303934,0.8914372567305215,0.28827395,0.6448557057590725
0.0195,1.79049375,1.0,2332.0696671887554,0.1970686028886606,1.3332067348570498,0.8957094896150118,0.2882537375,0.6459606882841318
0.02,1.79,1.0,2360.9908055435276,0.20157241426360334,1.3327002257338687,0.899718153097994,0.288233,0.6470362238413037
0.0205,1.78949375,1.0,2388.266503896121,0.20605096228018294,1.3322057892232437,0.9034842031336785,0.2882117375,0.6480845459392914
0.021,1.788975,1.0,2413.9683219424423,0.2105043883482911,1.3317224308875681,0.9070265856921731,0.28818995000000003,0.649107872595799
0.021500000000000002,1.78844375,1.0,2438.171952267115,0.21493283387781964,1.3312491562892355,0.9103624571258078,0.2881676375,0.6501084070716507
0.022,1.7879,1.0,2460.944835257506,0.21933643827349017,1.3307850861250476,0.9135074003758092,0.2881448,0.6510880956544797
0.0225,1.78734375,1.0,2482.366633276343,0.22371534374584712,1.3303292553887174,0.9164755550854297,0.28812143749999997,0.6520490530431617
0.023,1.786775,1.0,2502.4968455536055,0.22806968823126594,1.3298809198610337,0.9192798255761688,0.28809755,0.652992916810071
0.0235,1.78619375,1.0,2521.388796326132,0.23239960804925222,1.3294394169571988,0.9219319831957273,0.28807313749999996,0.6539211433510871
0.024,1.7856,1.0,2539.0979349210165,0.23670523951931152,1.3290040840924142,0.9244427681322335,0.2880482,0.6548351806457642
0.0245,1.78499375,1.0,2555.6816573174747,0.24098671896094945,1.3285742586818823,0.9268219939447087,0.2880227375,0.655736468532052
0.025,1.784375,1.0,2571.1991374424997,0.24524418269367154,1.3281492781408049,0.9290786402305836,0.28799675,0.6566264389530252
0.025500000000000002,1.78374375,1.0,2585.7018947460856,0.24947776340870312,1.327728566488651,0.9312209476436047,0.2879702375,0.6575063351635648
0.026000000000000002,1.7831000000000001,1.0,2599.251238327984,0.25368760023618786,1.3273114693439199,0.9332564673232745,0.2879432,0.6583775575125135
0.0265,1.78244375,1.0,2611.8886636187713,0.25787382457043734,1.3268975288061322,0.9351921644468234,0.2879156375,0.6592410894784566
0.027,1.781775,1.0,2623.6554415394107,0.26203656728359975,1.3264862984301071,0.9370344474801072,0.28788755,0.6600978856422418
0.0275,1.7810937500000001,1.0,2634.593756757678,0.266175959247823,1.3260773317706647,0.9387892186661392,0.2878589375,0.6609488957440175
0.028,1.7804,1.0,2644.7466271938665,0.2702921313352552,1.325670182382625,0.9404619207081061,0.2878298,0.6617950647540429
0.0285,1.77969375,1.0,2654.1578279454116,0.27438521441804437,1.3252644038208072,0.9420575785818532,0.2878001375,0.6626373329307871
0.029,1.778975,1.0,2662.8634059022347,0.2784553358309333,1.3248596270685729,0.9435808465639035,0.28776995,0.6634764754491957
0.029500000000000002,1.7782437500000001,1.0,2670.9016763826603,0.2825026259088633,1.3244554674794025,0.9450360305096414,0.2877392375,0.664313295990824
0.03,1.7775,1.0,2678.3223069262476,0.2865272198280923,1.3240514410464346,0.946427107720349,0.287708,0.6651487996037282
0.0305,1.77674375,1.0,2685.151358255,0.2905292418917523,1.3236472849382435,0.94775779209047,0.2876762375,0.6659835298217585
0.031,1.775975,1.0,2691.4152459861843,0.29450881640297516,1.3232427363234043,0.9490315313744718,0.28764395,0.6668180274686166
0.0315,1.7751937500000001,1.0,2697.1407092575246,0.298466067664893,1.322837532370491,0.9502515295761149,0.2876111375,0.6676528306534826
0.032,1.7744,1.0,2702.354780883625,0.3024011199806378,1.322431410248079,0.9514207671932785,0.2875778,0.668488474762229
0.0325,1.77359375,1.0,2707.084759044496,0.3063140976533415,1.3220241071247423,0.9525420195468329,0.2875439375,0.6693254924442363
0.033,1.772775,1.0,2711.3581805051085,0.31020512498613617,1.3216153601690557,0.9536178733954329,0.28750955,0.6701644135947978
0.0335,1.7719437500000002,1.0,2715.202795367383,0.31407432628215376,1.3212049065495939,0.9546507420148503,0.2874746375,0.6710057653331207
0.034,1.7711000000000001,1.0,2718.6455546482216,0.3179218247682972,1.3207924924398038,0.9556428796238451,0.2874392,0.67185005355312
0.0345,1.7702437500000001,1.0,2721.7075866682403,0.3217477385025202,1.3203779185187008,0.9565963977392056,0.2874032375,0.6726976700434462
0.035,1.7693750000000001,1.0,2724.417463590198,0.32555219762327253,1.3199609189528,0.9575132674107995,0.28736675,0.6735491401239786
0.035500000000000004,1.76849375,1.0,2726.791554205021,0.3293353196383633,1.3195413400792642,0.9583953427333425,0.2873297375,0.6744047575903956
0.036000000000000004,1.7676,1.0,2728.8463213938376,0.3330972220556019,1.3191190282352547,0.9592443609808565,0.2872922,0.6752648144712586
0.0365,1.76669375,1.0,2730.59831194526,0.3368380223827973,1.3186938297579336,0.9600619512945748,0.2872541375,0.676129601001981
0.037,1.765775,1.0,2732.0641468949666,0.34055783812775886,1.318265590984463,0.9608496426307233,0.28721555,0.6769994055972912
0.0375,1.76484375,1.0,2733.2605123895955,0.34425678679829574,1.3178341582520046,0.9616088710387806,0.2871764375,0.677874514822193
0.038,1.7639,1.0,2734.204151073759,0.34793498590221716,1.3173993778977207,0.9623409863333957,0.28713679999999997,0.6787552133614156
0.0385,1.76294375,1.0,2734.911854001042,0.35159255294733227,1.3169610962587728,0.9630472582165868,0.28709663750000003,0.6796417839873629
0.039,1.761975,1.0,2735.3999746607697,0.35522960486825683,1.3165191640161669,0.963728882191411,0.28705595,0.6805344987579938
0.0395,1.7609937500000001,1.0,2735.6819424517953,0.3588462566386141,1.3160734587057143,0.9643869864994165,0.2870147375,0.6814335736664767
0.04,1.76,1.0,2735.7700021280384,0.3624426228926603,1.3156238688652808,0.9650226356034505,0.286973,0.6823392009008674
0.0405,1.7589937500000001,1.0,2735.675066030005,0.36601881628834304,1.315170295332716,0.9656368343252472,0.2869307375,0.6832515463644406
0.041,1.757975,1.0,2735.4080648536174,0.36957494948360964,1.3147126389458705,0.9662305311393191,0.28688795,0.6841707745144329
0.0415,1.75694375,1.0,2734.9799441064915,0.37311113513640753,1.3142508005425946,0.9668046219159161,0.2868446375,0.6850970483365384
0.042,1.7559,1.0,2734.399761988141,0.3766274857832552,1.3137846982045855,0.9673599548044826,0.28680079999999997,0.686030494810769
0.0425,1.75484375,1.0,2733.679305460671,0.3801241127514469,1.3133142253142636,0.9678973296775136,0.2867564375,0.686971288953198
0.043000000000000003,1.753775,1.0,2732.8303332319724,0.3836011263463179,1.312839275558373,0.968417503337716,0.28671155,0.6879196035335213
0.043500000000000004,1.75269375,1.0,2731.855898810904,0.3870586365918587,1.3123598217381007,0.9689211986947123,0.28666613750000003,0.6888754520527485
0.044,1.7516038993686545,1.0,2730.956434450615,0.3904967530596468,1.3118758040682499,0.969409097989705,0.2866203637734835,0.6898389121070874
0.0445,1.7505137727782152,1.0,2730.5179595454347,0.39391558432505824,1.3113874735020974,0.9698818719779927,0.28657457845668505,0.6908094430675402
0.045,1.7494236461877761,1.0,2730.5177663553936,0.39731523863780493,1.3108951600234027,0.9703401627379414,0.2865287931398866,0.6917863503635933
0.0455,1.748333519597337,1.0,2730.9195412833456,0.40069582367009776,1.3103991936217232,0.9707845793796558,0.28648300782308816,0.6927689432365561
0.046,1.747243393006898,1.0,2731.690958688789,0.4040574462047435,1.309899868812233,0.971215697380011,0.2864372225062897,0.6937566049431148
0.0465,1.746153266416459,1.0,2732.8118012033215,0.4074002085462139,1.3093973706738489,0.971634054731489,0.2863914371894913,0.6947489382018781
0.047,1.7450631398260197,1.0,2734.231579266936,0.4107242248594765,1.3088921596901657,0.9720401843181538,0.28634565187269284,0.6957450053633456
0.0475,1.7439730132355806,1.0,2735.930505406521,0.41402959825716845,1.3083844176226356,0.9724345714197546,0.2862998665558944,0.6967444227281502
0.048,1.7428828866451416,1.0,2737.8895832725457,0.4173164315652307,1.307874319232942,0.9728176772554736,0.28625408123909596,0.6977468225664939
0.0485,1.7417927600547025,1.0,2740.089827777933,0.42058482760960436,1.3073620392827685,0.9731899409065683,0.2862082959222975,0.6987518393110264
0.049,1.7407026334642635,1.0,2742.5122563061923,0.4238348892162304,1.306847752533798,0.9735517805872903,0.2861625106054991,0.6997591095821335
0.0495,1.7396125068738244,1.0,2745.1378805973736,0.42706671921104994,1.3063316337477142,0.9739035948317393,0.28611672528870064,0.7007682722112765
0.05,1.7385223802833853,1.0,2747.9476993107355,0.43028042042000403,1.3058138576862,0.9742457636029299,0.2860709399719022,0.7017789682623873
0.0505,1.737432253692946,1.0,2750.9226912644795,0.4334760956690336,1.305294599110939,0.9745786493298068,0.28602515465510375,0.7027908410513106
0.051000000000000004,1.736342127102507,1.0,2754.0513902467837,0.4366538431161596,1.3047739641839393,0.9749025928697536,0.2859793693383053,0.7038036695012975
0.051500000000000004,1.735252000512068,1.0,2757.313521196765,0.43981376918107673,1.3042521386102979,0.9752179257234795,0.28593358402150687,0.7048170795633294
0.052000000000000005,1.734161873921629,1.0,2760.6982888342736,0.44295597293211414,1.303729222071189,0.9755249582302301,0.28588779870470843,0.7058308662628521
0.0525,1.7330717473311898,1.0,2764.1967928364534,0.44608055203708874,1.3032052969634915,0.9758239857290288,0.28584201338791,0.7068448593535743
0.053,1.7319816207407508,1.0,2767.8001169312984,0.44918760416381764,1.3026804456840846,0.9761152905900284,0.28579622807111155,0.7078588896699105
0.0535,1.7308914941503115,1.0,2771.4993271300705,0.45227722698011774,1.3021547506298472,0.976399142897474,0.28575044275431305,0.7088727891320628
0.054,1.7298013675598725,1.0,2775.2854701111055,0.455349518153806,1.301628294197658,0.9766758010911082,0.2857046574375146,0.7098863907506731
0.0545,1.7287112409694334,1.0,2779.1495717530174,0.45840457535269935,1.3011011587843964,0.9769455125688825,0.28565887212071617,0.7108995286310387
0.055,1.7276211143789943,1.0,2783.0826358193626,0.4614424962446148,1.300573426786941,0.9772085142536077,0.2856130868039177,0.7119120379768984
0.0555,1.7265309877885553,1.0,2787.081853612175,0.4644633688588921,1.3000451247343656,0.977465028915685,0.2855673014871193,0.7129238619998055
0.056,1.7254408611981162,1.0,2791.134403182854,0.46746730023881616,1.2995163691057332,0.9777152771087284,0.2855215161703209,0.7139347724417034
0.0565,1.724350734607677,1.0,2795.232892292567,0.47045438857476907,1.298987227286381,0.977959466621416,0.2854757308535224,0.7149446362232206
0.057,1.723260608017238,1.0,2799.373851853844,0.4734247255457715,1.2984577312620271,0.9781977941392468,0.28542994553672396,0.7159533885520524
0.0575,1.7221704814267988,1.0,2803.5538031190626,0.476378402830844,1.2979279130183907,0.9784304483936036,0.2853841602199255,0.7169609650653898
0.058,1.7210803548363598,1.0,2807.769257440732,0.4793155121090071,1.2973978045411898,0.978657610548199,0.2853383749031271,0.7179673018306132
0.0585,1.7199902282459207,1.0,2812.0167160544243,0.4822361450592815,1.2968674378161429,0.9788794545637796,0.28529258958632864,0.7189723353459136
0.059000000000000004,1.7189001016554817,1.0,2816.292669883991,0.4851403933606877,1.296336844828969,0.979096147542472,0.2852468042695302,0.7199760025408533
0.059500000000000004,1.7178099750650424,1.0,2820.593599370232,0.4880283486922463,1.295806057565386,0.9793078500530599,0.28520101895273176,0.7209782407768608
0.06,1.7167198484746033,1.0,2824.91597432124,0.4909001027329779,1.2952751080111127,0.97951471643839,0.2851552336359333,0.7219789878476586
0.0605,1.7156297218841643,1.0,2829.2562537864387,0.4937557471619032,1.2947440281518676,0.9797168951060178,0.2851094483191349,0.7229781819796272
0.061,1.7145395952937252,1.0,2833.610885952496,0.4965953736580426,1.2942128499733694,0.9799145288031303,0.28506366300233643,0.7239757618321034
0.0615,1.7134494687032862,1.0,2837.9763080625266,0.49941907390041684,1.2936816054613365,0.9801077548767113,0.285017877685538,0.7249716664976145
0.062,1.7123593421128471,1.0,2842.3550528737046,0.5022269132929926,1.293150272208618,0.9802967006771465,0.28497209236873955,0.7259659371939198
0.0625,1.711269215522408,1.0,2846.7384104136454,0.5050190165930342,1.2926189279431033,0.9804814984961855,0.2849263070519411,0.7269584279637402
0.063,1.7101790889319688,1.0,2851.1253837860363,0.507795468496643,1.292087581556248,0.9806622691922109,0.28488052173514267,0.727949122132086
0.0635,1.7090889623415297,1.0,2855.515027535092,0.5105563534316966,1.2915562414550168,0.9808391291606628,0.2848347364183442,0.728938004045357
0.064,1.7079988357510907,1.0,2859.9063932957297,0.5133017558260721,1.291024916046374,0.9810121905747662,0.2847889511015458,0.7299250581639061
0.0645,1.7069087091606516,1.0,2864.2985297952564,0.5160317601076466,1.2904936137372847,0.9811815615700318,0.28474316578474734,0.7309102690620322
0.065,1.7058185825702126,1.0,2868.6904828570227,0.5187464507042975,1.2899623429347133,0.9813473464193999,0.2846973804679489,0.731893621427971
0.0655,1.7047284559797733,1.0,2873.0812954056146,0.521445912043902,1.289431112045625,0.9815096456995674,0.28465159515115046,0.7328751000638803
0.066,1.7036383293893342,1.0,2877.470007473341,0.5241302285543374,1.2888999294769838,0.981668556448997,0.284605809834352,0.733854689885822
0.0665,1.7025482027988952,1.0,2881.8556562085587,0.5267994846634809,1.2883688036357548,0.9818241723180885,0.2845600245175536,0.7348323759237356
0.067,1.7014580762084561,1.0,2886.2372758853594,0.5294537647992098,1.2878377429289027,0.9819765837119487,0.28451423920075514,0.7358081433214123
0.0675,1.700367949618017,1.0,2890.6138979150305,0.5320931533894012,1.2873067557633922,0.9821258779261748,0.2844684538839567,0.7367819773364621
0.068,1.699277823027578,1.0,2894.9845508590115,0.5347177348619325,1.286775850546188,0.9822721392760428,0.28442266856715825,0.7377538633402758
0.0685,1.698187696437139,1.0,2899.348260443218,0.537327593644681,1.2862450356842545,0.9824154492194611,0.2843768832503598,0.7387237868179842
0.069,1.6970975698466997,1.0,2903.7040495742654,0.5399228141655237,1.2857143195845566,0.982555886474035,0.28433109793356137,0.7396917333684114
0.0695,1.6960074432562606,1.0,2908.0509383569647,0.5425034808523379,1.2851837106540591,0.982693527128559,0.28428531261676293,0.7406576887040239
0.07,1.6949173166658216,1.0,2912.390879571642,0.5450696231581105,1.2846531914688875,0.9828284401779263,0.2842395272999645,0.7416216855439315
0.07050000000000001,1.6938271900753825,1.0,2916.720523647881,0.5476213940981297,1.2841227912814728,0.9829607020411474,0.28419374198316605,0.742583671793446
0.07100000000000001,1.6927370634849435,1.0,2921.039757126991,0.5501588696724766,1.2835925108238597,0.9830903806566722,0.2841479566663676,0.7435436473361576
0.07150000000000001,1.6916469368945042,1.0,2925.3484701866973,0.5526821257982929,1.2830623507948344,0.9832175417590245,0.28410217134956917,0.7445016121253256
0.07200000000000001,1.6905568103040651,1.0,2929.646552866216,0.55519123839272,1.282532311893183,0.9833422489713931,0.2840563860327707,0.7454575661233838
