Time [s],Phi [rad],STIM [ ],Fsee [N],Gamma [ ],Lcerel [ ],q [ ],Lmtc [m],fisomrel [ ]
0.0,1.8,1.0,19.655040656246605,0.0013270637649361286,1.3791548909455031,0.00545118678181419,0.288653,0.5415866347962488
0.0005,1.79999375,1.0,20.337290600269103,0.006928829295446665,1.3790796125366953,0.016997037751669313,0.2886527375,0.541768645915271
0.001,1.799975,1.0,24.663279824065512,0.012499173351536469,1.3786375518269693,0.042796876445900536,0.28865195,0.5428367485538237
0.0015,1.79994375,1.0,36.40037752550351,0.018038272179926165,1.3776099810817493,0.08022589018713182,0.2886506375,0.5453147391181155
0.002,1.7999,1.0,63.3376722825208,0.023546301044664465,1.3757617072340838,0.12597787922638234,0.2886488,0.5497549087261695
0.0025,1.79984375,1.0,112.07201717774592,0.02902343422252856,1.3732403997869926,0.17673701307905726,0.28864643749999996,0.5557767983636668
0.003,1.7997750000000001,1.0,179.52288476155763,0.03446984501406582,1.3705384073619198,0.2297699100385648,0.28864354999999997,0.5621852317273341
0.0035,1.79969375,1.0,258.1800361794992,0.03988570574789289,1.3679664356936707,0.2829943277324113,0.2886401375,0.5682420350857644
0.004,1.7996,1.0,342.99904470691087,0.04527118778510496,1.3655950276661497,0.33487542215400645,0.2886362,0.5737891445975358
0.0045000000000000005,1.7994937500000001,1.0,431.3838987661291,0.05062646152801205,1.363410494047179,0.3843671854976299,0.2886317375,0.5788673878073511
0.005,1.799375,1.0,521.829749190397,0.05595169637886679,1.3613872274891936,0.43083665733206716,0.28862675,0.5835435963254905
0.0055,1.79924375,1.0,613.3138601580354,0.061247060964093075,1.3595028976649186,0.47396862944438284,0.2886212375,0.5878752122784664
0.006,1.7991000000000001,1.0,704.9739135076858,0.0665127226833168,1.3577415313378562,0.5136759709819603,0.2886152,0.5919036886353495
0.006500000000000001,1.79894375,1.0,796.128623610489,0.07174884818122369,1.3560901673825814,0.5500229016902974,0.2886086375,0.5956626042520574
0.007,1.798775,1.0,886.2145981508305,0.07695560321825014,1.3545383935926367,0.5831678885912566,0.28860155,0.599178977897808
0.0075,1.79859375,1.0,974.7509600799247,0.08213315232329678,1.3530778130918317,0.6133223853291474,0.2885939375,0.6024746744333213
0.008,1.7984,1.0,1061.383191174881,0.0872816597077136,1.351700647769773,0.6407218298278687,0.2885858,0.6055696886426085
0.0085,1.79819375,1.0,1145.8017294714846,0.09240128796182769,1.3504005219782225,0.6656076279634784,0.2885771375,0.6084804661906544
0.009000000000000001,1.797975,1.0,1227.7738679075103,0.09749219893583244,1.3491715926025258,0.6882150601345678,0.28856795,0.6112219353297697
0.0095,1.79774375,1.0,1307.1469044903936,0.10255455414907191,1.3480082779114388,0.7087664003953525,0.2885582375,0.6138081584984527
0.01,1.7975,1.0,1383.795340474435,0.10758851367084328,1.3469057726159048,0.7274676940597996,0.288548,0.6162512274418436
0.0105,1.79724375,1.0,1457.6340337123945,0.11259423639577437,1.3458596791314772,0.7445071403043099,0.2885372375,0.6185621248439785
0.011,1.796975,1.0,1528.6203099791549,0.11757188059139369,1.3448658511155556,0.7600549362705249,0.28852595000000003,0.6207510992804319
0.0115,1.79669375,1.0,1596.7687656861676,0.12252160494983226,1.3439201210842253,0.7742638719452247,0.2885141375,0.6228282854381755
0.012,1.7964,1.0,1662.0711919424232,0.12744356534101542,1.3430191754578897,0.7872708742697471,0.28850180000000003,0.6248018025133593
0.0125,1.79609375,1.0,1724.5402880641725,0.1323379169473795,1.3421599219325662,0.7991980439786304,0.2884889375,0.6266791703542738
0.013000000000000001,1.7957750000000001,1.0,1784.2238905294873,0.13720481493132214,1.3413392705581808,0.8101539835468339,0.28847555,0.6284678009400799
0.0135,1.79544375,1.0,1841.1873120032471,0.14204441337598106,1.340554294267158,0.8202352609598035,0.2884616375,0.6301746577047129
0.014,1.7951000000000001,1.0,1895.4997500054392,0.14685686628855343,1.3398023334509552,0.8295277634193703,0.2884472,0.6318060401188962
0.0145,1.79474375,1.0,1947.2161095854183,0.1516423249053388,1.3390811458422132,0.8381079474556438,0.2884322375,0.6333672721120274
0.015,1.794375,1.0,1996.4116328622154,0.15640094046263683,1.338388489173573,0.8460437829258789,0.28841675,0.6348636173304425
0.0155,1.79399375,1.0,2043.16648104253,0.1611328631305785,1.3377222647223803,0.8533957946683917,0.2884007375,0.636299974205314
0.016,1.7936,1.0,2087.581789726677,0.16583824447459675,1.3370803256803305,0.8602178831417221,0.2883842,0.6376812947679921
0.0165,1.7931937500000001,1.0,2129.738645881237,0.170517233387188,1.3364608868233738,0.8665582290425397,0.2883671375,0.6390117080294286
0.017,1.792775,1.0,2169.704706921959,0.1751699765741458,1.335862426272889,0.8724599362760062,0.28834955,0.6402947404913526
0.0175,1.7923437500000001,1.0,2207.5580546169954,0.17979662074126365,1.3352834221502545,0.8779615556540727,0.2883314375,0.6415338865791269
0.018000000000000002,1.7919,1.0,2243.3863224245138,0.18439731259433512,1.3347223525768488,0.8830976195785014,0.2883128,0.642732610604017
0.0185,1.79144375,1.0,2277.275817204783,0.18897219769687768,1.33417779575388,0.887899135398633,0.2882936375,0.6438941352840498
0.019,1.790975,1.0,2309.3187712128965,0.1935214224145529,1.3336483472042187,0.8923939725570693,0.28827395,0.6450216211986389
0.0195,1.79049375,1.0,2339.5915698264084,0.19804513055932968,1.3331328263290039,0.8966072684292967,0.2882537375,0.6461177296621485
0.02,1.79,1.0,2368.1606370079458,0.20254346397818868,1.3326302060997646,0.9005617191163166,0.288233,0.6471847767539163
0.0205,1.78949375,1.0,2395.0973182803223,0.20701656451811037,1.332139459488029,0.904277817958155,0.2882117375,0.6482250620248724
0.021,1.788975,1.0,2420.4774701174188,0.21146457402607532,1.331659559465325,0.907774099360018,0.28818995000000003,0.6492408693088856
0.021500000000000002,1.78844375,1.0,2444.37250531196,0.2158876327961161,1.3311895612942704,0.9110673693253026,0.2881676375,0.650234293653408
0.022,1.7879,1.0,2466.860750298567,0.22028588297626495,1.330728488579216,0.9141728703037263,0.2881448,0.6512074835526382
0.0225,1.78734375,1.0,2488.0073934598886,0.22465946393738462,1.3302755218371798,0.917104482500461,0.28812143749999997,0.6521622438621766
0.023,1.786775,1.0,2507.8673477238576,0.22900851249507068,1.3298299653442762,0.9198748597088868,0.28809755,0.6531001082939846
0.0235,1.78619375,1.0,2526.49786537458,0.23333316546491872,1.3293911233766205,0.9224955340800526,0.28807313749999996,0.6540226015328061
0.024,1.7856,1.0,2543.9583420353133,0.23763355966252436,1.3289583002103273,0.9249770310300012,0.2880482,0.6549312395495286
0.0245,1.78499375,1.0,2560.3101313830575,0.24190983190348317,1.3285308001215117,0.9273289709893784,0.2880227375,0.6558275298836713
0.025,1.784375,1.0,2575.604686714356,0.24616211569236654,1.328108036715039,0.9295601767187444,0.28799675,0.6567127431218194
0.025500000000000002,1.78374375,1.0,2589.9073226148735,0.2503905503424567,1.3276893081550363,0.9316787181865869,0.2879702375,0.6575883843140105
0.026000000000000002,1.7831000000000001,1.0,2603.2624571556585,0.25459526850035175,1.3272741209313863,0.9336920327467368,0.2879432,0.6584555158437129
0.0265,1.78244375,1.0,2615.7114692536534,0.2587764014909009,1.3268620202149155,0.9356069603618993,0.2879156375,0.6593151139701026
0.027,1.781775,1.0,2627.2967298344383,0.2629340806389538,1.32645255117645,0.9374297944915544,0.28788755,0.6601681499693473
0.0275,1.7810937500000001,1.0,2638.061516072868,0.2670684372693598,1.3260452589868164,0.9391663330253447,0.2878589375,0.6610155902175379
0.028,1.7804,1.0,2648.049930220825,0.2711796027069683,1.325639688816841,0.9408219238512063,0.2878298,0.6618583962604305
0.0285,1.77969375,1.0,2657.3048078196734,0.2752677073679567,1.3252354044019312,0.9424015079819273,0.2878001375,0.6626974863632407
0.029,1.778975,1.0,2665.8615903994237,0.2793328786665288,1.3248320435862604,0.9439096628964999,0.28776995,0.6635336207256819
0.029500000000000002,1.7782437500000001,1.0,2673.7709052814607,0.28337525213709414,1.3244291098082461,0.9453506100639016,0.2877392375,0.6643678338935873
0.03,1.7775,1.0,2681.060679595843,0.28739495306699553,1.3240263200104794,0.9467282861347157,0.287708,0.6652007140958751
0.0305,1.77674375,1.0,2687.7592387820737,0.2913921067435758,1.3236233911355508,0.9480463426517408,0.2876762375,0.6660328466515506
0.031,1.775975,1.0,2693.89527114543,0.2953668384541777,1.3232200401260514,0.9493081702779381,0.28764395,0.6668648139697504
0.0315,1.7751937500000001,1.0,2699.497794190264,0.29931927348614407,1.3228159839245721,0.9505169206816455,0.2876111375,0.667697195544676
0.032,1.7744,1.0,2704.596122729191,0.30324953712681757,1.322410939473704,0.9516755263308999,0.2875778,0.6685305679454195
0.0325,1.77359375,1.0,2709.2198387694807,0.3071577546635411,1.3220046237160377,0.9527867184191309,0.2875439375,0.6693655048006792
0.033,1.772775,1.0,2713.3944228344735,0.3110440494168112,1.3215967931631138,0.9538530471683512,0.28750955,0.6702024956224534
0.0335,1.7719437500000002,1.0,2717.1443965354074,0.31490854480270053,1.3211872148870045,0.9548768934530737,0.2874746375,0.6710420057178865
0.034,1.7711000000000001,1.0,2720.502900409874,0.3187513673308564,1.3207755790878983,0.9558604731441014,0.2874392,0.6718846551684423
0.0345,1.7702437500000001,1.0,2723.488208305464,0.3225726362115667,1.3203617128379967,0.9568058707986945,0.2874032375,0.672730781082605
0.035,1.7693750000000001,1.0,2726.1187159849183,0.32637247065511926,1.3199454432095008,0.95771503670268,0.28736675,0.6735807186526661
0.035500000000000004,1.76849375,1.0,2728.4129283654047,0.33015098987180197,1.3195265972746124,0.9585897970708553,0.2873297375,0.6744348011291699
0.036000000000000004,1.7676,1.0,2730.3894474207964,0.3339083130719026,1.3191050021055324,0.9594318633605086,0.2872922,0.6752933597934572
0.0365,1.76669375,1.0,2732.066960746947,0.337644559465709,1.3186804847744624,0.9602428407843238,0.2872541375,0.6761567239282961
0.037,1.765775,1.0,2733.4642307900112,0.341359848263509,1.3182528723536038,0.961024236099695,0.28721555,0.6770252207866096
0.0375,1.76484375,1.0,2734.5911083911888,0.3450542935985614,1.3178220734307051,0.9617774716074006,0.2871764375,0.6778990103322943
0.038,1.7639,1.0,2735.470383578585,0.34872801643975415,1.3173878795591023,0.9625038745935652,0.28713679999999997,0.6787784882301555
0.0385,1.76294375,1.0,2736.1272645423865,0.3523811384426124,1.3169500607981037,0.9632046919070192,0.28709663750000003,0.6796640910716785
0.039,1.761975,1.0,2736.571211837731,0.3560137722987924,1.3165085305384188,0.9638811089552878,0.28705595,0.6805559633176366
0.0395,1.7609937500000001,1.0,2736.8117147451194,0.3596260306999505,1.3160632021707563,0.9645342425450255,0.2870147375,0.6814542481937742
0.04,1.76,1.0,2736.8582876398814,0.36321802633774325,1.3156139890858256,0.9651651455809253,0.286973,0.6823590876700649
0.0405,1.7589937500000001,1.0,2736.720466528973,0.3667898719038269,1.3151608046743357,0.9657748113948721,0.2869307375,0.6832706224394938
0.041,1.757975,1.0,2736.4078057531938,0.3703416800898578,1.314703562326996,0.9663641777380184,0.28688795,0.6841889918963602
0.0415,1.75694375,1.0,2735.9298748564156,0.37387356358749235,1.3142421754345153,0.9669341304652709,0.2868446375,0.685114334114105
0.042,1.7559,1.0,2735.2962556207845,0.3773856350883869,1.3137765573876028,0.9674855069388305,0.28680079999999997,0.6860467858226544
0.0425,1.7548466431881269,1.0,2734.6604196655258,0.3808780072841979,1.3133066215769675,0.9680190991748714,0.28675655901390135,0.6869864823852898
0.043000000000000003,1.7537926478752563,1.0,2734.4851724958758,0.384350785818155,1.3128322151461085,0.968535650274097,0.28671229121076075,0.6879336899450859
0.043500000000000004,1.7527386525623858,1.0,2734.722569321811,0.3878040881593325,1.3123540614300828,0.9690359357794144,0.2866680234076202,0.6888869270029722
0.044,1.7516846572495155,1.0,2735.3316383575543,0.3912380250586492,1.3118725329362395,0.9695206614717389,0.28662375560447967,0.6898454183671372
0.0445,1.750630661936645,1.0,2736.289139248025,0.39465270257762874,1.3113878417749865,0.969990483169871,0.2865794878013391,0.6908087117178444
0.045,1.7495766666237744,1.0,2737.571884890704,0.39804822677779467,1.3109002000567307,0.9704460229205657,0.28653521999819853,0.6917763571577961
0.0455,1.7485226713109039,1.0,2739.156727060182,0.40142470372067063,1.3104098198918799,0.9708878710713913,0.28649095219505794,0.692747907253478
0.046,1.7474686759980336,1.0,2741.0205430319397,0.40478223946778,1.3099169133908415,0.9713165881972883,0.2864466843919174,0.6937229170736405
0.0465,1.746414680685163,1.0,2743.1402232018568,0.40812094008064653,1.3094216926640232,0.9717327068924407,0.28640241658877685,0.6947009442249068
0.047,1.7453606853722925,1.0,2745.4926597046924,0.41144091162079366,1.308924369821832,0.9721367334380634,0.28635814878563626,0.6956815488845152
0.0475,1.744306690059422,1.0,2748.054736029284,0.414742260149745,1.3084251569746759,0.9725291493557695,0.2863138809824957,0.6966642938301868
0.048,1.7432526947465516,1.0,2750.803317631427,0.4180250917290241,1.3079242662329622,0.9729104128553636,0.2862696131793552,0.6976487444671295
0.0485,1.742198699433681,1.0,2753.730013000141,0.4212895038770064,1.3074217760500773,0.9732809498597638,0.2862253453762146,0.6986347308999239
0.049,1.7411447041208106,1.0,2756.806481856009,0.42453561063313333,1.3069179452979258,0.9736411805009902,0.28618107757307404,0.6996217310398578
0.0495,1.74009070880794,1.0,2760.0211973679657,0.4277635132857846,1.3064128804133461,0.9739914933080122,0.2861368097699335,0.7006095239693765
0.05,1.7390367134950697,1.0,2763.3647209239625,0.43097331165643,1.3059066688178562,0.9743322573342532,0.2860925419667929,0.7015979272090639
0.0505,1.7379827181821992,1.0,2766.8275996951907,0.4341651055665394,1.3053993979329739,0.9746638246750104,0.28604827416365236,0.7025867593819421
0.051000000000000004,1.7369287228693286,1.0,2770.4003644974127,0.43733899483758276,1.3048911551802174,0.9749865313999538,0.2860040063605118,0.7035758402196193
0.051500000000000004,1.735874727556458,1.0,2774.0735278230923,0.4404950792910299,1.3043820279811045,0.9753006984264297,0.2859597385573712,0.7045649905679533
0.052000000000000005,1.7348207322435876,1.0,2777.837582042248,0.44363345874835053,1.303872103757153,0.9756066323378141,0.2859154707542307,0.7055540323922259
0.0525,1.7337667369307173,1.0,2781.6829977726175,0.44675423303101464,1.3033614699298814,0.9759046261508226,0.28587120295109014,0.7065427887818292
0.053,1.7327127416178467,1.0,2785.6002224199315,0.4498575019604921,1.3028502139208071,0.9761949600353714,0.28582693514794955,0.7075310839544686
0.0535,1.7316587463049762,1.0,2789.5803827161753,0.45294336429171744,1.3023384168231744,0.976477901493413,0.285782667344809,0.7085187554619148
0.054,1.7306047509921059,1.0,2793.619853328864,0.45601191324934676,1.3018261123671164,0.9767537030867759,0.28573839954166846,0.7095057330782935
0.0545,1.7295507556792353,1.0,2797.7069783373036,0.4590632558732692,1.3013134063010097,0.9770226123036279,0.28569413173852787,0.7104918086201616
0.055,1.7284967603663648,1.0,2801.8379998066803,0.46209748611202983,1.3008003332189482,0.9772848606611982,0.2856498639353873,0.7114769117837045
0.0555,1.7274427650534943,1.0,2806.009149382303,0.46511469791417404,1.3002869277150262,0.977540669994478,0.2856055961322468,0.7124609727151487
0.056,1.7263887697406237,1.0,2810.216648021335,0.468114985228247,1.299773224383338,0.9777902529420393,0.2855613283291062,0.7134439220115335
0.0565,1.7253347744277534,1.0,2814.456705751459,0.47109844200279405,1.2992592578179778,0.9780338134036398,0.28551706052596565,0.7144256907214066
0.057,1.7242807791148829,1.0,2818.7255214552433,0.4740651621863603,1.29874506261304,0.9782715469714709,0.2854727927228251,0.7154062103454428
0.0575,1.7232267838020123,1.0,2823.019282681638,0.4770152397274911,1.2982306733626185,0.9785036413367629,0.2854285249196845,0.7163854128369871
0.058,1.7221727884891418,1.0,2827.334165484144,0.47994876857473157,1.2977161246608082,0.9787302766733501,0.28538425711654397,0.7173632306025195
0.0585,1.7211187931762715,1.0,2831.6663342849783,0.4828658426766271,1.2972014511017027,0.9789516259996676,0.28533998931340343,0.7183395965020479
0.059000000000000004,1.720064797863401,1.0,2836.014112020004,0.48576654689267984,1.296686667926595,0.9791678536994609,0.28529572151026283,0.7193144804675204
0.059500000000000004,1.7190108025505304,1.0,2840.3752816881183,0.4886509722144203,1.2961717951419292,0.9793791185179685,0.2852514537071223,0.7202878436301249
0.06,1.7179568072376599,1.0,2844.7430666786922,0.49151923035824874,1.295656893290231,0.9795855769161871,0.2852071859039817,0.7212595709501561
0.0605,1.7169028119247896,1.0,2849.116350780653,0.4943714083421833,1.2951419723690905,0.9797873746489649,0.28516291810084116,0.7222296433229689
0.061,1.715848816611919,1.0,2853.4940143351837,0.4972075931842421,1.2946270423760966,0.9799846519299201,0.2851186502977006,0.7231980417752353
0.0615,1.7147948212990485,1.0,2857.874934232601,0.5000278719024434,1.2941121133088391,0.9801775436847749,0.28507438249456,0.7241647474649509
0.062,1.713740825986178,1.0,2862.257983911956,0.5028323315148051,1.2935971951649077,0.980366179791255,0.2850301146914195,0.7251297416814385
0.0625,1.7126868306733076,1.0,2866.6420333616456,0.5056210590393455,1.2930822979418914,0.9805506853063628,0.28498584688827894,0.7260930058453456
0.063,1.711632835360437,1.0,2871.0259491232728,0.5083941414940827,1.2925674316373805,0.9807311806817841,0.28494157908513834,0.727054521508631
0.0635,1.7105788400475666,1.0,2875.408594297767,0.5111516658970349,1.2920526062489641,0.980907781968123,0.2848973112819978,0.728014270354552
0.064,1.709524844734696,1.0,2879.7888285525005,0.51389371926622,1.2915378317742319,0.9810806010086291,0.2848530434788572,0.7289722341976393
0.0645,1.7084708494218255,1.0,2884.1655081322424,0.5166203886196563,1.2910231182107734,0.9812497456230292,0.28480877567571666,0.7299283949836678
0.065,1.7074168541089552,1.0,2888.5374858712157,0.519331760975362,1.290508475556178,0.9814153197820358,0.2847645078725761,0.7308827347896223
0.0655,1.7063628587960846,1.0,2892.9036112075023,0.5220279233513552,1.2899939138080356,0.9815774237730714,0.2847202400694355,0.7318352358236531
0.066,1.705308863483214,1.0,2897.26273020058,0.5247089627656538,1.2894794429639354,0.9817361543577093,0.284675972266295,0.7327858804250309
0.0665,1.7042548681703436,1.0,2901.6136855493505,0.5273749662362763,1.288965073021467,0.9818916049213037,0.28463170446315444,0.7337346510640887
0.067,1.7032008728574732,1.0,2905.9575048711613,0.5300259875917152,1.2884507947011448,0.9820438624973425,0.28458743666001385,0.7346815658044581
0.0675,1.7021468775446027,1.0,2910.2920439015033,0.5326621466262726,1.2879366266730639,0.9821930167999847,0.2845431688568733,0.7356265912631909
0.068,1.7010928822317322,1.0,2914.616466428585,0.5352835343555516,1.2874225760464255,0.9823391520447642,0.28449890105373277,0.7365697154937396
0.0685,1.7000388869188616,1.0,2918.9306172838055,0.5378902296352231,1.2869086439239323,0.9824823485357281,0.28445463325059217,0.7375109376330682
0.069,1.6989848916059913,1.0,2923.2343410206904,0.5404823113209585,1.2863948314082865,0.9826226838848591,0.28441036544745163,0.7384502568323315
0.0695,1.6979308962931208,1.0,2927.5274819172623,0.5430598582684288,1.2858811396021903,0.9827602331209988,0.2843660976443111,0.7393876722568654
0.07,1.6968769009802502,1.0,2931.809883979179,0.5456229493333054,1.2853675696083464,0.9828950687936486,0.2843218298411705,0.7403231830861785
0.07050000000000001,1.6958229056673797,1.0,2936.0813909431417,0.5481716633712591,1.284854122529457,0.9830272610719237,0.28427756203802995,0.7412567885139449
0.07100000000000001,1.6947689103545094,1.0,2940.341846279171,0.5507060792379614,1.2843407994682243,0.9831568778389181,0.2842332942348894,0.7421884877479944
0.07150000000000001,1.6937149150416388,1.0,2944.591093194001,0.5532262757890835,1.283827601527351,0.9832839847817204,0.2841890264317488,0.7431182800103036
0.07200000000000001,1.6926609197287683,1.0,2948.8289746343653,0.5557323318802962,1.2833145298095394,0.983408645477311,0.2841447586286083,0.7440461645369886
