Time [s],Phi [rad],STIM [ ],Fsee [N],Gamma [ ],Lcerel [ ],q [ ],Lmtc [m],fisomrel [ ]
0.0,1.8,1.0,19.756900902388594,0.0013662453203204157,1.3791439942818755,0.00547808669548848,0.288653,0.5416129834183201
0.0005,1.79999375,1.0,20.448386847469344,0.006967791073279331,1.3790679296994275,0.017129803348006088,0.2886527375,0.5417968899023913
0.001,1.799975,1.0,24.804950092139038,0.01253791658412934,1.3786240243017727,0.04302043525627585,0.28865195,0.5428694139717177
0.0015,1.79994375,1.0,36.61687887975883,0.01807679809415882,1.3775929653466752,0.08051895198929782,0.2886506375,0.5453557159461242
0.002,1.7999,1.0,63.691078708062655,0.023584610858664062,1.3757406487927313,0.12631673652471972,0.2886488,0.5498053725918921
0.0025,1.79984375,1.0,112.57432849871704,0.029061529149218657,1.3732178923556282,0.17710045093975285,0.28864643749999996,0.5558303725306848
0.003,1.7997750000000001,1.0,180.12049865043826,0.03450772625848662,1.3705172438776072,0.23014141724858517,0.28864354999999997,0.562235242312952
0.0035,1.79969375,1.0,258.83077187020683,0.03992337450773572,1.3679472155213146,0.2833613186396589,0.2886401375,0.5682871383613242
0.004,1.7996,1.0,343.6740737221595,0.04530864525276103,1.365577727517049,0.3352290370009753,0.2886362,0.5738294806870862
0.0045000000000000005,1.7994937500000001,1.0,432.06908276992203,0.05066370889074225,1.3633948341005075,0.38470169042814667,0.2886317375,0.5789036815977826
0.005,1.799375,1.0,522.5256946785257,0.05598873484637315,1.3613727646533742,0.43114873571723294,0.28862675,0.5835769291032431
0.0055,1.79924375,1.0,614.000460909831,0.061283891624136125,1.3594897354564042,0.4742571471166974,0.2886212375,0.5879053893542237
0.006,1.7991000000000001,1.0,705.6553554858209,0.06654934675738472,1.3577293463576894,0.5139407956425093,0.2886152,0.59193148837532
0.006500000000000001,1.79894375,1.0,796.803257243543,0.07178526683952223,1.3560788153985348,0.5502648302379333,0.2886086375,0.5956883840063016
0.007,1.798775,1.0,886.8780096517693,0.07699181758465391,1.35452781276426,0.5833882533835827,0.28860155,0.5992029017110646
0.0075,1.79859375,1.0,975.4063162435021,0.08216916366282502,1.3530678465395007,0.6135227087350337,0.2885939375,0.6024971165177282
0.008,1.7984,1.0,1062.016770163176,0.08731746885621551,1.3516914138256062,0.6409038899303139,0.2885858,0.6055904000042929
0.0085,1.79819375,1.0,1146.421744496853,0.09243689637006004,1.3503918248451272,0.6657730042945079,0.2885771375,0.6084999014084875
0.009000000000000001,1.797975,1.0,1228.3771059243409,0.09752760771904964,1.3491634180581924,0.6883653668644197,0.28856795,0.6112401386795918
0.0095,1.79774375,1.0,1307.7162143476103,0.10258976390140773,1.3480008009248436,0.7089032423709815,0.2885582375,0.6138247530474086
0.01,1.7975,1.0,1384.3476629010263,0.107623526047544,1.3468987224263351,0.7275923153625773,0.288548,0.6162668251880629
0.0105,1.79724375,1.0,1458.1770751323447,0.11262905275400201,1.3458529252156952,0.7446207402822237,0.2885372375,0.6185770220655189
0.011,1.796975,1.0,1529.151427146807,0.11760650200111665,1.344859400662988,0.7601586600672402,0.28852595000000003,0.6207652862702958
0.0115,1.79669375,1.0,1597.2643086442479,0.12255603144610475,1.3439142324580964,0.774358856208645,0.2885141375,0.6228412012524185
0.012,1.7964,1.0,1662.5407540303963,0.12747779842464893,1.3430137062438303,0.787357960769757,0.28850180000000003,0.6248137669925743
0.0125,1.79609375,1.0,1725.0019217747254,0.13237195844528102,1.3421546433276177,0.7992779468020768,0.2884889375,0.6266906889328786
0.013000000000000001,1.7957750000000001,1.0,1784.6747519304033,0.1372386657146655,1.34133420207131,0.8102274355294978,0.28847555,0.6284788344908869
0.0135,1.79544375,1.0,1841.6163255855372,0.1420780743945949,1.3405495465576687,0.8203029484350427,0.2884616375,0.6301849691944077
0.014,1.7951000000000001,1.0,1895.8986630929473,0.14689033760802203,1.3397979825324449,0.8295902812923319,0.2884472,0.6318154689632662
0.0145,1.79474375,1.0,1947.6043367662242,0.15167560880029524,1.3390769680715677,0.838165722066211,0.2884322375,0.6333763065159217
0.015,1.794375,1.0,1996.7912719040448,0.15643403820864651,1.3383844544614258,0.8460972578628722,0.28841675,0.6348723245498827
0.0155,1.79399375,1.0,2043.5350252519709,0.16116577607030783,1.3377183929884064,0.8534453813665711,0.2884007375,0.6363083132567866
0.016,1.7936,1.0,2087.922553950837,0.16587097218808503,1.3370767840608357,0.8602639920214475,0.2883842,0.6376889083137905
0.0165,1.7931937500000001,1.0,2130.0440195477818,0.17054977587359738,1.3364577445769634,0.8666011972363723,0.2883671375,0.6390184506192056
0.017,1.792775,1.0,2169.9966794902493,0.1752023366525346,1.3358594497138383,0.8724999803426914,0.28834955,0.6403011161923398
0.0175,1.7923437500000001,1.0,2207.846800885896,0.17982880021308445,1.335280503826355,0.8779989036553535,0.2883314375,0.6415401267664078
0.018000000000000002,1.7919,1.0,2243.669720305963,0.18442931224343465,1.334719511269409,0.8831325090379241,0.2883128,0.6427386759425
0.0185,1.79144375,1.0,2277.549091970902,0.18900401843177286,1.334175076397895,0.8879317865943469,0.2882936375,0.6438999308496844
0.019,1.790975,1.0,2309.569980907978,0.1935530636699319,1.3336458648141714,0.8924245997793844,0.28827395,0.6450269033558791
0.0195,1.79049375,1.0,2339.819528964314,0.19807659288685028,1.3331305883099402,0.8966360396133476,0.2882537375,0.6461224844779117
0.02,1.79,1.0,2368.379980412392,0.20257475011388948,1.33262806569296,0.9005887514778199,0.288233,0.6471893173257648
0.0205,1.78949375,1.0,2395.314246248693,0.20704767617193492,1.3321373545878192,0.9043032357531857,0.2882117375,0.648229520686879
0.021,1.788975,1.0,2420.689529684815,0.21149551188187202,1.3316575126191064,0.9077980328605438,0.28818995000000003,0.649245198735036
0.021500000000000002,1.78844375,1.0,2444.5769712543624,0.21591839806458613,1.3311875974114096,0.9110899375598276,0.2881676375,0.65023844171192
0.022,1.7879,1.0,2467.0481112856555,0.2203164749864506,1.3307266972063974,0.9141941933322922,0.2881448,0.6512112619736861
0.0225,1.78734375,1.0,2488.1689155009767,0.22468988172813475,1.330273984085216,0.9171246676681342,0.28812143749999997,0.6521654828969339
0.023,1.786775,1.0,2508.018627656081,0.2290387594504709,1.3298285308135012,0.9198939627566735,0.28809755,0.6531031258335693
0.0235,1.78619375,1.0,2526.647967689309,0.2333632438668084,1.3293897052701145,0.9225136170395487,0.28807313749999996,0.654025580555061
0.024,1.7856,1.0,2544.109681179888,0.23766347069049681,1.3289568753339178,0.9249941614945993,0.2880482,0.6549342288601571
0.0245,1.78499375,1.0,2560.4583717718638,0.24193957563488558,1.3285294088837731,0.9273452214605912,0.2880227375,0.6558304448293324
0.025,1.784375,1.0,2575.750342457519,0.24619169441332414,1.3281066737985423,0.9295756069362796,0.28799675,0.6567155950537531
0.025500000000000002,1.78374375,1.0,2590.0374835762127,0.25041996138667433,1.3276880935906084,0.9316934014119641,0.2879702375,0.6575909225731911
0.026000000000000002,1.7831000000000001,1.0,2603.372900738619,0.2546245114126446,1.3272730929996335,0.9337060241119198,0.2879432,0.6584576613471087
0.0265,1.78244375,1.0,2615.814313519188,0.25880547979739205,1.3268610652920956,0.9356202883351106,0.2879156375,0.659317104579453
0.027,1.781775,1.0,2627.399747956358,0.2629629968463529,1.326451596750615,0.9374424910983807,0.28788755,0.6601701370502994
0.0275,1.7810937500000001,1.0,2638.1680874883823,0.2670971928649633,1.3260442736578117,0.9391784335009817,0.2878589375,0.6610176390782844
0.028,1.7804,1.0,2648.158999594221,0.27120819815865943,1.3256386822963064,0.9408334663253924,0.2878298,0.6618604865826697
0.0285,1.77969375,1.0,2657.412866230388,0.2752961430328774,1.3252344089487194,0.9424125308935781,0.2878001375,0.6626995511344935
0.029,1.778975,1.0,2665.9707180617474,0.2793611577930534,1.3248310398976706,0.9439201957239154,0.28776995,0.6635356999968047
0.029500000000000002,1.7782437500000001,1.0,2673.8700226063816,0.28340336955721596,1.3244281995369904,0.9453606935029015,0.2877392375,0.6643697172997026
0.03,1.7775,1.0,2681.149155734112,0.28742291033790035,1.3240255085700692,0.9467379475835908,0.287708,0.6652023909308291
0.0305,1.77674375,1.0,2687.8378482587245,0.29141990606925133,1.323622671083443,0.9480556060754127,0.2876762375,0.6660343327832199
0.031,1.775975,1.0,2693.965076686138,0.29539448168374305,1.3232194014448901,0.9493170574773406,0.28764395,0.6668661305153283
0.0315,1.7751937500000001,1.0,2699.560147152493,0.2993467621138496,1.3228154140221897,0.9505254514844202,0.2876111375,0.6676983688446501
0.032,1.7744,1.0,2704.6526633153576,0.3032768722920452,1.3224104231831204,0.95168371876319,0.2875778,0.6685316295372488
0.0325,1.77359375,1.0,2709.272496053636,0.3071849371508039,1.3220041432954608,0.9527945888605217,0.2875439375,0.6693664913920803
0.033,1.772775,1.0,2713.4410414084846,0.31107107529625955,1.3215963681639913,0.9538606139008782,0.28750955,0.6702033672950592
0.0335,1.7719437500000002,1.0,2717.1840181690686,0.31493541132969505,1.3211868539247307,0.9548841726768423,0.2874746375,0.671042745108207
0.034,1.7711000000000001,1.0,2720.541479795164,0.31877808102934424,1.3207752278377263,0.9558674754541753,0.2874392,0.6718853737425217
0.0345,1.7702437500000001,1.0,2723.5299898955163,0.32259920218039356,1.3203613326416612,0.9568126073792711,0.2874032375,0.6727315578700858
0.035,1.7693750000000001,1.0,2726.16622823718,0.32639889256802956,1.3199450110752182,0.9577215192993415,0.28736675,0.6735816004084136
0.035500000000000004,1.76849375,1.0,2728.466979248428,0.33017726997743874,1.3195261058770802,0.9585960379637285,0.2873297375,0.6744358024969035
0.036000000000000004,1.7676,1.0,2730.4491210697915,0.3339344521938075,1.3191044597859303,0.9594378753384709,0.2872922,0.6752944634717144
0.0365,1.76669375,1.0,2732.129615153725,0.33767055700232235,1.3186799155404512,0.9602486371203415,0.2872541375,0.6761578808390654
0.037,1.765775,1.0,2733.5254964121277,0.34138570218816977,1.3182523158793258,0.9610298305273645,0.28721555,0.6770263502469573
0.0375,1.76484375,1.0,2734.65386391273,0.34508000553653634,1.3178215035412368,0.9617828714346576,0.2871764375,0.6779001654553176
0.038,1.7639,1.0,2735.5318721232375,0.34875358483260843,1.3173873212648677,0.9625090909172482,0.28713679999999997,0.6787796183045653
0.0385,1.76294375,1.0,2736.1767227044975,0.35240655786157254,1.316949611788901,0.9632097412551043,0.28709663750000003,0.6796649986826051
0.039,1.761975,1.0,2736.605656851032,0.3560390424086152,1.3165082178520195,0.9638860014499574,0.28705595,0.6805565944902376
0.0395,1.7609937500000001,1.0,2736.823180261419,0.3596511451720952,1.316063098092962,0.9645389907162479,0.2870147375,0.6814544579843071
0.04,1.76,1.0,2736.8542397962256,0.3632429930551376,1.315614025829714,0.9651697514395946,0.286973,0.6823590137103337
0.0405,1.7589937500000001,1.0,2736.7104313386662,0.3668146989202755,1.3151608957700969,0.9657792751566329,0.2869307375,0.6832704393411675
0.041,1.757975,1.0,2736.4005619125655,0.37036637295758323,1.3147036280876527,0.9663684996729991,0.28688795,0.6841888599122078
0.0415,1.75694375,1.0,2735.9334522147105,0.373898125357135,1.314242142955923,0.9669383109141026,0.2868446375,0.6851143992043025
0.042,1.7559,1.0,2735.3179340172396,0.37741006630900514,1.3137763605484503,0.967489546326165,0.28680079999999997,0.6860471797224775
0.0425,1.75484375,1.0,2734.562847711547,0.3809023060032679,1.3133062010387762,0.9680229980207263,0.2867564375,0.6869873226742665
0.043000000000000003,1.753775,1.0,2733.677039993011,0.38437495462999755,1.3128315846004426,0.9685394156843836,0.28671155,0.687934947947628
0.043500000000000004,1.75269375,1.0,2732.6693616879525,0.3878281223792684,1.3123524314069914,0.9690395092734758,0.28666613750000003,0.688890174088459
0.044,1.7516,1.0,2731.5486657203073,0.3912619194411545,1.311868661631965,0.9695239515116153,0.2866202,0.6898531182777006
0.0445,1.75049375,1.0,2730.323805221609,0.3946764560057305,1.3113801954489048,0.9699933802062982,0.2865737375,0.6908238963080415
0.045,1.7493750000000001,1.0,2729.0015715250374,0.39807183679550784,1.310886971760003,0.9704484010447572,0.28652675,0.6918025854269616
0.0455,1.74824375,1.0,2727.5894336259303,0.40144817215332523,1.3103889232963024,0.9708895892603867,0.2864792375,0.6927892738997516
0.046,1.7471,1.0,2726.095666067515,0.40480557526506766,1.3098859754355217,0.9713174909648178,0.2864312,0.6937840632282375
0.0465,1.7459437500000001,1.0,2724.525152556907,0.40814414946849237,1.3093780843591356,0.9717326259662089,0.28638263750000004,0.6947869927240803
0.047,1.744775,1.0,2722.8827746674833,0.4114639981013565,1.3088652062486184,0.9721354884410938,0.28633355,0.6957981006664491
0.0475,1.74359375,1.0,2721.1734111783503,0.41476522450141723,1.3083472972854444,0.972526548435891,0.28628393750000003,0.6968174242881434
0.048,1.7424,1.0,2719.4019374555833,0.4180479320064317,1.3078243136510885,0.9729062532668861,0.2862338,0.6978449997615952
0.0485,1.74119375,1.0,2717.5732248777476,0.42131222395415713,1.3072962115270248,0.9732750288264346,0.2861831375,0.6988808621847514
0.049,1.739975,1.0,2715.692140301923,0.4245582036823507,1.3067629470947277,0.9736332808024719,0.28613195,0.699925045566828
0.0495,1.73874375,1.0,2713.7635455738073,0.42778597452876954,1.306224476535672,0.9739813958178254,0.2860802375,0.7009775828139465
0.05,1.7375,1.0,2711.792297079998,0.43099563983117084,1.305680756031332,0.9743197424952852,0.286028,0.7020385057146471
0.0505,1.73624375,1.0,2709.7832316972117,0.43418730274557815,1.3051317418876622,0.9746486724415145,0.2859752375,0.7031078446830392
0.051000000000000004,1.734975,1.0,2707.7395598550074,0.43736103602319487,1.3045774051970498,0.9749685187785471,0.28592195,0.7041856002660465
0.051500000000000004,1.73369375,1.0,2705.6683070462545,0.44051698348823265,1.3040176821850686,0.975279605145438,0.2858681375,0.7052718396646002
0.052000000000000005,1.7324,1.0,2703.5714498616703,0.44365524048650834,1.3034525550965845,0.9755822382644819,0.2858138,0.7063665395578901
0.0525,1.73109375,1.0,2701.4509622835753,0.4467759023638387,1.3028820061764628,0.9758767112378021,0.28575893750000003,0.7074696758116109
0.053,1.729775,1.0,2699.3088155938963,0.44987906446604065,1.3023060176695687,0.9761633042670338,0.28570355000000003,0.7085812234718318
0.0535,1.72844375,1.0,2697.1469782901354,0.4529648221389309,1.3017245718207684,0.9764422853290113,0.2856476375,0.7097011567588456
0.054,1.7271,1.0,2694.967416007972,0.4560332707283263,1.301137650874927,0.9767139108105068,0.2855912,0.710829449061003
0.0545,1.7257437500000001,1.0,2692.772091450497,0.45908450558004366,1.3005452370769104,0.9769784261048192,0.2855342375,0.7119660729285195
0.055,1.724375,1.0,2690.5629643250495,0.4621186220398998,1.299947312671584,0.9772360661728152,0.28547675,0.7131110000672675
0.0555,1.72299375,1.0,2688.3419912866925,0.46513571545371146,1.2993438599038132,0.97748705607081,0.2854187375,0.7142642013325455
0.056,1.7216,1.0,2686.111125888574,0.4681358811672956,1.2987348610184637,0.9777316114475147,0.2853602,0.715425646722829
0.0565,1.72019375,1.0,2683.8723185396398,0.4711192145264689,1.2981202982604012,0.9779699390120927,0.28530113749999997,0.7165953053734995
0.057,1.718775,1.0,2681.6275164692356,0.4740858108770482,1.2975001538744912,0.9782022369752335,0.28524155,0.7177731455505549
0.0575,1.71734375,1.0,2679.3786636981786,0.4770357655648504,1.2968744101055991,0.9784286954649997,0.2851814375,0.7189591346443003
0.058,1.7159,1.0,2677.127701017634,0.47996917393569216,1.2962430491985908,0.978649496919086,0.2851208,0.7201532391630144
0.0585,1.71444375,1.0,2674.8765659744563,0.48288613133539043,1.2956060533983313,0.9788648164549992,0.2850596375,0.7213554247266036
0.059000000000000004,1.7129750000000001,1.0,2672.6243688351497,0.48578668528205116,1.294963430890726,0.9790748196316272,0.28499795,0.72256560726139
0.059500000000000004,1.71149375,1.0,2670.3749494697813,0.4886709757656403,1.294315146411846,0.9792796708381916,0.2849357375,0.7237837837773393
0.06,1.71,1.0,2668.129998988234,0.49153910968246406,1.2936611843931178,0.9794795263068397,0.284873,0.7250099132041813
0.0605,1.7084937500000001,1.0,2665.8899875949915,0.4943911726815258,1.2930015404689976,0.9796745350719431,0.2848097375,0.7262439326619718
0.061,1.7069750000000001,1.0,2663.6553847054993,0.49722725041182875,1.2923362102739409,0.9798648404370625,0.28474595,0.7274857785799433
0.0615,1.7054437500000001,1.0,2661.4266589494478,0.500047428522376,1.2916651894424034,0.9800505802371496,0.2846816375,0.7287353866949201
0.062,1.7039,1.0,2659.2042781757395,0.502851792662171,1.2909884736088415,0.9802318870868287,0.2846168,0.7299926920497339
0.0625,1.70234375,1.0,2656.988709456486,0.5056404284802166,1.2903060584077104,0.98040888861559,0.2845514375,0.7312576289916424
0.063,1.7007750000000001,1.0,2654.780419092109,0.5084134216255164,1.2896179394734664,0.9805817076906829,0.28448555,0.7325301311707384
0.0635,1.69919375,1.0,2652.5798726172834,0.5111708577470734,1.2889241124405653,0.9807504626284327,0.28441913750000003,0.733810131538366
0.064,1.6976,1.0,2650.387534806073,0.5139128224938909,1.2882245729434625,0.9809152673946675,0.2843522,0.7350975623455315
0.0645,1.69599375,1.0,2648.203869678816,0.5166394015149722,1.2875193166166143,0.9810762317948868,0.2842847375,0.7363923551413109
0.065,1.694375,1.0,2646.0293405087223,0.5193506804593204,1.2868083390944764,0.981233461654773,0.28421675,0.7376944407712622
0.0655,1.69274375,1.0,2643.8644098288273,0.5220467449759388,1.2860916360115047,0.9813870589915971,0.2841482375,0.7390037493758315
0.066,1.6911,1.0,2641.709539439625,0.5247276807138306,1.2853692030021548,0.9815371221770414,0.2840792,0.7403202103887594
0.0665,1.6894437500000001,1.0,2639.5651904174524,0.5273935733219991,1.2846410357008828,0.9816837460919293,0.2840096375,0.7416437525354871
0.067,1.687775,1.0,2637.431823122191,0.5300445084494474,1.2839071297421443,0.981827022273314,0.28393955,0.7429743038315602
0.0675,1.68609375,1.0,2635.30989720669,0.5326805717451787,1.2831674807603952,0.9819670390543577,0.2838689375,0.7443117915810307
0.068,1.6844000000000001,1.0,2633.1998716258954,0.5353018488581964,1.2824220843900915,0.9821038816974019,0.2837978,0.7456561423748598
0.0685,1.68269375,1.0,2631.102204646276,0.5379084254375036,1.281670936265689,0.9822376325206037,0.2837261375,0.7470072820893181
0.069,1.680975,1.0,2629.017353856381,0.5405003871321036,1.2809140320216432,0.9823683710184923,0.28365395,0.7483651358843852
0.0695,1.67924375,1.0,2626.9443582452955,0.5430777687077407,1.2801513804300435,0.9824961713808921,0.28358123749999997,0.7497296047294039
0.07,1.6775,1.0,2624.8840524920884,0.5456407005842157,1.2793829736332791,0.9826211105234796,0.283508,0.7511006187622018
0.07050000000000001,1.67574375,1.0,2622.8366946787155,0.5481892779227532,1.278608809108671,0.9827432608105084,0.2834342375,0.7524780978541077
0.07100000000000001,1.673975,1.0,2620.8020992447887,0.5507235766096008,1.2778288884456859,0.9828626911955672,0.28335995,0.7538619539063605
0.07150000000000001,1.67219375,1.0,2618.7800809787814,0.5532436725310065,1.277043213233791,0.9829794683519697,0.2832851375,0.7552520982177813
0.07200000000000001,1.6704,1.0,2616.770455013952,0.5557496415732178,1.2762517850624535,0.983093656761864,0.2832098,0.7566484414853571
0.0725,1.66859375,1.0,2614.773036824549,0.5582415596224825,1.27545460552114,0.9832053188012775,0.2831339375,0.7580508938048252
0.073,1.6667750000000001,1.0,2612.7876422220393,0.5607195025650482,1.2746516761993179,0.9833145148213184,0.28305755,0.7594593646712534
0.0735,1.66494375,1.0,2610.814087351426,0.5631835462871628,1.2738429986864537,0.9834213032257177,0.2829806375,0.7608737629796267
0.074,1.6631,1.0,2608.8521886874314,0.5656337666750738,1.2730285745720145,0.983525740544912,0.2829032,0.7622939970254271
0.0745,1.6612437500000001,1.0,2606.9017630311137,0.5680702396150291,1.2722084054454676,0.9836278815068326,0.2828252375,0.7637199745052166
0.075,1.659375,1.0,2604.9626275062924,0.5704930409932764,1.2713824928962798,0.9837277791045732,0.28274675,0.7651516025172215
