Time [s],Phi [rad],STIM [ ],Fsee [N],Gamma [ ],Lcerel [ ],q [ ],Lmtc [m],fisomrel [ ]
0.0,1.8,1.0,17.96647165458583,1.0000287386238617e-05,1.3793398231328702,0.005000026653303689,0.288653,0.5411393449793456
0.0005,1.79999375,1.0,18.27586715260029,0.005619153502477258,1.3793024852075761,0.0129405166996721,0.2886527375,0.5412296706484582
0.001,1.799975,1.0,21.61752395433572,0.011196843802953453,1.378938389706138,0.035608584327222394,0.28865195,0.5421100025730838
0.0015,1.79994375,1.0,31.068291619535856,0.016743247671750835,1.3780462841879233,0.07060171784718677,0.2886506375,0.5442634152158927
0.002,1.7999,1.0,53.581164654398194,0.022258540600152976,1.3763682110413589,0.11471785222758517,0.2886488,0.5483002860890536
0.0025,1.79984375,1.0,97.11735409281283,0.027742897095356996,1.3739352435675443,0.16457468987109947,0.28864643749999996,0.5541212806699023
0.003,1.7997750000000001,1.0,160.95649962471097,0.03319649068818889,1.3712144061611722,0.21728024216159378,0.28864354999999997,0.5605863031199244
0.0035,1.79969375,1.0,237.68166863150662,0.03861949393269587,1.3685847854553157,0.27061267557512736,0.2886401375,0.5667897191672797
0.004,1.7996,1.0,321.46516684620457,0.04401207841692845,1.3661561348931017,0.3229155939147339,0.2886362,0.5724798625004615
0.0045000000000000005,1.7994937500000001,1.0,409.2662302681957,0.04937441476812485,1.3639228498590368,0.37303430948231536,0.2886317375,0.57767907956147
0.005,1.799375,1.0,499.41205748419156,0.05470667264380487,1.3618583730887415,0.4202472750934173,0.28862675,0.5824570083723507
0.0055,1.79924375,1.0,590.7890414032322,0.06000902077921112,1.3599388619165313,0.46417352646135773,0.2886212375,0.5868750500071179
0.006,1.7991000000000001,1.0,682.5168045543188,0.0652816269305182,1.3581464384465456,0.5046798045529296,0.2886152,0.5909793642476235
0.006500000000000001,1.79894375,1.0,773.8798220697138,0.07052465793084603,1.3564672781271874,0.5418006191030557,0.2886086375,0.5948057385988343
0.007,1.798775,1.0,864.2847498254699,0.0757382796713545,1.354890412141033,0.5756766500982912,0.28860155,0.5983826382983666
0.0075,1.79859375,1.0,953.237437201385,0.08092265705492842,1.3534068680661093,0.6065098427413199,0.2885939375,0.6017333724607896
0.008,1.7984,1.0,1040.3566808681105,0.08607795433212229,1.352008672459113,0.6345319601566629,0.2885858,0.604878490158077
0.0085,1.79819375,1.0,1125.3193055098986,0.09120433436698303,1.3506891696128225,0.6599842931998025,0.2885771375,0.6078351604472865
0.009000000000000001,1.797975,1.0,1207.8860879128256,0.09630195945802257,1.3494422276107019,0.6831042101311421,0.28856795,0.6106190355946124
0.0095,1.79774375,1.0,1287.8716288346234,0.10137099072334582,1.3482623960917357,0.7041175421930713,0.2885582375,0.6132439523866167
0.01,1.7975,1.0,1365.1588910143628,0.10641158888738633,1.3471444901349967,0.723234207985203,0.288548,0.615722904875361
0.0105,1.79724375,1.0,1439.6685629558021,0.11142391372933572,1.3460838329476728,0.7406465381582796,0.2885372375,0.6180675400900745
0.011,1.796975,1.0,1511.3277628561464,0.11640812303771339,1.345076485863696,0.7565290360421246,0.28852595000000003,0.6202876878315127
0.0115,1.79669375,1.0,1580.11873914323,0.12136437460103877,1.344118510217,0.7710385673343815,0.2885141375,0.6223930195345426
0.012,1.7964,1.0,1646.0527918277826,0.12629282530694858,1.343206214339607,0.7843155612504626,0.28850180000000003,0.6243925205314914
0.0125,1.79609375,1.0,1709.1728587261998,0.1311936321520905,1.3423360476123924,0.7964852869861275,0.2884889375,0.626294740131141
0.013000000000000001,1.7957750000000001,1.0,1769.4985999392306,0.1360669492178958,1.3415051625518701,0.8076594882716456,0.28847555,0.628106581474556
0.0135,1.79544375,1.0,1827.07645876728,0.1409129303629894,1.3407107624993315,0.8179374937559574,0.2884616375,0.6298347459091969
0.014,1.7951000000000001,1.0,1881.9757372752451,0.14573172901712206,1.3399501107808325,0.8274075645488083,0.2884472,0.6314857212375629
0.0145,1.79474375,1.0,1934.2764023558846,0.1505234984681334,1.3392206310176784,0.8361481747790237,0.2884322375,0.6330655723595922
0.015,1.794375,1.0,1984.0510147555362,0.15528839060037755,1.338520065062146,0.8442291878396206,0.28841675,0.6345796095354606
0.0155,1.79399375,1.0,2031.3642501960685,0.16002655512065658,1.3378464379979425,0.851712843882092,0.2884007375,0.636032475548796
0.016,1.7936,1.0,2076.2969231459624,0.1647381417357724,1.3371977749087742,0.8586545672887954,0.2883842,0.637428764657435
0.0165,1.7931937500000001,1.0,2118.9388686140555,0.16942329961369354,1.3365721600396678,0.8651037920388086,0.2883671375,0.638772898871914
0.017,1.792775,1.0,2159.381573809678,0.17408217768509598,1.3359677960572345,0.8711046885561768,0.28834955,0.6400690051417235
0.0175,1.7923437500000001,1.0,2197.7173331494,0.17871492450038629,1.335382995485703,0.8766967810053077,0.2883314375,0.6413209385811125
0.018000000000000002,1.7919,1.0,2234.013494865044,0.18332168517754482,1.3348164245605627,0.8819155548101946,0.2883128,0.6425317660857176
0.0185,1.79144375,1.0,2268.34567496834,0.18790260483455196,1.3342667495173024,0.8867928336875246,0.2882936375,0.6437045285941869
0.019,1.790975,1.0,2300.797070955895,0.19245782858938815,1.3337326365914115,0.8913572037796653,0.28827395,0.6448422425820947
0.0195,1.79049375,1.0,2331.4502914010704,0.19698750056897216,1.333212826012472,0.8956344023151663,0.2882537375,0.6459477441989223
0.02,1.79,1.0,2360.392757900398,0.20149176543960398,1.3327060709896223,0.8996476271478663,0.288233,0.6470238211946695
0.0205,1.78949375,1.0,2387.7028105416703,0.20597076631109834,1.3322112671286386,0.9034178495160775,0.2882117375,0.6480729400280113
0.021,1.788975,1.0,2413.442392883503,0.21042464342019637,1.3317275144998337,0.9069640723517272,0.28818995000000003,0.64909711774159
0.021500000000000002,1.78844375,1.0,2437.6773622476417,0.21485353700363927,1.3312539131735206,0.9103035024975419,0.2881676375,0.6500983578036661
0.022,1.7879,1.0,2460.4771655575178,0.21925758729816816,1.330789563220012,0.9134517452248235,0.2881448,0.6510786507165616
0.0225,1.78734375,1.0,2481.9114943447357,0.22363693402035806,1.3303335936760172,0.9164229809404217,0.28812143749999997,0.6520399135493877
0.023,1.786775,1.0,2502.0434436383225,0.22799171549934769,1.329885224171923,0.9192301267844434,0.28809755,0.6529838612022962
0.0235,1.78619375,1.0,2520.9524422851896,0.23232207253308101,1.3294435438697088,0.9218849280307257,0.28807313749999996,0.6539124725847172
0.024,1.7856,1.0,2538.687354145978,0.23662814021154027,1.3290079536723265,0.9243981558404021,0.2880482,0.6548270612893758
0.0245,1.78499375,1.0,2555.2988807288093,0.2409100536247077,1.3285778544827282,0.9267796515529338,0.2880227375,0.6557289334933899
0.025,1.784375,1.0,2570.839409289453,0.24516794786256557,1.3281526472038663,0.9290384197055579,0.28799675,0.6566193881795117
0.025500000000000002,1.78374375,1.0,2585.362868890306,0.24940195801509615,1.3277317327386926,0.9311827106164657,0.2879702375,0.6574997173344839
0.026000000000000002,1.7831000000000001,1.0,2598.920327085032,0.253612218206827,1.3273145517410694,0.9332200998611919,0.2879432,0.6583711231458635
0.0265,1.78244375,1.0,2611.5598208662113,0.2577988618582575,1.3269005845151296,0.9351575529892894,0.2879156375,0.659234718889243
0.027,1.781775,1.0,2623.341625506101,0.2619620245007969,1.326489207955112,0.9370014621442817,0.28788755,0.6600918274516696
0.0275,1.7810937500000001,1.0,2634.302350139013,0.26610183582264774,1.3260800279077496,0.93875774706306,0.2878589375,0.6609432889020448
0.028,1.7804,1.0,2644.479381827359,0.27021842551201236,1.3256726502197755,0.9404318663137904,0.2878298,0.6617899390906496
0.0285,1.77969375,1.0,2653.9108187556926,0.2743119232570933,1.3252666807379228,0.9420288592735101,0.2878001375,0.6626326096994077
0.029,1.778975,1.0,2662.6354068693463,0.278382458746093,1.3248617253089245,0.9435533837786281,0.28776995,0.6634721282822349
0.029500000000000002,1.7782437500000001,1.0,2670.6924799573885,0.282430161667214,1.3244573897795135,0.9450097499414638,0.2877392375,0.6643093182954873
0.03,1.7775,1.0,2678.11738678842,0.2864551588334224,1.3240533214406454,0.9464019550988415,0.287708,0.6651449134671102
0.0305,1.77674375,1.0,2684.9480643605675,0.29045758128873866,1.3236491480355945,0.9477337051863979,0.2876762375,0.6659796842341641
0.031,1.775975,1.0,2691.2137513790735,0.2944375548562278,1.323244580780594,0.9490084495732067,0.28764395,0.666814225114726
0.0315,1.7751937500000001,1.0,2696.941937704727,0.29839520388278085,1.3228393499683744,0.9502293956495921,0.2876111375,0.6676490883673389
0.032,1.7744,1.0,2702.160409738842,0.3023306527152888,1.3224331858916676,0.9513995270260993,0.2875778,0.6684848234558334
0.0325,1.77359375,1.0,2706.897221441003,0.3062440257006428,1.3220258188432044,0.9525216218878823,0.2875439375,0.6693219770355987
0.033,1.772775,1.0,2711.1806669588223,0.31013544718573394,1.3216169791157162,0.9535982696323055,0.28750955,0.6701610929352073
0.0335,1.7719437500000002,1.0,2715.0339521575747,0.31400503732111706,1.3212064453298082,0.9546318903501748,0.2874746375,0.6710026131332555
0.034,1.7711000000000001,1.0,2718.479740165061,0.31785291755523126,1.3207940026596285,0.9556247449394959,0.2874392,0.6718469638316781
0.0345,1.7702437500000001,1.0,2721.5556387451466,0.3216792226928583,1.3203793016629517,0.9565789350695477,0.2874032375,0.6726948439603297
0.035,1.7693750000000001,1.0,2724.2779294620714,0.32548407024681286,1.3199621884640513,0.9574964434380892,0.28736675,0.6735465495959658
0.035500000000000004,1.76849375,1.0,2726.662999468653,0.3292675777299096,1.3195425091872008,0.9583791262420542,0.2873297375,0.6744023750712618
0.036000000000000004,1.7676,1.0,2728.7273307385694,0.3330298626549633,1.319120109956674,0.9592287226996445,0.2872922,0.6752626129503836
0.0365,1.76669375,1.0,2730.487489824654,0.3367710425347887,1.3186948368967444,0.9600468637518516,0.2872541375,0.6761275540030534
0.037,1.765775,1.0,2731.9601181410885,0.34049123488220046,1.3182665361316854,0.9608350800225444,0.28721555,0.6769974871771001
0.0375,1.76484375,1.0,2733.1619227714127,0.34419055721001335,1.3178350537857706,0.9615948091078594,0.2871764375,0.6778726995695036
0.038,1.7639,1.0,2734.1096678007557,0.34786912703104206,1.3174002359832737,0.9623274022581976,0.28713679999999997,0.6787534763959253
0.0385,1.76294375,1.0,2734.820166174019,0.35152706185810134,1.316961928848468,0.9630341305095591,0.28709663750000003,0.6796401009587332
0.039,1.761975,1.0,2735.310272077622,0.35516447920400596,1.3165199785056272,0.9637161903151031,0.28705595,0.6805328546135119
0.0395,1.7609937500000001,1.0,2735.591930559431,0.35878148963029044,1.3160742759615698,0.9643747114880514,0.2870147375,0.6814319262607444
0.04,1.76,1.0,2735.6792638107027,0.36237821210029786,1.3156246927034494,0.9650107588770362,0.286973,0.6823375425888174
0.0405,1.7589937500000001,1.0,2735.5877022425566,0.3659547668695499,1.3151710885461168,0.9656253361079069,0.2869307375,0.6832499519918873
0.041,1.757975,1.0,2735.3263501105553,0.3695112639368091,1.3147133809049938,0.9662193936708621,0.28688795,0.6841692853295545
0.0415,1.75694375,1.0,2734.9043263206463,0.3730478133008378,1.3142514871955027,0.9667938293403143,0.2868446375,0.6850956721792565
0.042,1.7559,1.0,2734.330761682317,0.37656452496039844,1.3137853248330658,0.9673494916392184,0.28680079999999997,0.6860292408144368
0.0425,1.75484375,1.0,2733.614796312632,0.38006150891425355,1.3133148112331048,0.9678871830414604,0.2867564375,0.6869701181822829
0.043000000000000003,1.753775,1.0,2732.765577190826,0.38353887516116547,1.3128398638110421,0.9684076629345875,0.28671155,0.6879184298810224
0.043500000000000004,1.75269375,1.0,2731.7922558654623,0.3869967336998968,1.3123603999822997,0.9689116503630533,0.28666613750000003,0.6888743001367913
0.044,1.7516,1.0,2730.7039863114223,0.39043519452920983,1.3118763371622997,0.9693998265702808,0.2866202,0.6898378517800624
0.0445,1.75049375,1.0,2729.509922939164,0.3938543676478671,1.3113875927664642,0.9698728373561534,0.2865737375,0.6908092062216411
0.045,1.7493750000000001,1.0,2728.2192187545675,0.397254363054631,1.3108940842102155,0.9703312952650264,0.28652675,0.6917884834282253
0.0455,1.74824375,1.0,2726.8344411933244,0.4006352706527766,1.3103957887704032,0.9707757833065008,0.2864792375,0.6927756833979568
0.046,1.7471,1.0,2725.367811271131,0.4039972209679563,1.3098925959321952,0.9712068542183291,0.2864312,0.6937709789107309
0.0465,1.7459437500000001,1.0,2723.826080881328,0.4073403245099725,1.3093844448631986,0.9716250339736157,0.28638263750000004,0.6947744428465894
0.047,1.744775,1.0,2722.213517205391,0.41066468315495713,1.3088712973077659,0.9720308230152706,0.28633355,0.6957861023578371
0.0475,1.74359375,1.0,2720.5343853584086,0.41397039877904246,1.3083531150102492,0.9724246972989773,0.28628393750000003,0.6968059836207782
0.048,1.7424,1.0,2718.7929478542233,0.4172575732583606,1.307829859715001,0.9728071097168796,0.2862338,0.6978341118234781
0.0485,1.74119375,1.0,2716.993464104827,0.42052630846904365,1.3073014931663742,0.9731784914257204,0.2861831375,0.6988705111534339
0.049,1.739975,1.0,2715.14018995056,0.4237767062872238,1.3067679771087208,0.9735392530866661,0.28613195,0.6999152047851509
0.0495,1.73874375,1.0,2713.23737722391,0.4270088685890331,1.3062292732863934,0.9738897860234416,0.2860802375,0.7009682148676257
0.05,1.7375,1.0,2711.2892733452004,0.43022289725060375,1.3056853434437445,0.974230463304856,0.286028,0.7020295625117345
0.0505,1.73624375,1.0,2709.3001209507897,0.4334188941480678,1.3051361493251263,0.9745616407572935,0.2859752375,0.7030992677775325
0.051000000000000004,1.734975,1.0,2707.274157553952,0.4365969611575575,1.3045816526748917,0.9748836579122819,0.28592195,0.704177349661453
0.051500000000000004,1.73369375,1.0,2705.2156152379393,0.4397572001552048,1.3040218152373926,0.9751968388938469,0.2858681375,0.7052638260834208
0.052000000000000005,1.7324,1.0,2703.128720381364,0.44289971301714204,1.303456598756982,0.9755014932499733,0.2858138,0.7063587138738651
0.0525,1.73109375,1.0,2701.017693416815,0.44602460161950114,1.3028859649780118,0.9757979167321512,0.28575893750000003,0.7074620287606461
0.053,1.729775,1.0,2698.878905763695,0.4491319367300263,1.3023099473366648,0.9760863932868687,0.28570355000000003,0.7085736471342569
0.0535,1.72844375,1.0,2696.721961201201,0.452221852246446,1.3017284583198885,0.9763671934587995,0.2856476375,0.7096936780609162
0.054,1.7271,1.0,2694.5503152593355,0.45529445016619846,1.3011414665237135,0.9766405762002676,0.2855912,0.7108221209819743
0.0545,1.7257437500000001,1.0,2692.3653957704087,0.4583498234383623,1.3005489590526476,0.9769067895513895,0.2855342375,0.7119589388149553
0.055,1.724375,1.0,2690.168628399513,0.46138806501201585,1.2999509230111983,0.9771660709931892,0.28547675,0.713104093701308
0.0555,1.72299375,1.0,2687.9614366094484,0.4644092678362377,1.2993473455038735,0.9774186479826505,0.2854187375,0.7142575470018641
0.056,1.7216,1.0,2685.745241629325,0.4674135248601062,1.2987382136351808,0.9776647384563754,0.2853602,0.7154192592922866
0.0565,1.72019375,1.0,2683.5214624263995,0.47040092903269987,1.2981235145096277,0.9779045513049317,0.28530113749999997,0.7165891903585071
0.057,1.718775,1.0,2681.291515682517,0.4733715733030971,1.297503235231722,0.9781382868198195,0.28524155,0.7177672991921515
0.0575,1.71734375,1.0,2679.0568157730227,0.47632555062037646,1.2968773629059716,0.978366137114848,0.2851814375,0.7189535439859569
0.058,1.7159,1.0,2676.8187747504794,0.47926295393361634,1.2962458846368836,0.9785882865235795,0.2851208,0.720147882129178
0.0585,1.71444375,1.0,2674.5788023314776,0.4821838761918952,1.2956087875289664,0.9788049119743804,0.2850596375,0.7213502702029797
0.059000000000000004,1.7129750000000001,1.0,2672.338305887268,0.4850884103442915,1.294966058686727,0.9790161833445074,0.28499795,0.7225606639758235
0.059500000000000004,1.71149375,1.0,2670.098690438143,0.4879766493398838,1.2943176852146736,0.9792222637945583,0.2849357375,0.7237790183988402
0.06,1.71,1.0,2667.8613586512474,0.49084868612775034,1.2936636542173134,0.9794233100845187,0.284873,0.7250052876011932
0.0605,1.7084937500000001,1.0,2665.6277108424965,0.4937046136569698,1.2930039527991546,0.9796194728725528,0.2848097375,0.7262394248854298
0.061,1.7069750000000001,1.0,2663.3991449818573,0.4965445248766206,1.2923385680647044,0.9798108969976062,0.28474595,0.7274813827228259
0.0615,1.7054437500000001,1.0,2661.173844045816,0.4993684860798971,1.2916675166928,0.9799977212256048,0.2846816375,0.7287310577367834
0.062,1.7039,1.0,2658.954295876557,0.5021766053575316,1.290990775744929,0.9801800802361987,0.2846168,0.7299884197428712
0.0625,1.70234375,1.0,2656.7433455661303,0.5049689902017261,1.2903083189529316,0.9803581033795106,0.2845514375,0.7312534437076623
0.063,1.7007750000000001,1.0,2654.5411843922006,0.5077457245775315,1.2896201444655364,0.9805319146301567,0.28448555,0.7325260584176079
0.0635,1.69919375,1.0,2652.348003334049,0.5105068924499988,1.2889262504314714,0.9807016333662328,0.28441913750000003,0.7338061920013097
0.064,1.6976,1.0,2650.1639930746155,0.513252577784179,1.2882266349994655,0.9808673745719824,0.2843522,0.7350937719288421
0.0645,1.69599375,1.0,2647.9893440046635,0.5159828645451229,1.2875212963182467,0.9810292490300845,0.2842847375,0.7363887250110809
0.065,1.694375,1.0,2645.8242462252283,0.5186978366978814,1.2868102325365438,0.9811873635041651,0.28421675,0.7376909773990232
0.0655,1.69274375,1.0,2643.6688895510265,0.5213975782075057,1.2860934418030852,0.9813418209120955,0.2841482375,0.7390004545831146
0.066,1.6911,1.0,2641.523463514034,0.5240821730390465,1.285370922266599,0.981492720490605,0.2840792,0.7403170813925725
0.0665,1.6894437500000001,1.0,2639.3881573666513,0.5267517051575549,1.284642672075814,0.9816401579517028,0.2840096375,0.7416407819947087
0.067,1.687775,1.0,2637.2631600849522,0.5294062585280818,1.2839086893794585,0.9817842256313708,0.28393955,0.7429714798942544
0.0675,1.68609375,1.0,2635.148660372875,0.5320459171156782,1.2831689723262607,0.9819250126309587,0.2838689375,0.744309097932683
0.068,1.6844000000000001,1.0,2633.044846665232,0.5346707648853948,1.2824235190649493,0.9820626049516952,0.2837978,0.7456535582875325
0.0685,1.68269375,1.0,2630.9519071316035,0.5372808858022828,1.2816723277442528,0.9821970856226838,0.2837261375,0.7470047824717292
0.069,1.680975,1.0,2628.870029680272,0.5398763638313931,1.2809153965128994,0.9823285348227533,0.28365395,0.7483626913329098
0.0695,1.67924375,1.0,2626.799401961819,0.5424572829377767,1.2801527235196177,0.9824570299964898,0.28358123749999997,0.7497272050527444
0.07,1.6775,1.0,2624.740211373369,0.5450237270864844,1.279384306913136,0.98258264596477,0.283508,0.7510982431462583
0.07050000000000001,1.67574375,1.0,2622.6926450622436,0.5475757802425671,1.2786101448421827,0.9827054550300901,0.2834342375,0.7524757244611543
0.07100000000000001,1.673975,1.0,2620.6569597942585,0.5501135219898371,1.2778302348073949,0.9828255267794263,0.28335995,0.7538595683254714
0.07150000000000001,1.67219375,1.0,2618.635860778372,0.5526370297184182,1.2770445515845137,0.9829429273207093,0.2832851375,0.7552497335374226
0.07200000000000001,1.6704,1.0,2616.6284476227443,0.5551463825662483,1.2762531033841682,0.9830577221950919,0.2832098,0.7566461188476279
0.0725,1.66859375,1.0,2614.633700209273,0.5576416596095545,1.2754558995424294,0.983169974846728,0.2831339375,0.7580486205589
0.073,1.6667750000000001,1.0,2612.6506000394866,0.5601229399245643,1.2746529493953689,0.9832797466577708,0.28305755,0.7594571345294163
0.0735,1.664943938542279,1.0,2610.6921406116007,0.5625903010942443,1.2738442172122968,0.9833870949333754,0.2829806454187757,0.7608716348832412
0.074,1.663108609615049,1.0,2609.121432713932,0.5650438236066736,1.2730299595739478,0.9834920882381561,0.28290356160383207,0.7622915853796187
0.0745,1.6612732806878188,1.0,2608.103601504694,0.5674835848212779,1.2722105649919124,0.9835947986875022,0.28282647778888836,0.7637162254680607
0.075,1.6594379517605886,1.0,2607.5994837615203,0.5699096609328135,1.271386394662293,0.983695295013523,0.2827493939739447,0.7651448494649303
