Time [s],Phi [rad],STIM [ ],Fsee [N],Gamma [ ],Lcerel [ ],q [ ],Lmtc [m],fisomrel [ ]
0.0,1.8,1.0,18.086792302591963,0.00035340842970261425,1.3793263654326875,0.005032361842254063,0.288653,0.541171902065138
0.0005,1.79999375,1.0,18.506210791930933,0.0059606353967385315,1.3792769780186467,0.013921337429856885,0.2886527375,0.5412913709982239
0.001,1.799975,1.0,22.102774136241003,0.011536410253816357,1.3788891026120582,0.03742050837065003,0.28865195,0.542229106893588
0.0015,1.79994375,1.0,32.10969632625624,0.017080909423412283,1.3779582900443852,0.07306728663821617,0.2886506375,0.5444755452382793
0.002,1.7999,1.0,55.726148918381426,0.022594308336133385,1.3762304194284836,0.1176284290000107,0.2886488,0.5486309677827403
0.0025,1.79984375,1.0,100.64051981602725,0.028076781440018635,1.3737669816677285,0.16773516951812154,0.28864643749999996,0.5545224598692472
0.003,1.7997750000000001,1.0,165.48794886210797,0.033528502205608886,1.3710459661301788,0.22053689410959007,0.28864354999999997,0.5609849841151856
0.0035,1.79969375,1.0,242.77264692225577,0.0389496431278638,1.3684288001572356,0.2738490837890911,0.2886401375,0.5671563112713641
0.004,1.7996,1.0,326.8645405372719,0.04434037573607328,1.3660137212598629,0.3260474080853472,0.2886362,0.5728123592139904
0.0045000000000000005,1.7994937500000001,1.0,414.84613298416747,0.049700870599373885,1.3637923114614834,0.3760058922510981,0.2886317375,0.577981996560941
0.005,1.799375,1.0,505.09638388333616,0.05503129731808596,1.361737923221265,0.4230265236150661,0.28862675,0.5827349327282085
0.0055,1.79924375,1.0,596.5176694620183,0.06033182456240082,1.3598272082975456,0.46674608469806195,0.2886212375,0.5871313143137589
0.006,1.7991000000000001,1.0,688.2454495457129,0.06560262003965661,1.3580425244220307,0.5070436106489896,0.2886152,0.5912166795455982
0.006500000000000001,1.79894375,1.0,779.5686829842286,0.07084385050243244,1.3563703432668017,0.5439617261304402,0.2886086375,0.5950260792088709
0.007,1.798775,1.0,869.9028263095797,0.07605568185975432,1.3547998091452762,0.5776459606365671,0.28860155,0.5985876767553431
0.0075,1.79859375,1.0,958.7582173520416,0.08123827884578366,1.3533220750993014,0.6083008815562093,0.2885939375,0.6019244618862362
0.008,1.7984,1.0,1045.7612251961493,0.0863918057326697,1.3519292044380684,0.6361593063261205,0.2885858,0.6050568720139932
0.0085,1.79819375,1.0,1130.591875612199,0.09151642533955526,1.3506146167994795,0.6614626231074816,0.2885771375,0.608001882929063
0.009000000000000001,1.797975,1.0,1213.0065871868696,0.09661229968083257,1.3493723356603924,0.6844477382332231,0.28856795,0.6107747802142924
0.0095,1.79774375,1.0,1292.8453967296434,0.10167959051930024,1.3481966427395244,0.7053394466609245,0.2885582375,0.6133899808192729
0.01,1.7975,1.0,1369.9720868356376,0.10671845783949309,1.3470826818048136,0.7243467911241921,0.288548,0.6158597321147274
0.0105,1.79724375,1.0,1444.2979728722096,0.11172906087367868,1.3460259390158966,0.7416610647604663,0.2885372375,0.6181953109954306
0.011,1.796975,1.0,1515.7822679699882,0.11671155821565986,1.3450221122932782,0.7574554884907105,0.28852595000000003,0.6204073406526931
0.0115,1.79669375,1.0,1584.4214896260778,0.12166610831174665,1.3440671421376487,0.7718858400155839,0.2885141375,0.6225057452207623
0.012,1.7964,1.0,1650.201424873769,0.1265928670927099,1.343157685809718,0.7850917469946412,0.28850180000000003,0.6244987330029299
0.0125,1.79609375,1.0,1713.1454324789684,0.1314919903296307,1.342290442427723,0.797197694697759,0.2884889375,0.6263943017303367
0.013000000000000001,1.7957750000000001,1.0,1773.293480378743,0.13636363297750864,1.3414623444211913,0.8083145284530411,0.28847555,0.6281998320866828
0.0135,1.79544375,1.0,1830.725280620857,0.1412079505161431,1.340670244778371,0.8185407292465263,0.2884616375,0.6299227816410868
0.014,1.7951000000000001,1.0,1885.4877630184865,0.1460250953614781,1.3399116838598835,0.8279640388622652,0.2884472,0.6315690279832227
0.0145,1.79474375,1.0,1937.6379963334548,0.15081521931952876,1.3391843495539157,0.836662461793341,0.2884322375,0.6331440593676247
0.015,1.794375,1.0,1987.2540971609349,0.15557847419631027,1.3384859297486555,0.8447053360240308,0.28841675,0.63465330153759
0.0155,1.79399375,1.0,2034.4153167282536,0.16031501070259738,1.3378143027118958,0.8521544096401477,0.2884007375,0.6361017120002411
0.016,1.7936,1.0,2079.2252634497845,0.16502498003332855,1.3371672670909012,0.8590646501512346,0.2883842,0.6374943686302708
0.0165,1.7931937500000001,1.0,2121.75228189112,0.16970853015729176,1.3365431453713374,0.8654852287637183,0.2883671375,0.6388351763506596
0.017,1.792775,1.0,2162.071872097521,0.17436580873361915,1.3359403115526707,0.8714600625677845,0.28834955,0.6401278924550209
0.0175,1.7923437500000001,1.0,2200.270525066501,0.17899696342144272,1.3353571396343664,0.8770284203732741,0.2883314375,0.6413762401028573
0.018000000000000002,1.7919,1.0,2236.428024581452,0.18360214044880882,1.3347921718805085,0.8822255133342353,0.2883128,0.6425835511719773
0.0185,1.79144375,1.0,2270.649915972914,0.18818148748522803,1.3342437800771403,0.887082880223516,0.2882936375,0.6437534932389806
0.019,1.790975,1.0,2303.0050144232587,0.19273514816879564,1.3337107825372454,0.8916289657255912,0.28827395,0.6448887551606484
0.0195,1.79049375,1.0,2333.564958337598,0.19726326582631235,1.3331920329801732,0.895889372283498,0.2882537375,0.6459919297147296
0.02,1.79,1.0,2362.407186492847,0.2017659837845788,1.3326863851252733,0.8998871741182538,0.288233,0.647065590409051
0.0205,1.78949375,1.0,2389.6085558849127,0.2062434444751571,1.3321927499217934,0.9036432132787556,0.2882117375,0.6481121712353217
0.021,1.788975,1.0,2415.2506517499355,0.21069579084866605,1.331710038252299,0.9071763351090784,0.28818995000000003,0.649134089676844
0.021500000000000002,1.78844375,1.0,2439.4069474919943,0.21512316435641302,1.3312372804172878,0.9105036309972538,0.2881676375,0.6501334950948949
0.022,1.7879,1.0,2462.1364709812274,0.21952570366376153,1.3307736802820487,0.9136406373568102,0.2881448,0.6511121569919294
0.0225,1.78734375,1.0,2483.5013007121356,0.2239035474360751,1.3303184417118703,0.9166014673412411,0.28812143749999997,0.6520718337533219
0.023,1.786775,1.0,2503.566311537101,0.2282568343387172,1.3298707685720415,0.9193989609285008,0.28809755,0.6530142730921259
0.0235,1.78619375,1.0,2522.393609820985,0.23258570205490792,1.3294299150744733,0.9220448263156528,0.28807313749999996,0.6539411066773767
0.024,1.7856,1.0,2540.045436833088,0.23689028817552876,1.3289951554128565,0.9245497507361182,0.2880482,0.6548539149071122
0.0245,1.78499375,1.0,2556.5925064489925,0.24117073141988943,1.3285657032535423,0.9269234900684673,0.2880227375,0.6557543961910243
0.025,1.784375,1.0,2572.0797341312013,0.2454271652801636,1.3281410318358902,0.9291750143125416,0.28799675,0.6566436965104507
0.025500000000000002,1.78374375,1.0,2586.5534618083993,0.24965972324852495,1.3277206143992601,0.931312542565284,0.2879702375,0.657522955668914
0.026000000000000002,1.7831000000000001,1.0,2600.061339186686,0.25386853881714716,1.3273039241830122,0.9333436160736254,0.2879432,0.6583933074438807
0.0265,1.78244375,1.0,2612.6522112124394,0.25805374547820387,1.326890434426506,0.9352751632896007,0.2879156375,0.6592558797208232
0.027,1.781775,1.0,2624.3754624788535,0.26221547647797233,1.3264796234602068,0.937113558568765,0.28788755,0.6601117840091888
0.0275,1.7810937500000001,1.0,2635.274110020665,0.2663538617577752,1.3260710376221563,0.9388646821127745,0.2878589375,0.6609619847704411
0.028,1.7804,1.0,2645.4012461950856,0.27046903730442784,1.3256641379286096,0.9405339465521902,0.2878298,0.6618076188367843
0.0285,1.77969375,1.0,2654.7907734087935,0.27456113111056063,1.3252585698479031,0.9421263728450044,0.2878001375,0.6626494347592371
0.029,1.778975,1.0,2663.4772014170912,0.2786302711688037,1.3248539788483729,0.9436466020581653,0.28776995,0.6634881773800412
0.029500000000000002,1.7782437500000001,1.0,2671.4955938759076,0.2826765854717873,1.3244500103983556,0.9450989290128434,0.2877392375,0.6643245878587594
0.03,1.7775,1.0,2678.881517681335,0.2867002020121417,1.3240463099661874,0.9464873325481016,0.287708,0.6651594036903622
0.0305,1.77674375,1.0,2685.6709950956138,0.29070124878249715,1.323642523020205,0.9478155027796388,0.2876762375,0.6659933587152937
0.031,1.775975,1.0,2691.8916792977766,0.2946798495938459,1.3232383753852792,0.9490868745715519,0.28764395,0.6668270174690221
0.0315,1.7751937500000001,1.0,2697.57780403277,0.2986361331311077,1.3228335357436842,0.9503046345353056,0.2876111375,0.6676610593087735
0.032,1.7744,1.0,2702.770329114758,0.30257023095529517,1.3224276142940978,0.9514717409155327,0.2875778,0.6684962804228842
0.0325,1.77359375,1.0,2707.4906323024943,0.3064822645371306,1.322020402786703,0.9525909672559941,0.2875439375,0.66933310009276
0.033,1.772775,1.0,2711.7603012283535,0.31037235534733637,1.3216116929716832,0.9536648987070759,0.28750955,0.6701719354078053
0.0335,1.7719437500000002,1.0,2715.6011137706596,0.3142406248566347,1.3212012765992214,0.9546959470858154,0.2874746375,0.6710132012469086
0.034,1.7711000000000001,1.0,2719.035019387482,0.31808719453574774,1.3207889454195005,0.955686364561446,0.2874392,0.6718573102571579
0.0345,1.7702437500000001,1.0,2722.0841214122293,0.32191218585539794,1.3203744911827038,0.956638256106432,0.2874032375,0.6727046728297948
0.035,1.7693750000000001,1.0,2724.770660310279,0.32571572028630746,1.3199577056390142,0.9575535908373339,0.28736675,0.6735556970733991
0.035500000000000004,1.76849375,1.0,2727.1169978977396,0.3294979192991986,1.3195383805386152,0.9584342123560998,0.2873297375,0.6744107887843086
0.036000000000000004,1.7676,1.0,2729.1456025212156,0.3332589043647936,1.3191163076316894,0.9592818481902857,0.2872922,0.675270351414276
0.0365,1.76669375,1.0,2730.8722174330587,0.33699878774603675,1.318691340623731,0.9600981226215679,0.2872541375,0.676134660113039
0.037,1.765775,1.0,2732.324777038385,0.3407176996764171,1.3182632231233902,0.9608845531403414,0.28721555,0.6770042117573698
0.0375,1.76484375,1.0,2733.515993135199,0.3444157550474769,1.3178318376808404,0.9616425753528027,0.2871764375,0.6778792186110328
0.038,1.7639,1.0,2734.4584138056844,0.34809306849531674,1.317397068788255,0.9623735388216216,0.28713679999999997,0.678759887514744
0.0385,1.76294375,1.0,2735.1646311126383,0.3517497546560373,1.3169588009378073,0.963078713041069,0.28709663750000003,0.6796464238139908
0.039,1.761975,1.0,2735.6472754546176,0.35538592816573916,1.316516918621671,0.963759293055274,0.28705595,0.6805390313336814
0.0395,1.7609937500000001,1.0,2735.919010218244,0.35900170366052286,1.3160713063320193,0.9644164046238973,0.2870147375,0.6814379123519478
0.04,1.76,1.0,2735.9925267249746,0.3625971957764891,1.3156218485610256,0.9650511089761287,0.286973,0.68234326757309
0.0405,1.7589937500000001,1.0,2735.8805394744118,0.3661725191497384,1.3151684298008637,0.9656644071898517,0.2869307375,0.683255296099675
0.041,1.7579751064415983,1.0,2735.6010760806003,0.3697277884163715,1.314710934543707,0.9662572442291673,0.28688795447054716,0.6841741954037839
0.0415,1.756951737711029,1.0,2735.5463804680257,0.3732631150328919,1.3142492646304482,0.966830513604047,0.28684497298386324,0.6851001265281331
0.042,1.75592836898046,1.0,2735.9021783806984,0.3767786134916408,1.3137838677195341,0.9673851061064158,0.28680199149717933,0.6860321567569193
0.0425,1.7549050002498907,1.0,2736.63627568811,0.3802743941802505,1.3133150367877442,0.9679218503856933,0.2867590100104954,0.686969667483082
0.043000000000000003,1.7538816315193215,1.0,2737.7216477160764,0.3837505662905913,1.3128430184909916,0.9684415264491055,0.2867160285238115,0.6879121357826693
0.043500000000000004,1.7528582627887521,1.0,2739.1313194347235,0.38720723901453347,1.3123680594851896,0.968944872729294,0.2866730470371276,0.6888590414969931
0.044,1.751834894058183,1.0,2740.8383487023493,0.3906445215439473,1.3118904064262515,0.9694325887217137,0.2866300655504437,0.6898098672808279
0.0445,1.7508115253276137,1.0,2742.8158108577163,0.39406252307070316,1.3114103059700906,0.9699053374298162,0.28658708406375977,0.6907640986467302
0.045,1.7497881565970446,1.0,2745.0381929124846,0.3974613521225957,1.3109279920084296,0.9703637465608064,0.28654410257707585,0.6917212493163456
0.0455,1.7487647878664754,1.0,2747.484662116348,0.4008411159603265,1.3104436559693686,0.9708084083863061,0.28650112109039194,0.6926809198608811
0.046,1.7477414191359062,1.0,2750.130506172377,0.4042019243939297,1.3099575243338264,0.9712398882334197,0.28645813960370803,0.6936426438419816
0.0465,1.746718050405337,1.0,2752.961364219973,0.4075438820550035,1.3094697296695594,0.9716587155627643,0.28641515811702417,0.6946061429153374
0.047,1.7456946816747678,1.0,2755.9628646800197,0.41086709357514645,1.3089804045443232,0.9720653936832818,0.28637217663034026,0.6955711403304413
0.0475,1.7446713129441984,1.0,2759.120620561689,0.4141716635859567,1.3084896815258742,0.9724604012939502,0.28632919514365635,0.6965373609440839
0.048,1.7436479442136292,1.0,2762.4202251590254,0.41745769671903277,1.307997693181968,0.9728441939207768,0.28628621365697243,0.6975045312327373
0.0485,1.74262457548306,1.0,2765.8472481367776,0.42072529760597294,1.3075045720803609,0.9732172052570937,0.2862432321702885,0.6984723793038079
0.049,1.7416012067524909,1.0,2769.3898411249265,0.42397456889318597,1.3070104272443206,0.9735798465580912,0.2862002506836046,0.6994406810052926
0.0495,1.7405778380219217,1.0,2773.0346700381906,0.42720561580242217,1.3065153808840122,0.9739325109658016,0.2861572691969207,0.7004091877599774
0.05,1.7395544692913525,1.0,2776.771827995843,0.4304185406487551,1.3060195240561696,0.9742755709032319,0.2861142877102368,0.701377713317715
0.0505,1.7385311005607833,1.0,2780.5937487996775,0.4336134436939658,1.3055229265354273,0.9746093800054049,0.2860713062235529,0.7023461140345277
0.051000000000000004,1.7375077318302141,1.0,2784.4928488344917,0.436790425199835,1.3050256580964203,0.9749342757915094,0.286028324736869,0.7033142471391762
0.051500000000000004,1.7364843630996447,1.0,2788.4615259764937,0.4399495854281437,1.3045277885137834,0.9752505805438322,0.2859853432501851,0.7042819707363024
0.052000000000000005,1.7354609943690755,1.0,2792.492158608963,0.4430910246406728,1.3040293875621514,0.9755586021313198,0.2859423617635012,0.7052491438092576
0.0525,1.7344376256385063,1.0,2796.5771047465755,0.446214843099203,1.3035305250161588,0.9758586347817204,0.28589938027681727,0.7062156262226242
0.053,1.7334142569079372,1.0,2800.7168364165464,0.44932112660291323,1.3030311976511528,0.9761509537653018,0.28585639879013336,0.7071814198026402
0.0535,1.732390888177368,1.0,2804.894185151873,0.45240999587831904,1.3025315604403305,0.9764358357141064,0.28581341730344945,0.7081462211018452
0.054,1.7313675194467988,1.0,2809.1061358541747,0.4554815453308137,1.302031641090595,0.9767135348941656,0.28577043581676553,0.7091099737886544
0.0545,1.7303441507162296,1.0,2813.3496998583137,0.4585358693001891,1.3015314669941995,0.9769842947061217,0.2857274543300816,0.7100726224882843
0.055,1.7293207819856602,1.0,2817.621879730058,0.4615730621262372,1.3010310655433976,0.9772483482657324,0.2856844728433977,0.7110341121741284
0.0555,1.728297413255091,1.0,2821.9196691200186,0.46459321814875,1.3005304641304427,0.9775059189249053,0.2856414913567138,0.7119943881681783
0.056,1.7272740445245218,1.0,2826.2400526334873,0.46759643170751936,1.3000296901475883,0.9777572207621802,0.2855985098700299,0.7129533961413972
0.0565,1.7262506757939526,1.0,2830.580005717715,0.4705827971423373,1.299528770987088,0.9780024590446894,0.285555528383346,0.7139110821140453
0.057,1.7252273070633835,1.0,2834.936494564952,0.4735524087929958,1.2990277340411949,0.978241830663474,0.2855125468966621,0.7148673924559581
0.0575,1.7242039383328143,1.0,2839.306476033171,0.47650536099928675,1.2985266067021624,0.9784755245438962,0.2854695654099782,0.7158222738867746
0.058,1.723180569602245,1.0,2843.68689758224,0.47944174810100215,1.2980254163622444,0.9787037220327631,0.2854265839232943,0.7167756734761188
0.0585,1.722157200871676,1.0,2848.074697227915,0.48236166443793393,1.297524190413694,0.9789265972636583,0.2853836024366104,0.7177275386437371
0.059000000000000004,1.7211338321411067,1.0,2852.466803511497,0.4852652043498741,1.2970229562487647,0.9791443175018704,0.28534062094992646,0.7186778171595803
0.059500000000000004,1.7201104634105373,1.0,2856.8657482733206,0.48815243306574635,1.2965216913917952,0.9793570383591241,0.28529763946324255,0.7196265514481792
0.06,1.7190870946799681,1.0,2861.26385786891,0.4910234813075505,1.2960204640391637,0.979564919664258,0.2852546579765587,0.720573612468234
0.0605,1.718063725949399,1.0,2865.6603080188615,0.49387843640396806,1.2955192814166518,0.9797681083080194,0.2852116764898748,0.7215189869610514
0.061,1.7170403572188297,1.0,2870.054379686758,0.49671738504122465,1.2950181497950861,0.9799667454873627,0.28516869500319086,0.7224626635570285
0.0615,1.7160169884882606,1.0,2874.445351685101,0.499540413905546,1.2945170754452933,0.9801609670673701,0.28512571351650695,0.723404630966682
0.062,1.7149936197576914,1.0,2878.8325006829723,0.5023476096831577,1.2940160646380992,0.9803509038233585,0.28508273202982304,0.7243448779806285
0.0625,1.7139702510271222,1.0,2883.215101214162,0.5051390590602857,1.2935151236443307,0.980536681670232,0.2850397505431391,0.7252833934695575
0.063,1.7129468822965528,1.0,2887.592425686945,0.5079148487231554,1.293014258734814,0.9807184218798414,0.2849967690564552,0.7262201663842077
0.0635,1.7119235135659836,1.0,2891.9637443937186,0.5106750653579927,1.2925134761803754,0.9808962412870676,0.2849537875697713,0.7271551857553348
0.064,1.7109001448354144,1.0,2896.328325522149,0.5134197956510232,1.2920127822518415,0.9810702524852877,0.2849108060830874,0.7280884406936818
0.0645,1.7098767761048452,1.0,2900.685435167399,0.5161491262884726,1.2915121832200385,0.9812405640118473,0.2848678245964035,0.7290199203899449
0.065,1.708853407374276,1.0,2905.0343373443075,0.5188631439565667,1.291011685355793,0.9814072805241205,0.28482484310971956,0.7299496141147352
0.0655,1.7078300386437069,1.0,2909.374294001597,0.5215619353415313,1.290511294929931,0.9815705029666946,0.2847818616230357,0.7308775112185415
0.066,1.7068066699131377,1.0,2913.7045650358996,0.5242455871295917,1.2900110182132793,0.9817303287301966,0.2847388801363518,0.7318036011316867
0.0665,1.7057833011825685,1.0,2918.024408307334,0.5269141860069739,1.2895108614766644,0.9818868518022272,0.2846958986496679,0.7327278733642846
0.067,1.7047599324519993,1.0,2922.333079655956,0.5295678186599035,1.2890108309909123,0.9820401629108535,0.28465291716298396,0.7336503175061937
0.0675,1.70373656372143,1.0,2926.630999723314,0.5322065420116527,1.2885109227844511,0.982190347228433,0.28460993567630005,0.7345709420729097
0.068,1.7027131949908607,1.0,2930.9175280039967,0.5348304601061246,1.2880111422063631,0.9823374905323564,0.28456695418961614,0.7354897384087566
0.0685,1.7016898262602915,1.0,2935.1917128495934,0.5374396786486778,1.2875114973182893,0.98248167590219,0.2845239727029322,0.7364066929521536
0.069,1.7006664575297223,1.0,2939.453518016434,0.5400342757490559,1.2870119881414102,0.9826229814901741,0.28448099121624837,0.7373218069614638
0.0695,1.6996430887991532,1.0,2943.7029073761883,0.5426143295170021,1.2865126146969066,0.9827614828448171,0.28443800972956446,0.738235081694968
0.07,1.698619720068584,1.0,2947.9398449160294,0.5451799180622594,1.28601337700596,0.9828972530155843,0.28439502824288054,0.7391465184108628
0.07050000000000001,1.6975963513380148,1.0,2952.1642947389414,0.5477311194945712,1.285514275089751,0.9830303626526973,0.28435204675619663,0.740056118367264
0.07100000000000001,1.6965729826074454,1.0,2956.3762210634027,0.5502680119236806,1.2850153089694607,0.9831608801022984,0.2843090652695127,0.7409638828222029
0.07150000000000001,1.6955496138768762,1.0,2960.575588223692,0.5527906734593308,1.2845164786662697,0.9832888714972299,0.2842660837828288,0.7418698130336292
