Time [s],Phi [rad],STIM [ ],Fsee [N],Gamma [ ],Lcerel [ ],q [ ],Lmtc [m],fisomrel [ ]
0.0,1.8,1.0,17.96797244767753,1.1619245925214519e-05,1.379339654994152,0.005000035939129149,0.288653,0.5411397517503758
0.0005,1.79999375,1.0,18.27777454846226,0.005620763379939199,1.3793022733334683,0.01294500884059644,0.2886527375,0.541230183176221
0.001,1.799975,1.0,21.62055611767813,0.011198444650276062,1.3789380800199984,0.035617011168427616,0.28865195,0.5421107509909353
0.0015,1.79994375,1.0,31.07387513033867,0.01674483953958592,1.3780458085061171,0.07061324983159409,0.2886506375,0.5442645620885084
0.002,1.7999,1.0,53.59188641973928,0.02226012353886727,1.3763675154953274,0.11473150928381126,0.2886488,0.5483019556118447
0.0025,1.79984375,1.0,97.13457063397951,0.027744471155037424,1.3739344139735175,0.1645895499691416,0.28864643749999996,0.5541232590761547
0.003,1.7997750000000001,1.0,160.97848204222808,0.03319805591863903,1.3712135833621946,0.21729557611607656,0.28864354999999997,0.5605882510440021
0.0035,1.79969375,1.0,237.7062631520479,0.038621050383440166,1.36858402789597,0.270627930081548,0.2886401375,0.5667914999361697
0.004,1.7996,1.0,321.49116750101325,0.04401362613721436,1.366155446247272,0.32293036687516485,0.2886362,0.5724814706105263
0.0045000000000000005,1.7994937500000001,1.0,409.29303136274194,0.04937595380692581,1.363922220744322,0.37304833467367404,0.2886317375,0.5776805396955388
0.005,1.799375,1.0,499.4393004326465,0.05470820304981858,1.361857794185405,0.4202603981055594,0.28862675,0.5824583443471716
0.0055,1.79924375,1.0,590.816457915134,0.060010542600849585,1.359938326269966,0.46418567719580667,0.2886212375,0.5868762795981362
0.006,1.7991000000000001,1.0,682.5441868316975,0.06528314021593754,1.3581459407141443,0.504690971755799,0.2886152,0.5909805011160097
0.006500000000000001,1.79894375,1.0,773.9074276858878,0.0705261627284437,1.3564668068849721,0.5418108254705754,0.2886086375,0.5948068099146429
0.007,1.798775,1.0,864.3116061147426,0.07573977602663821,1.3548899783290087,0.5756859554621069,0.28860155,0.5983836201582773
0.0075,1.79859375,1.0,953.2680827279174,0.08092414507609665,1.3534063967086005,0.606518266174756,0.2885939375,0.601734434838786
0.008,1.7984,1.0,1040.3836353766442,0.08607943392015202,1.352008275610513,0.6345396401462243,0.2885858,0.6048793810641364
0.0085,1.79819375,1.0,1125.3461278293737,0.09120580567226097,1.3506887899105149,0.6599912656838277,0.2885771375,0.6078360096654936
0.009000000000000001,1.797975,1.0,1207.910721647929,0.09630342252161035,1.349441891019747,0.6831105576761742,0.28856795,0.6106197857160182
0.0095,1.79774375,1.0,1287.8815982671695,0.1013724451061349,1.3482622641686839,0.7041234127696874,0.2885582375,0.613244245395733
0.01,1.7975,1.0,1365.185563182732,0.10641303577156508,1.3471441473261825,0.7232394413477745,0.288548,0.6157236638302861
0.0105,1.79724375,1.0,1439.696646185066,0.11142535261599838,1.346083481467327,0.7406512956573373,0.2885372375,0.6180683158656068
0.011,1.796975,1.0,1511.3495229306952,0.11640955370259984,1.3450762200564208,0.7565334110891461,0.28852595000000003,0.6202882728047597
0.0115,1.79669375,1.0,1580.1349496579485,0.12136579709453452,1.344118316557767,0.7710425942460529,0.2885141375,0.6223934445454351
0.012,1.7964,1.0,1646.0737619664515,0.12629424006077977,1.3432059688882616,0.7843192229961672,0.28850180000000003,0.624393057778921
0.0125,1.79609375,1.0,1709.1934514460836,0.131195038797542,1.342335811071197,0.7964886448951526,0.2884889375,0.6262952565632199
0.013000000000000001,1.7957750000000001,1.0,1769.5169923500805,0.13606834770596904,1.3415049549172358,0.807662581039652,0.28847555,0.6281070336957167
0.0135,1.79544375,1.0,1827.0945767724372,0.14091432093029305,1.3407105612111299,0.8179403397726446,0.2884616375,0.6298351832882556
0.014,1.7951000000000001,1.0,1881.9967876033045,0.14573311195552066,1.3399498803513619,0.8274101754560319,0.2884472,0.6314862208198175
0.0145,1.79474375,1.0,1934.3035361614704,0.15052487429568764,1.3392203380381353,0.836150562146553,0.2884322375,0.6330662061903483
0.015,1.794375,1.0,1984.07204469799,0.15528975841181478,1.3385198408558034,0.8442314161915193,0.28841675,0.6345800935808722
0.0155,1.79399375,1.0,2031.3777850901624,0.1600279147649229,1.3378462953887194,0.8517149326040104,0.2884007375,0.6360327828192545
0.016,1.7936,1.0,2076.3081796982083,0.16473949338769764,1.3371976575954203,0.858656512139706,0.2883842,0.6374290169392911
0.0165,1.7931937500000001,1.0,2118.953498837542,0.1694246438212104,1.336572009108694,0.8651055889848347,0.2883671375,0.638773222846101
0.017,1.792775,1.0,2159.4097560858763,0.1740835156844083,1.3359675080540219,0.8711063218218341,0.28834955,0.6400696222320497
0.0175,1.7923437500000001,1.0,2197.7434901107836,0.17871625489982487,1.335382730521344,0.8766983079623588,0.2883314375,0.6413215053190293
0.018000000000000002,1.7919,1.0,2234.030610132576,0.1833230073899937,1.3348162526006,0.8819170031926189,0.2883128,0.6425321332732501
0.0185,1.79144375,1.0,2268.355617505735,0.1879039190774482,1.3342666503817302,0.8867942054897757,0.2882936375,0.6437047399316905
0.019,1.790975,1.0,2300.8032365433705,0.19245913493453712,1.3337325755503058,0.8913584969199042,0.28827395,0.644842372501784
0.0195,1.79049375,1.0,2331.4630948451286,0.19698880040896655,1.3332127000907918,0.895635599440723,0.2882537375,0.6459480117927424
0.02,1.79,1.0,2360.4149977395855,0.2014930593189123,1.3327058536064806,0.8996487299253064,0.288233,0.6470242824489256
0.0205,1.78949375,1.0,2387.7228536556536,0.20597205274704378,1.3322110723409395,0.9034188899550403,0.2882117375,0.6480733527234792
0.021,1.788975,1.0,2413.4550098962495,0.21042592177603048,1.3317273925377364,0.9069650659996641,0.28818995000000003,0.6490973757656714
0.021500000000000002,1.78844375,1.0,2437.683884500714,0.21485480748854183,1.331253850440439,0.9103044504016112,0.2881676375,0.6500984903328548
0.022,1.7879,1.0,2460.481011424825,0.21925885008238297,1.3307895264010252,0.9134526441909204,0.2881448,0.6510787283908974
0.0225,1.78734375,1.0,2481.9167822545664,0.2236381896322285,1.3303335432705037,0.916423827056244,0.28812143749999997,0.6520400197396501
0.023,1.786775,1.0,2502.0637616469135,0.22799296662715857,1.3298850312772597,0.9192309004292555,0.28809755,0.6529842670255148
0.0235,1.78619375,1.0,2520.9743116176305,0.2323233170592836,1.3294433370272762,0.9218856570260905,0.28807313749999996,0.6539129071694276
0.024,1.7856,1.0,2538.702902744245,0.23662937692071412,1.3290078071265368,0.9243988562235562,0.2880482,0.6548273687812105
0.0245,1.78499375,1.0,2555.3059383519785,0.24091128220356053,1.328577788181024,0.926780328835512,0.2880227375,0.6557290724300581
0.025,1.784375,1.0,2570.8415881650913,0.2451691688999334,1.3281526267967212,0.9290390699963966,0.28799675,0.6566194308877928
0.025500000000000002,1.78374375,1.0,2585.3609620289085,0.24940317094050637,1.3277317505479511,0.9311833342259527,0.2879702375,0.6574996801108914
0.026000000000000002,1.7831000000000001,1.0,2598.921438592831,0.2536134246932266,1.3273145413871836,0.9332206885483413,0.2879432,0.65837114475924
0.0265,1.78244375,1.0,2611.5760480626377,0.25780006472120304,1.3269004337224677,0.9351580923344053,0.2879156375,0.6592350332655055
0.027,1.781775,1.0,2623.3635038062803,0.26196322151372664,1.3264890051062275,0.9370019677471337,0.28788755,0.6600922498238067
0.0275,1.7810937500000001,1.0,2634.323405992249,0.26610302556008836,1.326079833090887,0.9387582294362263,0.2878589375,0.6609436940415157
0.028,1.7804,1.0,2644.4961656012056,0.2702196073495791,1.32567249522887,0.9404323313551141,0.2878298,0.6617902610057449
0.0285,1.77969375,1.0,2653.9229323939285,0.2743130973714899,1.3252665690726013,0.9420293086924849,0.2878001375,0.6626328413384525
0.029,1.778975,1.0,2662.6455268364202,0.2783836261151115,1.3248616321745046,0.9435538154812442,0.28776995,0.6634723212401686
0.029500000000000002,1.7782437500000001,1.0,2670.6978917973775,0.2824313200604758,1.3244573400493183,0.9450101675969669,0.2877392375,0.6643094211993656
0.03,1.7775,1.0,2678.1257289430073,0.28645631264587607,1.3240532448897158,0.9464023517539686,0.287708,0.6651450716723403
0.0305,1.77674375,1.0,2684.9601597616142,0.2904587305787037,1.323649037184696,0.9477340810340676,0.2876762375,0.66597991304024
0.031,1.775975,1.0,2691.22854028599,0.2944386985332901,1.3232444454023862,0.9490088066205012,0.28764395,0.6668145041980351
0.0315,1.7751937500000001,1.0,2696.9585554126015,0.2983963411839668,1.3228391980109124,0.9502297356581477,0.2876111375,0.6676494012361954
0.032,1.7744,1.0,2702.178188045718,0.3023317832050653,1.3224330234784016,0.9513998515262293,0.2875778,0.6684851574316852
0.0325,1.77359375,1.0,2706.9156898765646,0.3062451492709171,1.3220256502729808,0.9525219321919836,0.2875439375,0.6693223232342598
0.033,1.772775,1.0,2711.1995537965813,0.3101365640558537,1.3216168068627763,0.9535985668475422,0.28750955,0.6701614462480602
0.0335,1.7719437500000002,1.0,2715.051976053428,0.31400614779999547,1.321206281063804,0.9546321765870316,0.2874746375,0.671002949633803
0.034,1.7711000000000001,1.0,2718.4998418552486,0.31785402533150675,1.3207938195732223,0.9556250187551918,0.2874392,0.6718473384044098
0.0345,1.7702437500000001,1.0,2721.5755928831923,0.32168032569711,1.3203791200231807,0.9565791987632715,0.2874032375,0.6726952150930241
0.035,1.7693750000000001,1.0,2724.2960600059982,0.325485166877507,1.319962023506659,0.9574966987638462,0.28736675,0.6735468862038401
0.035500000000000004,1.76849375,1.0,2726.678181506175,0.32926866685339945,1.319542371116636,0.9583793744441471,0.2873297375,0.6744026564450192
0.036000000000000004,1.7676,1.0,2728.7389919153097,0.3330309436054891,1.3191200039460915,0.9592289645455719,0.2872922,0.6752628287035922
0.0365,1.76669375,1.0,2730.495611410351,0.33677211511447774,1.3186947630880046,0.9600470995628071,0.2872541375,0.676127704018752
0.037,1.765775,1.0,2731.965235768706,0.34049229936106706,1.318266489635355,0.9608353097016804,0.28721555,0.6769975815535345
0.0375,1.76484375,1.0,2733.1651268841847,0.34419161432595885,1.3178350246811217,0.9615950321664769,0.2871764375,0.677872758564894
0.038,1.7639,1.0,2734.1126038417565,0.3478701779898548,1.3174002093182844,0.9623276178400081,0.28713679999999997,0.6787535303721597
0.0385,1.76294375,1.0,2734.825034553416,0.3515281083334567,1.3169618846398221,0.9630343374131551,0.28709663750000003,0.6796401903238907
0.039,1.761975,1.0,2735.3106696560517,0.355165516759458,1.3165199748956298,0.9637163934374106,0.28705595,0.6805328619007331
0.0395,1.7609937500000001,1.0,2735.589662055719,0.35878252469836014,1.3160742965584433,0.9643749107775965,0.2870147375,0.6814318847419809
0.04,1.76,1.0,2735.6792749281244,0.36237924940869165,1.3156246926025101,0.9650109513741532,0.286973,0.6823375427919993
0.0405,1.7589937500000001,1.0,2735.5889145321908,0.3659558019292482,1.3151710775391314,0.9656255221281091,0.2869307375,0.6832499741161442
0.041,1.757975,1.0,2735.3280049004325,0.3695122932988255,1.3147133658796093,0.9662195734685965,0.28688795,0.6841693154870128
0.0415,1.75694375,1.0,2734.905984823227,0.37304883455621934,1.3142514721352452,0.966794003104686,0.2868446375,0.6850957023623445
0.042,1.7559,1.0,2734.3323049944624,0.3765655367402253,1.313785310817341,0.9673496594905413,0.28680079999999997,0.6860292688624514
0.0425,1.75484375,1.0,2733.616425319588,0.3800625108896391,1.313314796437198,0.9678873450285224,0.2867564375,0.6869701477471848
0.043000000000000003,1.753775,1.0,2732.767812385072,0.3835398680432565,1.3128398435061182,0.9684078190325248,0.28671155,0.6879184703924347
0.043500000000000004,1.75269375,1.0,2731.7959370910467,0.3869977192398732,1.3123603665354031,0.968911800471749,0.28666613750000003,0.6888743667661628
0.044,1.7516,1.0,2730.7102724446486,0.3904361755182848,1.3118762800363546,0.9693999705132105,0.2866202,0.6898379654039711
0.0445,1.75049375,1.0,2729.5145688171997,0.39385533970119835,1.3113875505372834,0.9698729777107318,0.2865737375,0.6908092900841543
0.045,1.7493750000000001,1.0,2728.2230719084314,0.3972553298890528,1.3108940491782952,0.9703314321354864,0.28652675,0.6917885528875121
0.0455,1.74824375,1.0,2726.842728071559,0.40063625321845053,1.3103957134090618,0.9707759161987292,0.2864792375,0.6927758325806109
0.046,1.7471,1.0,2725.3786817664122,0.4039982141947383,1.3098924970487211,0.9712069837876115,0.2864312,0.6937711743396313
0.0465,1.7459437500000001,1.0,2723.8360760488144,0.40734131732326295,1.30938435391641,0.9716251611333107,0.28638263750000004,0.6947746222950432
0.047,1.744775,1.0,2722.2200518109285,0.41066566710937125,1.3088712378312664,0.9720309484511901,0.28633355,0.6957862195171598
0.0475,1.74359375,1.0,2720.535747070186,0.41397136805840995,1.3083531026124269,0.9724248214687243,0.28628393750000003,0.696806008001563
0.048,1.7424,1.0,2718.788296303581,0.4172585246757259,1.3078299020790294,0.9728072328498458,0.2862338,0.6978340286543852
0.0485,1.74119375,1.0,2716.9828298313982,0.42052724146666587,1.3073015900502107,0.9731786135236383,0.2861831375,0.6988703212774625
0.049,1.739975,1.0,2715.1244732462383,0.4237776229365767,1.3067681203451087,0.973539373924625,0.28613195,0.6999149245533447
0.0495,1.73874375,1.0,2713.2182742459763,0.4270097730853251,1.3062294474451521,0.9738899051363084,0.2860802375,0.7009678747367245
0.05,1.7375,1.0,2711.267287290403,0.4302237737255931,1.3056855439591,0.9742305786285084,0.286028,0.7020291716021339
0.0505,1.73624375,1.0,2709.281015673984,0.4334197598707056,1.3051363236313605,0.974561750939233,0.2859752375,0.7030989285737808
0.051000000000000004,1.734975,1.0,2707.261774789874,0.4365978285274795,1.3045817656907415,0.9748837622025098,0.28592195,0.7041771301298159
0.051500000000000004,1.73369375,1.0,2705.2118772952813,0.439758076702732,1.3040218493660511,0.9751969371340786,0.2858681375,0.7052637599108613
0.052000000000000005,1.7324,1.0,2703.1336329746805,0.44290060140327986,1.3034565538860974,0.9755015858628682,0.2858138,0.7063588007129276
0.0525,1.73109375,1.0,2701.0293486127216,0.4460254996359401,1.302885858479688,0.9757980047106246,0.28575893750000003,0.707462234480301
0.053,1.729775,1.0,2698.9013278761495,0.4491328684075299,1.302309742375631,0.9760864769233406,0.28570355000000003,0.7085740422984046
0.0535,1.72844375,1.0,2696.751871205976,0.4522228047248661,1.3017281848027338,0.9763672733578594,0.2856476375,0.7096942043866306
0.054,1.7271,1.0,2694.583275718762,0.4552954055947657,1.3011411649898046,0.9766406531267561,0.2855912,0.7108227000911458
0.0545,1.7257437500000001,1.0,2692.3978351175906,0.45835076802404573,1.3005486621656515,0.9769068642043636,0.2855342375,0.7119595078776694
0.055,1.724375,1.0,2690.197839612484,0.46138898901952313,1.2999506555590823,0.977166143996593,0.28547675,0.7131046053242245
0.0555,1.72299375,1.0,2687.9855758508,0.4644101655880149,1.2993471243989045,0.9774187198769966,0.2854187375,0.7142579691138609
0.056,1.7216,1.0,2685.763326856615,0.46741439473633806,1.2987380479139266,0.9776648096913296,0.2853602,0.7154195750273487
0.0565,1.72019375,1.0,2683.5333719802256,0.47040177347130957,1.2981234053329558,0.977904622232716,0.28530113749999997,0.7165893979358487
0.057,1.718775,1.0,2681.2968922905866,0.47337239189723035,1.2975031859230255,0.9781383576448022,0.28524155,0.7177673927476076
0.0575,1.71734375,1.0,2679.0504401623366,0.47632631025157846,1.2968774214009338,0.9783662076770356,0.2851814375,0.7189534332344784
0.058,1.7159,1.0,2676.8051517165304,0.47926368187898827,1.2962460096778392,0.9785883569593694,0.2851208,0.7201476458863444
0.0585,1.71444375,1.0,2674.5616143233037,0.4821845945800712,1.2956089453576478,0.9788049823459362,0.2850596375,0.7213499726547805
0.059000000000000004,1.7129750000000001,1.0,2672.3204143671337,0.4850891361554386,1.2949662230442653,0.9790162536553475,0.28499795,0.722560354792732
0.059500000000000004,1.71149375,1.0,2670.082137248508,0.48797739440570187,1.2943178373415978,0.9792223340038602,0.2849357375,0.7237787328525663
0.06,1.71,1.0,2667.847367385391,0.4908494571314724,1.2936637828535509,0.979423380120247,0.284873,0.7250050466841279
0.0605,1.7084937500000001,1.0,2665.6166882158905,0.49370541213336155,1.2930040541840306,0.979619542643512,0.2848097375,0.7262392354327858
0.061,1.7069750000000001,1.0,2663.3906822016343,0.49654534721198074,1.2923386459369426,0.9798109664045064,0.28474595,0.7274812375374838
0.0615,1.7054437500000001,1.0,2661.1699308309485,0.4993693501679413,1.2916675527161927,0.979997790692435,0.2846816375,0.7287309907287849
0.062,1.7039,1.0,2658.9550146240767,0.5021775088018546,1.2909907691256868,0.9801801495071689,0.2846168,0.7299884320269173
0.0625,1.70234375,1.0,2656.7465131376484,0.5049699109143322,1.2903082897693305,0.9803581717982233,0.2845514375,0.7312534977398164
0.063,1.7007750000000001,1.0,2654.5450049706055,0.5077466443059854,1.2896201092510302,0.9805319816911988,0.28448555,0.732526123461165
0.0635,1.69919375,1.0,2652.3510677709046,0.5105077967774254,1.288926222174691,0.980701698702433,0.28441913750000003,0.7338062440684345
0.064,1.6976,1.0,2650.165278241794,0.5132534561292638,1.2882266231442194,0.9808674379425538,0.2843522,0.7350937937209188
0.0645,1.69599375,1.0,2647.988212150356,0.5159837101621119,1.2875213067635207,0.9810293103095934,0.2842847375,0.7363887058577724
0.065,1.694375,1.0,2645.8204443352047,0.5186986466765809,1.2868102676365012,0.981187422672262,0.28421675,0.7376909131960414
0.0655,1.69274375,1.0,2643.662548715578,0.5213983534732826,1.2860935003670664,0.9813418780439549,0.2841482375,0.739000347728697
0.066,1.6911,1.0,2641.515098301133,0.524082918352828,1.285370999559122,0.9814927757480238,0.2840792,0.7403169407226644
0.0665,1.6894437500000001,1.0,2639.3786652021354,0.5267524291158289,1.2846427598165742,0.9816402115748076,0.2840096375,0.7416406227168497
0.067,1.687775,1.0,2637.252440998377,0.529406972343294,1.2839087885011862,0.9817842784670862,0.28393955,0.7429713004202447
0.0675,1.68609375,1.0,2635.1369118593802,0.5320466272398279,1.2831690810109133,0.981925065046528,0.2838689375,0.7443089016563611
0.068,1.6844000000000001,1.0,2633.0334947114557,0.5346714758224038,1.2824236241229985,0.9820626566282351,0.2837978,0.7456533690600486
0.0685,1.68269375,1.0,2630.941722523692,0.5372816008693835,1.2816724220364288,0.9821971364531672,0.2837261375,0.7470046130871554
0.069,1.680975,1.0,2628.861291246194,0.5398770850510385,1.2809154774479785,0.9823285848301752,0.28365395,0.7483625463334639
0.0695,1.67924375,1.0,2626.7943806173466,0.5424580107839383,1.2801527700454498,0.9824570782389244,0.28358123749999997,0.7497271219255782
0.07,1.6775,1.0,2624.7402543446633,0.5450244597601065,1.279384306514825,0.9825826917730861,0.283508,0.7510982438559641
0.07050000000000001,1.67574375,1.0,2622.696953078276,0.5475765128047222,1.2786101048945717,0.9827054984744944,0.2834342375,0.7524757954420783
0.07100000000000001,1.673975,1.0,2620.6625205645214,0.5501142507429645,1.2778301832231576,0.9828255689519271,0.28335995,0.7538596597263607
0.07150000000000001,1.67219375,1.0,2618.618545822041,0.5526377533734032,1.2770447122682569,0.9829429783852778,0.2832851375,0.7552494496307358
0.07200000000000001,1.6704,1.0,2616.6219594430386,0.5551471022511114,1.2762531636178607,0.9830577679360979,0.2832098,0.7566460127267969
0.0725,1.66859375,1.0,2614.6477703968585,0.5576423758501616,1.2754557688708157,0.9831700112899197,0.2831339375,0.7580488501141192
0.073,1.666775898022947,1.0,2612.7131666974838,0.5601236525889506,1.2746527736718594,0.9832797804497883,0.28305758771696377,0.7594574423289362
0.0735,1.6649556362265803,1.0,2611.23835933712,0.5625910108858752,1.2738444236657291,0.9833871451891015,0.28298113672151637,0.7608712743213796
0.074,1.6631353744302135,1.0,2610.3136178084446,0.5650445291593319,1.2730309644971625,0.9834921731417002,0.28290468572606897,0.7622898355412921
0.0745,1.6613151126338468,1.0,2609.9070460970224,0.5674842847537244,1.2722126899411441,0.9835949319474242,0.2828282347306216,0.7637125364636688
0.075,1.65949485083748,1.0,2609.957169908374,0.5699103562309386,1.2713901703007486,0.9836954994142436,0.2827517837351742,0.7651383146177636
