Time [s],Phi [rad],STIM [ ],Fsee [N],Gamma [ ],Lcerel [ ],q [ ],Lmtc [m],fisomrel [ ]
0.0,1.8,1.0,18.573615189060916,0.0007932388454160974,1.3792723666098439,0.005161957233854874,0.288653,0.5413025252747711
0.0005,1.79999375,1.0,19.11991540005886,0.006397998711635809,1.3792097838708954,0.015257169560237198,0.2886527375,0.5414538897212653
0.001,1.799975,1.0,23.043445855864352,0.01197132030649545,1.378795075447735,0.039806008368312884,0.28865195,0.5424562844915332
0.0015,1.79994375,1.0,33.80092361195635,0.017513379974227545,1.377818375647109,0.07627093223070047,0.2886506375,0.5448127392327171
0.002,1.7999,1.0,58.886208794221986,0.023024353069161552,1.3760321648412874,0.12138283414170768,0.2886488,0.5491065401937973
0.0025,1.79984375,1.0,105.55137813017993,0.028504413961776366,1.3735372849535856,0.17179430395359063,0.28864643749999996,0.5550698238185707
0.003,1.7997750000000001,1.0,171.6214393394506,0.03395373604682438,1.3708216075822313,0.2247079683932428,0.28864354999999997,0.561515737723628
0.0035,1.79969375,1.0,249.5617257363355,0.03937249174390251,1.3682233088423479,0.27798603973509656,0.2886401375,0.5676390141109467
0.004,1.7996,1.0,334.00810749540335,0.0447608525057301,1.3658270983529022,0.3300447853337044,0.2886362,0.5732478766284952
0.0045000000000000005,1.7994937500000001,1.0,422.18286454984496,0.0501189887974308,1.3636220019416612,0.37979477500031894,0.2886317375,0.5783770398722532
0.005,1.799375,1.0,512.5521416327373,0.05544707025272731,1.361580959901783,0.42656729044379593,0.28862675,0.5830969688664069
0.0055,1.79924375,1.0,604.0022737125977,0.06074526531273619,1.359682134613971,0.4700218166403842,0.2886212375,0.587464164666892
0.006,1.7991000000000001,1.0,695.7150015929354,0.06601374173184964,1.3579076788545774,0.5100523716086887,0.2886152,0.591524532579492
0.006500000000000001,1.79894375,1.0,786.9716920822108,0.07125266612579888,1.3562447283904862,0.5467118160354194,0.2886086375,0.5953115226211376
0.007,1.798775,1.0,877.2043514386178,0.07646220432147818,1.3546824931756856,0.5801515977075962,0.28860155,0.5988530900340554
0.0075,1.79859375,1.0,965.9333597744117,0.08164252116194137,1.3532122369811739,0.6105794499415647,0.2885939375,0.6021719248939894
0.008,1.7984,1.0,1052.764724095246,0.08679378030155233,1.3518265303454822,0.6382297084140804,0.2885858,0.6052872849013378
0.0085,1.79819375,1.0,1137.4159602716818,0.09191614524424957,1.3505183835838306,0.6633435111989165,0.2885771375,0.6082170368934268
0.009000000000000001,1.797975,1.0,1219.6427110314069,0.09700977781264482,1.3492819753923768,0.6861571180787046,0.28856795,0.6109760894961705
0.0095,1.79774375,1.0,1299.265016462031,0.10207483886537333,1.3481119618787782,0.7068943682186916,0.2885582375,0.6135780038166712
0.01,1.7975,1.0,1376.1682979004302,0.10711148873271231,1.3470032732142452,0.725762820712637,0.288548,0.6160354859011477
0.0105,1.79724375,1.0,1450.2886969818921,0.11211988759332353,1.3459511584669186,0.7429522317908122,0.2885372375,0.618360318735322
0.011,1.796975,1.0,1521.5622856812934,0.11710019317241588,1.344951677910801,0.7586346073264779,0.28852595000000003,0.6205623083753922
0.0115,1.79669375,1.0,1589.9688259611228,0.1220525628230697,1.3440010184787539,0.7729645016241472,0.2885141375,0.6226508268035078
0.012,1.7964,1.0,1655.5198208143531,0.12697715332807274,1.3430955631461559,0.7860801772550524,0.28850180000000003,0.624634676496882
0.0125,1.79609375,1.0,1718.2608821536915,0.1318741214954105,1.3422317948283302,0.7981049096543952,0.2884889375,0.6265223169916445
0.013000000000000001,1.7957750000000001,1.0,1778.2202588694531,0.1367436216149887,1.3414068232309817,0.8091486144180582,0.28847555,0.6283207303932692
0.0135,1.79544375,1.0,1835.4395324590316,0.1415858072467092,1.340617955908877,0.819309042841141,0.2884616375,0.630036377909625
0.014,1.7951000000000001,1.0,1889.9861102351294,0.1464008317932628,1.3398625173146586,0.8286730365041519,0.2884472,0.6316756037134675
0.0145,1.79474375,1.0,1941.940063290548,0.1511888479336092,1.3391379635072254,0.8373177997369058,0.2884322375,0.6332443932020788
0.015,1.794375,1.0,1991.3792801606385,0.15595000786802998,1.338442008094015,0.8453120539514601,0.28841675,0.6347481095576873
0.0155,1.79399375,1.0,2038.3693408308204,0.16068446119237328,1.337772692874814,0.8527170457107183,0.2884007375,0.6361913518753082
0.016,1.7936,1.0,2082.991680777277,0.16539235750248726,1.3371280596494082,0.8595873233619806,0.2883842,0.637578671546636
0.0165,1.7931937500000001,1.0,2125.332312003043,0.17007384549481944,1.3365062523996718,0.8659715610992003,0.2883671375,0.6389143561732411
0.017,1.792775,1.0,2165.4881136300955,0.17472907468026985,1.3359054353309674,0.8719132314975819,0.28834955,0.6402026100609479
0.0175,1.7923437500000001,1.0,2203.5476268432467,0.17935819307239342,1.335323974814194,0.8774512678445423,0.2883314375,0.6414471680956944
0.018000000000000002,1.7919,1.0,2239.577841702602,0.18396134564229666,1.3347605532963704,0.8826206233475908,0.2883128,0.6426510585354207
0.0185,1.79144375,1.0,2273.6538633684368,0.18853867736108604,1.3342138532245147,0.8874526512941984,0.2882936375,0.6438172841607863
0.019,1.790975,1.0,2305.8582394804275,0.19309033319986815,1.3336825570456452,0.8919755215083178,0.28827395,0.6449488237355859
0.0195,1.79049375,1.0,2336.275858857003,0.19761645751261298,1.3331653910959576,0.8962145952237663,0.2882537375,0.6460485401016507
0.02,1.79,1.0,2364.9892038010494,0.20211719405290374,1.3326611648088178,0.9001927522626734,0.288233,0.6471190989414559
0.0205,1.78949375,1.0,2392.0820587009434,0.20659268666767155,1.3321687270975946,0.9039306588949491,0.2882117375,0.6481630635789659
0.021,1.788975,1.0,2417.615258069578,0.2110430753681188,1.331687194951317,0.9074470598998906,0.28818995000000003,0.6491824129634154
0.021500000000000002,1.78844375,1.0,2441.653461258271,0.21546850016544777,1.3312156853590138,0.9107589320317583,0.2881676375,0.6501791127938736
0.022,1.7879,1.0,2464.2648370756337,0.2198691010708608,1.3307533153097144,0.9138816751622693,0.2881448,0.6511551161085225
0.0225,1.78734375,1.0,2485.5207656935618,0.22424501809556022,1.330299201792448,0.9168292805720679,0.28812143749999997,0.6521123638242083
0.023,1.786775,1.0,2505.4796305988325,0.22859638815089983,1.3298526129022825,0.9196145066811526,0.28809755,0.6530524673518399
0.0235,1.78619375,1.0,2524.2258331444964,0.23292335323344268,1.3294125937733408,0.9222489406424976,0.28807313749999996,0.6539774970137755
0.024,1.7856,1.0,2541.8071506996093,0.2372260482478796,1.3289785585225513,0.9247432211114675,0.2880482,0.6548887373482917
0.0245,1.78499375,1.0,2558.2728752276635,0.24150460804627302,1.3285499238754863,0.9271070706680781,0.2880227375,0.6557874602085847
0.025,1.784375,1.0,2573.673940535335,0.24575916748068544,1.3281261065577183,0.9293493868529195,0.28799675,0.6566749304696202
0.025500000000000002,1.78374375,1.0,2588.062783199182,0.24998986140317933,1.3277065232948195,0.9314783234385876,0.2879702375,0.6575524062181821
0.026000000000000002,1.7831000000000001,1.0,2601.4930726786233,0.2541968246003412,1.3272905921005436,0.9335013628830665,0.2879432,0.658421136232384
0.0265,1.78244375,1.0,2614.0120997045606,0.25838018796075163,1.3268778018081966,0.9354253899551151,0.2879156375,0.6592822151946471
0.027,1.781775,1.0,2625.677440083983,0.2625400894440534,1.3264675557727559,0.9372567287301452,0.28788755,0.6601369101650592
0.0275,1.7810937500000001,1.0,2636.525936253963,0.2666766584008422,1.3260594587312384,0.9390012316047204,0.2878589375,0.6609860630481245
0.028,1.7804,1.0,2646.595200797533,0.270790024181714,1.3256531154206606,0.9406642959822027,0.2878298,0.6618305115332205
0.0285,1.77969375,1.0,2655.923549871228,0.2748803161372646,1.3252481305780388,0.9422509056095529,0.2878001375,0.6626710891437851
0.029,1.778975,1.0,2664.54994009596,0.2789476636180899,1.3248441089403902,0.9437656676604793,0.28776995,0.6635086252765432
0.029500000000000002,1.7782437500000001,1.0,2672.5139089123954,0.2829921959747857,1.3244406552447308,0.9452128460489553,0.2877392375,0.6643439452307709
0.03,1.7775,1.0,2679.8475251333593,0.2870140387487401,1.3240374475537904,0.9465963998432604,0.287708,0.6651777186952313
0.0305,1.77674375,1.0,2686.5857842007617,0.29101332071574465,1.323634141071865,0.9479199992201437,0.2876762375,0.6660106592240949
0.031,1.775975,1.0,2692.774822722564,0.2949901762051569,1.323230292727112,0.949187041170072,0.28764395,0.666843679411816
0.0315,1.7751937500000001,1.0,2698.4380509920516,0.29894472792433746,1.3228256709213766,0.9504007057905465,0.2876111375,0.6676772518946527
0.032,1.7744,1.0,2703.5991486794014,0.302877098580647,1.3224200440565046,0.9515639516611558,0.2875778,0.6685118469088063
0.0325,1.77359375,1.0,2708.282040411449,0.30678741088144607,1.322013180534341,0.9526795339827199,0.2875439375,0.6693479322772895
0.033,1.772775,1.0,2712.510872539052,0.3106757875340954,1.3216048487567313,0.9537500210227667,0.28750955,0.6701859733933673
0.0335,1.7719437500000002,1.0,2716.3099910953138,0.31454235124595553,1.3211948171255212,0.954777809043543,0.2874746375,0.6710264332005835
0.034,1.7711000000000001,1.0,2719.7039209417303,0.31838722472438713,1.3207828540425561,0.9557651358687017,0.2874392,0.6718697721693627
0.0345,1.7702437500000001,1.0,2722.717346104513,0.3222105306767508,1.320368727909681,0.9567140932272065,0.2874032375,0.672716448270194
0.035,1.7693750000000001,1.0,2725.375091299421,0.3260123918104072,1.3199522071287417,0.9576266379975216,0.28736675,0.6735669169433889
0.035500000000000004,1.76849375,1.0,2727.6927285131155,0.32979292300555096,1.319533145355249,0.9585046095572155,0.2873297375,0.6744214573322108
0.036000000000000004,1.7676,1.0,2729.699180450357,0.33355225329183924,1.3191112757459569,0.9593497224404156,0.2872922,0.6752805921294256
0.0365,1.76669375,1.0,2731.4112804939678,0.3372905007515523,1.318686442217137,0.9601635933683031,0.2872541375,0.6761446159023707
0.037,1.765775,1.0,2732.843408501639,0.34100778117259645,1.3182585116204038,0.9609477415584178,0.28721555,0.6770137748123894
0.0375,1.76484375,1.0,2734.010004425462,0.34470421034287785,1.3178273508073712,0.9617035940415786,0.2871764375,0.6778883133889291
0.038,1.7639,1.0,2734.925560986203,0.34837990405030267,1.3173928266296542,0.9624324922730492,0.28713679999999997,0.6787684745026732
0.0385,1.76294375,1.0,2735.604616740774,0.35203497808277706,1.3169548059388665,0.963135698199802,0.28709663750000003,0.6796544993375494
0.039,1.761975,1.0,2736.06174954231,0.35566954822820723,1.3165131555866225,0.9638143998340671,0.28705595,0.6805466273616023
0.0395,1.7609937500000001,1.0,2736.311570394206,0.35928373027449945,1.3160677424245368,0.9644697163782294,0.2870147375,0.6814450962967367
0.04,1.76,1.0,2736.3687176961967,0.36287764000955974,1.3156184333042238,0.9651027029416147,0.286973,0.6823501420873317
0.0405,1.7589937500000001,1.0,2736.239767626768,0.3664513817331216,1.3151651684695365,0.9657143592694669,0.2869307375,0.6832618513506655
0.041,1.757975,1.0,2735.943466320546,0.37000508084430056,1.3147077778451037,0.9663056233189014,0.28688795,0.6841805311345562
0.0415,1.75694375,1.0,2735.4935520583235,0.37353885489104016,1.3142461369387008,0.966877383579467,0.2868446375,0.6851063948313243
0.042,1.7559,1.0,2734.897709108868,0.3770528122257252,1.3137801763162942,0.9674304829214802,0.28680079999999997,0.6860395438485821
0.0425,1.75484375,1.0,2734.163630513374,0.3805470612007403,1.3133098265438503,0.9679657185453165,0.2867564375,0.6869800784153777
0.043000000000000003,1.753775,1.0,2733.2990160983727,0.3840217101684702,1.3128350181873356,0.968483844915322,0.28671155,0.6879280975629126
0.043500000000000004,1.75269375,1.0,2732.3115705959326,0.38747686748129956,1.3123556818127164,0.968985576476731,0.28666613750000003,0.6888836991049523
0.044,1.7516,1.0,2731.2090018700255,0.39091264149161314,1.3118717479859596,0.9694715901736617,0.2866202,0.6898469796179276
0.0445,1.75049375,1.0,2729.99901925057,0.39432914055179563,1.3113831472730313,0.9699425277845765,0.2865737375,0.6908180344207325
0.045,1.7493750000000001,1.0,2728.6893319736478,0.39772647301423175,1.3108898102398983,0.9703989980901184,0.28652675,0.6917969575542093
0.0455,1.74824375,1.0,2727.287647729065,0.40110474723130624,1.3103916674525267,0.9708415788868702,0.2864792375,0.692783841760332
0.046,1.7471,1.0,2725.801671314807,0.4044640715554037,1.309888649476883,0.9712708188593766,0.2864312,0.6937787784610762
0.0465,1.7459437500000001,1.0,2724.239103397993,0.40780455433890894,1.3093806868789342,0.9716872393216798,0.28638263750000004,0.6947818577369863
0.047,1.744775,1.0,2722.602575559208,0.411126287716632,1.3088677563111366,0.9720913370402516,0.28633355,0.6957930775233556
0.0475,1.74359375,1.0,2720.902317440244,0.4144293947218026,1.3083497652537137,0.9724835835861992,0.28628393750000003,0.6968125710075881
0.048,1.7424,1.0,2719.144019035474,0.41771398313896224,1.3078266624364658,0.9728644286095651,0.2862338,0.6978403886901343
0.0485,1.74119375,1.0,2717.331233779632,0.4209801533738656,1.3072984160052292,0.9732343006264348,0.2861831375,0.6988765418388938
0.049,1.739975,1.0,2715.4675121888226,0.42422800583226744,1.3067649941058403,0.9735936078152033,0.28613195,0.6999210407884048
0.0495,1.73874375,1.0,2713.556401517872,0.42745764091992267,1.3062263648841361,0.9739427391640875,0.2860802375,0.700973894929362
0.05,1.7375,1.0,2711.601445440022,0.430669159042586,1.3056824964859528,0.9742820655438399,0.286028,0.7020351126980722
0.0505,1.73624375,1.0,2709.606183748688,0.4338626606060123,1.3051333570571269,0.9746119407111744,0.2859752375,0.7031047015658416
0.051000000000000004,1.734975,1.0,2707.574152082111,0.43703824601595637,1.3045789147434952,0.974932702247954,0.28592195,0.7041826680282994
0.051500000000000004,1.73369375,1.0,2705.5088816704074,0.44019601567817296,1.3040191376908938,0.975244672440788,0.2858681375,0.7052690175946599
0.052000000000000005,1.7324,1.0,2703.4138991047867,0.44333606999841685,1.3034539940451597,0.9755481591053119,0.2858138,0.7063637547769138
0.0525,1.73109375,1.0,2701.2927261300892,0.44645850938244286,1.302883451952129,0.975843456359078,0.28575893750000003,0.7074668830789616
0.053,1.729775,1.0,2699.148879458736,0.44956343423600587,1.3023074795576384,0.9761308453466844,0.28570355000000003,0.7085784049856763
0.0535,1.72844375,1.0,2696.985870608129,0.4526509449648606,1.3017260450075245,0.9764105949204711,0.2856476375,0.7096983219519046
0.054,1.7271,1.0,2694.798757213019,0.4557211132624769,1.3011391937345256,0.9766829641380819,0.2855912,0.7108264859595659
0.0545,1.7257437500000001,1.0,2692.5978214148654,0.4587740678168857,1.3005468319176687,0.9769481981714134,0.2855342375,0.7119630160212136
0.055,1.724375,1.0,2690.387463634459,0.4618099122486338,1.2999489194341687,0.9772065324678212,0.28547675,0.7131079264358247
0.0555,1.72299375,1.0,2688.1688434141984,0.46482873835423677,1.2993454457799818,0.9774581931541051,0.2854187375,0.7142611737588775
0.056,1.7216,1.0,2685.943118454805,0.4678306379302101,1.2987364004510649,0.9777033969068195,0.2853602,0.7154227137931792
0.0565,1.72019375,1.0,2683.711444597022,0.4708157027730693,1.2981217729433752,0.9779423514224358,0.28530113749999997,0.716592501585136
0.057,1.718775,1.0,2681.474975806178,0.4737840246793298,1.297501552752869,0.9781752558604061,0.28524155,0.7177704914210201
0.0575,1.71734375,1.0,2679.234864157959,0.47673569544550715,1.2968757293755038,0.9784023012608993,0.2851814375,0.7189566368232228
0.058,1.7159,1.0,2676.992259828062,0.4796708068681168,1.2962442923072357,0.9786236709388497,0.2851208,0.7201508905465086
0.0585,1.71444375,1.0,2674.7483110834164,0.4825894507436744,1.2956072310440216,0.9788395408558345,0.2850596375,0.7213532045742552
0.059000000000000004,1.7129750000000001,1.0,2672.5041642759784,0.48549171886869524,1.2949645350818186,0.9790500799711972,0.28499795,0.7225635301146893
0.059500000000000004,1.71149375,1.0,2670.2609638392987,0.48837770303969497,1.2943161939165835,0.9792554505737275,0.2849357375,0.7237818175971175
0.06,1.71,1.0,2668.0198522870182,0.491247495053189,1.293662197044273,0.9794558085951169,0.284873,0.7250080166681461
0.0605,1.7084937500000001,1.0,2665.7819702144243,0.4941011867056929,1.2930025339608437,0.9796513039063253,0.2848097375,0.7262420761878974
0.061,1.7069750000000001,1.0,2663.548456301904,0.49693886979372215,1.2923371941622528,0.979842080597913,0.28474595,0.727483944226216
0.0615,1.7054437500000001,1.0,2661.320447320971,0.4997606361137923,1.2916661671444567,0.9800282772453252,0.2846816375,0.7287335680588707
0.062,1.7039,1.0,2659.099078143389,0.5025665774624187,1.2909894424034125,0.980210027160037,0.2846168,0.7299908941637471
0.0625,1.70234375,1.0,2656.884378391854,0.5053567654031841,1.290307019600327,0.9803874576214467,0.2845514375,0.731255849396605
0.063,1.7007750000000001,1.0,2654.676898102242,0.5081312970742483,1.2896188935994546,0.9805606928413326,0.28448555,0.7325283688463897
0.0635,1.69919375,1.0,2652.478106256236,0.5108902816157095,1.2889250507834256,0.980729852861826,0.28441913750000003,0.7338084025184788
0.064,1.6976,1.0,2650.2882952718574,0.5136338021175529,1.288225488365726,0.9808950519293613,0.2843522,0.7350958796439373
0.0645,1.69599375,1.0,2648.1077571041606,0.5163619416697647,1.287520203559842,0.9810564001212843,0.2842847375,0.7363907287784024
0.065,1.694375,1.0,2645.9367832497555,0.5190747833623304,1.2868091935792594,0.9812140035266491,0.28421675,0.737692877801068
0.0655,1.69274375,1.0,2643.775664751537,0.5217724102852356,1.2860924556374642,0.9813679644179022,0.2841482375,0.7390022539136658
0.066,1.6911,1.0,2641.624692203938,0.5244549055284661,1.2853699869479422,0.9815183814139761,0.2840792,0.7403187836394491
0.0665,1.6894437500000001,1.0,2639.484155758134,0.5271223521820076,1.2846417847241796,0.9816653496352785,0.2840096375,0.7416423928221743
0.067,1.687775,1.0,2637.354345127059,0.5297748333358459,1.2839078461796622,0.9818089608510348,0.28393955,0.7429730066250806
0.0675,1.68609375,1.0,2635.235549591405,0.5324124320799666,1.2831681685278762,0.9819493036194107,0.2838689375,0.7443105495298734
0.068,1.6844000000000001,1.0,2633.128058005177,0.5350352315043555,1.2824227489823072,0.9820864634208197,0.2837978,0.7456549453357038
0.0685,1.68269375,1.0,2631.032158801393,0.5376433146989982,1.2816715847564417,0.9822205227847872,0.2837261375,0.7470061171581464
0.069,1.680975,1.0,2628.948139998433,0.5402367647538805,1.2809146730637653,0.982351561410728,0.28365395,0.748363987428182
0.0695,1.67924375,1.0,2626.87628920608,0.542815664758988,1.2801520111177638,0.9824796562829682,0.28358123749999997,0.7497284778911746
0.07,1.6775,1.0,2624.8168936319616,0.5453800978043065,1.2793835961319238,0.9826048817803213,0.283508,0.7510995096058486
0.07050000000000001,1.67574375,1.0,2622.770240088353,0.5479301469798217,1.2786094253197307,0.9827273097805131,0.2834342375,0.7524770029432699
0.07100000000000001,1.673975,1.0,2620.736614998477,0.5504658953755194,1.2778294958946705,0.9828470097597287,0.28335995,0.7538608775858203
0.07150000000000001,1.67219375,1.0,2618.690352521803,0.552987424198992,1.2770440459016152,0.982964059750737,0.2832851375,0.7552506270104072
0.07200000000000001,1.6704,1.0,2616.672717081166,0.5554948108699621,1.2762526924060296,0.9830785069508838,0.2832098,0.7566468429158789
0.0725,1.66859375,1.0,2614.700636404542,0.5579881343851203,1.2754552779006512,0.9831904071083521,0.2831339375,0.7580497126169485
0.073,1.6667760411285406,1.0,2612.7869024232787,0.5604674725264988,1.274652153259442,0.9832998367789049,0.2830575937273987,0.7594585290495919
0.0735,1.664956142913867,1.0,2611.3441515803934,0.5629329030761294,1.273843669356364,0.9834068701848743,0.28298115800238244,0.760872591688273
0.074,1.6631362446991933,1.0,2610.4406208818773,0.5653845038160443,1.2730301770653794,0.9835115793112574,0.2829047222773661,0.7622912066697947
0.0745,1.6613163464845195,1.0,2610.0382830403096,0.5678223525282756,1.2722120272604505,0.983614033997352,0.2828282865523498,0.7637136869092978
0.075,1.659496448269846,1.0,2610.0992742110375,0.5702465269948552,1.2713895708155394,0.9837143020241624,0.28275185082733356,0.7651393522084099
