Time [s],Phi [rad],STIM [ ],Fsee [N],Gamma [ ],Lcerel [ ],q [ ],Lmtc [m],fisomrel [ ]
0.0,1.8,1.0,17.967412890593053,4.8524181432965905e-05,1.379339717682326,0.005000619768078015,0.288653,0.541139600091496
0.0005,1.79999375,1.0,18.289763001175885,0.005657461307956824,1.3793009419055529,0.01304781444847513,0.2886527375,0.5412334039207922
0.001,1.799975,1.0,21.660140545492922,0.011234936731932503,1.3789340391054044,0.03580961565946474,0.28865195,0.5421205166047955
0.0015,1.79994375,1.0,31.171999336929098,0.0167811269295339,1.378037455873444,0.07087672843352684,0.2886506375,0.544284700117136
0.002,1.7999,1.0,53.80677796415573,0.02229620738521749,1.3763535896207266,0.11504344657436902,0.2886488,0.5483353813124799
0.0025,1.79984375,1.0,97.49802713144055,0.027780352599563865,1.3739169176333934,0.16492884807277353,0.28864643749999996,0.5541649831235399
0.003,1.7997750000000001,1.0,161.452622633113,0.033233736096627386,1.3711958499967378,0.21764557642055016,0.28864354999999997,0.5606302326058652
0.0035,1.79969375,1.0,238.24267464038215,0.03865653042381809,1.3685675151106607,0.27097602143093785,0.2886401375,0.5668303150674521
0.004,1.7996,1.0,322.0622865240815,0.044048907162606024,1.3661403267715515,0.32326739905197877,0.2886362,0.572516776503895
0.0045000000000000005,1.7994937500000001,1.0,409.8847342666523,0.049411036933727844,1.3639083366668965,0.37336825608274754,0.2886317375,0.5777127630877957
0.005,1.799375,1.0,500.04329007699357,0.0547430893884769,1.3618449636650096,0.4205597008746771,0.28862675,0.582487953667946
0.0055,1.79924375,1.0,591.4259628154898,0.060045233254010795,1.3599264213543134,0.4644627801439322,0.2886212375,0.5869036071781801
0.006,1.7991000000000001,1.0,683.154630318839,0.06531763628173443,1.3581348471682424,0.5049456227006854,0.2886152,0.5910058394253179
0.006500000000000001,1.79894375,1.0,774.5165102305459,0.07056046529749316,1.35645641166702,0.5420436360895378,0.2886086375,0.5948304419052042
0.007,1.798775,1.0,864.9164113502229,0.0757738861939679,1.354880210640697,0.5758980866599074,0.28860155,0.5984057273457097
0.0075,1.79859375,1.0,953.8595051994246,0.08095806383395586,1.353397301548911,0.6067112293345901,0.2885939375,0.6017549338582531
0.008,1.7984,1.0,1040.968965785696,0.0861131625471304,1.3519996591155736,0.6347149151591199,0.2885858,0.604898724434056
0.0085,1.79819375,1.0,1125.9136538983882,0.09123934506468163,1.3506807569545114,0.6601505192934193,0.2885771375,0.6078539754522032
0.009000000000000001,1.797975,1.0,1208.4553724032482,0.09633677360887358,1.3494344498857995,0.6832553368297809,0.28856795,0.6106363687277062
0.0095,1.79774375,1.0,1288.4355323125721,0.10140561000735566,1.3482549348977526,0.704254908050483,0.2885582375,0.6132605239775577
0.01,1.7975,1.0,1365.7059783305183,0.10644601407686122,1.3471374592674106,0.7233592713083753,0.288548,0.6157384705783382
0.0105,1.79724375,1.0,1440.1776624701972,0.11145814524620663,1.3460774617598077,0.7407606803911877,0.2885372375,0.618081602238166
0.011,1.796975,1.0,1511.8154890270634,0.11644216237823328,1.3450705285691424,0.7566332762906485,0.28852595000000003,0.6203007981920047
0.0115,1.79669375,1.0,1580.6049186481457,0.12139822353106623,1.3441127024957893,0.7711338125660894,0.2885141375,0.6224057652456774
0.012,1.7964,1.0,1646.5311205550345,0.12632648479977665,1.3432006159848497,0.7844027632433578,0.28850180000000003,0.6244047741952159
0.0125,1.79609375,1.0,1709.618885441714,0.13122710213801814,1.342330924582077,0.796565377731695,0.2884889375,0.6263059249833558
0.013000000000000001,1.7957750000000001,1.0,1769.9184427109387,0.1361002308016802,1.3415004231537901,0.8077331533869861,0.28847555,0.6281169036536425
0.0135,1.79544375,1.0,1827.4940422117074,0.14094602600159375,1.340706123466174,0.8180052709063591,0.2884616375,0.6298448259969779
0.014,1.7951000000000001,1.0,1882.3870401471113,0.14576463989184285,1.3399456086471828,0.8274700485852052,0.2884472,0.631495482020078
0.0145,1.79474375,1.0,1934.6625430313218,0.15055622462651141,1.3392164618247717,0.8362059493051665,0.2884322375,0.6330745919230969
0.015,1.794375,1.0,1984.4030720133137,0.1553209320113702,1.3385163118337091,0.8442827325522543,0.28841675,0.6345877124442061
0.0155,1.79399375,1.0,2031.6957863368136,0.16005891324700883,1.3378429449332074,0.8517625090927621,0.2884007375,0.636040001782072
0.016,1.7936,1.0,2076.6323404950813,0.1647703193662336,1.3371942793981086,0.858700633300867,0.2883842,0.637436281700224
0.0165,1.7931937500000001,1.0,2119.2776621208523,0.16945529807546827,1.336568665050099,0.8651465882296082,0.2883671375,0.6387804008494715
0.017,1.792775,1.0,2159.708842924708,0.17411399708113653,1.3359644517108649,0.8711445509579655,0.28834955,0.640076170875695
0.0175,1.7923437500000001,1.0,2198.0141189707824,0.17874656408966214,1.3353799892020926,0.8767340198012499,0.2883314375,0.6413273687589423
0.018000000000000002,1.7919,1.0,2234.278084622548,0.18335314541329045,1.3348137662565203,0.8819504008202735,0.2883128,0.6425374423632788
0.0185,1.79144375,1.0,2268.5991939653413,0.18793388887687176,1.3342642217846814,0.8868254371191209,0.2882936375,0.6437099172024277
0.019,1.790975,1.0,2301.050813685429,0.19248893864840783,1.3337301245323039,0.8913877247018405,0.28827395,0.6448475892208321
0.0195,1.79049375,1.0,2331.702693696932,0.19701843773592984,1.3332103437034533,0.8956630154415575,0.2882537375,0.6459530192889877
0.02,1.79,1.0,2360.6303702777095,0.201522529147469,1.3327037485021958,0.8996745160768918,0.288233,0.6470287491472821
0.0205,1.78949375,1.0,2387.914679778736,0.20600135589105648,1.3322092081325971,0.9034431740156217,0.2882117375,0.648077302397681
0.021,1.788975,1.0,2413.6265983888443,0.21045505892450142,1.3317257339127087,0.9069879579149056,0.28818995000000003,0.6491008847578916
0.021500000000000002,1.78844375,1.0,2437.8542353223306,0.21488378214915432,1.3312522119823746,0.9103260197604108,0.2881676375,0.6501019517116835
0.022,1.7879,1.0,2460.6589396391637,0.21928766463937382,1.3307878230100645,0.9134729741123552,0.2881448,0.6510823219013464
0.0225,1.78734375,1.0,2482.0985632332554,0.2236668444357256,1.3303318105270947,0.9164430159870273,0.28812143749999997,0.652043670133583
0.023,1.786775,1.0,2502.233688006968,0.22802145957877523,1.3298834180647812,0.91924905857173,0.28809755,0.6529876609881914
0.0235,1.78619375,1.0,2521.1273970430293,0.23235164810908832,1.32944188915444,0.9219028667142276,0.28807313749999996,0.653915949203934
0.024,1.7856,1.0,2538.840238773531,0.23665754716720747,1.3290065127517294,0.9244151827342025,0.2880482,0.6548300847160271
0.0245,1.78499375,1.0,2555.430648359797,0.2409392933330925,1.3285766166280424,0.926795828804589,0.2880227375,0.6557315274402693
0.025,1.784375,1.0,2570.968538194837,0.24519702482451916,1.3281514378095594,0.929053777435168,0.28799675,0.6566219192076496
0.025500000000000002,1.78374375,1.0,2585.496899690832,0.24943087438849512,1.3277304809656134,0.9311972926276476,0.2879702375,0.6575023336927541
0.026000000000000002,1.7831000000000001,1.0,2599.0599909537686,0.25364097477202796,1.3273132507655374,0.9332339561744838,0.2879432,0.6583738388816851
0.0265,1.78244375,1.0,2611.7032311403445,0.2578274587221252,1.3268992518786642,0.9351707331844763,0.2879156375,0.6592374971976074
0.027,1.781775,1.0,2623.473100254454,0.26199045898579465,1.3264879889743268,0.9370140305161576,0.28788755,0.6600943656106499
0.0275,1.7810937500000001,1.0,2634.4170443837656,0.2661301083100438,1.3260789667218584,0.9387697489626345,0.2878589375,0.6609454957321593
0.028,1.7804,1.0,2644.5780120705454,0.2702465353605948,1.3256717394191084,0.9404433355663665,0.2878298,0.6617918308154731
0.0285,1.77969375,1.0,2654.004051836367,0.2743398759332497,1.325265821308068,0.942039816375046,0.2878001375,0.6626343925025129
0.029,1.778975,1.0,2662.728070901766,0.27841025738554215,1.3248608725251207,0.9435638543126024,0.28776995,0.6634738950963561
0.029500000000000002,1.7782437500000001,1.0,2670.783365686636,0.28245780696871725,1.3244565546238363,0.9450197642939625,0.2877392375,0.6643110464337678
0.03,1.7775,1.0,2678.2037266181774,0.28648265193402017,1.324052529157784,0.9464115435109153,0.287708,0.6651465508496286
0.0305,1.77674375,1.0,2685.023392306714,0.2904849195326963,1.3236484576805327,0.9477428988612192,0.2876762375,0.6659811091869019
0.031,1.775975,1.0,2691.2770062599934,0.29446473701599063,1.3232440017456522,0.9490172716854771,0.28764395,0.6668154187992884
0.0315,1.7751937500000001,1.0,2696.992837340441,0.298422227239759,1.3228388845278376,0.9502378664139653,0.2876111375,0.6676500466735381
0.032,1.7744,1.0,2702.1987540069154,0.302357515122667,1.3224328355992583,0.9514076653813485,0.2875778,0.6684855437736661
0.0325,1.77359375,1.0,2706.938888627188,0.306270737477256,1.3220254385277297,0.9525294316402593,0.2875439375,0.6693227581027532
0.033,1.772775,1.0,2711.233175145591,0.3101620145568533,1.3216165002286944,0.953605761968473,0.28750955,0.6701620751933872
0.0335,1.7719437500000002,1.0,2715.101730220576,0.31403146661478615,1.3212058276175949,0.9546390789037481,0.2874746375,0.6710038785219896
0.034,1.7711000000000001,1.0,2718.564836068652,0.31787921390438195,1.3207932276098737,0.9556316445098174,0.2874392,0.6718485494886473
0.0345,1.7702437500000001,1.0,2721.6429241358474,0.32170537667896804,1.320378507120973,0.9565855728999929,0.2874032375,0.6726964673945683
0.035,1.7693750000000001,1.0,2724.356559595154,0.32551007519187164,1.3199614730663358,0.9575028416435689,0.28736675,0.6735480094171571
0.035500000000000004,1.76849375,1.0,2726.7264266707793,0.3292934296964202,1.3195419323614044,0.958385302166362,0.2873297375,0.6744035505827158
0.036000000000000004,1.7676,1.0,2728.773314788897,0.333055560445941,1.319119691921621,0.959234689244555,0.2872922,0.6752634637367656
0.0365,1.76669375,1.0,2730.5181055552507,0.3367965876937613,1.3186945586624284,0.9600526296802586,0.2872541375,0.6761281195119899
0.037,1.765775,1.0,2731.981760558851,0.34051663169320856,1.3182663394992689,0.9608406502377287,0.28721555,0.6769978862938015
0.0375,1.76484375,1.0,2733.1817455443297,0.3442158105088474,1.317834873725327,0.9616001876114619,0.2871764375,0.677873064553589
0.038,1.7639,1.0,2734.1331868970315,0.3478942414302361,1.317400022384326,0.9623325941415539,0.28713679999999997,0.6787539087705017
0.0385,1.76294375,1.0,2734.8500274474836,0.3515520401578136,1.3169616576856549,0.9630391426139313,0.28709663750000003,0.6796406490980923
0.039,1.761975,1.0,2735.344769344225,0.3551893212839983,1.3165196652727094,0.9637210321549169,0.28705595,0.6805334869121558
0.0395,1.7609937500000001,1.0,2735.629947416271,0.35880619940120884,1.3160739307888856,0.9643793923259284,0.2870147375,0.6814326220524961
0.04,1.76,1.0,2735.7181242024117,0.3624027891018634,1.31562433987758,0.965015287899615,0.286973,0.682338252796052
0.0405,1.7589937500000001,1.0,2735.6211817350445,0.36597920285930774,1.3151707845699083,0.9656297234392683,0.2869307375,0.6832505629897591
0.041,1.757975,1.0,2735.3598213053797,0.3695355482470655,1.3147130769896054,0.9662236393906225,0.28688795,0.6841698953180317
0.0415,1.7569452537376533,1.0,2735.007784969499,0.3730719538152589,1.3142512268412931,0.9667979445883572,0.2868447006569814,0.6850961939692033
0.042,1.7559138850867164,1.0,2735.004732087667,0.37658852805534637,1.3137854751721418,0.9673535138546151,0.28680138317364207,0.6860289399585241
0.0425,1.7548825164357795,1.0,2735.4048088285263,0.3800853794587863,1.3133160630293221,0.9678911743317897,0.2867580656903027,0.6869676168616258
0.043000000000000003,1.7538511477848424,1.0,2736.1815521949748,0.38356261651703694,1.3128432314600045,0.9684117085711246,0.2867147482069634,0.6879117108726469
0.043500000000000004,1.7528197791339055,1.0,2737.3085656695675,0.38702034772155686,1.3123672215113593,0.968915857391632,0.286671430723624,0.6888607108586524
0.044,1.7517884104829686,1.0,2738.759501584818,0.39045868156380426,1.311888274230557,0.9694043225285233,0.2866281132402847,0.6898141084103471
0.0445,1.7507570418320317,1.0,2740.5080447795367,0.39387772653523767,1.3114066306647685,0.9698777690885589,0.28658479575694534,0.6907713978890833
0.045,1.7497256731810946,1.0,2742.5278975458277,0.3972775911273155,1.310922531861164,0.9703368278281375,0.286541478273606,0.6917320764701642
0.0455,1.7486943045301577,1.0,2744.792765862745,0.40065838383149605,1.3104362188669139,0.9707820972685133,0.28649816079026663,0.6926956441824412
0.046,1.7476629358792208,1.0,2747.276346918795,0.4040202131392377,1.309947932729189,0.9712141456612312,0.2864548433069273,0.6936616039442033
0.0465,1.7466315672282837,1.0,2749.9579969170472,0.40736318381051784,1.3094578630675886,0.9716335085355394,0.2864115258235879,0.6946295630919694
0.047,1.7456001985773468,1.0,2752.826670748751,0.41068739833979706,1.3089661124597125,0.9720406883243836,0.28636820834024856,0.6955993027791209
0.0475,1.74456882992641,1.0,2755.84964517796,0.4139929748387901,1.3084729795478989,0.9724361789267378,0.2863248908569092,0.6965702196710509
0.048,1.743537461275473,1.0,2759.017322294988,0.41728001464778963,1.3079785533792634,0.9728204332997974,0.28628157337356985,0.6975421258240313
0.0485,1.742506092624536,1.0,2762.3200932200903,0.42054861910708835,1.3074829230009222,0.9731938827100349,0.2862382558902305,0.6985148343839571
0.049,1.741474723973599,1.0,2765.7483356378866,0.423798889556979,1.3069861774599905,0.9735569379738455,0.28619493840689114,0.6994881595934415
0.0495,1.7404433553226621,1.0,2769.292411507941,0.42703092733775416,1.3064884058035846,0.9739099906163395,0.28615162092355184,0.7004619167983968
0.05,1.7394119866717253,1.0,2772.9426649508623,0.43024483378970674,1.3059896970788198,0.9742534139543833,0.28610830344021243,0.7014359224541201
0.0505,1.7383806180207881,1.0,2776.6894203105353,0.43344071025312925,1.3054901403328123,0.9745875641094729,0.28606498595687313,0.702409994130863
0.051000000000000004,1.7373492493698512,1.0,2780.5229803915627,0.4366186580683145,1.3049898246126777,0.9749127809555771,0.2860216684735337,0.7033839505189035
0.051500000000000004,1.7363178807189144,1.0,2784.433624873578,0.4397787785755552,1.3044888389655318,0.9752293890066617,0.2859783509901944,0.7043576114331073
0.052000000000000005,1.7352865120679772,1.0,2788.411608899835,0.442921173115144,1.3039872724384902,0.975537698248233,0.285935033506855,0.705330797816987
0.0525,1.7342551434170403,1.0,2792.4471618434645,0.4460459430273736,1.303485214078669,0.9758380049168878,0.2858917160235157,0.7063033317462515
0.053,1.7332237747661035,1.0,2796.5399004526726,0.4491531765983565,1.3029826683934467,0.9761305856110917,0.28584839854017635,0.7072751997869475
0.0535,1.7321924061151666,1.0,2800.675760186563,0.45224298883490033,1.3024797626585074,0.9764157152149759,0.285805081056837,0.7082461517284855
0.054,1.7311610374642294,1.0,2804.8509861903635,0.45531547507035053,1.3019765313397311,0.9766936490892877,0.28576176357349764,0.7092161177296696
0.0545,1.7301296688132926,1.0,2809.0622505738543,0.45837072988672795,1.301473004981624,0.9769646313890579,0.2857184460901583,0.7101850359290487
0.055,1.7290983001623557,1.0,2813.30621584254,0.4614088478660534,1.3009692141286926,0.977228895946325,0.28567512860681893,0.7111528448557309
0.0555,1.7280669315114188,1.0,2817.579534708425,0.4644299235903477,1.3004651893254424,0.977486666793475,0.2856318111234796,0.71211948342993
0.056,1.7270355628604817,1.0,2821.8788499210277,0.4674340516416315,1.29996096111638,0.9777381586558782,0.2855884936401402,0.7130848909634488
0.0565,1.7260041942095448,1.0,2826.200794119463,0.4704213266019257,1.299456560046011,0.977983577415856,0.28554517615680086,0.7140490071601078
0.057,1.7249728255586079,1.0,2830.5419897050283,0.4733918430532511,1.2989520166588422,0.9782231205498757,0.28550185867346156,0.7150117721161076
0.0575,1.7239414569076708,1.0,2834.8990487341853,0.4763456955776284,1.2984473614993788,0.9784569775407128,0.28545854119012215,0.7159731263203416
0.058,1.7229100882567339,1.0,2839.268572833121,0.4792829787570784,1.2979426251121275,0.9786853302662151,0.28541522370678285,0.7169330106546372
0.0585,1.721878719605797,1.0,2843.6471531315647,0.482203787173622,1.2974378380415943,0.9789083533661647,0.28537190622344344,0.7178913663939488
0.059000000000000004,1.72084735095486,1.0,2848.0355237964295,0.4851081955244375,1.2969329938718448,0.9791262108901968,0.28532858874010414,0.7188482051986702
0.059500000000000004,1.719815982303923,1.0,2852.4281718899833,0.48799631689203066,1.2964281417536223,0.9793390666998228,0.2852852712567647,0.7198034335985153
0.06,1.718784613652986,1.0,2856.8220814417205,0.49086824982216937,1.2959233085014545,0.9795470758749243,0.2852419537734254,0.7207570009105644
0.0605,1.7177532450020492,1.0,2861.2163836947007,0.4937240814874025,1.2954185017845996,0.9797503855866008,0.28519863629008607,0.7217088928678015
0.061,1.7167218763511123,1.0,2865.6102072416943,0.49656389906027876,1.2949137292723156,0.9799491374001497,0.2851553188067467,0.7226590953019622
0.0615,1.7156905077001752,1.0,2870.0026780299468,0.4993877897133469,1.2944089986338607,0.9801434675317761,0.28511200132340736,0.7236075941435185
0.062,1.7146591390492383,1.0,2874.3929193678473,0.5021958406191558,1.2939043175384932,0.9803335070916651,0.285068683840068,0.7245543754216599
0.0625,1.7136277703983014,1.0,2878.780051932667,0.5049881389502541,1.293399693655471,0.9805193823142405,0.28502536635672865,0.7254994252642721
0.063,1.7125964017473643,1.0,2883.163193779466,0.5077647718791906,1.2928951346540525,0.980701214776379,0.2849820488733893,0.7264427298979097
0.0635,1.7115650330964274,1.0,2887.541460351746,0.510525826578514,1.292390648203496,0.9808791216042889,0.28493873139004994,0.7273842756477662
0.064,1.7105336644454905,1.0,2891.913964492964,0.5132713902207732,1.291886241973059,0.9810532156697291,0.2848954139067106,0.728324048937643
0.0645,1.7095022957945536,1.0,2896.2798164595556,0.5160015499785169,1.291381923632,0.9812236057761861,0.2848520964233713,0.7292620362899084
0.065,1.7084709271436165,1.0,2900.6381239350226,0.518716393024294,1.2908777008495775,0.9813903968355957,0.28480877894003187,0.7301982243254581
0.0655,1.7074395584926796,1.0,2904.987992046209,0.5214160065306531,1.2903735812950494,0.9815536900361536,0.28476546145669257,0.7311325997636713
0.066,1.7064081898417427,1.0,2909.3285233791858,0.524100477670143,1.2898695726376737,0.9817135830017255,0.28472214397335316,0.7320651494223611
0.0665,1.7053768211908058,1.0,2913.6588179984356,0.5267698936153126,1.2893656825467088,0.9818701699433355,0.28467882649001386,0.7329958602177211
0.067,1.7043454525398687,1.0,2917.979565711366,0.5294243091025214,1.2888619046937206,0.9820235389813279,0.28463550900667445,0.7339247449512623
0.0675,1.7033140838889318,1.0,2922.289511356335,0.5320638378643047,1.288358249855699,0.9821737799145983,0.28459219152333515,0.734851784885709
0.068,1.702282715237995,1.0,2926.58776585519,0.5346885781776167,1.2878547255651238,0.9823209782885339,0.2845488740399958,0.7357769673782757
0.0685,1.7012513465870578,1.0,2930.874252764564,0.5372986087846694,1.287351332205046,0.9824652151525265,0.28450555655665644,0.7367002929846469
0.069,1.700219977936121,1.0,2935.148895627047,0.5398940084276743,1.2868480701585154,0.982606568834328,0.2844622390733171,0.7376217622651002
0.0695,1.699188609285184,1.0,2939.4116179725,0.542474855848843,1.286344939808582,0.98274511505033,0.2844189215899777,0.7385413757845012
0.07,1.698157240634247,1.0,2943.6623433188347,0.5450412297903873,1.285841941538296,0.9828809270106467,0.28437560410663837,0.7394591341123002
0.07050000000000001,1.69712587198331,1.0,2947.900995173541,0.5475932089945188,1.2853390757307077,0.9830140755192858,0.284332286623299,0.7403750378225302
0.07100000000000001,1.696094503332373,1.0,2952.1274970345034,0.5501308722034491,1.2848363427688672,0.9831446290696635,0.28428896913995966,0.7412890874938024
0.07150000000000001,1.6950631346814362,1.0,2956.341772391161,0.5526542981593899,1.2843337430358246,0.9832726539357172,0.2842456516566203,0.7422012837093037
0.07200000000000001,1.694031766030499,1.0,2960.5437447259133,0.555163565604553,1.2838312769146298,0.9833982142588377,0.28420233417328095,0.7431116270567943
