Time [s],Phi [rad],STIM [ ],Fsee [N],Gamma [ ],Lcerel [ ],q [ ],Lmtc [m],fisomrel [ ]
0.0,1.8,1.0,18.013665255325588,0.00021757585719821314,1.379334539237886,0.005012313486076837,0.288653,0.5411521280012141
0.0005,1.79999375,1.0,18.390603447841404,0.005825564737538719,1.3792897598739846,0.013526824123295735,0.2886527375,0.5412604529806604
0.001,1.799975,1.0,21.88634541018326,0.011402097234204907,1.3789110178382953,0.03669844217900266,0.28865195,0.5421761497472802
0.0015,1.79994375,1.0,31.67009066064116,0.016947349793612263,1.3779952581080719,0.07208822325160483,0.2886506375,0.5443864312749112
0.002,1.7999,1.0,54.845580486814086,0.022461497870332733,1.376286659631499,0.11647492085306703,0.2886488,0.5484960133398227
0.0025,1.79984375,1.0,99.21592984255771,0.02794471593585235,1.3738346578627931,0.16648408053478414,0.28864643749999996,0.5543611243004094
0.003,1.7997750000000001,1.0,163.66990001842407,0.033397177484527356,1.3711132649535318,0.21924869818209847,0.28864354999999997,0.5608257161209493
0.0035,1.79969375,1.0,240.73798269327597,0.03881905503467486,1.3684909432801116,0.27256957900380085,0.2886401375,0.5670102829098649
0.004,1.7996,1.0,324.71115504038914,0.04421052013885467,1.3660703767908782,0.32480974306250143,0.2886362,0.5726800996051802
0.0045000000000000005,1.7994937500000001,1.0,412.6237108013814,0.04957174338921956,1.3638441978260847,0.3748318902370892,0.2886317375,0.5778616062126689
0.005,1.799375,1.0,502.8349389865281,0.05490289440936933,1.361785761240417,0.4219287338213208,0.28862675,0.5826245630219772
0.0055,1.79924375,1.0,594.2398622319413,0.06020414189266072,1.3598715393327665,0.4657300929071822,0.2886212375,0.5870295764613045
0.006,1.7991000000000001,1.0,685.9688506295295,0.06547565356853453,1.3580837685207685,0.506110159209694,0.2886152,0.5911224959246323
0.006500000000000001,1.79894375,1.0,777.3087682093903,0.07071759621687873,1.3564088084085715,0.5431083785252866,0.2886086375,0.5949386520688207
0.007,1.798775,1.0,867.6709851667625,0.07593013575359653,1.3548357670281634,0.5768683875117783,0.28860155,0.5985063087931599
0.0075,1.79859375,1.0,956.5656148988528,0.08111343696403188,1.3533557217032715,0.6075937134541545,0.2885939375,0.6018486413889037
0.008,1.7984,1.0,1043.6153895209086,0.08626766411659498,1.3519607320103233,0.635516772868423,0.2885858,0.6049861068965479
0.0085,1.79819375,1.0,1128.4987523619172,0.0913929800359333,1.3506441921838397,0.6608789237392447,0.2885771375,0.6079357477287708
0.009000000000000001,1.797975,1.0,1210.9703745863721,0.09648954684028285,1.3494001111223566,0.683917284565914,0.28856795,0.6107128901393013
0.0095,1.79774375,1.0,1290.872542814407,0.10155752625430342,1.3482227087631928,0.7048569692664157,0.2885582375,0.6133320953495682
0.01,1.7975,1.0,1368.0642324576684,0.10659707817507835,1.3471071683786524,0.723907461398025,0.288548,0.6158055282530417
0.0105,1.79724375,1.0,1442.45674968721,0.11160836195822904,1.3460489536402376,0.7412604821641948,0.2885372375,0.6181445206776044
0.011,1.796975,1.0,1514.016085733407,0.11659153663155107,1.3450436614879357,0.7570896392611381,0.28852595000000003,0.6203599224075218
0.0115,1.79669375,1.0,1582.720327233459,0.12154675985131841,1.3440874429964043,0.7715512218414616,0.2885141375,0.6224611976154217
0.012,1.7964,1.0,1648.562324021241,0.12647418787834525,1.343176851852746,0.7847851883149352,0.28850180000000003,0.6244567868381327
0.0125,1.79609375,1.0,1711.5682737926875,0.13137397649677354,1.3423085418887997,0.7969163522197178,0.2884889375,0.6263547900190176
0.013000000000000001,1.7957750000000001,1.0,1771.7964324600803,0.1362462817482007,1.341479230330799,0.808055789683032,0.28847555,0.6281630588414706
0.0135,1.79544375,1.0,1829.2954070065214,0.14109125771362988,1.3406861177509584,0.8183024054615488,0.2884616375,0.6298882945528703
0.014,1.7951000000000001,1.0,1884.1112665518626,0.14590905678847654,1.339926740563637,0.8277441840934122,0.2884472,0.63153638727609
0.0145,1.79474375,1.0,1936.3140386232512,0.15069983136815618,1.3391986351831948,0.8364592934670121,0.2884322375,0.6331131565365367
0.015,1.794375,1.0,1985.9843444021117,0.15546373306063782,1.3384994582357663,0.844517257823502,0.28841675,0.634624096856163
0.0155,1.79399375,1.0,2033.2152635085981,0.16020091393572441,1.3378269393670845,0.8519799538783093,0.2884007375,0.636074486727896
0.016,1.7936,1.0,2078.081388158039,0.16491152348730206,1.3371791815691585,0.8589026030312946,0.2883842,0.6374687484577566
0.0165,1.7931937500000001,1.0,2120.653995675164,0.16959570980257854,1.3365544696822407,0.8653344959088397,0.2883671375,0.6388108703345209
0.017,1.792775,1.0,2161.0167752414377,0.1742536209687616,1.3359510885465833,0.8713196404287289,0.28834955,0.6401048026287174
0.0175,1.7923437500000001,1.0,2199.259358830165,0.1788854044929705,1.3353673777917772,0.8768974009562458,0.2883314375,0.6413543428350363
0.018000000000000002,1.7919,1.0,2235.4728128167785,0.18349120771096417,1.334801764913957,0.882103052861781,0.2883128,0.6425630682732765
0.0185,1.79144375,1.0,2269.7454439275716,0.18807117730155423,1.3342527947649487,0.8869682656915403,0.2882936375,0.6437342767596335
0.019,1.790975,1.0,2302.1446010447316,0.19262545676063217,1.3337192975962193,0.8915215589895815,0.28827395,0.644870632690963
0.0195,1.79049375,1.0,2332.744050414305,0.19715418958408926,1.3332001036592356,0.895788593079069,0.2882537375,0.6459747797240902
0.02,1.79,1.0,2361.623443114274,0.20165751926781691,1.3326940432054644,0.8997924936204569,0.288233,0.6470493418864816
0.0205,1.78949375,1.0,2388.856314214437,0.2061355880885058,1.3322000582083224,0.9035541606542452,0.2882117375,0.6480966879030203
0.021,1.788975,1.0,2414.532504515609,0.2105885394279492,1.331716978133771,0.9070924665874022,0.28818995000000003,0.6491194082200233
0.021500000000000002,1.78844375,1.0,2438.7283782774875,0.21501651469713692,1.3312438052533968,0.9104245383223551,0.2881676375,0.650119711356026
0.022,1.7879,1.0,2461.4966340556634,0.21941965245679362,1.3307798041925538,0.9135659624871385,0.2881448,0.6510992383237748
0.0225,1.78734375,1.0,2482.8929047880106,0.22379809126764394,1.3303242395765964,0.9165308969215209,0.28812143749999997,0.6520596197326001
0.023,1.7867751971234933,1.0,2502.9849009819304,0.22815196969041246,1.3298763760308787,0.9193322214142399,0.2880975582791867,0.6530024762013211
0.0235,1.7862024170530721,1.0,2522.219220496556,0.23248142628582377,1.329435478180755,0.9219816707595033,0.288073501516229,0.6539294187366624
0.024,1.7856296369826508,1.0,2540.8380642220245,0.2367865970743831,1.329001071899202,0.9244899988438375,0.2880494447532713,0.6548415009221177
0.0245,1.7850568569122294,1.0,2558.847204209158,0.24106762146265442,1.3285730317661069,0.926867095137685,0.28802538799031363,0.6557390395281535
0.025,1.784484076841808,1.0,2576.264395362479,0.2453246332753214,1.3281511245672424,0.9291219844862537,0.28800133122735594,0.6566225747616523
0.025500000000000002,1.7839112967713866,1.0,2593.1079345020794,0.24955776608731361,1.327735117576472,0.9312629346483732,0.28797727446439825,0.6574926425610207
0.026000000000000002,1.7833385167009652,1.0,2609.3966809369686,0.25376715347356066,1.3273247780676583,0.9332975301175677,0.28795321770144056,0.658349775710964
0.0265,1.7827657366305438,1.0,2625.1500266209737,0.2579529290089921,1.3269198733146645,0.9352327378002521,0.28792916093848286,0.6591945039283281
0.027,1.7821929565601224,1.0,2640.379543089719,0.2621152171390371,1.326520247523499,0.9370749734445862,0.2879051041755252,0.6600271937410491
0.0275,1.781620176489701,1.0,2655.1095142297713,0.26625415500383964,1.3261256312792191,0.9388301337809989,0.2878810474125674,0.6608484458632998
0.028,1.7810473964192797,1.0,2669.37117924189,0.2703698877644392,1.3257356958137934,0.9405036504863998,0.28785699064960973,0.6616589810991833
0.0285,1.7804746163488585,1.0,2683.1782361799387,0.274462541392158,1.3253502780811526,0.9421005540892757,0.28783293388665204,0.6624591726802191
0.029,1.7799018362784371,1.0,2696.544705447663,0.27853224185831815,1.3249692150352275,0.9436254941138845,0.28780887712369435,0.6632493918347835
0.029500000000000002,1.7793290562080157,1.0,2709.4849137619276,0.28257911513424183,1.3245923436299492,0.9450827728604764,0.28778482036073666,0.6640300078342379
0.03,1.7787562761375943,1.0,2722.013478705064,0.28660328719125105,1.3242195008192486,0.9464763757881832,0.28776076359777897,0.6648013880373638
0.0305,1.778183496067173,1.0,2734.1452938671805,0.29060488400066814,1.3238505235570566,0.9478099988791863,0.2877367068348213,0.6655638979331007
0.031,1.7776107159967516,1.0,2745.895514577333,0.2945840315338151,1.3234852487973041,0.9490870733168927,0.28771265007186353,0.6663179011815888
0.0315,1.7770379359263302,1.0,2757.2795442247107,0.2985408557620141,1.3231235134939223,0.9503107877708901,0.28768859330890584,0.6670637596535172
0.032,1.7764651558559088,1.0,2768.313021168457,0.30247548265658736,1.3227651546008417,0.9514841085466845,0.28766453654594815,0.6678018334677768
0.0325,1.7758923757854874,1.0,2779.0118062375454,0.3063880381888569,1.3224100090719935,0.9526097978278295,0.28764047978299045,0.6685324810274142
0.033,1.775319595715066,1.0,2789.391970819806,0.3102786483301449,1.3220579138613087,0.9536904302115682,0.28761642302003276,0.6692560590538963
0.0335,1.7747468156446449,1.0,2799.4654598254683,0.3141474330699602,1.3217087447473688,0.9547284105122449,0.28759236625707507,0.6699728429626031
0.034,1.7741740355742235,1.0,2809.244557274987,0.31799451544079377,1.3213623758886701,0.9557259850729134,0.2875683094941174,0.670683110214251
0.0345,1.773601255503802,1.0,2818.7476042634185,0.32182002690910605,1.3210186286219927,0.9566852498375121,0.2875442527311597,0.671387245145584
0.035,1.7730284754333807,1.0,2827.9836231382483,0.32562408500841544,1.3206774091311035,0.9576081711345545,0.287520195968202,0.6720854568653152
0.035500000000000004,1.7724556953629593,1.0,2836.9617484973346,0.32940680727224025,1.3203386235997696,0.9584965900464412,0.2874961392052443,0.672777953540195
0.036000000000000004,1.771882915292538,1.0,2845.6912220283216,0.33316831123409896,1.3200021782117577,0.9593522318320515,0.2874720824422866,0.6734649424098549
0.0365,1.7713101352221166,1.0,2854.181387543724,0.3369087144275099,1.3196679791508346,0.9601767145376932,0.2874480256793289,0.6741466298010893
0.037,1.7707373551516952,1.0,2862.4416862104886,0.3406281343859915,1.3193359326007674,0.9609715568746809,0.2874239689163712,0.6748232211415757
0.0375,1.7701645750812738,1.0,2870.4816519758365,0.3443266886430621,1.319005944745323,0.9617381854334943,0.2873999121534135,0.6754949209730354
0.038,1.7695917950108524,1.0,2878.310907186602,0.34800449473224015,1.3186779217682683,0.962477941297127,0.2873758553904558,0.6761619329638313
0.0385,1.7690190149404312,1.0,2885.939158405261,0.351661670187044,1.31835176985337,0.9631920861097345,0.2873517986274981,0.6768244599210043
0.039,1.7684462348700098,1.0,2893.3761924201917,0.3552983325409919,1.3180273951843953,0.963881807650897,0.2873277418645404,0.677482703801749
0.0395,1.7678734547995885,1.0,2900.6267539236196,0.3589145877870572,1.3177047490772933,0.9645482268610268,0.2873036851015827,0.678136774278489
0.04,1.767300674729167,1.0,2907.701820558487,0.36251055920721886,1.3173837283779517,0.9651923989534872,0.287279628338625,0.6787868908192302
0.0405,1.7667278946587457,1.0,2914.61246469491,0.36608637010625156,1.3170642297620405,0.965815319393751,0.28725557157566733,0.6794332723386607
0.041,1.7661551145883243,1.0,2921.3639039162654,0.36964212982926836,1.3167462019771756,0.9664179299646471,0.2872315148127096,0.6800760316742165
0.0415,1.765582334517903,1.0,2927.9613975137754,0.3731779477213824,1.3164295937709731,0.9670011203865014,0.2872074580497519,0.680715281205156
0.042,1.7650095544474815,1.0,2934.4102448438257,0.37669393312770677,1.3161143538910485,0.967565731734163,0.2871834012867942,0.6813511328572863
0.0425,1.7644367743770601,1.0,2940.715783744087,0.3801901953933546,1.3158004310850175,0.9681125595959693,0.2871593445238365,0.6819836981075162
0.043000000000000003,1.7638639943066388,1.0,2946.883389007786,0.3836668438634389,1.3154877741004964,0.9686423569965689,0.2871352877608788,0.6826130879882466
0.043500000000000004,1.7632912142362174,1.0,2952.9184709162787,0.38712398788307295,1.3151763316851006,0.9691558371034824,0.28711123099792113,0.6832394130915926
0.044,1.7627184341657962,1.0,2958.826473829627,0.3905617367973697,1.314866052586446,0.969653675735413,0.28708717423496344,0.6838627835734358
0.0445,1.7621456540953748,1.0,2964.612874835519,0.3939801999514424,1.3145568855521486,0.9701365136886604,0.28706311747200575,0.6844833091573104
0.045,1.7615728740249534,1.0,2970.283182456599,0.397379486690404,1.3142487793298239,0.9706049588965078,0.28703906070904806,0.6851010991381239
0.0455,1.761000093954532,1.0,2975.8429354158666,0.4007597063593678,1.313941682667088,0.971059588435092,0.28701500394609036,0.685716262385706
0.046,1.7604273138841107,1.0,2981.29770146018,0.40412096830344674,1.3136355443115566,0.9715009503880622,0.28699094718313267,0.686328907348194
0.0465,1.7598545338136893,1.0,2986.6456574980693,0.4074633524069901,1.313330377476094,0.9719295663271738,0.286966890420175,0.6869390132356136
0.047,1.759281753743268,1.0,2991.8995262301983,0.41078700386658057,1.3130260690952777,0.9723459317552183,0.28694283365721723,0.6875468114373674
0.0475,1.7587089736728465,1.0,2997.062042035511,0.4140920234709228,1.3127225931897466,0.9727505183399804,0.28691877689425954,0.6881523587649243
0.048,1.7581361936024251,1.0,3002.1359198226824,0.4173785118603914,1.312419924079149,0.973143775016672,0.28689472013130185,0.6887557112193201
0.0485,1.757563413532004,1.0,3007.1238889427414,0.420646569675361,1.312118036083134,0.9735261292925607,0.28687066336834416,0.6893569245905853
0.049,1.7569906334615826,1.0,3012.0286927372526,0.4238962975562064,1.3118169035213498,0.9738979884666571,0.28684660660538647,0.6899560544590473
0.0495,1.7564178533911612,1.0,3016.853088100953,0.4271277961433022,1.3115165007134453,0.9742597407692105,0.2868225498424288,0.6905531561965882
0.05,1.7558450733207398,1.0,3021.5998450585253,0.43034116607702305,1.3112168019790689,0.9746117564269597,0.2867984930794711,0.6911482849678605
0.0505,1.7552722932503184,1.0,3026.271746356925,0.4335365079977437,1.3109177816378692,0.9749543886596094,0.28677443631651334,0.6917414957314614
0.051000000000000004,1.754699513179897,1.0,3030.871587071502,0.43671392254583874,1.3106194140094949,0.9752879746125476,0.28675037955355565,0.6923328432410651
0.051500000000000004,1.7541267331094756,1.0,3035.4021742270834,0.4398735103616829,1.3103216734135947,0.975612836230419,0.28672632279059795,0.6929223820465122
0.052000000000000005,1.7535539530390543,1.0,3039.866326433758,0.4430153720856508,1.3100245341698171,0.9759292810757899,0.28670226602764026,0.6935101664948593
0.0525,1.7529811729686329,1.0,3044.266873536959,0.44613960835811706,1.3097279705978107,0.976237603096811,0.28667820926468257,0.694096250731383
0.053,1.7524083928982115,1.0,3048.6066562826622,0.4492463198194565,1.3094319570172241,0.9765380833474704,0.2866541525017249,0.6946806887005446
0.0535,1.7518356128277903,1.0,3052.8885259967506,0.4523356071100437,1.3091364677477062,0.9768309906637495,0.2866300957387672,0.6952635341469113
0.054,1.751262832757369,1.0,3057.1130614784206,0.45540755108295505,1.3088414967153814,0.9771165815323664,0.2866060389758095,0.6958448019980965
0.0545,1.7506900526869476,1.0,3061.28249503787,0.4584622532235179,1.3085470236866352,0.9773951026886374,0.2865819822128518,0.6964245349940018
0.055,1.7501172726165262,1.0,3065.4018378745996,0.4614998390713023,1.3082530046624972,0.9776667913007613,0.2865579254498941,0.6970028224379544
0.0555,1.7495444925461048,1.0,3069.4723680679144,0.4645204000110403,1.3079594277730933,0.9779318732052682,0.2865338686869364,0.6975796901966484
0.056,1.7489717124756834,1.0,3073.4953686948134,0.4675240274274638,1.3076662811485495,0.9781905648669516,0.28650981192397873,0.6981551640440742
0.0565,1.748398932405262,1.0,3077.4721277156127,0.4705108127053048,1.307373552918992,0.9784430738444377,0.286485755161021,0.6987292696618482
0.057,1.7478261523348406,1.0,3081.403937862169,0.4734808472292953,1.3070812312145466,0.9786895992289623,0.2864616983980633,0.6993020326395352
0.0575,1.7472533722644192,1.0,3085.2920965291205,0.4764342223841672,1.3067893041653391,0.9789303320580988,0.2864376416351056,0.6998734784749587
0.058,1.7466805921939978,1.0,3089.137905668673,0.4793710295546525,1.3064977599014957,0.9791654557060638,0.2864135848721479,0.700443632574506
0.0585,1.7461078121235767,1.0,3092.94267168809,0.4822913601254832,1.3062065865531427,0.9793951462520964,0.2863895281091902,0.7010125202534208
0.059000000000000004,1.7455350320531553,1.0,3096.7077053508633,0.48519530548139117,1.3059157722504056,0.9796195728283105,0.2863654713462325,0.7015801667360906
0.059500000000000004,1.744962251982734,1.0,3100.434321680348,0.48808295700710846,1.3056253051234104,0.9798388979483184,0.28634141458327483,0.7021465971563212
0.06,1.7443894719123125,1.0,3104.123839866901,0.49095440608736696,1.3053351733022833,0.9800532778178247,0.28631735782031714,0.7027118365576039
0.0605,1.7438166918418911,1.0,3107.777583178077,0.49380974410689876,1.3050453649171505,0.9802628626283202,0.2862933010573594,0.7032759098933753
0.061,1.7432439117714698,1.0,3111.39687887226,0.4966490624504357,1.3047558680981375,0.9804677968349124,0.2862692442944017,0.7038388420272661
0.0615,1.7426711317010484,1.0,3114.9830581144797,0.4994724525027099,1.3044666709753705,0.9806682194192657,0.286245187531444,0.7044006577333402
0.062,1.742098351630627,1.0,3118.5374558964977,0.5022800056484531,1.3041777616789756,0.9808642641385615,0.2862211307684863,0.7049613816963276
0.0625,1.7415255715602056,1.0,3122.0614109593257,0.5050718132723975,1.3038891283390788,0.9810560597613122,0.28619707400552863,0.705521038511846
0.063,1.7409527914897842,1.0,3125.5555101757996,0.5078479513327185,1.3036007655035595,0.9812437294932156,0.28617301724257094,0.706079640260372
0.0635,1.740380011419363,1.0,3129.0189058307865,0.5106084736375435,1.3033126799156378,0.9814273910611178,0.28614896047961325,0.7066371753902865
0.064,1.7398072313489417,1.0,3132.4557536233365,0.5133535384503342,1.303024835854572,0.9816071632273471,0.28612490371665555,0.7071937144620846
0.0645,1.7392344512785203,1.0,3135.8666022868615,0.5160832271675575,1.3027372282695775,0.9817831565156497,0.28610084695369786,0.7077492685575693
0.065,1.738661671208099,1.0,3139.252002228075,0.5187976211856803,1.30244985210987,0.9819554774993475,0.28607679019074017,0.7083038487204011
0.0655,1.7380888911376775,1.0,3142.612505500938,0.5214968019011694,1.302162702324665,0.9821242289710745,0.2860527334277825,0.7088574659561733
0.066,1.7375161110672561,1.0,3145.948665780633,0.5241808507104917,1.301875773863178,0.9822895101040467,0.2860286766648248,0.7094101312324852
0.0665,1.7369433309968347,1.0,3149.2610383388555,0.5268498490101139,1.301589061674625,0.9824514166053431,0.28600461990186704,0.7099618554790152
0.067,1.7363705509264133,1.0,3152.5501800193424,0.5295038781965029,1.3013025607082216,0.9826100408616468,0.28598056313890935,0.7105126495875906
0.0675,1.735797770855992,1.0,3155.8166492136907,0.5321430196661255,1.3010162659131832,0.9827654720778702,0.28595650637595166,0.711062524412257
0.068,1.7352249907855706,1.0,3159.061005838024,0.5347673548154485,1.3007301722387254,0.9829177964090562,0.28593244961299397,0.7116114907693448
0.0685,1.7346522107151494,1.0,3162.2838113102894,0.5373769650409387,1.300444274634064,0.9830670970859262,0.2859083928500363,0.7121595594375354
0.069,1.734079430644728,1.0,3165.485628528057,0.539971931739063,1.3001585680484147,0.9832134545344267,0.2858843360870786,0.7127067411579249
0.0695,1.7335066505743066,1.0,3168.6670218467034,0.5425523363062882,1.299873047430993,0.9833569464895917,0.2858602793241209,0.7132530466340863
0.07,1.7329338705038853,1.0,3171.8285570583744,0.545118260139081,1.2995877077310143,0.9834976481040408,0.28583622256116314,0.7137984865321313
