Time [s],Phi [rad],STIM [ ],Fsee [N],Gamma [ ],Lcerel [ ],q [ ],Lmtc [m],fisomrel [ ]
0.0,1.8,1.0,17.96863330960769,1.1640689256162869e-05,1.379339580957873,0.005000036071371326,0.288653,0.5411399308632185
0.0005,1.79999375,1.0,18.278381534942866,0.005620784702989786,1.3793022059115456,0.012945067052829842,0.2886527375,0.541230346271159
0.001,1.799975,1.0,21.621143079418086,0.011198465853721388,1.3789380200739179,0.03561711857489433,0.28865195,0.5421108958624331
0.0015,1.79994375,1.0,31.074491825529414,0.016744860624096455,1.3780457559699872,0.0706133953675492,0.2886506375,0.5442646887534467
0.002,1.7999,1.0,53.592581665287796,0.022260144505110577,1.3763674703955222,0.11473168124913284,0.2886488,0.5483020638650374
0.0025,1.79984375,1.0,97.13534206844803,0.02774449200367657,1.373934376802997,0.16458973784063405,0.28864643749999996,0.5541233477198797
0.003,1.7997750000000001,1.0,160.9792755737614,0.03319807665033385,1.3712135536614647,0.21729577118744065,0.28864354999999997,0.5605883213585041
0.0035,1.79969375,1.0,237.70703859501697,0.03862107099884674,1.3685840040114468,0.27062812522037266,0.2886401375,0.5667915560806436
0.004,1.7996,1.0,321.49191140842447,0.044013646636984906,1.3661554265447653,0.3229305566699469,0.2886362,0.5724815166193271
0.0045000000000000005,1.7994937500000001,1.0,409.29374211886983,0.04937597419170851,1.363922204060689,0.37304851546078605,0.2886317375,0.5776805784171243
0.005,1.799375,1.0,499.4399765695315,0.054708223320254046,1.3618577798179283,0.4202605677481445,0.28862675,0.5824583775039531
0.0055,1.79924375,1.0,590.8171052764424,0.060010562757591375,1.3599383136223784,0.46418583459392354,0.2886212375,0.5868763086309898
0.006,1.7991000000000001,1.0,682.5448012359376,0.06528316025961889,1.3581459295461265,0.5046911167288145,0.2886152,0.5909805266248119
0.006500000000000001,1.79894375,1.0,773.907589520841,0.07052618265915896,1.3564668041223902,0.5418109628712269,0.2886086375,0.5948068161950559
0.007,1.798775,1.0,864.3121407774913,0.07573979584719963,1.3548899696926222,0.5756860768996298,0.28860155,0.5983836397052605
0.0075,1.79859375,1.0,953.2671754818716,0.08092416476484243,1.3534064106628036,0.6065183900593636,0.2885939375,0.6017344033878629
0.008,1.7984,1.0,1040.3799597113834,0.08607945353462691,1.3520083297266714,0.6345397775263601,0.2885858,0.6048792595760173
0.0085,1.79819375,1.0,1125.3369546409665,0.09120582514581227,1.35068891976756,0.6599914362510592,0.2885771375,0.6078357192355289
0.009000000000000001,1.797975,1.0,1207.900482992515,0.09630344190614393,1.3494420309184882,0.6831107226860685,0.28856795,0.6106194739399309
0.0095,1.79774375,1.0,1287.8838660269796,0.1013724649224209,1.3482622341600468,0.704123477523499,0.2885582375,0.6132443120467244
0.01,1.7975,1.0,1365.1729863211135,0.10641305501393337,1.3471443089721287,0.7232395972532678,0.288548,0.6157233059574723
0.0105,1.79724375,1.0,1439.6715672939276,0.11142537126513033,1.3460837953462133,0.7406515161409983,0.2885372375,0.6180676230827818
0.011,1.796975,1.0,1511.3243734380326,0.11640957214992731,1.3450765272668512,0.7565336161889887,0.28852595000000003,0.6202875967138077
0.0115,1.79669375,1.0,1580.1247153850472,0.12136581580990313,1.3441184388215939,0.7710427045292215,0.2885141375,0.6223931762212658
0.012,1.7964,1.0,1646.0753671788748,0.12629425911101072,1.3432059500996303,0.784319265485725,0.28850180000000003,0.6243930989037312
0.0125,1.79609375,1.0,1709.1875169288544,0.13119505743265905,1.342335879238724,0.7964887194796951,0.2884889375,0.6262951077354901
0.013000000000000001,1.7957750000000001,1.0,1769.502242592055,0.13606836570565947,1.3415051214293403,0.8076626893365445,0.28847555,0.628106671038047
0.0135,1.79544375,1.0,1827.087355775883,0.14091433904827017,1.340710641435152,0.8179404090237754,0.2884616375,0.6298350089695386
0.014,1.7951000000000001,1.0,1882.003413829656,0.14573313095216853,1.3399498078169951,0.8274101854739148,0.2884472,0.6314863780777682
0.0145,1.79474375,1.0,1934.303709542536,0.15052489287744417,1.3392203361660453,0.8361505951353576,0.2884322375,0.6330662102404185
0.015,1.794375,1.0,1984.0625507428122,0.15528977628418683,1.3385199420734784,0.8442314810806446,0.28841675,0.634579875059212
0.0155,1.79399375,1.0,2031.3659149086423,0.16002793201747445,1.3378464204578187,0.8517150009834384,0.2884007375,0.6360325133413227
0.016,1.7936,1.0,2076.306548349241,0.16473951101239848,1.337197674596967,0.858656543379306,0.2883842,0.6374289803775447
0.0165,1.7931937500000001,1.0,2118.9682217209943,0.16942466271674067,1.3365718572223302,0.8651055685284575,0.2883671375,0.638773548870891
0.017,1.792775,1.0,2159.41965329275,0.17408353414334723,1.3359674069119143,0.8711063158033454,0.28834955,0.6400698389441462
0.0175,1.7923437500000001,1.0,2197.7403585074017,0.17871627230506448,1.3353827622437253,0.8766983378974801,0.2883314375,0.641321437467375
0.018000000000000002,1.7919,1.0,2234.019741871042,0.18332302421473873,1.3348163617957696,0.8819170520025996,0.2883128,0.6425319001079219
0.0185,1.79144375,1.0,2268.338867060869,0.18790393513087955,1.3342668173980674,0.8867942664960686,0.2882936375,0.6437043838857368
0.019,1.790975,1.0,2300.797159565091,0.19245915247539372,1.3337326357141543,0.8913585297626447,0.28827395,0.6448422444492461
0.0195,1.79049375,1.0,2331.4632261906163,0.19698881913074584,1.3332126987990127,0.8956356168108575,0.2882537375,0.6459480145378776
0.02,1.79,1.0,2360.4063969744484,0.2014930773881716,1.3327059376744737,0.8996487659531031,0.288233,0.6470241040693535
0.0205,1.78949375,1.0,2387.701140139645,0.20597206953890673,1.3322112833623687,0.903418952432005,0.2882117375,0.6480729056336989
0.021,1.788975,1.0,2413.426628690897,0.21042593787418692,1.3317276668845293,0.9069651396173762,0.28818995000000003,0.6490967953550599
0.021500000000000002,1.78844375,1.0,2437.650489809357,0.21485482240549156,1.3312541716419697,0.9103045305535856,0.2881676375,0.65009781176592
0.022,1.7879,1.0,2460.459049438105,0.21925886652886117,1.3307897366577828,0.9134526996595389,0.2881448,0.6510782848274066
0.0225,1.78734375,1.0,2481.9102978218607,0.22363820830847048,1.3303336050815422,0.9164238522314317,0.28812143749999997,0.6520398895211471
0.023,1.786775,1.0,2502.0601414462685,0.22799298501860601,1.3298850656465837,0.9192309190618982,0.28809755,0.6529841947173124
0.0235,1.78619375,1.0,2520.9669043124036,0.23232333393355425,1.329443407086243,0.921885680705683,0.28807313749999996,0.6539127599726018
0.024,1.7856,1.0,2538.691124795154,0.23662939232760175,1.3290079181338559,0.9243988856870732,0.2880482,0.6548271358585013
0.0245,1.78499375,1.0,2555.2912807624452,0.24091129667861408,1.3285779258794905,0.92678036153631,0.2880227375,0.6557287838798853
0.025,1.784375,1.0,2570.821454703098,0.24516918244474292,1.3281528153651703,0.9290391099628584,0.28799675,0.6566190362497208
0.025500000000000002,1.78374375,1.0,2585.3513415692787,0.24940318755817803,1.3277318403989706,0.9311833578845261,0.2879702375,0.6574994923109172
0.026000000000000002,1.7831000000000001,1.0,2598.9222395899387,0.2536134439522195,1.3273145339257595,0.933220696748185,0.2879432,0.658371160334703
0.0265,1.78244375,1.0,2611.5765680545983,0.25780008356016765,1.3269004288904043,0.9351581003869132,0.2879156375,0.6592350433395081
0.027,1.781775,1.0,2623.3577732858244,0.26196323831532253,1.3264890582377726,0.9370019835494539,0.28788755,0.660092139193279
0.0275,1.7810937500000001,1.0,2634.310239448173,0.26610304015098435,1.326079954912732,0.9387582541707687,0.2878589375,0.6609434407018835
0.028,1.7804,1.0,2644.4792041935443,0.2702196210004533,1.3256726518601498,0.9404323601205071,0.2878298,0.6617899356836022
0.0285,1.77969375,1.0,2653.9030639535913,0.27431310911686946,1.325266752222977,0.9420293397217104,0.2878001375,0.6626324614104478
0.029,1.778975,1.0,2662.6315034492977,0.2783836390376746,1.3248617612322864,0.9435538385340887,0.28776995,0.6634720538554113
0.029500000000000002,1.7782437500000001,1.0,2670.696694560477,0.2824313381461788,1.3244573510509001,0.945010175732423,0.2877392375,0.6643093984344164
0.03,1.7775,1.0,2678.129135593277,0.2864563328382948,1.3240532136289718,0.9464023546903714,0.287708,0.6651451362778571
0.0305,1.77674375,1.0,2684.9597525516665,0.2904587495099355,1.3236490409166548,0.9477340879517605,0.2876762375,0.6659799053371477
0.031,1.775975,1.0,2691.2198597707848,0.29443871455701365,1.3232445248641023,0.9490088220183317,0.28764395,0.6668143403870561
0.0315,1.7751937500000001,1.0,2696.941122653382,0.29839635437544215,1.3228393574214679,0.9502297597336629,0.2876111375,0.6676490730219826
0.032,1.7744,1.0,2702.1551977884988,0.3023317950602778,1.322433233505407,0.9513998807931193,0.2875778,0.6684847255460704
0.0325,1.77359375,1.0,2706.8854794473586,0.30624515398614016,1.322025926018282,0.9525219665326919,0.2875439375,0.6693217569262371
0.033,1.772775,1.0,2711.1739123903526,0.31013656937233547,1.3216170407193069,0.9535985957107851,0.28750955,0.6701609665783027
0.0335,1.7719437500000002,1.0,2715.039964285111,0.3140061610657912,1.321206390536479,0.9546321927671962,0.2874746375,0.6710027253779558
0.034,1.7711000000000001,1.0,2718.503264720541,0.3178540489134347,1.3207937883977965,0.9556250215246899,0.2874392,0.6718474021855542
0.0345,1.7702437500000001,1.0,2721.5835895009695,0.3216803527621934,1.320379047231257,0.9565791977247581,0.2874032375,0.6726953638239539
0.035,1.7693750000000001,1.0,2724.3008457156484,0.3254851924589948,1.3199619799648585,0.957496700445059,0.28736675,0.6735469750541054
0.035500000000000004,1.76849375,1.0,2726.6750575846936,0.3292686878507663,1.319542399526599,0.958379382509992,0.2873297375,0.6744025985484166
0.036000000000000004,1.7676,1.0,2728.7263530804444,0.33303095878443517,1.3191201188444757,0.9592289799936642,0.2872922,0.6752625948618869
0.0365,1.76669375,1.0,2730.4749513251622,0.33677212510692894,1.318694950846487,0.9600471209037607,0.2872541375,0.6761273224010054
0.037,1.765775,1.0,2731.9411507641503,0.34049230666517505,1.3182667084606303,0.960835333125331,0.28721555,0.6769971373904213
0.0375,1.76484375,1.0,2733.137678273145,0.3441916142735464,1.3178352740119077,0.9615950565565492,0.2871764375,0.6778722531689272
0.038,1.7639,1.0,2734.083803979878,0.3478701710678668,1.3174004708779228,0.9623276415394717,0.28713679999999997,0.6787530009134978
0.0385,1.76294375,1.0,2734.801377073995,0.35152810333155826,1.3169620994683806,0.9630343566831056,0.28709663750000003,0.6796397560605754
0.039,1.761975,1.0,2735.3011589121534,0.35516552312868366,1.3165200612529013,0.9637164026957248,0.28705595,0.6805326875779962
0.0395,1.7609937500000001,1.0,2735.5939417358386,0.35878254252330566,1.3160742577011058,0.9643749106352641,0.2870147375,0.6814319630698182
0.04,1.76,1.0,2735.690544456673,0.36237927357948696,1.3156245902826147,0.9650109466907775,0.286973,0.6823377487529707
0.0405,1.7589937500000001,1.0,2735.60180865783,0.3659558283612904,1.3151709604670483,0.9656255165867974,0.2869307375,0.6832502094332854
0.041,1.757975,1.0,2735.3385948099094,0.3695123189327787,1.3147132697240276,0.966219569643994,0.28688795,0.684169508480904
0.0415,1.75694375,1.0,2734.9117787027703,0.3730488573580145,1.3142514195231731,0.9667940025262673,0.2868446375,0.6850958078050722
0.042,1.7559,1.0,2734.3322480919996,0.3765655557010607,1.3137853113341056,0.9673496627014908,0.28680079999999997,0.6860292678283113
0.0425,1.75484375,1.0,2733.6108995614386,0.38006252602597995,1.3133148466264453,0.9678873516405079,0.2867564375,0.6869700474599716
0.043000000000000003,1.753775,1.0,2732.758635599581,0.383539880396835,1.312839926869813,0.9684078277766537,0.28671155,0.6879183040691648
0.043500000000000004,1.75269375,1.0,2731.786361893019,0.38699773087768863,1.3123604535338294,0.9689118092459659,0.28666613750000003,0.6888741934570806
0.044,1.7516,1.0,2730.7010660966807,0.3904361883403042,1.311876363700103,0.9693999790565803,0.2866202,0.689837798996177
0.0445,1.75049375,1.0,2729.507068612649,0.39385535951769823,1.3113876187111733,0.9698729859406289,0.2865737375,0.690809154698294
0.045,1.7493750000000001,1.0,2728.2145209960127,0.39725535180475374,1.3108941269211059,0.9703314412574094,0.28652675,0.6917883987435055
0.0455,1.74824375,1.0,2726.832621685246,0.4006362725983272,1.3103958053171285,0.9707759258763478,0.2864792375,0.6927756506426379
0.046,1.7471,1.0,2725.3588523809144,0.4039982288180578,1.3098926774268997,0.9712069992417476,0.2864312,0.6937708178481743
0.0465,1.7459437726530649,1.0,2723.8199686130033,0.4073413277177911,1.309384510709691,0.9716251740547517,0.28638263845142875,0.6947743129238682
0.047,1.7447820251998223,1.0,2722.5415024801314,0.410665674606109,1.3088714848190899,0.9720309673408056,0.28633384505839254,0.6957857329899577
0.0475,1.74362027774658,1.0,2721.760621265003,0.4139713742000246,1.3083539321686928,0.9724248815829205,0.28628505166535634,0.6968043766457437
0.048,1.7424585302933373,1.0,2721.4405942000976,0.417258531216551,1.3078321851720975,0.9728073947949056,0.28623625827232013,0.6978295464673835
0.0485,1.7412967828400947,1.0,2721.546225676336,0.4205272497206322,1.307306563470385,0.9731789609790603,0.286187464879284,0.6988605741327238
0.049,1.740135035386852,1.0,2722.03912162594,0.4237776339541445,1.3067774167533985,0.9735400145685353,0.2861386714862478,0.6998967365118356
0.0495,1.7389732879336095,1.0,2722.8900947206002,0.4270097861122859,1.3062450116013637,0.973890963587553,0.2860898780932116,0.7009374772617366
0.05,1.737811540480367,1.0,2724.0711853425923,0.43022380810432115,1.305709603936398,0.9742321962539963,0.2860410847001754,0.7019822642252891
0.0505,1.7366497930271243,1.0,2725.5544729971107,0.43341980183951484,1.3051714496806188,0.9745640828337904,0.2859922913071392,0.70303056855813
0.051000000000000004,1.735488045573882,1.0,2727.323836640083,0.43659786419392815,1.3046306976681317,0.9748869690670509,0.285943497914103,0.7040820728259801
0.051500000000000004,1.7343262981206393,1.0,2729.336712917829,0.439758104464433,1.3040877373212203,0.9752012019688485,0.28589470452106686,0.705135994932591
0.052000000000000005,1.7331645506673967,1.0,2731.5767605417964,0.44290062075861486,1.3035427195617237,0.975507096480114,0.28584591112803065,0.706192019773829
0.0525,1.7320028032141541,1.0,2734.028758329449,0.44602551069494645,1.302995785159781,0.9758049528651025,0.2857971177349945,0.7072498538756626
0.053,1.7308410557609115,1.0,2736.6774829646347,0.44913287189190065,1.3024470748855312,0.976095058183093,0.2857483243419583,0.7083092056542917
0.0535,1.7296793083076691,1.0,2739.507703235712,0.45222280196795,1.3018967295091135,0.9763776869861274,0.2856995309489221,0.7093697854327206
0.054,1.7285175608544265,1.0,2742.5041747121536,0.4552953985415673,1.3013448898006668,0.9766531019741993,0.2856507375558859,0.7104313054560715
0.0545,1.727355813401184,1.0,2745.651634861388,0.45835075923122526,1.3007916965303299,0.9769215546108242,0.28560194416284973,0.7114934799056312
0.055,1.7261940659479413,1.0,2748.9347986039456,0.4613889816553965,1.300237290468242,0.9771832857016991,0.2855531507698135,0.7125560249116343
0.0555,1.7250323184946987,1.0,2752.3416203366714,0.4644101607551098,1.2996817828210194,0.9774385239371247,0.2855043573767774,0.713618715067651
0.056,1.7238705710414561,1.0,2755.859850362246,0.46741439387197586,1.299125286444489,0.9776874888159293,0.28545556398374117,0.7146813233721376
0.0565,1.7227088235882135,1.0,2759.476510199773,0.4704017791042296,1.2985679205582221,0.9779303912210202,0.28540677059070496,0.7157436122880714
0.057,1.7215470761349712,1.0,2763.184674985612,0.4733724089681802,1.2980097494305565,0.978167429759736,0.28535797719766876,0.7168054503964827
0.0575,1.7203853286817286,1.0,2766.977405307383,0.47632637598013694,1.2974508373298308,0.9783987950011893,0.2853091838046326,0.717866707180429
0.058,1.719223581228486,1.0,2770.847746102083,0.47926377265640874,1.2968912485243833,0.9786246698678429,0.2852603904115964,0.7189272530281661
0.0585,1.7180618337752434,1.0,2774.788725646671,0.4821846915133049,1.2963310472825527,0.9788452300050164,0.28521159701856025,0.7199869592360508
0.059000000000000004,1.7169000863220008,1.0,2778.7933546388413,0.48508922506713453,1.2957702978726773,0.9790606441297295,0.28516280362552404,0.7210456980111855
0.059500000000000004,1.7157383388687582,1.0,2782.854625370863,0.48797746583420676,1.2952090645630954,0.9792710743601902,0.28511401023248784,0.7221033424737953
0.06,1.7145765914155158,1.0,2786.965510993841,0.4908495063308307,1.2946474116221454,0.9794766765271499,0.28506521683945163,0.7231597666593432
0.0605,1.7134148439622732,1.0,2791.126002784701,0.49370542540589374,1.2940853400563468,0.9796775959799139,0.2850164234464155,0.7242149641707363
0.061,1.7122530965090306,1.0,2795.3228853211053,0.4965453321412431,1.2935229695016828,0.9798739812347118,0.2849676300533793,0.7252687065526602
0.0615,1.711091349055788,1.0,2799.552131914114,0.4993693161186345,1.2929603367714877,0.9800659692871508,0.2849188366603431,0.7263209218071955
0.062,1.7099296016025454,1.0,2803.81116512477,0.5021774638595498,1.2923974655750243,0.9802536910773255,0.2848700432673069,0.7273715628995614
0.0625,1.7087678541493028,1.0,2808.0973998841455,0.5049698618854708,1.2918343796215561,0.9804372726784016,0.2848212498742707,0.7284205831342522
0.063,1.7076061066960604,1.0,2812.408243374351,0.5077465967178793,1.2912711026203454,0.9806168355146728,0.2847724564812345,0.7294679361553834
0.0635,1.7064443592428178,1.0,2816.741094921543,0.5105077548782571,1.2907076582806558,0.9807924965682852,0.28472366308819835,0.7305135759469945
0.064,1.7052826117895752,1.0,2821.0933459017947,0.5132534228880862,1.2901440703117504,0.9809643685753033,0.28467486969516215,0.731557456833323
0.0645,1.7041208643363326,1.0,2825.4623796598294,0.5159836872688482,1.2895803624228916,0.9811325602117401,0.284626076302126,0.7325995334790394
0.065,1.70295911688309,1.0,2829.845571438882,0.5186986345420251,1.289016558323343,0.9812971762701322,0.2845772829090898,0.733639760889444
0.0655,1.7017973694298474,1.0,2834.240288324828,0.5213983512290988,1.2884526817223676,0.9814583178272096,0.2845284895160536,0.734678094410633
0.066,1.700635621976605,1.0,2838.6438892012397,0.524082923851551,1.287888756329228,0.9816160824031647,0.2844796961230174,0.7357144897296248
0.0665,1.6994738745233624,1.0,2843.0537247176712,0.5267524389308634,1.2873248058531876,0.9817705641130046,0.2844309027299812,0.7367489028744516
0.067,1.6983121270701198,1.0,2847.468986552177,0.5294069708850954,1.2867608375461148,0.981921852211863,0.284382109336945,0.7377813203120241
0.0675,1.6971503796168772,1.0,2851.888670419595,0.5320466025938403,1.2861968603800142,0.9820700335363861,0.28433331594390887,0.7388117254739243
0.068,1.6959886321636346,1.0,2856.308063704528,0.5346714421551697,1.2856329162496865,0.9822151951581376,0.28428452255087266,0.7398400419473841
0.0685,1.694826884710392,1.0,2860.726524463571,0.5372815687614424,1.2850690107781095,0.9823574176185393,0.28423572915783646,0.7408662598660398
0.069,1.6936651372571494,1.0,2865.1434088054475,0.5398770616050172,1.2845051495882611,0.9824967787554479,0.28418693576480025,0.7418903694443915
0.0695,1.692503389803907,1.0,2869.5580708958814,0.5424579998782534,1.2839413383031197,0.9826333538127884,0.2841381423717641,0.7429123609777848
0.07,1.6913416423506644,1.0,2873.9698629634627,0.5450244627735095,1.2833775825456633,0.9827672155450282,0.2840893489787279,0.7439322248423974
0.07050000000000001,1.6901798948974218,1.0,2878.3781353066956,0.5475765294831445,1.2828138879388697,0.9828984343167589,0.28404055558569175,0.7449499514952183
0.07100000000000001,1.6890181474441792,1.0,2882.7822363006285,0.5501142791995174,1.282250260105717,0.9830270781976527,0.28399176219265554,0.7459655314740277
0.07150000000000001,1.6878563999909366,1.0,2887.1815124051996,0.552637791114987,1.2816867046691836,0.9831532130530344,0.28394296879961933,0.746978955397373
0.07200000000000001,1.686694652537694,1.0,2891.575308174014,0.5551471444219124,1.2811232272522473,0.9832769026302994,0.2838941754065831,0.7479902139645451
0.0725,1.6855329050844516,1.0,2895.962966263484,0.5576424183126522,1.280559833477886,0.9833982086413976,0.283845382013547,0.7489992979555512
