Time [s],Phi [rad],STIM [ ],Fsee [N],Gamma [ ],Lcerel [ ],q [ ],Lmtc [m],fisomrel [ ]
0.0,1.8,1.0,19.083967215650283,0.0010783836123300714,1.3792165123921356,0.00529851434897275,0.288653,0.5414376171209989
0.0005,1.79999375,1.0,19.70515216856522,0.006681544041867549,1.3791467040857714,0.016170475229417062,0.2886527375,0.5416064310615322
0.001,1.799975,1.0,23.843205551179413,0.012253275171706652,1.378716632649494,0.04139072344750826,0.28865195,0.5426457657991972
0.0015,1.79994375,1.0,35.11452178341263,0.017793753295507392,1.3777121018118785,0.0783745663223985,0.2886506375,0.5450687759721082
0.002,1.7999,1.0,61.17893731943458,0.02330315371755614,1.375891635719722,0.12383222832178116,0.2886488,0.5494434891452546
0.0025,1.79984375,1.0,108.95374050607712,0.028781650760105408,1.3733812658522104,0.17443245649551298,0.28864643749999996,0.5554414231843143
0.003,1.7997750000000001,1.0,175.77643774059564,0.034229417765758,1.3706718918554321,0.22741203422514886,0.28864354999999997,0.561869734018861
0.0035,1.79969375,1.0,254.1151945629663,0.03964662710529577,1.3680870473455788,0.2806630162540319,0.2886401375,0.5679589463533598
0.004,1.7996,1.0,338.7670486356384,0.04503345018270552,1.36570387856618,0.3326279930204559,0.2886362,0.5735353099542498
0.0045000000000000005,1.7994937500000001,1.0,427.06175899745097,0.050390057448605474,1.3635095649578015,0.38224067757398145,0.2886317375,0.578637742934279
0.005,1.799375,1.0,517.4764169494787,0.05571661837371148,1.3614779162337143,0.42885163412009997,0.28862675,0.5833345538116449
0.0055,1.79924375,1.0,608.9488172199453,0.061013301510029996,1.3595867488708968,0.4721339283789247,0.2886212375,0.5876829401672787
0.006,1.7991000000000001,1.0,700.6339454732666,0.06628027444348097,1.3578192736290486,0.5119917721003909,0.2886152,0.5917262991695792
0.006500000000000001,1.79894375,1.0,791.823946422326,0.07151770355017467,1.3561627152416103,0.548484247120092,0.2886086375,0.5954978324991188
0.007,1.798775,1.0,881.9917133615002,0.07672575529619152,1.3546058379235046,0.5817661895034623,0.28860155,0.5990264659138047
0.0075,1.79859375,1.0,970.63696531042,0.0819045940461345,1.3531404547500876,0.6120475910677179,0.2885939375,0.6023336072031293
0.008,1.7984,1.0,1057.3555957653455,0.0870543832288384,1.3517594115465992,0.6395636749262837,0.2885858,0.6054378711364485
0.0085,1.79819375,1.0,1141.8721947128852,0.09217528614740561,1.3504556975204445,0.6645555155488684,0.2885771375,0.6083571558528659
0.009000000000000001,1.797975,1.0,1223.967882676174,0.0972674650575966,1.3492232142955742,0.6872587083181413,0.28856795,0.6111069725671794
0.0095,1.79774375,1.0,1303.460874101544,0.10233108077359009,1.3480567275544748,0.7078963984967431,0.2885582375,0.6137006199109378
0.01,1.7975,1.0,1380.2295687777291,0.10736629351330496,1.3469513222637204,0.7266753445301959,0.288548,0.6161504463630614
0.0105,1.79724375,1.0,1454.2073836690133,0.1123732629972474,1.345902326117581,0.743784415688566,0.2885372375,0.6184680509771894
0.011,1.796975,1.0,1525.3356195335678,0.11735214713377044,1.3449057688149297,0.7593946930147054,0.28852595000000003,0.6206632992288975
0.0115,1.79669375,1.0,1593.596475406767,0.12230310329462393,1.3439578396479932,0.773659872065682,0.2885141375,0.6227455502062673
0.012,1.7964,1.0,1659.0188294614602,0.12722628903302013,1.3430547466323446,0.7867173461619689,0.28850180000000003,0.6247239821843682
0.0125,1.79609375,1.0,1721.624088114206,0.1321218598851919,1.3421932839049544,0.7986898038090225,0.2884889375,0.6266063662319621
0.013000000000000001,1.7957750000000001,1.0,1781.4380170523623,0.13698997004358537,1.3413706029621297,0.8096865187941089,0.28847555,0.6283995900295662
0.0135,1.79544375,1.0,1838.5172356731746,0.14183077370064656,1.3405838553001768,0.819804593282359,0.2884616375,0.6301104512400136
0.014,1.7951000000000001,1.0,1892.9276400599542,0.14664442398499022,1.3398303982828805,0.8291303628747573,0.2884472,0.6317452181214885
0.0145,1.79474375,1.0,1944.7623064744923,0.15143107451060975,1.339107561224403,0.8377405289228359,0.2884322375,0.6333101464299674
0.015,1.794375,1.0,1994.0780384394384,0.15619087563735637,1.338413298483077,0.8457034906334396,0.28841675,0.6348100746486092
0.0155,1.79399375,1.0,2040.9456419321248,0.16092397751581988,1.3377456030999046,0.853080116484294,0.2884007375,0.6362497053146737
0.016,1.7936,1.0,2085.4516266611977,0.1656305302654945,1.3371024713750632,0.8599246228953599,0.2883842,0.6376336855638542
0.0165,1.7931937500000001,1.0,2127.6824073016414,0.1703106825535196,1.336482051059101,0.866285405980051,0.2883671375,0.6389662924587393
0.017,1.792775,1.0,2167.7397874892577,0.17496458423616418,1.3358824631562325,0.8722056798974172,0.28834955,0.6402518206125706
0.0175,1.7923437500000001,1.0,2205.690980922694,0.17959238116464624,1.3353022970489,0.8777242220095431,0.2883314375,0.6414935254902145
0.018000000000000002,1.7919,1.0,2241.6123634993546,0.1841942191901836,1.3347401421195457,0.8828757641391394,0.2883128,0.642694634100084
0.0185,1.79144375,1.0,2275.588711392264,0.18877024416399424,1.3341945877506118,0.8876914643758537,0.2882936375,0.6438583466779293
0.019,1.790975,1.0,2307.699388795606,0.19332060037509396,1.3336643527692664,0.892199351377336,0.28827395,0.6449875627903907
0.0195,1.79049375,1.0,2338.0416326112504,0.19784543424193804,1.3331480459348815,0.8964246262494637,0.2882537375,0.6460853937811548
0.02,1.79,1.0,2366.6863898383817,0.2023448882352535,1.332644594738466,0.9003900796104722,0.288233,0.6471542525232199
0.0205,1.78949375,1.0,2393.698847814214,0.20681910346119187,1.3321530314459253,0.9041163116717742,0.2882117375,0.648196312822966
0.021,1.788975,1.0,2419.1485725232974,0.21126822102590445,1.331672388323165,0.9076219517732771,0.28818995000000003,0.6492137334949225
0.021500000000000002,1.78844375,1.0,2443.1091427873625,0.21569238203554272,1.3312016976360903,0.9109238740065517,0.2881676375,0.6502086590655989
0.022,1.7879,1.0,2465.6511647049397,0.22009172617855807,1.330740055157814,0.9140373989339734,0.2881448,0.6511830864611168
0.0225,1.78734375,1.0,2486.847364987369,0.2244663944963353,1.3302865672213278,0.9169764500614777,0.28812143749999997,0.6521389780393857
0.023,1.786775,1.0,2506.761906379079,0.2288165260710651,1.3298404491428266,0.9197537176213104,0.28809755,0.6530780551953393
0.0235,1.78619375,1.0,2525.448239165719,0.2331422568942406,1.329401041001787,0.9223807881766978,0.28807313749999996,0.6540017671777395
0.024,1.7856,1.0,2542.9619014551427,0.23744372295735494,1.328967682877686,0.9248682359783136,0.2880482,0.654911554917367
0.0245,1.78499375,1.0,2559.360343232239,0.24172106025190124,1.32853971485,0.9272257253436522,0.2880227375,0.655808851295538
0.025,1.784375,1.0,2574.702760069433,0.2459744047693726,1.328116476998206,0.9294621014408259,0.28799675,0.65669508138484
0.025500000000000002,1.78374375,1.0,2589.0377063428,0.2502038893424736,1.3276974235448284,0.9315854884562619,0.2879702375,0.6575714241137798
0.026000000000000002,1.7831000000000001,1.0,2602.427018244019,0.25440965218012496,1.3272818973198497,0.9336033263761966,0.2879432,0.6584392847153041
0.0265,1.78244375,1.0,2614.9174232872097,0.2585918263586941,1.3268693936704727,0.9355224739479329,0.2879156375,0.6592997432445712
0.027,1.781775,1.0,2626.5476141310714,0.2627505422328511,1.3264594920267425,0.9373492534814785,0.28788755,0.660153699188907
0.0275,1.7810937500000001,1.0,2637.357154009042,0.2668859301572659,1.3260517718187046,0.9390894890335881,0.2878589375,0.6610020474932506
0.028,1.7804,1.0,2647.3864017883097,0.2709981204866085,1.3256458124764041,0.9407485522535413,0.2878298,0.661845678624307
0.0285,1.77969375,1.0,2656.6764409501475,0.27508724357554876,1.3252411934298862,0.94233140345588,0.2878001375,0.6626854786234162
0.029,1.778975,1.0,2665.2690124920246,0.27915342977875673,1.3248374941091965,0.943842628468938,0.28776995,0.6635223291481434
0.029500000000000002,1.7782437500000001,1.0,2673.1828356360265,0.28319680559374255,1.3244345108548665,0.9452864999344999,0.2877392375,0.6643566586937613
0.03,1.7775,1.0,2680.486858047851,0.2872175036971899,1.3240315830199167,0.9466669175931248,0.287708,0.665189838028083
0.0305,1.77674375,1.0,2687.220547942003,0.29121565186204634,1.3236283257536756,0.9479875336506456,0.2876762375,0.6660226618937272
0.031,1.775975,1.0,2693.4010608564804,0.2951913744136527,1.3232245621069827,0.9492517647434139,0.28764395,0.6668554925087669
0.0315,1.7751937500000001,1.0,2699.045820876336,0.2991447956773496,1.322820115130677,0.9504627862964139,0.2876111375,0.6676886902647207
0.032,1.7744,1.0,2704.172500820301,0.30307603997847776,1.3224148078755984,0.9516235525276134,0.2875778,0.6685226137198373
0.0325,1.7735939462451875,1.0,2708.808716420705,0.30698523164237795,1.322008463392586,0.9527368145624854,0.28754394574229786,0.6693576195903879
0.033,1.7727836612236723,1.0,2713.3724794007635,0.3108724949943909,1.3216009047324795,0.9538051368574536,0.28750991377139423,0.6701940627399574
0.0335,1.7719733762021572,1.0,2718.0928068957437,0.31473795435985724,1.3211919549461184,0.9548309121081561,0.2874758818004906,0.6710322961667432
0.034,1.771163091180642,1.0,2722.966742401711,0.31858172866767287,1.3207816445613578,0.9558163965477571,0.287441849829587,0.6718722465322408
0.0345,1.7703528061591267,1.0,2727.9373129643573,0.3224039465350375,1.3203704952377666,0.9567637550606725,0.2874078178586833,0.6727128373122071
0.035,1.7695425211376115,1.0,2732.992756292255,0.3262047269231224,1.3199586161135368,0.95767496511303,0.2873737858877797,0.6735538392050714
0.035500000000000004,1.7687322361160964,1.0,2738.1224857501097,0.3299841882279332,1.3195461052894495,0.9585518766455983,0.28733975391687605,0.674395046538087
0.036000000000000004,1.7679219510945812,1.0,2743.3158771313765,0.3337424488454753,1.3191330608662861,0.9593962229859339,0.2873057219459724,0.6752362546623576
0.0365,1.767111666073066,1.0,2748.562267391043,0.33747962717175445,1.3187195809448276,0.9602096295293868,0.28727168997506874,0.6760772599564844
0.037,1.7663013810515507,1.0,2753.8509535916464,0.3411958416027762,1.3183057636258553,0.9609936216807043,0.2872376580041651,0.6769178598295955
0.0375,1.7654910960300354,1.0,2759.171192062769,0.34489121053454613,1.3178917070101506,0.9617496321267005,0.2872036260332615,0.6777578527237647
0.038,1.7646808110085204,1.0,2764.514271867324,0.3485658496916706,1.317477490465535,0.9624790051586175,0.28716959406235787,0.6785970760449811
0.0385,1.7638705259870051,1.0,2769.8736381197295,0.35221987454851633,1.3170631736010086,0.9631830034158515,0.2871355620914542,0.6794354079912523
0.039,1.7630602409654899,1.0,2775.237101782787,0.3558534092441054,1.3166488665844565,0.9638628218910968,0.28710153012055056,0.6802726252894742
0.0395,1.7622499559439746,1.0,2780.601242066052,0.35946656584394493,1.3162346001939838,0.9645195767060294,0.28706749814964694,0.6811086659443599
0.04,1.7614396709224596,1.0,2785.962624994576,0.36305945641354204,1.3158204052076954,0.9651543201193569,0.2870334661787433,0.6819434682858645
0.0405,1.7606293859009443,1.0,2791.3178034464745,0.3666321930184039,1.315406312403696,0.9657680448600687,0.2869994342078397,0.6827769709690754
0.041,1.759819100879429,1.0,2796.663317212481,0.3701848877240376,1.3149923525600908,0.9663616881229239,0.286965402236936,0.6836091129740416
0.0415,1.7590088158579138,1.0,2801.9956930763133,0.3737176525959504,1.314578556454985,0.9669361352557672,0.2869313702660324,0.6844398336055415
0.042,1.7581985308363985,1.0,2807.311444915439,0.37723059969964934,1.3141649548664829,0.9674922231653799,0.28689733829512876,0.6852690724927959
0.0425,1.7573882458148835,1.0,2812.6070738236144,0.3807238411006416,1.3137515785726899,0.9680307434660302,0.2868633063242251,0.686096769589111
0.043000000000000003,1.7565779607933683,1.0,2817.879068254319,0.38419748886443433,1.3133384583517107,0.9685524453925852,0.28682927435332145,0.6869228651714709
0.043500000000000004,1.755767675771853,1.0,2823.128209118085,0.38765163741386044,1.3129255865057587,0.9690580327125253,0.2867952423824178,0.6877473766263613
0.044,1.7549573907503377,1.0,2828.3487194371755,0.3910864173676385,1.3125130139271883,0.9695481825002005,0.2867612104115142,0.6885702044838807
0.0445,1.7541471057288227,1.0,2833.5385240751543,0.39450194109944986,1.312100758300488,0.9700235313383686,0.2867271784406106,0.6893913159064425
0.045,1.7533368207073075,1.0,2838.697286665385,0.39789831290681765,1.3116888217533376,0.9704846808071408,0.2866931464697069,0.6902107091645924
0.0455,1.7525265356857922,1.0,2843.8246706475356,0.401275637087265,1.3112772064134166,0.9709322019979311,0.28665911449880327,0.691028382549296
0.046,1.751716250664277,1.0,2848.92033928228,0.40463401793831516,1.3108659144084047,0.9713666373535601,0.28662508252789964,0.6918443343718954
0.0465,1.7509059656427617,1.0,2853.983955666968,0.4079735597574913,1.3104549478659815,0.9717885023802877,0.28659105055699596,0.6926585629640648
0.047,1.7500956806212467,1.0,2859.015182750694,0.41129436684231657,1.3100443089138267,0.9721982872418286,0.28655701858609234,0.6934710666777666
0.0475,1.7492853955997314,1.0,2864.013683349736,0.4145965434903142,1.3096339996796198,0.9725964582445263,0.2865229866151887,0.694281843885208
0.048,1.7484751105782161,1.0,2868.979120162991,0.4178801939990074,1.3092240222910407,0.9729834592220782,0.2864889546442851,0.6950908929787945
0.0485,1.7476648255567009,1.0,2873.911155787714,0.42114542266591926,1.3088143788757687,0.9733597128274707,0.28645492267338146,0.695898212371088
0.049,1.7468545405351856,1.0,2878.8094527350527,0.42439233378857305,1.3084050715614837,0.9737256217391527,0.2864208907024778,0.6967038004947581
0.0495,1.7460442555136706,1.0,2883.6736734461924,0.42762103166449195,1.307996102475865,0.9740815697878743,0.28638685873157416,0.6975076558025397
0.05,1.7452339704921553,1.0,2888.5034803077533,0.43083162059119906,1.3075874737465927,0.9744279230100823,0.28635282676067053,0.6983097767671849
0.0505,1.74442368547064,1.0,2893.299105385453,0.4340241840635618,1.307179182471553,0.9747650279547191,0.28631879478976685,0.6991101717350392
0.051000000000000004,1.7436134004491248,1.0,2898.061021131205,0.4371988296953405,1.3067712236444462,0.9750932180191167,0.2862847628188632,0.699908853136764
0.051500000000000004,1.7428031154276098,1.0,2902.789002754641,0.44035568664992264,1.3063635984275483,0.9754128142947276,0.2862507308479596,0.7007058212963135
0.052000000000000005,1.7419928304060945,1.0,2907.4835017787236,0.44349484993959204,1.305956302029553,0.9757241194357308,0.286216698877056,0.7015010881645438
0.0525,1.7411825453845793,1.0,2912.144972210353,0.4466164145766327,1.305549329659153,0.9760274227401914,0.28618266690615235,0.702294665640441
0.053,1.740372260363064,1.0,2916.773870505318,0.4497204755733286,1.3051426765250411,0.9763230008548225,0.28614863493524867,0.7030865655712185
0.0535,1.7395619753415488,1.0,2921.3706555345366,0.45280712794196376,1.3047363378359105,0.9766111184367191,0.28611460296434504,0.7038767997524167
0.054,1.7387516903200337,1.0,2925.935788549887,0.4558764666948221,1.304330308800454,0.9768920287750353,0.2860805709934414,0.7046653799279983
0.0545,1.7379414052985185,1.0,2930.4697331515013,0.4589285868441876,1.3039245846273648,0.9771659743753464,0.2860465390225378,0.7054523177904457
0.055,1.7371311202770032,1.0,2934.9729552548533,0.46196358340234417,1.3035191605253358,0.977433187509236,0.2860125070516341,0.7062376249808529
0.0555,1.736320835255488,1.0,2939.4459230589327,0.4649815513815759,1.3031140317030598,0.9776938907314482,0.2859784750807305,0.7070213130890193
0.056,1.7355105502339727,1.0,2943.8891070140785,0.4679825857941666,1.30270919336923,0.977948297366771,0.28594444310982686,0.7078033936535397
0.0565,1.7347002652124577,1.0,2948.3029797916174,0.4709667816524003,1.3023046407325392,0.9781966119686635,0.28591041113892324,0.7085838781618955
0.057,1.7338899801909424,1.0,2952.6880162523344,0.47393423396856105,1.3019003690016806,0.9784390307514773,0.28587637916801956,0.7093627780505392
0.0575,1.7330796951694272,1.0,2957.044693417473,0.4768850377549327,1.3014963733853468,0.9786757419979986,0.28584234719711593,0.7101401047049858
0.058,1.732269410147912,1.0,2961.3734904381586,0.47981928802379925,1.3010926490922312,0.9789069264439096,0.2858083152262123,0.7109158694598933
0.0585,1.7314591251263969,1.0,2965.6748885668326,0.4827370797874447,1.3006891913310266,0.9791327576406449,0.2857742832553087,0.7116900835991495
0.059000000000000004,1.7306488401048816,1.0,2969.9493711286837,0.48563850805815295,1.3002859953104258,0.9793534022980249,0.28574025128440506,0.7124627583559533
0.059500000000000004,1.7298385550833664,1.0,2974.196967131306,0.4885236393805851,1.2998830602129763,0.9795690184981809,0.2857062193135014,0.7132338973128203
0.06,1.7290282700618511,1.0,2978.4180257028693,0.4913925479199219,1.2994803824419783,0.9797797587146919,0.28567218734259775,0.7140035093507858
0.0605,1.7282179850403359,1.0,2982.6142320147796,0.4942453940147755,1.2990779467973752,0.9799857757963304,0.2856381553716941,0.7147716254447272
0.061,1.7274077000188208,1.0,2986.78596405855,0.4970822620474278,1.2986757494838903,0.9801872113172501,0.28560412340079044,0.7155382546882538
0.0615,1.7265974149973056,1.0,2990.933601428292,0.4999032364001603,1.2982737867062473,0.9803842015134516,0.2855700914298868,0.7163034061349366
0.062,1.7257871299757903,1.0,2995.0575253004195,0.5027084014552549,1.2978720546691693,0.9805768775245131,0.2855360594589832,0.7170670887983654
0.0625,1.724976844954275,1.0,2999.158118414301,0.5054978415949932,1.2974705495773804,0.9807653656226177,0.28550202748807957,0.7178293116522043
0.063,1.72416655993276,1.0,3003.2357650530816,0.508271641201657,1.2970692676356035,0.9809497874296375,0.28546799551717594,0.7185900836302493
0.0635,1.7233562749112448,1.0,3007.290851024465,0.5110298846575281,1.2966682050485623,0.981130260122979,0.28543396354627226,0.7193494136264803
0.064,1.7225459898897295,1.0,3011.3237636424783,0.513772656344888,1.2962673580209805,0.9813068966308544,0.28539993157536864,0.7201073104951153
0.0645,1.7217357048682143,1.0,3015.33489170886,0.5165000406460186,1.295866722757581,0.9814798058175889,0.285365899604465,0.7208637830506655
0.065,1.720925419846699,1.0,3019.3246254950495,0.5192121219432017,1.2954662954630882,0.9816490926595487,0.28533186763356133,0.7216188400679817
0.0655,1.720115134825184,1.0,3023.2933567249734,0.5219089846187187,1.2950660723422247,0.9818148584122236,0.2852978356626577,0.7223724902823119
0.066,1.7193048498036687,1.0,3027.24147855719,0.5245907130548517,1.2946660495997144,0.9819772007689702,0.2852638036917541,0.7231247423893452
0.0665,1.7184945647821535,1.0,3031.1693855680046,0.5272573916338823,1.2942662234402809,0.982136214011891,0.28522977172085046,0.7238756050452637
0.067,1.7176842797606382,1.0,3035.0774737350107,0.5299091047380922,1.2938665900686475,0.9822919891552894,0.28519573974994683,0.7246250868667905
0.0675,1.7168739947391232,1.0,3038.9661404204658,0.5325459367497631,1.2934671456895375,0.9824446140821163,0.28516170777904315,0.7253731964312367
0.068,1.716063709717608,1.0,3042.8357843552626,0.5351679720511768,1.2930678865076748,0.982594173673798,0.2851276758081395,0.7261199422765454
0.0685,1.7152534246960927,1.0,3046.686805623359,0.537775295024615,1.2926688087277824,0.9827407499338108,0.2850936438372359,0.7268653329013415
0.069,1.7144431396745774,1.0,3050.519605645903,0.5403679900523594,1.2922699085545843,0.9828844221053405,0.2850596118663322,0.727609376764971
0.0695,1.7136328546530621,1.0,3054.3345871668575,0.5429461415166917,1.2918711821928037,0.9830252667833563,0.2850255798954286,0.7283520822875484
0.07,1.712822569631547,1.0,3058.1321542375204,0.5455098337998938,1.2914726258471643,0.9831633580213929,0.28499154792452497,0.7290934578499968
0.07050000000000001,1.7120122846100319,1.0,3061.912712202404,0.5480591512842472,1.2910742357223892,0.9832987674333281,0.28495751595362134,0.7298335117940912
0.07100000000000001,1.7112019995885166,1.0,3065.6764647365258,0.5505941639275311,1.2906760097638463,0.9834315635166465,0.2849234839827177,0.7305722491956899
