Time [s],Phi [rad],STIM [ ],Fsee [N],Gamma [ ],Lcerel [ ],q [ ],Lmtc [m],fisomrel [ ]
0.0,1.8,1.0,17.97006663305525,5.223062235505055e-05,1.379339420387506,0.005000717646448464,0.288653,0.541140319324206
0.0005,1.79999375,1.0,18.293434541294623,0.0056611469586767636,1.3793005342345486,0.013058169326684906,0.2886527375,0.5412343900809504
0.001,1.799975,1.0,21.666443462310248,0.011238601709066633,1.3789333960228503,0.03582897123821575,0.28865195,0.5421220707225438
0.0015,1.79994375,1.0,31.184182087356714,0.016784771349044842,1.378036419758424,0.0709031817920634,0.2886506375,0.5442871981384969
0.002,1.7999,1.0,53.83075405980967,0.02229983136241429,1.3763520375947873,0.11507475144223474,0.2886488,0.5483391064995276
0.0025,1.79984375,1.0,97.53687912391143,0.02778395624911584,1.373915049277953,0.16496289394288888,0.28864643749999996,0.5541694385314604
0.003,1.7997750000000001,1.0,161.5023973621194,0.033237319532554405,1.3711939898797392,0.2176806958344559,0.28864354999999997,0.560634636087883
0.0035,1.79969375,1.0,238.29846636788827,0.03866009375950136,1.3685657986969089,0.2710109499432679,0.2886401375,0.5668343495883599
0.004,1.7996,1.0,322.121344903471,0.04405245051079268,1.3661387640591485,0.3233012184955171,0.2886362,0.572520425552421
0.0045000000000000005,1.7994937500000001,1.0,409.9456713740551,0.049414560406537904,1.3639069073708232,0.37340035911602665,0.2886317375,0.5777160802544742
0.005,1.799375,1.0,500.10528618209264,0.054746593097412075,1.3618436471236068,0.42058973562764357,0.28862675,0.5824909918248938
0.0055,1.79924375,1.0,591.4883814886947,0.06004871730987545,1.3599252025323831,0.4644905876266987,0.2886212375,0.5869064049171652
0.006,1.7991000000000001,1.0,683.2170004903693,0.06532110079479159,1.3581337139986915,0.5049711779166085,0.2886152,0.5910084276068348
0.006500000000000001,1.79894375,1.0,774.5785673383024,0.0705639103789275,1.356455352767211,0.5420670008649683,0.2886086375,0.5948328491186325
0.007,1.798775,1.0,864.9771676992802,0.07577731194705735,1.3548792296060372,0.5759193844581822,0.28860155,0.5984079476856681
0.0075,1.79859375,1.0,953.920213370183,0.08096147037844166,1.3533963681110566,0.6067305903862031,0.2885939375,0.6017570376464114
0.008,1.7984,1.0,1041.0282182995768,0.08611654998426574,1.3519987870099486,0.634732508508621,0.2885858,0.6049006822178726
0.0085,1.79819375,1.0,1125.970235149763,0.09124271349256727,1.3506799561953293,0.6601665116209972,0.2885771375,0.6078557663355928
0.009000000000000001,1.797975,1.0,1208.510226863349,0.09634012312918733,1.3494337005455057,0.6832698713810411,0.28856795,0.610638038657761
0.0095,1.79774375,1.0,1288.489856538841,0.10140894076152951,1.3482542162021245,0.7042681192056918,0.2885582375,0.6132621202086861
0.01,1.7975,1.0,1365.7587541754465,0.10644932615811438,1.34713678109554,0.7233712988493897,0.288548,0.6157399719726633
0.0105,1.79724375,1.0,1440.2282943973778,0.11146143878036104,1.3460768281819606,0.7407716485354942,0.2885372375,0.6180830006234493
0.011,1.796975,1.0,1511.8621171363081,0.11644543736083728,1.3450699590839457,0.7566433039377081,0.28852595000000003,0.6203020514598345
0.0115,1.79669375,1.0,1580.650236941831,0.12140148016296319,1.3441121611856648,0.7711429812901311,0.2885141375,0.6224069532019485
0.012,1.7964,1.0,1646.5755726605346,0.126329723200818,1.3432000957591401,0.7844111584931831,0.28850180000000003,0.6244059128536896
0.0125,1.79609375,1.0,1709.6624641202839,0.1312303224884809,1.3423304240763925,0.7965730782044007,0.2884889375,0.6263070177030526
0.013000000000000001,1.7957750000000001,1.0,1769.9543390056372,0.13610343288735202,1.3415000179643013,0.8077402593020058,0.28847555,0.6281177861300443
0.0135,1.79544375,1.0,1827.529295738487,0.1409492101066565,1.340705731850677,0.8180118110326311,0.2884616375,0.6298456769263221
0.014,1.7951000000000001,1.0,1882.425118625345,0.14576780622182955,1.339945191863888,0.8274760645146423,0.2884472,0.6314963856142358
0.0145,1.79474375,1.0,1934.7022395237736,0.150559373260234,1.3392160332420353,0.8362114965207812,0.2884322375,0.633075519105671
0.015,1.794375,1.0,1984.4425277198325,0.15532406324923262,1.3385158912232205,0.8442878629792011,0.28841675,0.6345886205017499
0.0155,1.79399375,1.0,2031.7276503158384,0.1600620266444725,1.3378426092293416,0.8517672865859919,0.2884007375,0.6360407250928265
0.016,1.7936,1.0,2076.660080741952,0.1647734151730575,1.3371939903191759,0.8587050791414635,0.2883842,0.6374369033566056
0.0165,1.7931937500000001,1.0,2119.3037512616456,0.16945837649809076,1.3365683959264345,0.8651507248913242,0.2883671375,0.6387809785188356
0.017,1.792775,1.0,2159.7345993748454,0.17411705827443918,1.3359641885177724,0.8711484021825996,0.28834955,0.6400767348010035
0.0175,1.7923437500000001,1.0,2198.0396535431155,0.17874960815696958,1.3353797305598447,0.8767376103633446,0.2883314375,0.6413279219694068
0.018000000000000002,1.7919,1.0,2234.302277472613,0.18335617238417212,1.3348135232014846,0.8819537562321333,0.2883128,0.6425379613565336
0.0185,1.79144375,1.0,2268.6224027246435,0.18793689888160275,1.3342639903868394,0.8868285764509353,0.2882936375,0.6437104104931981
0.019,1.790975,1.0,2301.0732297506474,0.19249193178806437,1.3337299026193792,0.8913906655158158,0.28827395,0.6448480615359047
0.0195,1.79049375,1.0,2331.724407053292,0.19702141410251733,1.3332101301646817,0.8956657738059502,0.2882537375,0.6459534730728185
0.02,1.79,1.0,2360.6513661680256,0.20152548882392196,1.3327035432883247,0.8996771067301113,0.288233,0.6470291845771488
0.0205,1.78949375,1.0,2387.9348358434463,0.20600429895123862,1.3322090122558863,0.9034456105100938,0.2882117375,0.6480777173978585
0.021,1.788975,1.0,2413.64616324588,0.21045798548972952,1.331725544796769,0.9069902517581384,0.28818995000000003,0.649101284851042
0.021500000000000002,1.78844375,1.0,2437.8728478902544,0.21488669225322918,1.3312520329675581,0.9103281825844572,0.2881676375,0.6501023298943234
0.022,1.7879,1.0,2460.67682064868,0.219290558414137,1.3307876518301076,0.9134750153838095,0.2881448,0.6510826830252663
0.0225,1.78734375,1.0,2482.115808848308,0.22366972199487878,1.3303316461445118,0.9164449445453009,0.28812143749999997,0.6520440164395951
0.023,1.786775,1.0,2502.250267269796,0.22802432101788028,1.329883260670865,0.9192508826922827,0.28809755,0.65298799212104
0.0235,1.78619375,1.0,2521.143149697971,0.23235449350556725,1.3294417401692622,0.9219045941642983,0.28807313749999996,0.6539162622265572
0.024,1.7856,1.0,2538.8552855941875,0.23666037666305265,1.3290063709394646,0.9244168201566862,0.2880482,0.6548303822743732
0.0245,1.78499375,1.0,2555.4441138026755,0.24094210687498427,1.3285764901324486,0.9267973838368952,0.2880227375,0.6557317925135233
0.025,1.784375,1.0,2570.980827812648,0.24519982255425327,1.3281513227091535,0.9290552550868216,0.28799675,0.6566221600900288
0.025500000000000002,1.78374375,1.0,2585.5083592408564,0.24943365643023796,1.3277303739412998,0.9311986975816868,0.2879702375,0.6575025573861474
0.026000000000000002,1.7831000000000001,1.0,2599.070905166069,0.2536437412323166,1.3273131491006072,0.9332352928190695,0.2879432,0.658374051102818
0.0265,1.78244375,1.0,2611.713822647231,0.25783020968986736,1.3268991534587964,0.9351720056409256,0.2879156375,0.6592377023849563
0.027,1.781775,1.0,2623.4835286687894,0.26199319453226866,1.3264878922875871,0.9370152426638566,0.28788755,0.6600945669311509
0.0275,1.7810937500000001,1.0,2634.4274055120177,0.26613282848889863,1.3260788708586995,0.9387709044612217,0.2878589375,0.660945695087741
0.028,1.7804,1.0,2644.588262155129,0.27024924031853564,1.3256716447657093,0.9404444380234995,0.2878298,0.6617920274094313
0.0285,1.77969375,1.0,2654.0139750619596,0.27434256566537246,1.325265729835884,0.9420408692914083,0.2878001375,0.6626345822523267
0.029,1.778975,1.0,2662.737645224571,0.2784129320102639,1.3248607844138136,0.94356486072364,0.28776995,0.6634740776468168
0.029500000000000002,1.7782437500000001,1.0,2670.79256449258,0.28246046659339846,1.3244564700961212,0.9450207270118397,0.2877392375,0.6643112213417246
0.03,1.7775,1.0,2678.2125187019237,0.28648529665496464,1.3240524484794294,0.9464124651441277,0.287708,0.6651467175844604
0.0305,1.77674375,1.0,2685.0317418540294,0.2904875494351509,1.323648381160361,0.9477437818322506,0.2876762375,0.6659812671309876
0.031,1.775975,1.0,2691.284872833982,0.29446735217414594,1.323243929735539,0.9490181182467201,0.28764395,0.6668155672484884
0.0315,1.7751937500000001,1.0,2697.0004503584314,0.2984248278704732,1.3228388149126444,0.9502386783970401,0.2876111375,0.6676501900057377
0.032,1.7744,1.0,2702.205992445551,0.30236010115053286,1.3224327694730926,0.9514084447917361,0.2875778,0.6684856797509933
0.0325,1.77359375,1.0,2706.9457305589312,0.30627330897125293,1.3220253760785676,0.9525301802831053,0.2875439375,0.6693228863566871
0.033,1.772775,1.0,2711.239607648339,0.31016457158981836,1.3216164415630742,0.9536064815189738,0.28750955,0.6701621955239339
0.0335,1.7719437500000002,1.0,2715.107749407041,0.3140340092634142,1.3212057727606166,0.9546397709174426,0.2874746375,0.6710039908968596
0.034,1.7711000000000001,1.0,2718.5704471080476,0.3178817422492253,1.3207931765051992,0.9556323104319533,0.2874392,0.6718486540424238
0.0345,1.7702437500000001,1.0,2721.6481412688977,0.32170789080443674,1.3203784596308268,0.956586214074055,0.2874032375,0.6726965644278657
0.035,1.7693750000000001,1.0,2724.3614061427375,0.32551257518623344,1.3199614289715036,0.9575034593190532,0.28736675,0.6735480993957701
0.035500000000000004,1.76849375,1.0,2726.7309350375863,0.3292959156518004,1.3195418913612342,0.9583858975058737,0.2873297375,0.6744036341367512
0.036000000000000004,1.7676,1.0,2728.7775264618263,0.3330580324583226,1.319119653634023,0.9592352633302887,0.2872922,0.6752635416597614
0.0365,1.76669375,1.0,2730.522071098269,0.3367990458629849,1.3186945226238747,0.9600531835199275,0.2872541375,0.6761281927600149
0.037,1.765775,1.0,2731.985539604062,0.3405190761229724,1.3182663051647934,0.9608411847699897,0.28721555,0.6769979559845365
0.0375,1.76484375,1.0,2733.1767481860725,0.3442182352828115,1.317834919118841,0.9616007101200176,0.2871764375,0.6778729725405607
0.038,1.7639,1.0,2734.120325301156,0.3478966486509961,1.317400139192414,0.9623331049199776,0.28713679999999997,0.6787536723234575
0.0385,1.76294375,1.0,2734.8347667987873,0.3515544347288505,1.316961796263633,0.9630396385843192,0.28709663750000003,0.6796403689710815
0.039,1.761975,1.0,2735.331142744038,0.3551917063541154,1.316519789001109,0.9637215112285046,0.28705595,0.6805332371514458
0.0395,1.7609937500000001,1.0,2735.6205542636803,0.35880857636453145,1.3160740160734536,0.9643798533512397,0.2870147375,0.6814324501377493
0.04,1.76,1.0,2735.7141292094634,0.3624051575978396,1.3156243761492772,0.9650157306137401,0.286973,0.6823381797843737
0.0405,1.7589937500000001,1.0,2735.6230180494936,0.3659815628917804,1.3151707678971913,0.9656301482420463,0.2869307375,0.6832505965022154
0.041,1.757975,1.0,2735.358389987051,0.3695379050840948,1.3147130899858068,0.9662240550857742,0.28688795,0.684169869233372
0.0415,1.75694375,1.0,2734.931429307029,0.37307429701252337,1.314251241083735,0.9667983473634371,0.2868446375,0.6850961654251666
0.042,1.7559,1.0,2734.3533319502617,0.37659085151480703,1.3137851198595867,0.9673538721215305,0.28680079999999997,0.6860296510035231
0.0425,1.75484375,1.0,2733.6353023155443,0.38008768142868643,1.3133146249819732,0.9678914304319901,0.2867564375,0.6869704903456809
0.043000000000000003,1.753775,1.0,2732.7833549843585,0.38356489325319854,1.3128397023144582,0.9684117831820719,0.28671155,0.6879187520912027
0.043500000000000004,1.75269375,1.0,2731.809472698051,0.38702260234707697,1.3123602435537152,0.9689156478808905,0.28666613750000003,0.6888746117572186
0.044,1.7516,1.0,2730.7253599518676,0.3904609221500403,1.3118761429271988,0.9694037042081897,0.2866202,0.6898382381149665
0.0445,1.75049375,1.0,2729.537101666138,0.39387995865692277,1.3113873457231704,0.96987659934548,0.2865737375,0.6908096968223175
0.045,1.7493750000000001,1.0,2728.2507837428493,0.39727981786255856,1.310893797229891,0.9703349471617748,0.28652675,0.6917890524361587
0.0455,1.74824375,1.0,2726.8724919480937,0.40066060576178186,1.3103954427356221,0.9707793302489649,0.2864792375,0.6927763683959092
0.046,1.7471,1.0,2725.4083108611444,0.4040224283494269,1.3098922275286249,0.9712103018138126,0.2864312,0.6937717070068463
0.0465,1.7459437500000001,1.0,2723.8643228897013,0.40736539162032787,1.3093840968971602,0.9716283874379456,0.28638263750000004,0.6947751294232418
0.047,1.744775,1.0,2722.2466073509836,0.41068960156931894,1.3088709961294895,0.972034086716235,0.28633355,0.6957866956313038
0.0475,1.74359375,1.0,2720.56123962076,0.4139951641912343,1.3083528705138743,0.9724278747830366,0.28628393750000003,0.6968064644319321
0.048,1.7424,1.0,2718.814290346552,0.4172821854809081,1.3078296653385753,0.9728102037349453,0.2862338,0.6978344934232805
0.0485,1.74119375,1.0,2717.0107888173625,0.4205507700050333,1.3073013353295166,0.9731815044387888,0.2861831375,0.6988708204869132
0.049,1.739975,1.0,2715.155153229312,0.42380102145126847,1.306767840739168,0.9735421875443967,0.28613195,0.699915471582361
0.0495,1.73874375,1.0,2713.252476051553,0.427033043151274,1.3062291356332587,0.9738926438965548,0.2860802375,0.7009684837031481
0.05,1.7375,1.0,2711.3062901880135,0.43024693598286734,1.3056851882487335,0.9742332467698249,0.286028,0.702029865068037
0.0505,1.73624375,1.0,2709.3201246821777,0.43344280082386616,1.3051359668225364,0.9745643521910876,0.2859752375,0.7030996229313646
0.051000000000000004,1.734975,1.0,2707.2975044446116,0.436620738552088,1.3045814395916124,0.9748862998873197,0.28592195,0.7041777635723883
0.051500000000000004,1.73369375,1.0,2705.2419500027922,0.4397808500453504,1.3040215747929058,0.9751994141731619,0.2858681375,0.7052642922845713
0.052000000000000005,1.7324,1.0,2703.1564263577693,0.44292323607824985,1.3034563456953165,0.9755040050932062,0.2858138,0.7063592036264176
0.0525,1.73109375,1.0,2701.048195949236,0.44604799624790215,1.3028856862643001,0.9758003662690597,0.28575893750000003,0.7074625671435075
0.053,1.729775,1.0,2698.919961261545,0.4491552291551219,1.302309572048084,0.976088780856359,0.28570355000000003,0.7085743706891082
0.0535,1.728443793284976,1.0,2696.7671379137455,0.4522450327437192,1.3017280647423515,0.976369524878069,0.285647639317969,0.7096944354172046
0.054,1.7271073335370608,1.0,2694.9384629475403,0.4553175048391855,1.3011412276487224,0.9766428624713897,0.28559150800855654,0.7108225797519782
0.0545,1.7257708737891453,1.0,2693.6597776271465,0.45837274300156655,1.3005493636274146,0.9769090608784138,0.2855353766991441,0.7119581633391459
0.055,1.72443441404123,1.0,2692.885202373922,0.4614108438111873,1.2999528889507403,0.9771683826502743,0.2854792453897317,0.7131003329403853
0.0555,1.7230979542933147,1.0,2692.5760132795845,0.4644319030770528,1.2993521560190806,0.977421075413869,0.28542311408031923,0.7142483631592094
0.056,1.7217614945453994,1.0,2692.694273163628,0.46743601646100036,1.298747511281154,0.977667376094857,0.2853669827709068,0.7154015449723112
0.0565,1.720425034797484,1.0,2693.2038783511316,0.47042327938819667,1.2981392853662477,0.9779075108826843,0.2853108514614943,0.7165592044684411
0.057,1.7190885750495686,1.0,2694.0739158684914,0.4733937862019587,1.297527762118523,0.978141693918818,0.28525472015208186,0.7177207613799221
0.0575,1.7177521153016533,1.0,2695.2761372353243,0.4763476306230171,1.2969132015274076,0.9783701292449586,0.28519858884266946,0.7188856848174268
0.058,1.716415655553738,1.0,2696.7887359385936,0.479284903877335,1.2962958050358169,0.9785930091868559,0.285142457533257,0.7200535584125549
0.0585,1.7150791958058227,1.0,2698.5789618156896,0.482205701719064,1.2956758744155403,0.9788105243938996,0.28508632622384456,0.7212237796192782
0.059000000000000004,1.7137427360579074,1.0,2700.61699386122,0.4851101194475814,1.2950536846942862,0.9790228564757508,0.2850301949144321,0.7223958008556275
0.059500000000000004,1.712406276309992,1.0,2702.886904397255,0.4879982470475871,1.294429383916077,0.9792301725480036,0.28497406360501965,0.7235693172410693
0.06,1.7110698165620768,1.0,2705.3727695946113,0.490870174503781,1.2938031201249358,0.9794326332459928,0.28491793229560725,0.7247440261634328
0.0605,1.7097333568141613,1.0,2708.058662786543,0.4937259918008632,1.293175041364885,0.979630393030157,0.2848618009861948,0.7259196272981441
0.061,1.708396897066246,1.0,2710.928648268622,0.49656578892353354,1.2925452956799472,0.9798236004747949,0.28480566967678234,0.7270958226260595
0.0615,1.7070604373183307,1.0,2713.9667755842565,0.499389655856492,1.2919140311141453,0.9800123985412313,0.2847495383673699,0.7282723164499039
0.062,1.7057239775704154,1.0,2717.157074295921,0.5021976825844385,1.2912813957115017,0.9801969248363479,0.2846934070579574,0.7294488154093098
0.0625,1.7043875178225,1.0,2720.483549243132,0.504989959092073,1.2906475375160391,0.9803773118573622,0.284637275748545,0.73062502849446
0.063,1.7030510580745848,1.0,2723.94001896612,0.5077665686624623,1.2900125150141886,0.9805536821132116,0.28458114443913257,0.7318008327013554
0.0635,1.7017145983266693,1.0,2727.5051260091423,0.5105276083812876,1.2893765246231208,0.9807261616935566,0.2845250131297201,0.7329758513936364
0.064,1.700378138578754,1.0,2731.171417282828,0.5132731636669385,1.2887396359648502,0.9808948648551182,0.28446888182030766,0.7341499445882838
0.0645,1.6990416788308387,1.0,2734.931865112171,0.5160033195850782,1.288101914662874,0.9810599015204027,0.2844127505108952,0.7353229807639861
0.065,1.6977052190829234,1.0,2738.7794268056045,0.5187181612013694,1.2874634263406892,0.9812213776909862,0.2843566192014828,0.736494829453033
0.0655,1.696368759335008,1.0,2742.7070434907027,0.5214177735814751,1.2868242366217928,0.9813793956174582,0.28430048789207035,0.7376653612446614
0.066,1.6950322995870928,1.0,2746.7076390464595,0.5241022417910584,1.286184411129682,0.9815340539608411,0.2842443565826579,0.7388344477881286
0.0665,1.6936958398391773,1.0,2750.7741191302844,0.526771650895782,1.2855440154878541,0.9816854479459661,0.28418822527324544,0.7400019617955106
0.067,1.692359380091262,1.0,2754.899370300742,0.529426085961309,1.284903115319806,0.981833669507267,0.284132093963833,0.7411677770442261
0.0675,1.6910229203433467,1.0,2759.076259235842,0.5320656320533023,1.2842617762490347,0.9819788074274094,0.2840759626544206,0.7423317683792849
0.068,1.6896864605954314,1.0,2763.302817913077,0.5346903646048784,1.283620017050645,0.9821209446094955,0.28401983134500813,0.7434938964546932
0.0685,1.688350000847516,1.0,2767.5697604140246,0.5373003766229423,1.2829779225110405,0.9822601654122167,0.2839637000355957,0.7446540030973712
0.069,1.6870135410996008,1.0,2771.870497590749,0.5398957555879741,1.282335552838753,0.9823965498595238,0.2839075687261832,0.7458119757756241
0.0695,1.6856770813516853,1.0,2776.202460843564,0.5424765808989344,1.2816929318242403,0.9825301731068593,0.28385143741677077,0.7469677683681886
0.07,1.68434062160377,1.0,2780.563073780054,0.5450429319547834,1.2810500832579597,0.9826611078269915,0.28379530610735837,0.7481213351425189
0.07050000000000001,1.6830041618558547,1.0,2784.9497520882082,0.5475948881544815,1.2804070309303686,0.9827894243095839,0.28373917479794586,0.7492726307551509
0.07100000000000001,1.6816677021079394,1.0,2789.359903423663,0.5501325288969893,1.279763798631924,0.9829151905561317,0.28368304348853346,0.7504216102520291
0.07150000000000001,1.680331242360024,1.0,2793.7909273072405,0.5526559335812669,1.2791204101530838,0.9830384723705093,0.283626912179121,0.7515682290687956
0.07200000000000001,1.6789947826121088,1.0,2798.2402150373196,0.5551651816062748,1.278476889284305,0.9831593334453632,0.28357078086970855,0.7527124430310489
0.0725,1.6776583228641933,1.0,2802.7051496131,0.5576603523709733,1.2778332598160451,0.983277835444563,0.2835146495602961,0.7538542083545599
0.073,1.676321863116278,1.0,2807.1831056714095,0.5601415252743229,1.2771895455387616,0.9833940380819203,0.28345851825088364,0.7549934816454553
