Time [s],Phi [rad],STIM [ ],Fsee [N],Gamma [ ],Lcerel [ ],q [ ],Lmtc [m],fisomrel [ ]
0.0,1.8,1.0,17.967241447047684,1.1266972721081373e-05,1.3793397368896463,0.005000033801171291,0.288653,0.541139553624024
0.0005,1.79999375,1.0,18.276992442627296,0.005620413082709292,1.3793023602086831,0.01294403209672006,0.2886527375,0.5412299730233495
0.001,1.799975,1.0,21.619551284486064,0.011198096317936451,1.3789381826449505,0.03561518012254997,0.28865195,0.5421105029774942
0.0015,1.79994375,1.0,31.072317653088678,0.016744493161115415,1.3780459411895878,0.07061074504330056,0.2886506375,0.544264242187751
0.002,1.7999,1.0,53.58920421451867,0.02225977910330617,1.3763676894897365,0.11472854320225488,0.2886488,0.5483015379724403
0.0025,1.79984375,1.0,97.13048142984654,0.0277441286514874,1.3739346110087214,0.16458632215171629,0.28864643749999996,0.5541227891892737
0.003,1.7997750000000001,1.0,160.97338176173216,0.03319771533626308,1.3712137742600128,0.2172922446230157,0.28864354999999997,0.560587799105983
0.0035,1.79969375,1.0,237.70062777967433,0.03862071171146208,1.368584201473002,0.27062461518033026,0.2886401375,0.5667910919148897
0.004,1.7996,1.0,321.4852578336257,0.044013289364918315,1.3661556027665693,0.32292715610999934,0.2886362,0.572481105110492
0.0045000000000000005,1.7994937500000001,1.0,409.2869751439895,0.049375618923655835,1.3639223629029957,0.3730452860565567,0.2886317375,0.577680209754784
0.005,1.799375,1.0,499.4331736126174,0.0547078700449812,1.361857924376859,0.42025754529058423,0.28862675,0.582458043895636
0.0055,1.79924375,1.0,590.8103129407401,0.06001021146390295,1.3599384463255302,0.4641830355424297,0.2886212375,0.5868760040075365
0.006,1.7991000000000001,1.0,682.5380698151773,0.06528281093640609,1.3581460519033475,0.5046885437316319,0.2886152,0.5909802471493775
0.006500000000000001,1.79894375,1.0,773.8810939274875,0.0705258349991601,1.3564672564157294,0.541808824145418,0.2886086375,0.5948057879574065
0.007,1.798775,1.0,864.3099873464781,0.07573945048445907,1.3548900044769252,0.5756838881020397,0.28860155,0.5983835609769388
0.0075,1.79859375,1.0,953.2765213051713,0.08092382153252957,1.3534062669165416,0.6065162916548298,0.2885939375,0.6017347273728129
0.008,1.7984,1.0,1040.3768053588385,0.08607911200475457,1.3520083761677126,0.6345379777360799,0.2885858,0.6048791553181445
0.0085,1.79819375,1.0,1125.3363765370968,0.0912054855206105,1.3506889279513037,0.6599897806719909,0.2885771375,0.6078357009322874
0.009000000000000001,1.797975,1.0,1207.8985037016237,0.09630310410383458,1.3494420579631532,0.6831092287364948,0.28856795,0.6106194136686107
0.0095,1.79774375,1.0,1287.890762222253,0.1013721292334479,1.348262142904768,0.7041220568215946,0.2885582375,0.6132445147301624
0.01,1.7975,1.0,1365.178189669264,0.10641272105754913,1.3471442420952482,0.723238313534093,0.288548,0.6157234540182261
0.0105,1.79724375,1.0,1439.6683282772142,0.11142503897399468,1.3460838358848461,0.7406503972080479,0.2885372375,0.6180675336072414
0.011,1.796975,1.0,1511.32785782707,0.1164092420751349,1.3450764847035874,0.7565325570868159,0.28852595000000003,0.6202876903846135
0.0115,1.79669375,1.0,1580.1277638437189,0.12136548765246333,1.3441184024031156,0.7710417383317609,0.2885141375,0.622393256146452
0.012,1.7964,1.0,1646.0663947035885,0.12629393241351564,1.343206055120445,0.7843184411992321,0.28850180000000003,0.6243928690327234
0.0125,1.79609375,1.0,1709.1774008345599,0.131194732431433,1.3423359954386986,0.7964879696345969,0.2884889375,0.6262948540401636
0.013000000000000001,1.7957750000000001,1.0,1769.5084881318703,0.13606804336963774,1.341505050922473,0.807661928576891,0.28847555,0.6281068245996144
0.0135,1.79544375,1.0,1827.0940591946885,0.14091401860359554,1.340710566961324,0.8179397062578153,0.2884616375,0.6298351707936645
0.014,1.7951000000000001,1.0,1881.996002567798,0.14573281150877215,1.3399498889448067,0.827409592784275,0.2884472,0.6314862021888188
0.0145,1.79474375,1.0,1934.2800392352444,0.1505245741811459,1.3392205917480489,0.8361501092689375,0.2884322375,0.6330656573153813
0.015,1.794375,1.0,1984.053891861846,0.15528946023156406,1.3385200343884074,0.8442309801061985,0.28841675,0.634579675757881
0.0155,1.79399375,1.0,2031.3764480747916,0.1600276191248595,1.3378463094760433,0.8517144728525338,0.2884007375,0.636032752466255
0.016,1.7936,1.0,2076.318327467977,0.1647392000819508,1.3371975518378305,0.8586560484780872,0.2883842,0.6374292443704516
0.0165,1.7931937500000001,1.0,2118.9644337168515,0.16942435232375672,1.336571896300642,0.8651051548862096,0.2883671375,0.6387734649891257
0.017,1.792775,1.0,2159.4031939502643,0.17408322415004127,1.3359675751143045,0.8711059672207512,0.28834955,0.6400694785453258
0.0175,1.7923437500000001,1.0,2197.72974516958,0.1787159643914989,1.3353828697544277,0.8766979975652351,0.2883314375,0.641321207510474
0.018000000000000002,1.7919,1.0,2234.0216450515472,0.1833227192341676,1.3348163426741901,0.8819167018883058,0.2883128,0.6425319409383906
0.0185,1.79144375,1.0,2268.3515433421676,0.18790363340362926,1.3342666910045873,0.8867939123236543,0.2882936375,0.6437046533317723
0.019,1.790975,1.0,2300.799567325882,0.19245885162546594,1.3337326118766142,0.8913582223369686,0.28827395,0.644842295184991
0.0195,1.79049375,1.0,2331.451814197414,0.19698851849656587,1.3332128110357746,0.8956353603056934,0.2882537375,0.6459477760256287
0.02,1.79,1.0,2360.38289519569,0.20149277661729392,1.3327061673928833,0.8996485520408347,0.288233,0.6470236166413863
0.0205,1.78949375,1.0,2387.6869811785864,0.205971771592042,1.3322114209658515,0.9034187326370839,0.2882117375,0.6480726140939087
0.021,1.788975,1.0,2413.424474584099,0.21042564332097283,1.3317276877072584,0.9069649090546196,0.28818995000000003,0.6490967513022822
0.021500000000000002,1.78844375,1.0,2437.6596464891245,0.21485453170424923,1.3312540835696822,0.9103042917040116,0.2881676375,0.6500979978265624
0.022,1.7879,1.0,2460.4603187588973,0.21925857664203396,1.3307897245057019,0.9134524890141326,0.2881448,0.6510783104637814
0.0225,1.78734375,1.0,2481.8975635249503,0.22363791803448982,1.3303337264678963,0.9164236787097109,0.28812143749999997,0.6520396337941106
0.023,1.786775,1.0,2502.0352669658373,0.22799269354379906,1.329885301799658,0.9192307761412254,0.28809755,0.6529836978844026
0.0235,1.78619375,1.0,2520.9439680523183,0.23232304412438312,1.32944362402013,0.9218855429006583,0.28807313749999996,0.6539123041852145
0.024,1.7856,1.0,2538.679161923745,0.236629106350746,1.329008030884334,0.9243987382260276,0.2880482,0.6548268992781032
0.0245,1.78499375,1.0,2555.29106569005,0.24091101487347877,1.328577927899958,0.9267802038313787,0.2880227375,0.6557287796459501
0.025,1.784375,1.0,2570.831575477108,0.24516890434317254,1.3281527205746908,0.929038944603466,0.28799675,0.6566192346282809
0.025500000000000002,1.78374375,1.0,2585.3541235726298,0.24940290941041834,1.3277318144162202,0.9311832111854581,0.2879702375,0.657499546618151
0.026000000000000002,1.7831000000000001,1.0,2598.91354340762,0.25361316472580725,1.3273146149322348,0.9332205734037767,0.2879432,0.6583709912364888
0.0265,1.78244375,1.0,2611.5547377322255,0.2577998017311364,1.3269006317506993,0.9351580007755366,0.2879156375,0.659234620411332
0.027,1.781775,1.0,2623.333581311308,0.2619629570615988,1.32648928253863,0.9370018922222761,0.28788755,0.6600916721537328
0.0275,1.7810937500000001,1.0,2634.295491155784,0.26610276315806114,1.326080091369872,0.9387581556682036,0.2878589375,0.6609431569267089
0.028,1.7804,1.0,2644.4759692255043,0.2702193488851051,1.3256726817337405,0.9404322521880117,0.2878298,0.6617898736363321
0.0285,1.77969375,1.0,2653.911211282258,0.27431284310731247,1.3252666771195503,0.9420292234436182,0.2878001375,0.6626326172053771
0.029,1.778975,1.0,2662.6380464646963,0.27838337468926466,1.3248617010166166,0.9435537293550493,0.28776995,0.6634721786115766
0.029500000000000002,1.7782437500000001,1.0,2670.693880006163,0.28243107249554344,1.3244573769142542,0.945010081935545,0.2877392375,0.6643093449168418
0.03,1.7775,1.0,2678.116639095567,0.2864560653907304,1.3240533283017784,0.946402275723233,0.287708,0.6651448992874358
0.0305,1.77674375,1.0,2684.9397265295224,0.2904584802654236,1.3236492244495814,0.9477340205044437,0.2876762375,0.665979526508879
0.031,1.775975,1.0,2691.194555656189,0.2944384441181584,1.323244756499515,0.9490087630961409,0.28764395,0.6668138628685247
0.0315,1.7751937500000001,1.0,2696.923182918205,0.29839608770620873,1.322839521468507,0.9502296960506452,0.2876111375,0.6676487352614333
0.032,1.7744,1.0,2702.1490667902926,0.3023315337527727,1.3224332895151616,0.9513998080427986,0.2875778,0.6684846103712755
0.0325,1.77359375,1.0,2706.895911675279,0.3062449049810481,1.322025830798083,0.9525218819192611,0.2875439375,0.6693219524834324
0.033,1.772775,1.0,2711.187644802194,0.31013632411423286,1.321616915475875,0.9535985113712853,0.28750955,0.6701612234686986
0.0335,1.7719437500000002,1.0,2715.0483942964424,0.31400591387552496,1.321206313707142,0.9546321160665293,0.2874746375,0.6710028827636133
0.034,1.7711000000000001,1.0,2718.5024684205823,0.3178537969881222,1.3207937956504876,0.9556249553987023,0.2874392,0.6718473873474273
0.0345,1.7702437500000001,1.0,2721.574335986746,0.32168009617522264,1.3203791314645164,0.9565791409959259,0.2874032375,0.6726951917156956
0.035,1.7693750000000001,1.0,2724.2835259297135,0.32548493183272337,1.3199621375455697,0.9574966525129588,0.28736675,0.6735466534989476
0.035500000000000004,1.76849375,1.0,2726.651271893855,0.3292684254886514,1.3195426158419807,0.9583793420481309,0.2873297375,0.6744021577195929
0.036000000000000004,1.7676,1.0,2728.7059352778656,0.33303070053967604,1.3191203044612403,0.959228938813945,0.2872922,0.6752622170936393
0.0365,1.76669375,1.0,2730.4625239669904,0.33677187369458667,1.3186950637864363,0.9600470753458813,0.2872541375,0.6761270928512733
0.037,1.765775,1.0,2731.936116401391,0.34049206166217283,1.3182667542006572,0.9608352837552039,0.28721555,0.6769970445490385
0.0375,1.76484375,1.0,2733.1418533855813,0.344191381151224,1.3178352360869912,0.9615950030266086,0.2871764375,0.6778723300431333
0.038,1.7639,1.0,2734.0949303294683,0.3478699488705296,1.3174003698285257,0.9623275857078281,0.28713679999999997,0.678753205461464
0.0385,1.76294375,1.0,2734.8105899219627,0.3515278815288789,1.3169620158083497,0.9630343040479823,0.28709663750000003,0.6796399251744498
0.039,1.761975,1.0,2735.3041152362257,0.3551652958350616,1.3165200344095507,0.9637163556356073,0.28705595,0.6805327417645946
0.0395,1.7609937500000001,1.0,2735.58671381963,0.3587823038116999,1.3160743233269583,0.9643748710894297,0.2870147375,0.6814318307825429
0.04,1.76,1.0,2735.6736352868165,0.36237902294898916,1.3156247438068174,0.9650109139358518,0.286973,0.6823374397221967
0.0405,1.7589937500000001,1.0,2735.5823252111586,0.3659555733417825,1.3151711373669115,0.9656254861044916,0.2869307375,0.6832498538611206
0.041,1.757975,1.0,2735.3218239173743,0.3695120652542825,1.314713422002557,0.9662195382124342,0.28688795,0.6841692028426037
0.0415,1.75694375,1.0,2734.901186280981,0.37304860895069164,1.3142515157090708,0.9667939681507689,0.2868446375,0.6850956150336467
0.042,1.7559,1.0,2734.3294790101045,0.37656531469521254,1.3137853364817693,0.9673496245498245,0.28680079999999997,0.6860292175032616
0.0425,1.75484375,1.0,2733.615778075693,0.38006229275204767,1.3133148023159693,0.967887309982384,0.2867564375,0.6869701360003351
0.043000000000000003,1.753775,1.0,2732.769166290866,0.38353965338539964,1.3128398312069876,0.9684077839271578,0.28671155,0.6879184949310699
0.043500000000000004,1.75269375,1.0,2731.798731040377,0.38699750685947093,1.3123603411501403,0.9689117655127074,0.28666613750000003,0.6888744173359947
0.044,1.7516,1.0,2730.7135621574316,0.39043596343846404,1.3118762501407446,0.9693999360601245,0.2866202,0.6898380248665424
0.0445,1.75049375,1.0,2729.5227499516814,0.3938551333865816,1.3113874761741167,0.9698729414410823,0.2865737375,0.6908094377612051
0.045,1.7493750000000001,1.0,2728.2329146048132,0.39725512619788383,1.3108939596910505,0.9703313958755178,0.28652675,0.6917887303176642
0.0455,1.74824375,1.0,2726.851726590485,0.400636048515225,1.3103956315761494,0.9707758811434274,0.2864792375,0.6927759945741179
0.046,1.7471,1.0,2725.386695190902,0.4039980066033121,1.3098924241547214,0.9712069497365353,0.2864312,0.6937713184040506
0.0465,1.7459437500000001,1.0,2723.842781050229,0.40734110647937827,1.3093842929071862,0.971625128226799,0.28638263750000004,0.6947747426732157
0.047,1.744775,1.0,2722.2229545772525,0.41066545404624755,1.3088712114109675,0.9720309184413554,0.28633355,0.695786271560974
0.0475,1.74359375,1.0,2720.539500061039,0.41397115480767854,1.308353068443014,0.972424791511739,0.28628393750000003,0.6968060751969959
0.048,1.7424,1.0,2718.8045395478725,0.41725831353277215,1.3078297541437318,0.9728071957472341,0.2862338,0.6978343190810257
0.0485,1.7411945281992616,1.0,2717.040750760632,0.42052703367465166,1.3073014138071368,0.9731785755570529,0.286183170184369,0.6988706666841036
0.049,1.739986438979412,1.0,2715.683400658971,0.42377741868644025,1.3067681927272452,0.9735393541719414,0.2861324304371353,0.6999147829427925
0.0495,1.7387783497595624,1.0,2714.838709479943,0.4270095715208255,1.3062303020763162,0.9738899392643253,0.28608169068990164,0.700966205644924
0.05,1.737570260539713,1.0,2714.4581135786816,0.4302235950077627,1.3056881823196278,0.97423073480872,0.28603095094266795,0.7020240280297257
0.0505,1.7363621713198634,1.0,2714.50647958123,0.43341959027334076,1.3051421527965776,0.9745621178193682,0.28598021119543426,0.7030875847789224
0.051000000000000004,1.7351540821000138,1.0,2714.94995252004,0.4365976582685881,1.3045925221630437,0.9748844473000325,0.2859294714482006,0.7041562354666957
0.051500000000000004,1.7339459928801644,1.0,2715.761977393913,0.4397578974040377,1.3040395332853378,0.9751980614186515,0.2858787317009669,0.7052294712998532
0.052000000000000005,1.7327379036603148,1.0,2716.9036661654127,0.4429004108354372,1.3034835419642008,0.9755032908828964,0.2858279919537332,0.7063065681022422
0.0525,1.7315298144404652,1.0,2718.341908906084,0.44602530033341664,1.3029248516646967,0.9758004482082174,0.2857772522064995,0.7073869076655659
0.053,1.7303217252206158,1.0,2720.0574893051985,0.44913266284004255,1.3023636395000306,0.976089823731453,0.28572651245926584,0.7084701196055341
0.0535,1.7291136360007662,1.0,2722.0312108634807,0.4522225952973809,1.301800082583407,0.9763716951288581,0.28567577271203215,0.7095558359459461
0.054,1.7279055467809168,1.0,2724.2438873381248,0.455295194647498,1.3012343580280308,0.9766463280807117,0.2856250329647985,0.710643691146174
0.0545,1.7266974575610672,1.0,2726.6763338825554,0.45835055783246004,1.3006666429471059,0.9769139768956905,0.28557429321756483,0.7117333221266504
0.055,1.7254893683412176,1.0,2729.309358882543,0.4613887817943332,1.3000971144538376,0.9771748850977495,0.28552355347033115,0.712824368292348
0.0555,1.7242812791213682,1.0,2732.123756487426,0.4644099634751836,1.29952594966143,0.9774292859780594,0.28547281372309746,0.7139164715542683
0.056,1.7230731899015186,1.0,2735.1040352115238,0.46741419731881534,1.2989532917647302,0.9776774008956476,0.2854220739758638,0.7150093410173218
0.0565,1.721865100681669,1.0,2738.235107357395,0.47040157939766375,1.2983792801257807,0.9779194420086924,0.2853713342286301,0.7161026951263421
0.057,1.7206570114618196,1.0,2741.4984465068824,0.4733722086316005,1.2978040850947345,0.9781556148353746,0.2853205944813964,0.7171961954747708
0.0575,1.71944892224197,1.0,2744.8852889071904,0.4763261768722187,1.297227788219463,0.9783861108909794,0.2852698547341627,0.7182896744584377
0.058,1.7182408330221204,1.0,2748.3868570853547,0.47926357597111113,1.2966504710478368,0.9786111140056744,0.28521911498692903,0.7193829656476293
0.0585,1.717032743802271,1.0,2751.994357929782,0.48218449777987094,1.2960722151277282,0.9788308006962831,0.2851683752396954,0.7204759037926028
0.059000000000000004,1.7158246545824214,1.0,2755.698980919006,0.485089034150091,1.295493102007008,0.9790453405172538,0.2851176354924617,0.7215683248286862
0.059500000000000004,1.7146165653625718,1.0,2759.4918964985436,0.48797727693336435,1.294913213233548,0.9792548963921476,0.28506689574522803,0.7226600658809436
0.06,1.7134084761427224,1.0,2763.364254604434,0.4908493179812839,1.2943326303552192,0.9794596249268693,0.28501615599799435,0.7237509652684244
0.0605,1.7122003869228728,1.0,2767.3071833347094,0.49370524914544267,1.293751434919893,0.9796596767057795,0.28496541625076066,0.7248408625079841
0.061,1.7109922977030232,1.0,2771.31589272598,0.4965451558364949,1.293169671445481,0.979855194092945,0.284914676503527,0.7259296675527702
0.0615,1.7097842084831738,1.0,2775.3821557891692,0.4993691318560569,1.292587415323491,0.9800463163578986,0.2848639367562933,0.7270172334002518
0.062,1.7085761192633242,1.0,2779.4957153195714,0.5021772747289786,1.2920047600279048,0.9802331787739959,0.2848131970090596,0.7281033804880286
0.0625,1.7073680300434746,1.0,2783.653209426527,0.5049696704858849,1.2914217367041378,0.9804159074783839,0.2847624572618259,0.7291880464806892
0.063,1.7061599408236252,1.0,2787.8512668333965,0.507746405157401,1.2908383764976055,0.9805946239583656,0.28471171751459223,0.7302711695033071
0.0635,1.7049518516037756,1.0,2792.086506633779,0.5105075647741519,1.2902547105537234,0.9807694452582643,0.28466097776735855,0.7313526881421373
0.064,1.7037437623839262,1.0,2796.355538070099,0.5132532353667626,1.2896707700179069,0.9809404841756248,0.2846102380201249,0.732432541445258
0.0645,1.7025356731640766,1.0,2800.654960332572,0.5159835029658583,1.2890865860355714,0.9811078494473651,0.28455949827289123,0.7335106689231448
0.065,1.701327583944227,1.0,2804.9813623811037,0.5186984536020638,1.2885021897521325,0.9812716459264696,0.28450875852565755,0.7345870105491854
0.0655,1.7001194947243776,1.0,2809.3313227873714,0.5213981733060044,1.2879176123130056,0.9814319747497672,0.28445801877842386,0.7356615067601333
0.066,1.698911405504528,1.0,2813.7014095992395,0.5240827481083049,1.287332884863606,0.9815889334973048,0.2844072790311902,0.7367340984564978
0.0665,1.6977033162846784,1.0,2818.088180226349,0.5267522640395906,1.2867480385493495,0.9817426163437943,0.2843565392839565,0.7378047270028725
0.067,1.696495227064829,1.0,2822.488181347288,0.5294068071304864,1.2861631045156514,0.981893114202582,0.2843057995367228,0.7388733342282028
0.0675,1.6952871378449794,1.0,2826.9016995753163,0.5320464462811807,1.28557808040762,0.9820405121321,0.2842550597894891,0.7399399234397288
0.068,1.6940790486251298,1.0,2831.324070547864,0.5346712807809202,1.2849930080640366,0.9821848963773784,0.28420432004225543,0.7410044175848596
0.0685,1.6928709594052804,1.0,2835.7516770603056,0.5372814032534853,1.2844079198550353,0.9823263493766359,0.2841535802950218,0.7420667574098591
0.069,1.6916628701854308,1.0,2840.1835723124454,0.539876892831457,1.2838228242544558,0.9824649488184599,0.2841028405477881,0.7431269273986745
0.0695,1.6904547809655812,1.0,2844.618806536099,0.5424578286474165,1.283237729736137,0.9826007698032934,0.28405210080055443,0.7441849121617315
0.07,1.6892466917457318,1.0,2849.0564269941337,0.545024289833945,1.2826526447739186,0.9827338849477054,0.28400136105332074,0.7452406964359343
0.07050000000000001,1.6880386025258822,1.0,2853.4954779817663,0.5475763555236235,1.2820675778416395,0.9828643644837817,0.28395062130608706,0.746294265084664
0.07100000000000001,1.6868305133060328,1.0,2857.9350008288898,0.550114104849033,1.2814825374131396,0.982992276353896,0.2838998815588534,0.7473456030977694
0.07150000000000001,1.6856224240861832,1.0,2862.3740339045257,0.5526376169427547,1.2808975319622575,0.9831176863011061,0.2838491418116197,0.7483946955915577
0.07200000000000001,1.6844143348663336,1.0,2866.8116126223595,0.5551469709373696,1.2803125699628328,0.9832406579554044,0.283798402064386,0.7494415278087754
0.0725,1.6832062456464842,1.0,2871.246769448248,0.5576422459654589,1.279727659888705,0.9833612529160392,0.2837476623171523,0.7504860851185872
