Time [s],Phi [rad],STIM [ ],Fsee [N],Gamma [ ],Lcerel [ ],q [ ],Lmtc [m],fisomrel [ ]
0.0,1.8,1.0,19.118970069134953,0.00109526332844761,1.3792127091191924,0.005307889036433052,0.288653,0.5414468151864886
0.0005,1.79999375,1.0,19.7444193468051,0.006698329076125403,1.3791425054231559,0.016225697239616425,0.2886527375,0.5416165834867737
0.001,1.799975,1.0,23.89523749684362,0.012269966055217985,1.3787115751205015,0.04148546305170234,0.28865195,0.5426579810897602
0.0015,1.79994375,1.0,35.19756509788167,0.01781035055632618,1.3777054507324817,0.07849974191639879,0.2886506375,0.5450847974712143
0.002,1.7999,1.0,61.322134148750905,0.02331965788112645,1.3758829467975282,0.12397757064658267,0.2886488,0.5494643185803781
0.0025,1.79984375,1.0,109.16241670395394,0.028798062348013055,1.373371776612405,0.17458875075090824,0.28864643749999996,0.5554640192260727
0.003,1.7997750000000001,1.0,176.02957591312114,0.03424573729752448,1.3706628280950615,0.2275720548680773,0.28864354999999997,0.5618911602951879
0.0035,1.79969375,1.0,254.38884926307333,0.03966285509758308,1.3680788973364006,0.2808213510634914,0.2886401375,0.5679780782385824
0.004,1.7996,1.0,339.0523670773503,0.045049587149753344,1.365696518610035,0.3327806965404751,0.2886362,0.5735524753714936
0.0045000000000000005,1.7994937500000001,1.0,427.35318768058414,0.050406103899349027,1.3635028691919588,0.38238521386970514,0.2886317375,0.5786532655906047
0.005,1.799375,1.0,517.7708160271109,0.05573257481818139,1.3614717713058917,0.42898657595098905,0.28862675,0.5833487198628226
0.0055,1.79924375,1.0,609.240970669896,0.06102916844758872,1.3595811273229275,0.4722587105666462,0.2886212375,0.5876958318659842
0.006,1.7991000000000001,1.0,700.9257505137411,0.06629605237754382,1.3578140389583362,0.5121063175699724,0.2886152,0.5917382446566399
0.006500000000000001,1.79894375,1.0,792.1305432759228,0.07153339325337407,1.3561575415716345,0.5485887200283146,0.2886086375,0.5955095841251578
0.007,1.798775,1.0,882.2810395864179,0.0767413567654912,1.3546012119055468,0.5818614809943126,0.28860155,0.5990369276630021
0.0075,1.79859375,1.0,970.9089830117629,0.08192010780489549,1.3531363087843684,0.6121343487015483,0.2885939375,0.6023429445731863
0.008,1.7984,1.0,1057.6224752594703,0.08706980993637232,1.351755514239325,0.6396424903632593,0.2885858,0.6054466141652681
0.0085,1.79819375,1.0,1142.1433866662649,0.09219062646917214,1.3504518866020874,0.6646270274359927,0.2885771375,0.6083656733961662
0.009000000000000001,1.797975,1.0,1224.2382919632414,0.09728271948318681,1.349219544008914,0.6873236530436188,0.28856795,0.6111151469458104
0.0095,1.79774375,1.0,1303.7197003925587,0.10234624958449082,1.3480533232749747,0.7079555000350046,0.2885582375,0.6137081765218302
0.01,1.7975,1.0,1380.4726706828653,0.10738137700207427,1.3469482149796768,0.7267292170087823,0.288548,0.6161573218189286
0.0105,1.79724375,1.0,1454.4403768682416,0.11238826188189546,1.3458994247680285,0.743833556902384,0.2885372375,0.6184744513556983
0.011,1.796975,1.0,1525.5676904636728,0.11736706222581404,1.344902947127542,0.759439535211085,0.28852595000000003,0.6206695059398468
0.0115,1.79669375,1.0,1593.8251832818414,0.12231793503951074,1.343955119053997,0.7737008693606503,0.2885141375,0.6227515181012463
0.012,1.7964,1.0,1659.226501404645,0.12724103709256918,1.3430523254585944,0.7867549789263574,0.28850180000000003,0.6247292793286052
0.0125,1.79609375,1.0,1721.8132111509979,0.13213652473247897,1.3421911194391987,0.798724399799044,0.2884889375,0.6266110898499619
0.013000000000000001,1.7957750000000001,1.0,1781.627491665171,0.13700455306207945,1.3413684711864624,0.8097182984810196,0.28847555,0.6284042311218667
0.0135,1.79544375,1.0,1838.7066718602287,0.14184527525579133,1.3405817573011507,0.8198338376511749,0.2884616375,0.6301150082705997
0.014,1.7951000000000001,1.0,1893.114902107783,0.14665884448803546,1.339828354384029,0.8291573288612457,0.2884472,0.6317496478209272
0.0145,1.79474375,1.0,1944.9218861097734,0.15144541291312158,1.3391058428306977,0.8377655313850881,0.2884322375,0.6333138627489865
0.015,1.794375,1.0,1994.2283256859423,0.15620513362005634,1.33841170028631,0.8457266511770165,0.28841675,0.6348135239455633
0.0155,1.79399375,1.0,2041.100480980067,0.16093815629050495,1.3377439755140208,0.8531015609765679,0.2884007375,0.6362532111096445
0.016,1.7936,1.0,2085.6086266999005,0.16564462990590953,1.3371008387784031,0.8599445168519464,0.2883842,0.6376371954556667
0.0165,1.7931937500000001,1.0,2127.83692075651,0.17032470344771217,1.3364804603440308,0.8663039044455697,0.2883671375,0.6389697060161643
0.017,1.792775,1.0,2167.8737704536884,0.17497852505287698,1.3358810966026164,0.8722229587284408,0.28834955,0.6402547479114281
0.0175,1.7923437500000001,1.0,2205.8133922374914,0.1796062433260179,1.3353010593056072,0.8777403637904079,0.2883314375,0.641496172284878
0.018000000000000002,1.7919,1.0,2241.733868335286,0.1842080043891896,1.3347389234251903,0.882890839244234,0.2883128,0.6426972357912775
0.0185,1.79144375,1.0,2275.707724963366,0.18878395280578092,1.334193402988107,0.8877055671869599,0.2882936375,0.643860871808765
0.019,1.790975,1.0,2307.8147865741057,0.19333423313918088,1.3336632120210987,0.89221256584162,0.28827395,0.6449899902543473
0.0195,1.79049375,1.0,2338.140423714978,0.1978589897872264,1.3331470757053088,0.8964370544264832,0.2882537375,0.6460874551945194
0.02,1.79,1.0,2366.7588656293597,0.2023583652407567,1.3326438872706947,0.9004018055549475,0.288233,0.6471557533846982
0.0205,1.78949375,1.0,2393.7642537584834,0.2068325049654803,1.332152396602135,0.9041273507441491,0.2882117375,0.648197657625823
0.021,1.788975,1.0,2419.2165252254445,0.21128154869291382,1.3316717322386484,0.9076323378805459,0.28818995000000003,0.6492151212812955
0.021500000000000002,1.78844375,1.0,2443.1793913495535,0.21570563615457383,1.331201022719255,0.9109336573507175,0.2881676375,0.6502100846610954
0.022,1.7879,1.0,2465.720027810704,0.22010490708197694,1.3307393965829741,0.914046631915855,0.2881448,0.6511844755992671
0.0225,1.78734375,1.0,2486.908781651127,0.22447950120663973,1.3302859823688251,0.9169851838990697,0.28812143749999997,0.6521402099829725
0.023,1.786775,1.0,2506.809812791485,0.22882955615085773,1.329839994759477,0.9197619979450458,0.28809755,0.6530790110238144
0.0235,1.78619375,1.0,2525.4918630989528,0.23315521248577192,1.3294006287703704,0.9223886321829338,0.28807313749999996,0.6540026331813924
0.024,1.7856,1.0,2543.0107530347095,0.2374566068749284,1.3289672228394005,0.9248756594018412,0.2880482,0.6549125200807788
0.0245,1.78499375,1.0,2559.4164267820065,0.2417338737933478,1.328539188402855,0.9272327543339232,0.2880227375,0.655809954348193
0.025,1.784375,1.0,2574.7604704230293,0.24598714771605076,1.3281159368970208,0.9294687714455119,0.28799675,0.656696211588617
0.025500000000000002,1.78374375,1.0,2589.095972018682,0.25021656311805796,1.3276968797581858,0.9315918256751236,0.2879702375,0.6575725605763683
0.026000000000000002,1.7831000000000001,1.0,2602.4773893694132,0.2544222544743901,1.327281428422637,0.9336093642397844,0.2879432,0.6584402634235915
0.0265,1.78244375,1.0,2614.9494324629686,0.25860435311356295,1.3268690964138423,0.9355282453483074,0.2879156375,0.6593003629132598
0.027,1.781775,1.0,2626.5662120293814,0.26276299530408187,1.3264593196979524,0.9373547692418013,0.28788755,0.6601540579794327
0.0275,1.7810937500000001,1.0,2637.3740530005266,0.26689831378126055,1.326051615553244,0.939094750724087,0.2878589375,0.661002372433417
0.028,1.7804,1.0,2647.4080152458982,0.2710104371984329,1.3256456129951577,0.9407535678080613,0.2878298,0.6618460929113775
0.0285,1.77969375,1.0,2656.703835017001,0.27509949420893276,1.3252409410391344,0.9423361865924448,0.2878001375,0.662686002142788
0.029,1.778975,1.0,2665.297866043993,0.27916561346609403,1.3248372287006147,0.9438471981649091,0.28776995,0.6635228789863028
0.029500000000000002,1.7782437500000001,1.0,2673.227023683756,0.28320892362325056,1.3244341049950397,0.9452908517564845,0.2877392375,0.6643574984568481
0.03,1.7775,1.0,2680.528732119258,0.2872295533337362,1.32403119893785,0.9466710845688586,0.287708,0.6651906317439398
0.0305,1.77674375,1.0,2687.2391495333527,0.29122763028784304,1.3236281553476021,0.9479915503767284,0.2876762375,0.6660230136042995
0.031,1.775975,1.0,2693.3874300529274,0.2952032789702299,1.323224686833522,0.9492556494747638,0.28764395,0.666855235399782
0.0315,1.7751937500000001,1.0,2699.014687308848,0.299156632009297,1.322820399715929,0.950466531715679,0.2876111375,0.6676881043598466
0.032,1.7744,1.0,2704.1440673212837,0.3030878118917188,1.3224150675335524,0.9516271451150203,0.2875778,0.6685220798065524
0.0325,1.77359375,1.0,2708.798955716772,0.3069969411041699,1.3220084638251222,0.952740235171854,0.2875439375,0.6693576187021205
0.033,1.772775,1.0,2713.002955199194,0.310884142133325,1.3216003621293675,0.953808361233733,0.28750955,0.6701951756322057
0.0335,1.7719437500000002,1.0,2716.7798641586955,0.3147495374658586,1.321190535985018,0.9548339113526201,0.2874746375,0.6710352027858957
0.034,1.7711000000000001,1.0,2720.153656417173,0.3185932495884453,1.3207787589308029,0.9558191157869367,0.2874392,0.6718781499324422
0.0345,1.7702437500000001,1.0,2723.1484621108225,0.32241540098775967,1.3203648045054521,0.9567660592874339,0.2874032375,0.6727244643947177
0.035,1.7693750000000001,1.0,2725.7864041106586,0.3262161116389912,1.3199484657636595,0.9576766937610086,0.28736675,0.6735745511973227
0.035500000000000004,1.76849375,1.0,2728.0865543439168,0.32999549836726827,1.3195295645708072,0.9585528491940895,0.2873297375,0.6744287543532856
0.036000000000000004,1.7676,1.0,2730.078112640217,0.33375369334160543,1.3191078316407305,0.9593962347270173,0.2872922,0.6752876013569872
0.0365,1.76669375,1.0,2731.7753057556547,0.3374908121521728,1.318683134633139,0.9602084634237568,0.2872541375,0.6761513383303466
0.037,1.765775,1.0,2733.1924279720006,0.34120697038914033,1.318255341207741,0.960991049357218,0.28721555,0.6770202097982922
0.0375,1.76484375,1.0,2734.3438334239677,0.34490228364267805,1.3178243190242458,0.9617454147861234,0.2871764375,0.6778944586631839
0.038,1.7639,1.0,2735.2439288147843,0.3485768675029559,1.3173899357423624,0.962472896735268,0.28713679999999997,0.6787743261781221
0.0385,1.76294375,1.0,2735.9071665204756,0.35223083756014384,1.3169520590217996,0.9631747530347582,0.28709663750000003,0.679660051919138
0.039,1.761975,1.0,2736.348038081661,0.35586430940441194,1.3165105565222663,0.9638521678681109,0.28705595,0.6805518737562668
0.0395,1.7609937500000001,1.0,2736.5810680847244,0.3594773986259302,1.3160652959034713,0.9645062568740268,0.2870147375,0.681450027823505
0.04,1.76,1.0,2736.6208084303316,0.36307022081486845,1.3156161448251238,0.9651380718421344,0.286973,0.6823547484876482
0.0405,1.7589937500000001,1.0,2736.4818329908553,0.36664289156139684,1.3151629709469326,0.9657486050389914,0.2869307375,0.6832662683160171
0.041,1.757975,1.0,2736.1681581726743,0.3701955061320531,1.314705737929377,0.9663387979329546,0.28688795,0.6841846253645609
0.0415,1.75694375,1.0,2735.70306641618,0.3737282049119779,1.3142442346562344,0.9669095328103908,0.2868446375,0.685110207223589
0.042,1.7559,1.0,2735.0944251961805,0.37724109668547,1.3137783900388973,0.9674616499657356,0.28680079999999997,0.6860431184457834
0.0425,1.75484375,1.0,2734.349539945553,0.3807342890454151,1.3133081381678542,0.967995944421132,0.2867564375,0.6869834520337781
0.043000000000000003,1.753775,1.0,2733.4757227069804,0.3842078895846989,1.3128334131335937,0.9685131686076249,0.28671155,0.687931299831589
0.043500000000000004,1.75269375,1.0,2732.4802903733216,0.38766200589620714,1.312354149026604,0.969014035071119,0.28666613750000003,0.6888867525059506
0.044,1.7516,1.0,2731.3705630218983,0.3910967455728255,1.311870279937374,0.9694992189803521,0.2866202,0.6898498995273723
0.0445,1.75049375,1.0,2730.1538623471947,0.3945122162074397,1.311381739956392,0.9699693604531813,0.2865737375,0.6908208291509242
0.045,1.7493750000000001,1.0,2728.837510188659,0.39790852539293553,1.3108884631741466,0.9704250667160165,0.28652675,0.6917996283967387
0.0455,1.74824375,1.0,2727.428827154855,0.4012857807221986,1.3103903836811266,0.9708669141098724,0.2864792375,0.6927863830302392
0.046,1.7471,1.0,2725.9351313448724,0.4046440897881147,1.30988743556782,0.9712954499553229,0.2864312,0.6937811775420923
0.0465,1.7459437500000001,1.0,2724.3637371648797,0.4079835601835695,1.3093795529247159,0.9717111942875406,0.28638263750000004,0.6947840951278793
0.047,1.744775,1.0,2722.721954241542,0.41130429950144876,1.3088666698423024,0.9721146414716239,0.28633355,0.6957952176674942
0.0475,1.74359375,1.0,2721.0150206978396,0.41460640989149933,1.308348739217062,0.9725062623493166,0.28628393750000003,0.6968145887220927
0.048,1.7424,1.0,2719.2431200053506,0.41788998411499034,1.3078257599406011,0.9728865070455714,0.2862338,0.6978421604495899
0.0485,1.74119375,1.0,2717.420813270938,0.4211551538584499,1.3072975999470906,0.9732557998476733,0.2861831375,0.6988781411567534
0.049,1.739975,1.0,2715.551021762014,0.42440201821262746,1.3067642330824634,0.9736145481361057,0.28613195,0.6999225296598472
0.0495,1.73874375,1.0,2713.6366641244526,0.42763067626827234,1.306225633192653,0.9739631401531791,0.2860802375,0.700975323902292
0.05,1.7375,1.0,2711.6806561361846,0.4308412271161338,1.3056817741235924,0.9743019460721277,0.286028,0.7020365209459598
0.0505,1.73624375,1.0,2709.685910475659,0.4340337698469614,1.3051326297212147,0.9746313189972037,0.2859752375,0.7031061169624238
0.051000000000000004,1.734975,1.0,2707.6553365055106,0.4372084035515044,1.3045781738314532,0.974951595899802,0.28592195,0.7041841072241615
0.051500000000000004,1.73369375,1.0,2705.5918400716796,0.44036522732051214,1.3040183803002412,0.9752630984952327,0.2858681375,0.7052704860957204
0.052000000000000005,1.7324,1.0,2703.498323317281,0.443504340244734,1.3034532229735118,0.9755661340643976,0.2858138,0.7063652470248345
0.0525,1.73109375,1.0,2701.3776845121224,0.44662584141491934,1.302882675697198,0.97586099622428,0.28575893750000003,0.7074683825335011
0.053,1.729775,1.0,2699.232817896969,0.44972982992181754,1.3023067123172332,0.9761479656508549,0.28570355000000003,0.7085798842090103
0.0535,1.72844375,1.0,2697.0666135430365,0.45281640485617797,1.3017253066795504,0.9764273107577408,0.2856476375,0.7096997426949339
0.054,1.7271,1.0,2694.881957227142,0.45588566530874997,1.3011384326300832,0.976699288333653,0.2855912,0.7108279476820689
0.0545,1.7257437500000001,1.0,2692.6817303212347,0.45893771037028297,1.3005460640147641,0.9769641441414958,0.2855342375,0.711964487899341
0.055,1.724375,1.0,2690.4688096974246,0.4619726391315262,1.299948174679527,0.9772221134816941,0.28547675,0.7131093511046556
0.0555,1.72299375,1.0,2688.246796527481,0.4649905194852642,1.2993447317944313,0.9774734183851509,0.2854187375,0.7142625368205358
0.056,1.7216,1.0,2686.0182290787225,0.4679914865622202,1.2987357122151915,0.9777182784657856,0.2853602,0.7154240250232217
0.0565,1.72019375,1.0,2683.784179793147,0.47097563252312186,1.2981211061962672,0.9779569009911515,0.28530113749999997,0.7165937692612053
0.057,1.718775,1.0,2681.545718314465,0.4739430479368659,1.2975009040017889,0.9781894845709216,0.28524155,0.7177717223154286
0.0575,1.71734375,1.0,2679.3039125324585,0.4768938233723491,1.296875095895886,0.9784162197249026,0.2851814375,0.718957836214313
0.058,1.7159,1.0,2677.0598285735277,0.4798280493984681,1.2962436721426882,0.9786372892752908,0.2851208,0.7201520622302788
0.0585,1.71444375,1.0,2674.8145307935906,0.48274581658411975,1.2956066230063257,0.9788528687168856,0.2850596375,0.721354350876263
0.059000000000000004,1.7129750000000001,1.0,2672.5690817722434,0.4856472154982007,1.2949639387509277,0.9790631265666545,0.28499795,0.7225646519022288
0.059500000000000004,1.71149375,1.0,2670.324542310031,0.4885323367096078,1.2943156096406243,0.9792682246939624,0.2849357375,0.7237829142916699
0.06,1.71,1.0,2668.0819714268423,0.49140127078723755,1.2936616259395455,0.979468318632672,0.284873,0.7250090862581073
0.0605,1.7084937500000001,1.0,2665.842426363413,0.49425410829998695,1.2930019779118205,0.9796635578762442,0.2848097375,0.7262431152415851
0.061,1.7069750000000001,1.0,2663.6069625840237,0.49709093981675256,1.2923366558215794,0.979854086156888,0.28474595,0.7274849479051513
0.0615,1.7054437500000001,1.0,2661.376633781688,0.4999118559064313,1.2916656499329522,0.9800400417097367,0.2846816375,0.7287345301313413
0.062,1.7039,1.0,2659.152491885926,0.5027169471379197,1.2909889505100682,0.98022155752296,0.2846168,0.7299918070186513
0.0625,1.70234375,1.0,2656.935587071413,0.5055063040801145,1.2903065478170577,0.9803987615746639,0.2845514375,0.7312567228780051
0.063,1.7007750000000001,1.0,2654.726967770119,0.5082800173019127,1.28961843211805,0.9805717770573641,0.28448555,0.7325292212292172
0.0635,1.69919375,1.0,2652.5262945263794,0.5110381764294487,1.2889246064583353,0.9807407231734234,0.28441913750000003,0.7338092212464798
0.064,1.6976,1.0,2650.3350058608967,0.5137808657445183,1.2882250574877965,0.9809057135194016,0.2843522,0.7350966716714171
0.0645,1.69599375,1.0,2648.1542686239236,0.5165081708765868,1.287519774341597,0.9810668577646262,0.2842847375,0.7363915158244808
0.065,1.694375,1.0,2645.982811265697,0.5192201777443014,1.286808768648654,0.9812242627418393,0.28421675,0.7376936550581724
0.0655,1.69274375,1.0,2643.819364347496,0.5219169722663088,1.286092052037885,0.9813780314421003,0.2841482375,0.7390029903085209
0.066,1.6911,1.0,2641.65827179342,0.5245986398217799,1.2853696766879175,0.9815282651326563,0.2840792,0.7403193483004893
0.0665,1.6894437500000001,1.0,2639.5282013637748,0.5272652657931379,1.2846413775983818,0.981675046050077,0.2840096375,0.7416431318842329
0.067,1.6877777777777778,1.0,2637.5339256297852,0.5299169340060571,1.283907440098595,0.9818184799678603,0.28393966666666665,0.7429737418898683
0.0675,1.6861111111111111,1.0,2636.0825251446463,0.5325537282140257,1.2831681744871617,0.9819586702433089,0.2838696666666667,0.7443105387678838
0.068,1.6844444444444444,1.0,2635.174221840419,0.5351757319522407,1.2824238881895507,0.9820957165950198,0.2837996666666667,0.7456528934307913
0.0685,1.6827777777777777,1.0,2634.761846721039,0.5377830286243762,1.2816750149965561,0.982229721386256,0.28372966666666666,0.7469999551233734
0.069,1.6811111111111112,1.0,2634.803638805986,0.5403757005975088,1.2809219401825285,0.98236078128092,0.28365966666666664,0.7483509678701654
0.0695,1.6794444444444445,1.0,2635.264370257316,0.5429538295145303,1.2801649897290126,0.9824889869845717,0.2835896666666667,0.7497052886803006
0.07,1.6777777777777778,1.0,2636.108906660999,0.5455174970183329,1.2794044896175536,0.9826144262700902,0.28351966666666667,0.7510622805534259
0.07050000000000001,1.676111111111111,1.0,2637.313535653427,0.5480667817433283,1.2786406608242902,0.982737179072171,0.28344966666666666,0.7524214991562592
0.07100000000000001,1.6744444444444444,1.0,2638.829938870102,0.5506017695518945,1.2778739523047136,0.982857333655471,0.28337966666666664,0.7537821002249929
0.07150000000000001,1.6727777777777777,1.0,2640.634931406416,0.5531225398093572,1.2771045807988242,0.9829749645799378,0.2833096666666667,0.7551436584831248
0.07200000000000001,1.6711111111111112,1.0,2642.708871808306,0.5556291709309429,1.2763327304774597,0.9830901425313487,0.28323966666666667,0.7565058101622183
0.0725,1.6694444444444445,1.0,2645.0321302931693,0.5581217413318782,1.2755585855114582,0.9832029359852312,0.28316966666666665,0.7578681949965701
0.073,1.6677777777777778,1.0,2647.585079003827,0.5606003294273902,1.2747823300716576,0.983313411295182,0.28309966666666664,0.7592304562512455
0.0735,1.666111111111111,1.0,2650.3480830148733,0.5630650136327057,1.2740041483288957,0.9834216327771494,0.2830296666666667,0.7605922407479481
0.074,1.6644444444444444,1.0,2653.3014920905775,0.565515872363051,1.2732242244540108,0.9835276627898857,0.28295966666666666,0.7619531988887255
0.0745,1.662777777777778,1.0,2656.425633195626,0.5679529840336532,1.2724427426178404,0.9836315618117658,0.28288966666666665,0.7633129846775165
