Time [s],Phi [rad],STIM [ ],Fsee [N],Gamma [ ],Lcerel [ ],q [ ],Lmtc [m],fisomrel [ ]
0.0,1.8,1.0,17.96793281579888,1.128081965454418e-05,1.3793396594341496,0.005000033883969478,0.288653,0.5411397410088756
0.0005,1.79999375,1.0,18.277624554277917,0.005620426851972159,1.379302289994467,0.012944069150189162,0.2886527375,0.541230142872938
0.001,1.799975,1.0,21.62015604694317,0.011198110009964844,1.3789381208794695,0.03561524773784693,0.28865195,0.5421106522459711
0.0015,1.79994375,1.0,31.072939941495253,0.016744506776342115,1.378045888175647,0.07061083604372487,0.2886506375,0.5442643700047392
0.002,1.7999,1.0,53.58988155456303,0.022259792642162435,1.3763676455503382,0.11472865056147838,0.2886488,0.548301643440354
0.0025,1.79984375,1.0,97.13120390616466,0.027744142114401266,1.3739345761964457,0.1645864397717067,0.28864643749999996,0.5541228722091345
0.003,1.7997750000000001,1.0,160.97410157650822,0.03319772872366071,1.3712137473179642,0.21729236727436643,0.28864354999999997,0.5605878628895238
0.0035,1.79969375,1.0,237.7013141701342,0.03862072502376718,1.3685841803311447,0.270624738338096,0.2886401375,0.566791141612303
0.004,1.7996,1.0,321.48590315360576,0.044013302602552005,1.3661555856750078,0.3229272762442408,0.2886362,0.572481145022296
0.0045000000000000005,1.7994937500000001,1.0,409.28758099050964,0.04937563208703649,1.3639223486818077,0.37304540074464354,0.2886317375,0.5776802427612142
0.005,1.799375,1.0,499.4337404022833,0.0547078831345207,1.361857912332866,0.42025765311453567,0.28862675,0.5824580716903696
0.0055,1.79924375,1.0,590.8108483127642,0.060010224480028365,1.3599384358658375,0.4641831357212597,0.2886212375,0.5868760280180305
0.006,1.7991000000000001,1.0,682.5385705044106,0.06528282387952447,1.3581460428022847,0.5046886361352958,0.2886152,0.5909802679370666
0.006500000000000001,1.79894375,1.0,773.9013714343588,0.07052584816612018,1.3564669102676137,0.5418086950688952,0.2886086375,0.5948065748860365
0.007,1.798775,1.0,864.3058301415144,0.07573946322982693,1.3548900716282481,0.5756840119428016,0.28860155,0.5983834089913804
0.0075,1.79859375,1.0,953.2626583830017,0.08092383403415747,1.3534064801396615,0.6065164961427176,0.2885939375,0.6017342467962216
0.008,1.7984,1.0,1040.3788894494737,0.08607912461617409,1.352008345483963,0.6345380268418425,0.2885858,0.6048792242016674
0.0085,1.79819375,1.0,1125.3377568172593,0.09120549811029305,1.3506889084118097,0.6599898308790287,0.2885771375,0.6078357446330784
0.009000000000000001,1.797975,1.0,1207.8904442193439,0.09630311623988393,1.349442168086658,0.6831093446762658,0.28856795,0.6106191682490303
0.0095,1.79774375,1.0,1287.884327271518,0.1013721412537054,1.3482622280565288,0.7041221519085145,0.2885582375,0.6132443256030048
0.01,1.7975,1.0,1365.1881234131563,0.1064127336248502,1.3471441144205392,0.7232382942365854,0.288548,0.6157237366810575
0.0105,1.79724375,1.0,1439.6880717706583,0.11142505184903705,1.3460835887814788,0.7406503180996156,0.2885372375,0.6180680790055239
0.011,1.796975,1.0,1511.333748871349,0.11640925442198465,1.3450764127421386,0.7565325614972103,0.28852595000000003,0.6202878487532436
0.0115,1.79669375,1.0,1580.1232421368563,0.12136549950862668,1.3441184564217985,0.7710417974367869,0.2885141375,0.6223931375952767
0.012,1.7964,1.0,1646.069377059015,0.12629394449073675,1.3432060202126104,0.7843184580119925,0.28850180000000003,0.6243929454394812
0.0125,1.79609375,1.0,1709.185167536025,0.13119474485507462,1.3423359062253326,0.7964879625122511,0.2884889375,0.6262950488165826
0.013000000000000001,1.7957750000000001,1.0,1769.503483755667,0.1360680552728956,1.341505107417642,0.8076619784872937,0.28847555,0.6281067015550534
0.0135,1.79544375,1.0,1827.0787340159347,0.14091402985318285,1.34071073722162,0.8179397960281244,0.2884616375,0.6298348008351409
0.014,1.7951000000000001,1.0,1881.9897148685366,0.1457328230633233,1.3399499577735998,0.8274096409608394,0.2884472,0.631486052964693
0.0145,1.79474375,1.0,1934.2985813285554,0.15052458699836718,1.3392203915382062,0.8361500608792958,0.2884322375,0.6330660904485528
0.015,1.794375,1.0,1984.0669818331075,0.15528947248247818,1.3385198948323724,0.8442309528188892,0.28841675,0.6345799770493608
0.0155,1.79399375,1.0,2031.3750721789274,0.16002763033982018,1.3378463239730323,0.8517144952540883,0.2884007375,0.636032721230577
0.016,1.7936,1.0,2076.305962700355,0.16473921041462908,1.3371976807004677,0.8586561045198804,0.2883842,0.6374289672519944
0.0165,1.7931937500000001,1.0,2118.9603191624524,0.16942436334705407,1.3365719387477948,0.8651051829570319,0.2883671375,0.6387733738761183
0.017,1.792775,1.0,2159.4131496639693,0.1740832366392722,1.3359674733741467,0.8711059533619582,0.28834955,0.6400696965388777
0.0175,1.7923437500000001,1.0,2197.7383452250406,0.17871597683478338,1.3353827826377986,0.8766979878938428,0.2883314375,0.6413213938460687
0.018000000000000002,1.7919,1.0,2234.0194630606256,0.18332273047708755,1.3348163645970264,0.8819167205823076,0.2883128,0.6425318941263748
0.0185,1.79144375,1.0,2268.3426795887185,0.18790364336577123,1.3342667793838328,0.8867939461667427,0.2882936375,0.6437044649246176
0.019,1.790975,1.0,2300.7979887856886,0.192458861549396,1.3337326275046248,0.8913582362450833,0.28827395,0.644842261922383
0.0195,1.79049375,1.0,2331.46744368961,0.19698852972849928,1.3332126573200505,0.8956353332413238,0.2882537375,0.6459481026840262
0.02,1.79,1.0,2360.417057698045,0.2014927898654178,1.332705833471484,0.899648484781716,0.288233,0.6470243251723378
0.0205,1.78949375,1.0,2387.717887893483,0.20597178392248836,1.3322111206002998,0.9034186742672046,0.2882117375,0.6480732504767
0.021,1.788975,1.0,2413.44561555948,0.21042565386204767,1.3317274833478716,0.9069648722073259,0.28818995000000003,0.649097183646963
0.021500000000000002,1.78844375,1.0,2437.672455995051,0.21485454020961728,1.3312539603634566,0.9103042717247359,0.2881676375,0.650098258110732
0.022,1.7879,1.0,2460.476494677439,0.2192585851103582,1.330789569642786,0.9134524629356761,0.2881448,0.6510786371669017
0.0225,1.78734375,1.0,2481.9245906736974,0.22363792837650137,1.3303334688390425,0.9164236339160425,0.28812143749999997,0.6520401765458079
0.023,1.786775,1.0,2502.0721329404687,0.22799270696951432,1.3298849518022846,0.9192307165477123,0.28809755,0.6529844342296058
0.0235,1.78619375,1.0,2520.9769172945034,0.23232305785086457,1.3294433123825717,0.9218854923700402,0.28807313749999996,0.6539129589489773
0.024,1.7856,1.0,2538.698944823277,0.23662911798201966,1.3290078444299633,0.9243987107968511,0.2880482,0.6548272905087661
0.0245,1.78499375,1.0,2555.3002313509746,0.24091102432444708,1.3285778417945184,0.9267801937610497,0.2880227375,0.6557289600818126
0.025,1.784375,1.0,2570.8322216909305,0.24516891064634083,1.3281527145223024,0.9290389469286261,0.28799675,0.656619247294784
0.025500000000000002,1.78374375,1.0,2585.3612564605523,0.24940291624743158,1.3277317477980866,0.9311832034465299,0.2879702375,0.6574996858584548
0.026000000000000002,1.7831000000000001,1.0,2598.9331324868435,0.2536131742354695,1.327314432456691,0.9332205481145369,0.2879432,0.6583713721478133
0.0265,1.78244375,1.0,2611.5890961284485,0.257799816060077,1.326900312472499,0.935157956496144,0.2879156375,0.659235286050327
0.027,1.781775,1.0,2623.371408138451,0.2619629731708768,1.3264889318198934,0.9370018449087514,0.28788755,0.6600924024206156
0.0275,1.7810937500000001,1.0,2634.3232565850362,0.2661027770174914,1.3260798344732572,0.9387581227097156,0.2878589375,0.6609436911667513
0.028,1.7804,1.0,2644.4886743831476,0.27021935904954336,1.3256725644069738,0.9404322390588956,0.2878298,0.6617901173232956
0.0285,1.77969375,1.0,2653.9119170478534,0.2743128504288864,1.3252666706136915,0.9420292254095669,0.2878001375,0.6626326307011617
0.029,1.778975,1.0,2662.6290657469167,0.27838337760288745,1.3248617836665917,0.9435537420753162,0.28776995,0.663472007375512
0.029500000000000002,1.7782437500000001,1.0,2670.69068776071,0.2824310768468625,1.324457406248284,0.945010087551654,0.2877392375,0.6643092842175895
0.03,1.7775,1.0,2678.125145307362,0.28645607364791514,1.3240532502453848,0.9464022681864686,0.287708,0.6651450606039606
0.0305,1.77674375,1.0,2684.9612116435164,0.2904584934931488,1.3236490275445103,0.9477339992507557,0.2876762375,0.6659799329384337
0.031,1.775975,1.0,2691.2280345094277,0.29443846186966677,1.3232444500322775,0.9490087297483638,0.28764395,0.6668144946534772
0.0315,1.7751937500000001,1.0,2696.9551014143412,0.29839610426457264,1.3228392295953024,0.9502296648199492,0.2876111375,0.6676493362063509
0.032,1.7744,1.0,2702.172206762506,0.30233154616496977,1.3224330781202014,0.9513997860004353,0.2875778,0.6684850450699367
0.0325,1.77359375,1.0,2706.9094208195042,0.30624491305796164,1.3220257074935913,0.9525218695587601,0.2875439375,0.669322205718278
0.033,1.772775,1.0,2711.188740963482,0.3101363251314605,1.3216169054785916,0.9535985104910198,0.28750955,0.6701612439744091
0.0335,1.7719437500000002,1.0,2715.0404850381815,0.3140059093596313,1.3212063857904424,0.9546321230805307,0.2874746375,0.6710027351002599
0.034,1.7711000000000001,1.0,2718.4979551808788,0.31785379478348214,1.3207938367570433,0.9556249594232172,0.2874392,0.6718473032483911
0.0345,1.7702437500000001,1.0,2721.578816243077,0.32168010001902547,1.3203790906814419,0.9565791375030094,0.2874032375,0.6726952750450652
0.035,1.7693750000000001,1.0,2724.300856506043,0.32548494368227365,1.3199619798666846,0.9574966384825235,0.28736675,0.6735469752544366
0.035500000000000004,1.76849375,1.0,2726.6819751722314,0.3292684443892392,1.3195423366158185,0.9583793171260582,0.2873297375,0.6744027267541548
0.036000000000000004,1.7676,1.0,2728.740170480088,0.3330307207559344,1.3191199932318904,0.9592289113139991,0.2872922,0.675262850509178
0.0365,1.76669375,1.0,2730.4935284424005,0.33677189139837155,1.3186947820179475,0.9600470507372235,0.2872541375,0.6761276655437911
0.037,1.765775,1.0,2731.9602122081296,0.3404920749325633,1.3182665352770366,0.9608352648505964,0.28721555,0.6769974889118329
0.0375,1.76484375,1.0,2733.1584520479482,0.34419138997452187,1.3178350853122045,0.9615949901562495,0.2871764375,0.6778726356651266
0.038,1.7639,1.0,2734.1065359627387,0.3478699551402597,1.3174002644264984,0.9623275768799242,0.28713679999999997,0.6787534188201177
0.0385,1.76294375,1.0,2734.816504805452,0.3515278833358415,1.3169619620965491,0.963034299342294,0.28709663750000003,0.6796400337496995
0.039,1.761975,1.0,2735.3053958837368,0.35516529438571676,1.316520022781307,0.9637163542729185,0.28705595,0.6805327652376305
0.0395,1.7609937500000001,1.0,2735.591784725238,0.35878230838148467,1.3160742772856706,0.9643748677641926,0.2870147375,0.6814319235916486
0.04,1.76,1.0,2735.6857031304044,0.36237903685535006,1.3156246342386424,0.9650109066980509,0.286973,0.6823376602733521
0.0405,1.7589937500000001,1.0,2735.5972046318598,0.36595559133951766,1.3151710022692236,0.965625477451049,0.2869307375,0.6832501254101182
0.041,1.757975,1.0,2735.336361046458,0.36951208336619235,1.3147132900064162,0.9662195299578932,0.28688795,0.6841694677721217
0.0415,1.75694375,1.0,2734.913259212472,0.3730486244675788,1.3142514060792219,0.9667939614612041,0.2868446375,0.6850958347488265
0.042,1.7559,1.0,2734.3379979121482,0.3765653261758819,1.3137852591166426,0.9673496199747378,0.28680079999999997,0.686029372324941
0.0425,1.75484375,1.0,2733.6206849792006,0.3800623000233063,1.31331475774768,0.9678873074846894,0.2867564375,0.6869702250558437
0.043000000000000003,1.753775,1.0,2732.77143459114,0.38353965754205693,1.312839810601336,0.968407782911357,0.28671155,0.6879185360424753
0.043500000000000004,1.75269375,1.0,2731.8003647474343,0.3869975102643385,1.312360326306612,0.9689117648513498,0.28666613750000003,0.6888744469056982
0.044,1.7516,1.0,2730.714077604875,0.39043595936752595,1.3118762454565638,0.9693999350743844,0.2866202,0.6898380341834094
0.0445,1.75049375,1.0,2729.5224664255147,0.3938551222184669,1.3113874787512516,0.969872939991208,0.2865737375,0.6908094326432999
0.045,1.7493750000000001,1.0,2728.234836401673,0.39725511531315605,1.3108939422185903,0.9703313929652188,0.28652675,0.6917887649610452
0.0455,1.74824375,1.0,2726.8566264037067,0.4006360427169341,1.3103955870170967,0.970775876958907,0.2864792375,0.6927760827816071
0.046,1.7471,1.0,2725.3932746016717,0.40399800849514184,1.309892364305287,0.9712069455386196,0.2864312,0.6937714366877527
0.0465,1.7459437500000001,1.0,2723.8502175964363,0.4073411167131201,1.3093842252416783,0.9716251246347851,0.28638263750000004,0.6947748761849697
0.047,1.744775,1.0,2722.2328896042823,0.4106654714362097,1.3088711209847865,0.9720309141805528,0.28633355,0.6957864496862289
0.0475,1.74359375,1.0,2720.5467216942898,0.4139711767297513,1.3083530026931285,0.9724247896383126,0.28628393750000003,0.6968062044965928
0.048,1.7424,1.0,2718.7971410777664,0.4172583366590858,1.3078298215252209,0.9728072034227502,0.2862338,0.6978341867976743
0.0485,1.74119375,1.0,2716.989570452234,0.4205270552895539,1.30730152863958,0.9731785862283513,0.2861831375,0.6988704416319433
0.049,1.739975,1.0,2715.1294273964068,0.4237774366864965,1.3067680751947222,0.9735393482685889,0.28613195,0.6999150128868792
0.0495,1.73874375,1.0,2713.2221238194666,0.4270095849152542,1.3062294123491645,0.9738898804334322,0.2860802375,0.7009679432789713
0.05,1.7375,1.0,2711.2730654627376,0.4302236040411679,1.305685491261423,0.9742305553712509,0.286028,0.7020292743375716
0.0505,1.73624375,1.0,2709.285153788175,0.4334195873987757,1.3051362858773878,0.9745617287878733,0.2859752375,0.7030990020438554
0.051000000000000004,1.734975,1.0,2707.259332801574,0.4365976291074796,1.304581787978476,0.9748837413847442,0.28592195,0.7041770868362076
0.051500000000000004,1.73369375,1.0,2705.2051256959667,0.4397578607182919,1.3040219110104565,0.9751969174591213,0.2858681375,0.7052636403875958
0.052000000000000005,1.7324,1.0,2703.124548747566,0.4429003776944079,1.3034566368600862,0.9755015671243897,0.2858138,0.706358640132544
0.0525,1.73109375,1.0,2701.0196156104603,0.4460252754990225,1.3028859474141212,0.9757979866932439,0.28575893750000003,0.7074620626882978
0.053,1.729775,1.0,2698.892337220008,0.44913264959533106,1.3023098245593185,0.9760864594084734,0.28570355000000003,0.708573883848578
0.0535,1.72844375,1.0,2696.74472170452,0.45222259544652865,1.3017282501824348,0.9763672561289809,0.2856476375,0.7096940785773153
0.054,1.7271,1.0,2694.5787743039573,0.45529520851581046,1.3011412061702265,0.9766406359741356,0.2855912,0.7108226210023632
0.0545,1.7257437500000001,1.0,2692.396497295475,0.45835058426637165,1.3005486744094503,0.9769068469293244,0.2855342375,0.7119594844091908
0.055,1.724375,1.0,2690.1998899267332,0.4613888181614073,1.2999506367868627,0.9771661264153403,0.28547675,0.7131046412345521
0.0555,1.72299375,1.0,2687.9909483564456,0.46441000566411267,1.2993470751892207,0.977418701824055,0.2854187375,0.7142580630601374
0.056,1.7216,1.0,2685.77166560175,0.46741424223768285,1.2987379715032805,0.9776647910226323,0.2853602,0.7154197206062027
0.0565,1.72019375,1.0,2683.5440314935363,0.470401623345313,1.298123307615799,0.9779046028283743,0.28530113749999997,0.7165895837251777
0.057,1.718775,1.0,2681.3100326385256,0.4733722444501983,1.2975030654135327,0.9781383374561344,0.28524155,0.7177676213952529
0.0575,1.71734375,1.0,2679.0716523886567,0.47632620101553386,1.2968772267832382,0.9783661869400944,0.2851814375,0.7189538017139468
0.058,1.7159,1.0,2676.8308708180753,0.4792635885045149,1.2962457736116724,0.978588335531567,0.2851208,0.720148091891651
0.0585,1.71444375,1.0,2674.589664707199,0.4821845023803365,1.2956086877855915,0.9788049600743652,0.2850596375,0.7213504582451553
0.059000000000000004,1.7129750000000001,1.0,2672.3467585226995,0.4850890139068886,1.2949659810381584,0.9790162299673985,0.28499795,0.7225608100452703
0.059500000000000004,1.71149375,1.0,2670.1046005679977,0.4879772281815709,1.2943176308995836,0.9792223088937563,0.2849357375,0.7237791203496698
0.06,1.71,1.0,2667.867119558315,0.49084925933560064,1.2936636012514098,0.9794233540891376,0.284873,0.7250053867986384
0.0605,1.7084937500000001,1.0,2665.6347249385485,0.4937051937229564,1.2930038882843993,0.979619516127878,0.2848097375,0.7262395454407631
0.061,1.7069750000000001,1.0,2663.4078254689834,0.49654511769761667,1.292338488189314,0.979810939782081,0.28474595,0.7274815316428134
0.0615,1.7054437500000001,1.0,2661.1868292287418,0.49936911761356,1.2916673971569164,0.9799977642876971,0.2846816375,0.7287312800883597
0.062,1.7039,1.0,2658.972143619874,0.502177279824765,1.2909906113779686,0.9801801235964411,0.2846168,0.7299887247763905
0.0625,1.70234375,1.0,2656.7641753707735,0.50496969068521,1.2903081270432328,0.9803581466144033,0.2845514375,0.7312537990199305
0.063,1.7007750000000001,1.0,2654.563330541107,0.5077464365488737,1.2896199403434712,0.980531957428154,0.28448555,0.7325264354446563
0.0635,1.69919375,1.0,2652.37001452616,0.5105076037697347,1.288926047469446,0.9807016755190808,0.28441913750000003,0.733806565987511
0.064,1.6976,1.0,2650.1846320616683,0.5132532787017714,1.2882264446119194,0.9808674159666548,0.2843522,0.7350941218953195
0.0645,1.69599375,1.0,2648.007587229715,0.5159835476989624,1.2875211279616534,0.9810292896412751,0.2842847375,0.7363890337234009
0.065,1.694375,1.0,2645.8392834638466,0.5186984971152863,1.2868100937094105,0.9811874033872955,0.28421675,0.7376912313341811
0.0655,1.69274375,1.0,2643.680123555063,0.5213982133047215,1.2860933380459525,0.9813418601968024,0.2841482375,0.7390006438958048
0.066,1.6911,1.0,2641.5305096583884,0.5240827826212465,1.285370857162042,0.9814927593746736,0.2840792,0.7403171998807445
0.0665,1.6894437500000001,1.0,2639.3908432994067,0.5267522914188401,1.284642647248441,0.9816401966954128,0.2840096375,0.7416408270644121
0.067,1.687775,1.0,2637.2615253807,0.5294068260514806,1.2839087044959117,0.981784264552227,0.28393955,0.7429714525237663
0.0675,1.68609375,1.0,2635.142956189962,0.5320464728731467,1.2831690250952161,0.9819250520987809,0.2838689375,0.7443090026359211
0.068,1.6844000000000001,1.0,2633.0355354067615,0.5346713182378168,1.2824236052371167,0.9820626453840371,0.2837978,0.7456534030767514
0.0685,1.68269375,1.0,2630.94102951699,0.5372813954536703,1.2816724284525007,0.9821971234409999,0.2837261375,0.7470046015614504
0.069,1.680975,1.0,2628.859472587831,0.5398768518714073,1.2809154942923473,0.9823285706893078,0.28365395,0.7483625161558871
0.0695,1.67924375,1.0,2626.7906887798026,0.542457767962581,1.280152804252614,0.9824570644726318,0.28358123749999997,0.7497270608080246
0.07,1.6775,1.0,2624.7345417418064,0.5450242209768209,1.2793843594663508,0.9825826793006338,0.283508,0.7510981495075795
0.07050000000000001,1.67574375,1.0,2622.690895394652,0.5475762881637568,1.2786101610666072,0.9827054871819421,0.2834342375,0.752475695632778
0.07100000000000001,1.673975,1.0,2620.6596139281883,0.5501140467730182,1.2778302101864327,0.9828255577234852,0.28335995,0.7538596119507737
0.07150000000000001,1.67219375,1.0,2618.6405617989176,0.5526375740542347,1.277044507958877,0.982942958225231,0.2832851375,0.7552498106180603
0.07200000000000001,1.6704,1.0,2616.633603727023,0.5551469472570362,1.27625305551699,0.9830577537705687,0.2832098,0.7566462031808892
0.0725,1.66859375,1.0,2614.638604693745,0.557642243631052,1.2754558539938212,0.9831700073125624,0.2831339375,0.7580487005756845
0.073,1.6667750000000001,1.0,2612.655429939018,0.560123540425912,1.2746529045224202,0.9832797797562908,0.28305755,0.759457213129459
0.0735,1.66494375,1.0,2610.68394495855,0.5625909148912458,1.2738442082358366,0.9833871300374745,0.2829806375,0.7608716505602289
0.074,1.6631,1.0,2608.7240155013187,0.5650444442766829,1.2730297662671202,0.9834921151975794,0.2829032,0.762291921977429
0.0745,1.6612437500000001,1.0,2606.7755075671616,0.5674842058318531,1.2722095797493207,0.9835947904555811,0.2828252375,0.7637179358823285
0.075,1.659375,1.0,2604.8382874042645,0.5699102768063861,1.2713836498154876,0.9836952092765496,0.28274675,0.7651496001684465
0.0755,1.65749375,1.0,2602.9122215065513,0.5723227344499113,1.2705519775986707,0.9837934234372243,0.2826677375,0.7665868221219656
