Time [s],Phi [rad],STIM [ ],Fsee [N],Gamma [ ],Lcerel [ ],q [ ],Lmtc [m],fisomrel [ ]
0.0,1.8,1.0,18.117563484854767,0.00039560859875911714,1.3793229309116122,0.005040515102340557,0.288653,0.5411802107290316
0.0005,1.79999375,1.0,18.54979813808041,0.006002598856220157,1.3792721692536107,0.014045641869234387,0.2886527375,0.5413030026456009
0.001,1.799975,1.0,22.177644261821673,0.011578138331472702,1.3788815463809088,0.03764625146115147,0.28865195,0.5422473654719748
0.0015,1.79994375,1.0,32.254769222576655,0.01712240343955138,1.377946145929988,0.07337245403499444,0.2886506375,0.544504817527641
0.002,1.7999,1.0,56.00941158790739,0.022635569603632427,1.376212422584052,0.11798737138345823,0.2886488,0.5486741488948939
0.0025,1.79984375,1.0,101.09243835426246,0.028117811264445243,1.3737456131510164,0.16812409325097943,0.28864643749999996,0.5545733949310294
0.003,1.7997750000000001,1.0,166.0605636083383,0.0335693018851556,1.3710248462464023,0.22093710138075506,0.28864354999999997,0.5610349600377345
0.0035,1.79969375,1.0,243.41118954755873,0.03899021395346288,1.3684093513888278,0.27424641253667786,0.2886401375,0.5672020083203546
0.004,1.7996,1.0,327.53901367651383,0.04438071899141737,1.3659960142892094,0.3264316164264545,0.2886362,0.5728536910855002
0.0045000000000000005,1.7994937500000001,1.0,415.5413720795136,0.049740987560993946,1.3637761084329458,0.37637024832950716,0.2886317375,0.5780195884355283
0.005,1.799375,1.0,505.803002985206,0.05507118925499615,1.3617229975521599,0.4233671691269249,0.28862675,0.5827693655672199
0.0055,1.79924375,1.0,597.2292119715431,0.060371492737272214,1.359813377503276,0.46706130500020854,0.2886212375,0.587163052837006
0.006,1.7991000000000001,1.0,688.955651589934,0.06564206570716102,1.3580296719807694,0.5073332038374107,0.2886152,0.5912460267262203
0.006500000000000001,1.79894375,1.0,780.2734626914419,0.07088307491585089,1.3563583588900716,0.5442264522454504,0.2886086375,0.5950533164833385
0.007,1.798775,1.0,870.5967431008565,0.07609468624655599,1.3547886386399228,0.5778871906445491,0.28860155,0.5986129524618312
0.0075,1.79859375,1.0,959.4399364205728,0.08127706446163353,1.353311621614543,0.6085202642466742,0.2885939375,0.6019480166839986
0.008,1.7984,1.0,1046.4274838049885,0.0864303737910705,1.3519194220522361,0.6363586436385577,0.2885858,0.605078827750064
0.0085,1.79819375,1.0,1131.240396330277,0.09155477703564513,1.3506054588965235,0.6616437190723566,0.2885771375,0.6080223603059891
0.009000000000000001,1.797975,1.0,1213.635899697355,0.09665043629073455,1.3493637560839833,0.6846123279956774,0.28856795,0.6107938964760556
0.0095,1.79774375,1.0,1293.4574322029328,0.10171751324448466,1.3481885603591415,0.7054891360738182,0.2885582375,0.6134079286831267
0.01,1.7975,1.0,1370.5647463496034,0.10675616775729156,1.3470750787203132,0.7244830907337422,0.288548,0.6158765616431391
0.0105,1.79724375,1.0,1444.8709346346275,0.11176655915898168,1.346018780194106,0.7417853393132311,0.2885372375,0.6182111089061959
0.011,1.796975,1.0,1516.3434185472556,0.11674884649094971,1.3450152683217838,0.7575689245141521,0.28852595000000003,0.6204223999516822
0.0115,1.79669375,1.0,1584.9603410318207,0.12170318733131086,1.3440607140155745,0.7719896045233235,0.2885141375,0.6225198503542508
0.012,1.7964,1.0,1650.7154033593001,0.12662973792043666,1.343151677808297,0.7851868394914493,0.28850180000000003,0.6245118814328785
0.0125,1.79609375,1.0,1713.6357664224436,0.1315286540401841,1.3422848170570119,0.7972849873795513,0.2884889375,0.626406581671709
0.013000000000000001,1.7957750000000001,1.0,1773.7796612005839,0.13640009167182876,1.341456862091762,0.8083947175020577,0.28847555,0.628211770824131
0.0135,1.79544375,1.0,1831.1960661146718,0.14124420486789918,1.3406650199630605,0.8186145679805017,0.2884616375,0.6299341332065294
0.014,1.7951000000000001,1.0,1885.9315164758016,0.14606114601435255,1.3399068310674265,0.8280321962610177,0.2884472,0.6315795478115434
0.0145,1.79474375,1.0,1938.0564141147183,0.150851067497146,1.3391798358013793,0.8367254804754287,0.2884322375,0.6331538232963947
0.015,1.794375,1.0,1987.6504918150547,0.15561412087028548,1.3384817072763382,0.8447636929625693,0.28841675,0.6346624165793856
0.0155,1.79399375,1.0,2034.8083498916094,0.16035045823695748,1.3378101648518987,0.8522084792952855,0.2884007375,0.6361106266668782
0.016,1.7936,1.0,2079.6038201446117,0.16506022895495343,1.3371633248081372,0.8591148642864209,0.2883842,0.6375028456770491
0.0165,1.7931937500000001,1.0,2122.1084306344483,0.16974358112120985,1.33653947378934,0.8655319618275494,0.2883671375,0.6388430567015122
0.017,1.792775,1.0,2162.4060787717317,0.17440066283266323,1.3359368984397937,0.8715036240105244,0.28834955,0.6401352049319252
0.0175,1.7923437500000001,1.0,2200.585852406033,0.17903162153284646,1.3353539473953233,0.8770690796576497,0.2883314375,0.6413830674948173
0.018000000000000002,1.7919,1.0,2236.7400330286337,0.18363660471753449,1.334789038875272,0.8822634796667792,0.2883128,0.6425902405898332
0.0185,1.79144375,1.0,2270.954335872975,0.18821575874287705,1.3342407463901351,0.8871183930318897,0.2882936375,0.6437599599890478
0.019,1.790975,1.0,2303.296818982893,0.1927692271469633,1.3337078950621055,0.8916622419211742,0.28827395,0.6448949004248048
0.0195,1.79049375,1.0,2333.8419570833007,0.19729715346788235,1.3331893100133752,0.8959206004120784,0.2882537375,0.6459977158571779
0.02,1.79,1.0,2362.6701076085205,0.20179968124372327,1.3326838163661368,0.8999165176741166,0.288233,0.6470710405869344
0.0205,1.78949375,1.0,2389.85664315924,0.20627695253137474,1.3321903399208541,0.9036708230435386,0.2882117375,0.6481172769874599
0.021,1.788975,1.0,2415.4884796374604,0.21072911118496224,1.331707740208183,0.9072023369060553,0.28818995000000003,0.64913895116703
0.021500000000000002,1.78844375,1.0,2439.6350217512004,0.21515629801299962,1.3312350875549332,0.9105281469253828,0.2881676375,0.6501381274632516
0.022,1.7879,1.0,2462.354722696708,0.21955865163479316,1.330771591566213,0.9136637794088996,0.2881448,0.6511165631784259
0.0225,1.78734375,1.0,2483.7090738612305,0.22393631066964917,1.3303164618471301,0.9166233384590011,0.28812143749999997,0.6520760045688566
0.023,1.786775,1.0,2503.7623523576635,0.22828941373687395,1.3298689080027928,0.9194196559332882,0.28809755,0.6530181872864957
0.0235,1.78619375,1.0,2522.578975170916,0.23261809929361754,1.3294281623989321,0.9220644280213639,0.28807313749999996,0.653944788961935
0.024,1.7856,1.0,2540.1963857574838,0.23692250296104828,1.328993733116145,0.9245683764886302,0.2880482,0.6548568991399961
0.0245,1.78499375,1.0,2556.7454367952814,0.2412027651959721,1.3285642669580429,0.9269411471802477,0.2880227375,0.6557574058620024
0.025,1.784375,1.0,2572.2507352887974,0.24545901935520026,1.3281394306675418,0.9291917428717228,0.28799675,0.6566470473251962
0.025500000000000002,1.78374375,1.0,2586.73803564377,0.2496913987955439,1.3277188909875575,0.9313284118455454,0.2879702375,0.6575265576845837
0.026000000000000002,1.7831020458555833,1.0,2600.333377002238,0.25390003687381424,1.3273023146610061,0.9333587213400876,0.2879432859259345,0.6583966671477925
0.0265,1.782459197525988,1.0,2613.517915448814,0.25808506694682243,1.3268893684308036,0.9352896229570616,0.2879162862960915,0.6592581020628518
0.027,1.781816349196393,1.0,2626.3799960675724,0.26224662237137975,1.3264797190398658,0.937127510993064,0.2878892866662485,0.6601115849988848
0.0275,1.7811735008667977,1.0,2638.9353893160605,0.2663848349944155,1.3260731965111827,0.9388782985813461,0.2878622870364055,0.6609574952709809
0.028,1.7805306525372027,1.0,2651.1738534343403,0.2704998364409761,1.3256698730133794,0.9405474734486804,0.2878352874065625,0.6617957073069176
0.0285,1.7798878042076076,1.0,2663.1019243434507,0.2745917559311772,1.3252696662741217,0.94214007761145,0.2878082877767195,0.6626264164602089
0.029,1.7792449558780123,1.0,2674.726570658435,0.27866072251991136,1.3248724913880778,0.9436607704354444,0.28778128814687653,0.6634498225105335
0.029500000000000002,1.7786021075484173,1.0,2686.054903754711,0.28270686526207117,1.3244782634499166,0.9451138630190038,0.28775428851703355,0.6642661241981076
0.03,1.777959259218822,1.0,2697.087578607751,0.28673028233509695,1.3240869578460377,0.9465033458803335,0.2877272888871905,0.6650753946240453
0.0305,1.777316410889227,1.0,2707.843193527546,0.2907311479490974,1.3236983869360104,0.9478329245517038,0.28770028925734753,0.665878043032605
0.031,1.7766735625596317,1.0,2718.3289861118624,0.2947095855663389,1.3233124685195758,0.949106034816641,0.28767328962750455,0.6666742592467421
0.0315,1.7760307142300367,1.0,2728.551779388774,0.29866571630522626,1.3229291252333721,0.9503258693938574,0.2876462899976615,0.6674642221811513
0.032,1.7753878659004416,1.0,2738.5185052156767,0.302599661284164,1.322548279714038,0.9514953983062375,0.2876192903678185,0.6682481098645239
0.0325,1.7747450175708464,1.0,2748.236199928153,0.3065115416215569,1.3221698545982121,0.9526173871466429,0.28759229073797554,0.6690260994520627
0.033,1.7741021692412513,1.0,2757.712000122456,0.3104014784358096,1.3217937725225326,0.9536944136361073,0.28756529110813256,0.6697983672376165
0.0335,1.773459320911656,1.0,2766.9531385699006,0.3142695928453268,1.3214199561236384,0.9547288826522802,0.2875382914782896,0.6705650886654285
0.034,1.772816472582061,1.0,2775.9669402644827,0.31811600596851314,1.321048328038168,0.9557230398857043,0.2875112918484466,0.671326438341508
0.0345,1.7721736242524657,1.0,2784.7608186028997,0.32194083892377334,1.3206788109027596,0.956678984263716,0.28748429221860355,0.6720825900446178
0.035,1.7715307759228707,1.0,2793.342271697533,0.3257442128295121,1.320311327354052,0.9575986792661614,0.28745729258876057,0.6728337167368791
0.035500000000000004,1.7708879275932756,1.0,2801.7188788216317,0.32952624880413406,1.319945800028684,0.9584839632433702,0.2874302929589176,0.673579990573997
0.036000000000000004,1.7702450792636804,1.0,2809.8982969878266,0.3332870679660439,1.3195821515632935,0.9593365588347508,0.28740329332907455,0.6743215829151024
0.0365,1.7696022309340853,1.0,2817.888257658977,0.3370267914336463,1.3192203045945194,0.9601580815757148,0.28737629369923157,0.6750586643322138
0.037,1.76895938260449,1.0,2825.696563591713,0.34074554032534593,1.3188601817590004,0.9609500477712292,0.2873492940693886,0.6757914046193151
0.0375,1.768316534274895,1.0,2833.326996970819,0.34444342196401934,1.3185017421720608,0.9617138823266719,0.2873222944395456,0.676519898703323
0.038,1.7676736859453,1.0,2840.786125224509,0.3481205543061433,1.318144920523786,0.9624509246756335,0.2872952948097026,0.6772442906406693
0.0385,1.7670308376157047,1.0,2848.0864958136967,0.3517770761198147,1.3177895987935946,0.9631624341120579,0.2872682951798596,0.6779648306715759
0.039,1.7663879892861096,1.0,2855.232527053079,0.35541309836645696,1.3174357319513874,0.9638495973313643,0.2872412955500166,0.678681620154614
0.0395,1.7657451409565144,1.0,2862.2286770094624,0.35902873200749374,1.3170832749670651,0.9645135323895115,0.2872142959201736,0.6793947600005121
0.04,1.7651022926269193,1.0,2869.079442072003,0.36262408800434853,1.3167321828105285,0.9651552934093357,0.2871872962903306,0.680104350676269
0.0405,1.764459444297324,1.0,2875.7893555673413,0.36619927731844487,1.3163824104516788,0.9657758749161357,0.2871602966604876,0.6808104922091373
0.041,1.763816595967729,1.0,2882.3629864188524,0.36975441091120637,1.3160339128604166,0.9663762158353154,0.2871332970306446,0.6815132841904803
0.0415,1.763173747638134,1.0,2888.804937851959,0.3732895997440565,1.3156866450066427,0.9669572031816944,0.2871062974008016,0.6822128257794962
0.042,1.7625308993085387,1.0,2895.1198461436707,0.3768049547784189,1.3153405618602583,0.9675196754672245,0.28707929777095864,0.6829092157068133
0.0425,1.7618880509789436,1.0,2901.3123794174753,0.3803005869757171,1.314995618391164,0.9680644258512848,0.28705229814111566,0.6836025522779599
0.043000000000000003,1.7612452026493484,1.0,2907.3872364827535,0.3837766072973746,1.3146517695692606,0.968592205055444,0.2870252985112726,0.6842929333766996
0.043500000000000004,1.7606023543197533,1.0,2913.349145719828,0.387233126704815,1.314308970364449,0.9691037240625052,0.28699829888142964,0.6849804564682395
0.044,1.759959505990158,1.0,2919.2028640091225,0.39067025615946177,1.3139671757466302,0.9695996566178139,0.28697129925158665,0.6856652186023107
0.0445,1.759316657660563,1.0,2924.9531757058858,0.3940881066227386,1.3136263406857052,0.9700806415491435,0.2869442996217436,0.6863473164161161
0.045,1.758673809330968,1.0,2930.6048916600466,0.39748678905606893,1.3132864201515744,0.9705472849199902,0.28691729999190063,0.6870268461371531
0.0455,1.7580309610013727,1.0,2936.156958094309,0.4008663841771982,1.3129474207351512,0.9710001616629657,0.28689030036205765,0.6877038005587253
0.046,1.7573881126717776,1.0,2941.618596369058,0.4042270327857806,1.3126092590848237,0.9714398195471667,0.28686330073221467,0.6883783518317524
0.0465,1.7567452643421824,1.0,2946.9937507950085,0.40756884494001283,1.3122718983644757,0.9718667782233049,0.2868363011023717,0.6890505787367557
0.047,1.7561024160125873,1.0,2952.284794181083,0.4108919219653874,1.3119353156455902,0.9722815316132509,0.28680930147252864,0.6897205320570345
0.0475,1.755459567682992,1.0,2957.494112850273,0.4141963651873968,1.3115994879996502,0.9726845495998651,0.28678230184268566,0.6903882623672062
0.048,1.754816719353397,1.0,2962.6241062494437,0.41748227593153336,1.3112643924981389,0.9730762794215773,0.2867553022128427,0.6910538200343257
0.0485,1.754173871023802,1.0,2967.6771865717296,0.4207497555232897,1.3109300062125389,0.9734571469735526,0.2867283025829997,0.691717255218975
0.049,1.7535310226942067,1.0,2972.65577838989,0.4239989052881582,1.3105963062143338,0.9738275580225092,0.28670130295315666,0.6923786178763132
0.0495,1.7528881743646116,1.0,2977.562318302052,0.4272298265516314,1.310263269575006,0.9741878993416586,0.2866743033233137,0.6930379577571019
0.05,1.7522453260350164,1.0,2982.399254588067,0.4304426206392017,1.3099308733660389,0.9745385397717008,0.2866473036934707,0.6936953244086874
0.0505,1.7516024777054213,1.0,2987.1690468783954,0.43363738887636155,1.3095990946589156,0.9748798312133217,0.2866203040636277,0.6943507671759561
0.051000000000000004,1.750959629375826,1.0,2991.874165834567,0.43681423258860347,1.3092679105251186,0.9752121095561838,0.2865933044337847,0.6950043352022552
0.051500000000000004,1.750316781046231,1.0,2996.5170928406164,0.43997325310141994,1.3089372980361316,0.975535695549012,0.2865663048039417,0.6956560774302756
0.052000000000000005,1.749673932716636,1.0,3001.1003197072037,0.44311455174030334,1.308607234263437,0.9758508956149907,0.2865393051740987,0.6963060426029086
0.0525,1.7490310843870407,1.0,3005.626348386428,0.4462382298307462,1.308277696278518,0.9761580026163631,0.2865123055442557,0.6969542792640617
0.053,1.7483882360574456,1.0,3010.097690698712,0.449344388698241,1.307948661152858,0.9764572965718114,0.2864853059144127,0.6976008357594461
0.0535,1.7477453877278504,1.0,3014.5154838478484,0.4524331151894931,1.3076201179304416,0.9767490446077453,0.2864583062845697,0.6982457367489197
0.054,1.7471025393982553,1.0,3018.8800618272735,0.45550449338878646,1.3072920626436184,0.9770335025341937,0.2864313066547267,0.6988889931002248
0.0545,1.7464596910686603,1.0,3023.1970793028736,0.45855866433164694,1.3069644453962173,0.9773109180532417,0.28640430702488373,0.6995307055567371
0.055,1.745816842739065,1.0,3027.4676737584023,0.46159571960232126,1.3066372554329901,0.9775815258846507,0.28637730739504075,0.7001708978970764
0.0555,1.74517399440947,1.0,3031.692987429624,0.4646157507850561,1.3063104819986882,0.9778455509272912,0.28635030776519776,0.7008095938065413
0.056,1.7445311460798747,1.0,3035.8741672035335,0.46761884946409826,1.3059841143380628,0.9781032087510124,0.2863233081353547,0.7014468168773957
0.0565,1.7438882977502796,1.0,3040.0123645205877,0.4706051072236944,1.3056581416958657,0.9783547060599767,0.28629630850551174,0.7020825906091521
0.057,1.7432454494206844,1.0,3044.1087352789177,0.47357461564809117,1.3053325533168483,0.9786002411293355,0.28626930887566876,0.7027169384088456
0.0575,1.7426026010910893,1.0,3048.1644397415525,0.4765274663215353,1.3050073384457617,0.978840004216983,0.2862423092458257,0.703349883591303
0.058,1.741959752761494,1.0,3052.180642446104,0.4794637508282735,1.3046824863273578,0.9790741779519991,0.28621530961598274,0.7039814493793987
0.0585,1.741316904431899,1.0,3056.1585121170183,0.48238356075255256,1.304357986206388,0.9793029377012806,0.28618830998613976,0.7046116589043114
0.059000000000000004,1.740674056102304,1.0,3060.0992215801834,0.48528698767861905,1.3040338273276035,0.9795264519157425,0.28616131035629677,0.7052405352057685
0.059500000000000004,1.7400312077727087,1.0,3064.0039476803763,0.48817412319071973,1.3037099989357561,0.9797448824573869,0.2861343107264538,0.70586810123228
0.06,1.7393883594431137,1.0,3067.873871201137,0.49104505887310135,1.3033864902755972,0.979958384908433,0.28610731109661075,0.7064943798413743
0.0605,1.7387455111135184,1.0,3071.710176787526,0.4938998863100105,1.303063290591878,0.9801671088636273,0.28608031146676777,0.707119393799818
0.061,1.7381026627839233,1.0,3075.5140528706374,0.49673869708569407,1.3027403891293503,0.9803711982067694,0.2860533118369248,0.7077431657838316
0.0615,1.7374598144543283,1.0,3079.28669159562,0.49956158278439866,1.3024177751327652,0.9805707913724225,0.2860263122070818,0.7083657183792993
0.062,1.736816966124733,1.0,3083.029288751571,0.5023686349903709,1.3020954378468745,0.9807660215937072,0.28599931257723876,0.7089870740819679
0.0625,1.736174117795138,1.0,3086.7430437046487,0.5051599452878577,1.3017733665164297,0.9809570171370207,0.2859723129473958,0.7096072552976421
0.063,1.7355312694655427,1.0,3090.4284097736136,0.5079355894293592,1.3014515567891893,0.9811439006931973,0.2859453133175528,0.7102262720324432
0.0635,1.7348884211359477,1.0,3094.0856715745313,0.5106956477680886,1.3011300057674882,0.9813267908763784,0.2859183136877098,0.710844131461966
0.064,1.7342455728063524,1.0,3097.7171159460004,0.5134402427474097,1.3008086934807537,0.9815058041314477,0.28589131405786683,0.7114608734898022
0.0645,1.7336027244767573,1.0,3101.3232816103077,0.5161694566946982,1.3004876149154323,0.9816810505830479,0.2858643144280238,0.7120765091914377
0.065,1.7329598761471623,1.0,3104.9047090263684,0.5188833719373291,1.3001667650579705,0.9818526364201925,0.2858373147981808,0.7126910496002333
0.0655,1.732317027817567,1.0,3108.461940363289,0.5215820708026779,1.2998461388948144,0.9820206640653903,0.2858103151683378,0.713304505707499
0.066,1.731674179487972,1.0,3111.9955194757176,0.5242656356181199,1.299525731412411,0.9821852323353284,0.2857833155384948,0.7139168884625646
0.0665,1.7310313311583767,1.0,3115.505991879356,0.5269341487110304,1.299205537597206,0.9823464365935959,0.2857563159086518,0.7145282087728537
0.067,1.7303884828287817,1.0,3118.9939047264456,0.5295876924087848,1.2988855524356466,0.9825043688958934,0.2857293162788088,0.7151384775039488
0.0675,1.7297456344991864,1.0,3122.4598067827474,0.5322263490387583,1.2985657709141787,0.982659118128152,0.28570231664896584,0.7157477054796626
0.068,1.7291027861695913,1.0,3125.904248404346,0.5348502009283264,1.2982461880192488,0.9828107701379498,0.28567531701912285,0.716355903482101
0.0685,1.7284599378399963,1.0,3129.327781515471,0.5374593304048643,1.2979267987373033,0.9829594078596003,0.28564831738927987,0.7169630822517294
0.069,1.727817089510401,1.0,3132.7309595864836,0.5400538197957473,1.297607598054789,0.9831051114332563,0.28562131775943683,0.7175692524874335
0.0695,1.727174241180806,1.0,3136.114337613089,0.5426337514283508,1.2972885809581518,0.9832479583183555,0.28559431812959385,0.718174424846583
0.07,1.7265313928512107,1.0,3139.4784720950215,0.5451992076300501,1.2969697424338384,0.9833880234017135,0.28556731849975087,0.7187786099450882
0.07050000000000001,1.7258885445216157,1.0,3142.8239210163,0.5477502707282206,1.2966510774682953,0.9835253791005513,0.2855403188699078,0.7193818183574601
