Time [s],Phi [rad],STIM [ ],Fsee [N],Gamma [ ],Lcerel [ ],q [ ],Lmtc [m],fisomrel [ ]
0.0,1.8,1.0,18.07296047256095,0.00033090504936740783,1.3793279102221598,0.005028386714974642,0.288653,0.5411681649441615
0.0005,1.79999375,1.0,18.48538124568637,0.005938258242569973,1.3792792780337666,0.013855385815902118,0.2886527375,0.5412858075707423
0.001,1.799975,1.0,22.06520363404341,0.011514158617787812,1.3788928992191762,0.03730039638379715,0.28865195,0.5422199327847168
0.0015,1.79994375,1.0,32.03485284615004,0.017058782601463797,1.3779645659520385,0.0729047354247802,0.2886506375,0.544460417361885
0.002,1.7999,1.0,55.577862524346756,0.022572305628172522,1.376239858914951,0.11743711798994166,0.2886488,0.5486083181239089
0.0025,1.79984375,1.0,100.40220936197643,0.028054902149842544,1.373778269261226,0.16752780613068655,0.28864643749999996,0.5544955530232223
0.003,1.7997750000000001,1.0,165.18490679161596,0.03350674564095558,1.3710571580882152,0.22032346796126143,0.28864354999999997,0.5609584994626828
0.0035,1.79969375,1.0,242.43409528066212,0.0389280086003409,1.3684391221586159,0.27363715997630056,0.2886401375,0.5671320575988156
0.004,1.7996,1.0,326.50656545255697,0.04431886256114616,1.3660231266156846,0.3258424588784866,0.2886362,0.5727904042808627
0.0045000000000000005,1.7994937500000001,1.0,414.47688815343355,0.049679478096323684,1.3638009224884682,0.37581151647237127,0.2886317375,0.5779620178461083
0.005,1.799375,1.0,504.72084943843055,0.055010024810114744,1.3617458597532728,0.4228447866456025,0.28862675,0.5827166229316503
0.0055,1.79924375,1.0,596.1394596139778,0.06031067137636145,1.3598345632083484,0.4665779040558487,0.2886212375,0.5871144359714833
0.006,1.7991000000000001,1.0,687.8676592103965,0.06558158550630468,1.358049363950436,0.5068891005615314,0.2886152,0.5912010617815312
0.006500000000000001,1.79894375,1.0,779.1936462466789,0.07082293395476688,1.3563767227609045,0.5438204815377472,0.2886086375,0.5950115799559867
0.007,1.798775,1.0,869.5328344188916,0.07603488264003175,1.3548057670067215,0.5775172577791013,0.28860155,0.5985741954680232
0.0075,1.79859375,1.0,958.3947057339955,0.08121759629197094,1.35332765070811,0.6081838340750568,0.2885939375,0.6019118981029585
0.008,1.7984,1.0,1045.4056216815127,0.08637123918771923,1.3519344268855304,0.6360529562140834,0.2885858,0.6050451504233203
0.0085,1.79819375,1.0,1130.245375396955,0.09149597416536262,1.3506195108814132,0.6613660080537759,0.2885771375,0.6079909393790771
0.009000000000000001,1.797975,1.0,1212.6704249868374,0.0965919632174422,1.3493769195565222,0.6843599290103131,0.28856795,0.6107645665854446
0.0095,1.79774375,1.0,1292.5189345810757,0.10165936810775562,1.3482009546956666,0.7052595838735254,0.2885582375,0.6133804054497014
0.01,1.7975,1.0,1369.6552745122722,0.10669834888811833,1.3470867467874568,0.7242740770829779,0.288548,0.6158507340704715
0.0105,1.79724375,1.0,1443.9911634695275,0.1117090647175907,1.3460297730035349,0.7415947694945606,0.2885372375,0.6181868501119967
0.011,1.796975,1.0,1515.4828282255155,0.11669167412818517,1.345025764874319,0.7573949698637269,0.28852595000000003,0.6203993034849847
0.0115,1.79669375,1.0,1584.1310760112456,0.12164633577350177,1.344070607023174,0.77183049727922,0.2885141375,0.6224981421642364
0.012,1.7964,1.0,1649.9227727299335,0.12657320558571838,1.3431609434237177,0.7850410380928005,0.28850180000000003,0.624491603662449
0.0125,1.79609375,1.0,1712.8769594133018,0.13147243913236167,1.3422935228339998,0.7971511575228136,0.2884889375,0.6263875772509249
0.013000000000000001,1.7957750000000001,1.0,1773.0409404725497,0.1363441915259459,1.3414651924379943,0.8082717180519838,0.28847555,0.6281936299530724
0.0135,1.79544375,1.0,1830.4814196465552,0.14118861783172615,1.3406729514312141,0.8185013063299473,0.2884616375,0.6299169010304388
0.014,1.7951000000000001,1.0,1885.2549161417257,0.14600587113279967,1.3399142304517333,0.8279276624066921,0.2884472,0.6315635074502741
0.0145,1.79474375,1.0,1937.4168489845194,0.15079610304157265,1.3391867354151827,0.8366288348510498,0.2884322375,0.6331388983367054
0.015,1.794375,1.0,1987.0435942754766,0.15555946517045124,1.3384881722371944,0.8446742004049508,0.28841675,0.6346484606362355
0.0155,1.79399375,1.0,2034.214909931071,0.1602961081334201,1.3378164127520147,0.8521255332708609,0.2884007375,0.6360971660566341
0.016,1.7936,1.0,2079.0326201821676,0.1650061833924895,1.337169273412287,0.8590378322718062,0.2883842,0.6374900544216531
0.0165,1.7931937500000001,1.0,2121.5696219912707,0.16968983915959257,1.3365450285546694,0.8654602758679224,0.2883671375,0.6388311344232678
0.017,1.792775,1.0,2161.899320598342,0.17434722280283085,1.3359420738521663,0.8714368077366174,0.28834955,0.6401241167599031
0.0175,1.7923437500000001,1.0,2200.106032472346,0.17897848169030584,1.335358804977783,0.8770067200188855,0.2883314375,0.6413726783286778
0.018000000000000002,1.7919,1.0,2236.2768383003954,0.18358376238312768,1.3347936900827886,0.8822052189806221,0.2883128,0.6425803095687173
0.0185,1.79144375,1.0,2270.5043777982037,0.18816321187586835,1.334245230505126,0.8870638919310111,0.2882936375,0.6437504014176505
0.019,1.790975,1.0,2302.868865170473,0.19271697521003234,1.3337121298288923,0.8916111659729422,0.28827395,0.6448858877712517
0.0195,1.79049375,1.0,2333.438746964526,0.19724519524069753,1.3331932737230618,0.8958726625789442,0.2882537375,0.6459892931942245
0.02,1.79,1.0,2362.28818184955,0.20174801482294183,1.332687547856609,0.8998714727445196,0.288233,0.6470631234093003
0.0205,1.78949375,1.0,2389.4965629783874,0.20622557681184314,1.3321938378985074,0.9036284409865518,0.2882117375,0.6481098662699623
0.021,1.788975,1.0,2415.1347568690194,0.21067802212045528,1.3317111581432555,0.9071624414079981,0.28818995000000003,0.6491317205461102
0.021500000000000002,1.78844375,1.0,2439.291327561062,0.21510549457601408,1.331238392105759,0.9104905405428877,0.2881676375,0.6501311466683404
0.022,1.7879,1.0,2462.028963142148,0.21950813346001768,1.3307747091892124,0.9136282750180459,0.2881448,0.6511099864821173
0.0225,1.78734375,1.0,2483.4047974317104,0.22388607669835386,1.330319361317196,0.916589773927094,0.28812143749999997,0.6520698964891574
0.023,1.786775,1.0,2503.478666198609,0.22823946221691024,1.3298716004132904,0.9193878914239323,0.28809755,0.6530125230892042
0.0235,1.78619375,1.0,2522.3128814899574,0.2325684279415745,1.3294306784010759,0.9220343394077151,0.28807313749999996,0.6539395029598436
0.024,1.7856,1.0,2539.970092865098,0.23687311141058068,1.3289958653474592,0.9245398079153749,0.2880482,0.6548524253325144
0.0245,1.78499375,1.0,2556.5036822367324,0.2411536479313525,1.328566537494982,0.9269140831868913,0.2880227375,0.6557526480821384
0.025,1.784375,1.0,2571.9885349435945,0.24541017686909616,1.328141885800718,0.9291660902499272,0.28799675,0.6566419093850402
0.025500000000000002,1.78374375,1.0,2586.467401016438,0.24964283083503905,1.3277214179912504,0.931304057879326,0.2879702375,0.6575212761154468
0.026000000000000002,1.7831000000000001,1.0,2599.9842861472357,0.2538517424404085,1.3273046417931633,0.9333355360471605,0.2879432,0.6583918095046207
0.0265,1.78244375,1.0,2612.584347096791,0.25803704429643187,1.3268910649330403,0.9352674610767316,0.2879156375,0.6592545652644861
0.027,1.781775,1.0,2624.313792475691,0.26219886901433653,1.326480195137465,0.9371062137489328,0.28788755,0.6601105936957998
0.0275,1.7810937500000001,1.0,2635.2197888979244,0.26633734920534996,1.3260715401330212,0.9388576711988986,0.2878589375,0.6609609397808659
0.028,1.7804,1.0,2645.3420635284147,0.27045261373856355,1.325664684363674,0.9405272631042351,0.2878298,0.6618064839231781
0.0285,1.77969375,1.0,2654.7332416777804,0.27454479799701864,1.3252591000995455,0.9421199890583217,0.2878001375,0.6626483348291896
0.029,1.778975,1.0,2663.4267704264325,0.27861402999913526,1.324854442895877,0.9436404935830707,0.28776995,0.6634872159783463
0.029500000000000002,1.7782437500000001,1.0,2671.4543900068556,0.28266043680601266,1.3244503889715153,0.9450930771239217,0.2877392375,0.6643238045160472
0.03,1.7775,1.0,2678.8483214978023,0.28668414547875015,1.3240466145453078,0.9464817236506415,0.287708,0.6651587742401937
0.0305,1.77674375,1.0,2685.6412231309014,0.29068528307844715,1.3236427958361017,0.9478101279630682,0.2876762375,0.6659927956103042
0.031,1.775975,1.0,2691.8661489216033,0.294663976666203,1.3232386090627437,0.9490817203183378,0.28764395,0.666826535749945
0.0315,1.7751937500000001,1.0,2697.556492657305,0.29862035328870334,1.3228337305992102,0.9502996886861929,0.2876111375,0.667660658123076
0.032,1.7744,1.0,2702.7363495744403,0.30255453078340966,1.3224279246797739,0.9514670067632485,0.2875778,0.6684956421769581
0.0325,1.77359375,1.0,2707.4503394812973,0.3064666477266205,1.322020770520198,0.9525864277233832,0.2875439375,0.6693323448774807
0.033,1.772775,1.0,2711.7187842074363,0.31035682467231035,1.321612071579498,0.9536605388995617,0.28750955,0.67017115884676
0.0335,1.7719437500000002,1.0,2715.5621889492118,0.31422518217445355,1.3212016313166883,0.9546917541312141,0.2874746375,0.6710124746157469
0.034,1.7711000000000001,1.0,2719.001224829585,0.3180718407870247,1.3207892531907848,0.9556823274628905,0.2874392,0.6718566806036308
0.0345,1.7702437500000001,1.0,2722.05671231543,0.32189692106399825,1.3203747406608022,0.9566343656072901,0.2874032375,0.6727041630947823
0.035,1.7693750000000001,1.0,2724.74960549047,0.32570054355934863,1.3199578971857557,0.957549839297099,0.28736675,0.6735553062132313
0.035500000000000004,1.76849375,1.0,2727.100977185318,0.3294828288270504,1.3195385262246606,0.9584305936363352,0.2873297375,0.6744104918946807
0.036000000000000004,1.7676,1.0,2729.1320049632445,0.3332438974210779,1.3191164312365318,0.959278357549772,0.2872922,0.6752700998560583
0.0365,1.76669375,1.0,2730.863957963054,0.33698386989540563,1.3186914156803846,0.9600947524183546,0.2872541375,0.6761345075626031
0.037,1.765775,1.0,2732.3056759251226,0.3407028553745968,1.3182633966558233,0.9608813087843388,0.28721555,0.6770038595315628
0.0375,1.76484375,1.0,2733.4859178209545,0.34440098409656955,1.317832110853944,0.961639451111583,0.2871764375,0.6778786648919845
0.038,1.7639,1.0,2734.424458431177,0.34807837731665725,1.3173973771507776,0.9623705243713044,0.28713679999999997,0.6787592633220887
0.0385,1.76294375,1.0,2735.1324340248234,0.3517351479246398,1.3169590932948176,0.9630757994876352,0.28709663750000003,0.67964583283714
0.039,1.761975,1.0,2735.621016867458,0.35537140881029705,1.3165171570345573,0.9637564728525585,0.28705595,0.680538550072581
0.0395,1.7609937500000001,1.0,2735.901410587946,0.35898727286340903,1.3160714661184898,0.9644136714970181,0.2870147375,0.6814375902605496
0.04,1.76,1.0,2735.984845776279,0.3625828529737557,1.3156219182951086,0.9650484578500066,0.286973,0.6823431272057265
0.0405,1.7589937500000001,1.0,2735.8825758138987,0.36615826203111684,1.3151684113129072,0.9656618341224867,0.2869307375,0.6832553332605171
0.041,1.757975,1.0,2735.605872935243,0.3697136129252725,1.3147108429203787,0.9662547463493656,0.28688795,0.6841743792995687
0.0415,1.75694375,1.0,2735.166024521399,0.3732490185460025,1.3142491108660166,0.9668280881194865,0.2868446375,0.6851004346936161
0.042,1.7559,1.0,2734.5743296257306,0.37676459178308686,1.3137831128983144,0.9673827040207067,0.28680079999999997,0.6860336672826648
0.0425,1.75484375,1.0,2733.842095731024,0.3802604455263054,1.313312746765765,0.9679193928245338,0.2867564375,0.6869742433485064
0.043000000000000003,1.753775,1.0,2732.980144646531,0.38373669130113325,1.3128379146778568,0.9684389105785665,0.28671155,0.6879223186862563
0.043500000000000004,1.75269375,1.0,2731.9943771486523,0.3871934287700504,1.3123585635811457,0.9689419749319085,0.28666613750000003,0.6888779584104701
0.044,1.7516,1.0,2730.8993191401287,0.3906307862781467,1.3118745620839012,0.9694292640379604,0.2866202,0.689841382413823
0.0445,1.75049375,1.0,2729.7009263853693,0.3940488690091573,1.3113858566508425,0.9699014233265312,0.2865737375,0.6908126539471332
0.045,1.7493750000000001,1.0,2728.405155599813,0.3974477821468174,1.3108923937466894,0.9703590650271646,0.28652675,0.6917918351736398
0.0455,1.74824375,1.0,2727.0179633649673,0.40082763087486234,1.3103941198361613,0.9708027701963011,0.2864792375,0.6927789871528531
0.046,1.7471,1.0,2725.5453051062955,0.40418852037702724,1.3098909813839774,0.9712330906017325,0.2864312,0.6937741698242199
0.0465,1.7459437500000001,1.0,2723.9931341350507,0.40753055583704734,1.3093829248548572,0.971650550475673,0.28638263750000004,0.6947774419906052
0.047,1.744775,1.0,2722.3674007530544,0.4108538424386578,1.3088698967135204,0.972055648146772,0.28633355,0.695788861301592
0.0475,1.74359375,1.0,2720.6740514222743,0.4141584853655939,1.3083518434246864,0.9724488575604981,0.28628393750000003,0.6968084842365998
0.048,1.7424,1.0,2718.919027996166,0.4174445898015909,1.3078287114530744,0.9728306296965029,0.2862338,0.6978363660878184
0.0485,1.74119375,1.0,2717.1082670164046,0.42071226093038394,1.3073004472634044,0.9732013938908417,0.2861831375,0.6988725609429579
0.049,1.739975,1.0,2715.247699071449,0.42396160393570825,1.3067669973203953,0.9735615590702622,0.28613195,0.6999171216678208
0.0495,1.73874375,1.0,2713.3358253376737,0.42719270241695456,1.3062283757605913,0.9739115169398802,0.2860802375,0.7009699677264991
0.05,1.7375,1.0,2711.379082826622,0.4304056725071183,1.305684524379359,0.9742516399335087,0.286028,0.7020311592951696
0.0505,1.73624375,1.0,2709.3878469917454,0.43360063715519304,1.3051353489679662,0.9745822816198916,0.2859752375,0.7031008252876195
0.051000000000000004,1.734975,1.0,2707.364334220629,0.43677769278767736,1.3045808296521788,0.9749037812180231,0.28592195,0.704178948368592
0.051500000000000004,1.73369375,1.0,2705.3107582773755,0.43993693583106996,1.304020946557762,0.9752164625802947,0.2858681375,0.7052655103766661
0.052000000000000005,1.7324,1.0,2703.2293301742325,0.4430784627118695,1.303455679810481,0.975520635020637,0.2858138,0.7063604923174707
0.0525,1.73109375,1.0,2701.12225805215,0.44620236985657463,1.3028850095361018,0.9758165940910565,0.28575893750000003,0.7074638743568735
0.053,1.729775,1.0,2698.991747069762,0.44930875369168405,1.3023089158603893,0.976104622310198,0.28570355000000003,0.7085756358141455
0.0535,1.72844375,1.0,2696.839999301358,0.45239771064369644,1.3017273789091093,0.9763849898472838,0.2856476375,0.7096957551550982
0.054,1.7271,1.0,2694.669213643706,0.4554693371391105,1.301140378808027,0.9766579551645219,0.2855912,0.7108242099851979
0.0545,1.7257437500000001,1.0,2692.4815857311146,0.4585237296044248,1.300547895682908,0.9769237656208326,0.2855342375,0.7119609770426527
0.055,1.724375,1.0,2690.279307859839,0.4615609844661381,1.2999499096595175,0.9771826580395309,0.28547675,0.7131060321914773
0.0555,1.72299375,1.0,2688.0645689210446,0.464581198150749,1.299346400863621,0.977434859242396,0.2854187375,0.7142593504145289
0.056,1.7216,1.0,2685.8395543423394,0.46758446708475626,1.2987373494209844,0.9776805865523833,0.2853602,0.71542090580652
0.0565,1.72019375,1.0,2683.6064460384487,0.4705708876946585,1.2981227354573723,0.9779200482670592,0.28530113749999997,0.7165906715670076
0.057,1.718775,1.0,2681.367422370326,0.47354055640695436,1.2975025390985508,0.9781534441046911,0.28524155,0.7177686199933522
0.0575,1.71734375,1.0,2679.1246581127557,0.47649356964814255,1.2968767404702852,0.9783809656247794,0.2851814375,0.7189547224736572
0.058,1.7159,1.0,2676.880523992944,0.47943002036475135,1.2962453178666635,0.9786027962188434,0.2851208,0.7201489529403045
0.0585,1.71444375,1.0,2674.6386822278378,0.48234997599418244,1.2956082376864884,0.9788191090665082,0.2850596375,0.7213513067981142
0.059000000000000004,1.7129750000000001,1.0,2672.397709189452,0.4852535697476126,1.2949655129919038,0.9790300786163973,0.28499795,0.7225616905147418
0.059500000000000004,1.71149375,1.0,2670.158356575896,0.48814088909565173,1.2943171368755655,0.979235867461091,0.2849357375,0.7237800476446736
0.06,1.71,1.0,2667.9213748247685,0.4910120215089099,1.2936631024301288,0.9794366318298998,0.284873,0.7250063210175755
0.0605,1.7084937500000001,1.0,2665.6875131151014,0.493867054457997,1.2930034027482498,0.979632521885219,0.2848097375,0.7262404527358002
0.061,1.7069750000000001,1.0,2663.457519369647,0.4967060754135231,1.2923380309225838,0.9798236820028675,0.28474595,0.7274823841718956
0.0615,1.7054437500000001,1.0,2661.2321402584143,0.4995291718460981,1.2916669800457865,0.9800102510373969,0.2846816375,0.7287320559661058
0.062,1.7039,1.0,2659.0121212037852,0.502336431226332,1.2909902432105134,0.9801923625732781,0.2846168,0.729989408023872
0.0625,1.70234375,1.0,2656.7982063855848,0.5051279410248346,1.2903078135094201,0.9803701451628226,0.2845514375,0.7312543795133283
0.063,1.7007750000000001,1.0,2654.5911387482465,0.5079037887122161,1.2896196840351624,0.9805437225516287,0.28448555,0.7325269088627957
0.0635,1.69919375,1.0,2652.3916600088114,0.5106640617590864,1.2889258478803958,0.9807132138922993,0.28441913750000003,0.733806933758273
0.064,1.6976,1.0,2650.2005106652337,0.5134088476360553,1.2882262981377757,0.9808787339471158,0.2843522,0.7350943911409249
0.0645,1.69599375,1.0,2648.0184300069827,0.516138233813733,1.287521027899958,0.9810403932803224,0.2842847375,0.736389217204565
0.065,1.694375,1.0,2645.8461561256586,0.5188523077627294,1.2868100302595982,0.981198298440622,0.28421675,0.737691347393139
0.0655,1.69274375,1.0,2643.684425927063,0.5215511569536543,1.286093298309352,0.9813525521344472,0.2841482375,0.7390007163982019
0.066,1.6911,1.0,2641.533975144577,0.5242348688571179,1.2853708251418747,0.9815032533905385,0.2840792,0.7403172581563953
0.0665,1.6894437500000001,1.0,2639.395538353185,0.52690353094373,1.2846426038498224,0.9816504977163225,0.2840096375,0.7416409058469167
0.067,1.687775,1.0,2637.2696004118193,0.529557176749486,1.2839086298244502,0.9817943737316732,0.28393955,0.7429715877270513
0.0675,1.68609375,1.0,2635.1557079708437,0.5321959499746657,1.2831689071295553,0.9819349747345036,0.2838689375,0.7443092156730016
0.068,1.6844000000000001,1.0,2633.0537729040243,0.5348199431769762,1.2824234364561362,0.982072387205363,0.2837978,0.74565370708006
0.0685,1.68269375,1.0,2630.963742946054,0.537429234561299,1.2816722181649371,0.9822066936853084,0.2837261375,0.7470049793177425
0.069,1.680975,1.0,2628.8855659637966,0.5400239023325148,1.2809152526167022,0.9823379738897197,0.28365395,0.7483629491304029
0.0695,1.67924375,1.0,2626.819189954856,0.542604024695505,1.280152540172176,0.9824663048229079,0.28358123749999997,0.7497275326373638
0.07,1.6775,1.0,2624.7645630473753,0.5451696798551505,1.279384081192103,0.9825917608873126,0.283508,0.7510986453330499
0.07050000000000001,1.67574375,1.0,2622.721633498739,0.5477209460163326,1.278609876037227,0.982714413987575,0.2834342375,0.7524762020871204
0.07100000000000001,1.673975,1.0,2620.6903496949903,0.5502579013839322,1.277829925068293,0.9828343336297612,0.28335995,0.7538601171446005
0.07150000000000001,1.67219375,1.0,2618.6706601499927,0.5527806241628304,1.2770442286460448,0.9829515870159926,0.2832851375,0.7552503041260141
0.07200000000000001,1.6704,1.0,2616.6625135047852,0.5552891925579084,1.276252787131227,0.9830662391347239,0.2832098,0.7566466760275159
0.0725,1.66859375,1.0,2614.665858526302,0.5577836847740473,1.2754556008845839,0.983178352846896,0.2831339375,0.7580491452210231
0.073,1.6667750000000001,1.0,2612.6806441072804,0.5602641790161281,1.27465267026686,0.983287988968181,0.28305755,0.759457623454348
0.0735,1.66494375,1.0,2610.7068192647907,0.562730753489032,1.273843995638799,0.9833952063475145,0.2829806375,0.7608720218513311
0.074,1.6631,1.0,2608.7443331397985,0.56518348639764,1.273029577361146,0.9835000619421105,0.2829032,0.7622922509119707
0.0745,1.6612437500000001,1.0,2606.7931349963105,0.5676224559468334,1.272209415794645,0.9836026108891379,0.2828252375,0.7637182205125574
0.075,1.659375,1.0,2604.8531742207174,0.5700477403414931,1.2713835113000405,0.9837029065742235,0.28274675,0.7651498399058062
