Time [s],Phi [rad],STIM [ ],Fsee [N],Gamma [ ],Lcerel [ ],q [ ],Lmtc [m],fisomrel [ ]
0.0,1.8,1.0,17.97156419976773,7.39987787919103e-05,1.379339252627024,0.005001436530361785,0.288653,0.541140725179754
0.0005,1.79999375,1.0,18.302230512210954,0.0056827930129767145,1.3792995577365852,0.01311914350141008,0.2886527375,0.5412367522347924
0.001,1.799975,1.0,21.691481300930608,0.011260126346117678,1.3789308423516056,0.035942850758562704,0.28865195,0.5421282420749447
0.0015,1.79994375,1.0,31.243901886576523,0.016806175249909544,1.3780313436515,0.07105878485297104,0.2886506375,0.5442994362788316
0.002,1.7999,1.0,53.95958734141436,0.022321115204300815,1.3763437038422783,0.11525885543362542,0.2886488,0.5483591089868479
0.0025,1.79984375,1.0,97.75329103333387,0.02780512070549195,1.3739046490368478,0.16516307127904709,0.28864643749999996,0.5541942392494632
0.003,1.7997750000000001,1.0,161.7837941186021,0.033258365273061155,1.3711834792696171,0.2178871385006981,0.28864354999999997,0.5606595175934366
0.0035,1.79969375,1.0,238.61631087979427,0.03868102145003117,1.3685560241479242,0.27121623231535,0.2886401375,0.5668573248223046
0.004,1.7996,1.0,322.45945123782286,0.04407326081351852,1.3661298203633978,0.32349995438945256,0.2886362,0.5725413094408994
0.0045000000000000005,1.7994937500000001,1.0,410.29575794886694,0.049435253979957,1.3638986980544705,0.37358898837101595,0.2886317375,0.5777351325072109
0.005,1.799375,1.0,500.4624982926161,0.05476717059654109,1.3618360630018036,0.42076619629523154,0.28862675,0.5825084933397795
0.0055,1.79924375,1.0,591.8486596289441,0.06006917938510073,1.3599181687963853,0.4646539533563057,0.2886212375,0.5869225502878085
0.006,1.7991000000000001,1.0,683.5775813659247,0.06534144809385876,1.3581271638155286,0.5051213042496816,0.2886152,0.5910233881933851
0.006500000000000001,1.79894375,1.0,774.9343211827791,0.07058414354801316,1.3564492832466875,0.5422042917643793,0.2886086375,0.5948466469162079
0.007,1.798775,1.0,865.3124551459035,0.07579743135685056,1.3548738163287992,0.5760446597863725,0.28860155,0.5984201992481941
0.0075,1.79859375,1.0,954.2631838527655,0.08098147718500778,1.3533910952167543,0.6068444040023094,0.2885939375,0.6017689216246904
0.008,1.7984,1.0,1041.3721177631348,0.08613644472280586,1.3519937258301822,0.6348358507429804,0.2885858,0.6049120439291663
0.0085,1.79819375,1.0,1126.303078018517,0.09126249658774296,1.3506752460849136,0.6602604123328972,0.2885771375,0.6078663003293536
0.009000000000000001,1.797975,1.0,1208.833576550003,0.09635979526718792,1.3494292837671038,0.6833552080286048,0.28856795,0.6106478815242629
0.0095,1.79774375,1.0,1288.7982412587485,0.10142850241156755,1.3482501366381898,0.7043457692476871,0.2885582375,0.6132711809039608
0.01,1.7975,1.0,1366.0567129329288,0.10646877805269392,1.3471329525585158,0.7234420026111474,0.288548,0.6157484478571658
0.0105,1.79724375,1.0,1440.5176664963403,0.11148078147023589,1.346073207365174,0.7408361007878855,0.2885372375,0.6180909921683077
0.011,1.796975,1.0,1512.1473103834985,0.11646467182974636,1.3450664761114568,0.7567021201739264,0.28852595000000003,0.6203097164031295
0.0115,1.79669375,1.0,1580.9210979947231,0.12142060667376427,1.3441089260131371,0.7711967940844077,0.2885141375,0.622414053055119
0.012,1.7964,1.0,1646.8318363419503,0.12634874230926846,1.3431970968265212,0.7844604793028432,0.28850180000000003,0.6244124768171155
0.0125,1.79609375,1.0,1709.9065934844741,0.13124923461831525,1.3423276203430468,0.7966183496375335,0.2884889375,0.6263131388720244
0.013000000000000001,1.7957750000000001,1.0,1770.2021953507794,0.13612223957251177,1.3414972203284499,0.8077818176326168,0.28847555,0.628123879170734
0.0135,1.79544375,1.0,1827.7669654525987,0.14096791126412753,1.3407030917837972,0.8180500843633097,0.2884616375,0.6298514134214332
0.014,1.7951000000000001,1.0,1882.6472547098567,0.14578640216690336,1.3399427605847467,0.8275113963314301,0.2884472,0.6315016566518545
0.0145,1.79474375,1.0,1934.9134849640739,0.1505778647545799,1.3392137526069565,0.8362441536090321,0.2884322375,0.6330804529410284
0.015,1.794375,1.0,1984.6429286413697,0.15534245058623022,1.3385137549496597,0.8443180996336376,0.28841675,0.6345932324932453
0.0155,1.79399375,1.0,2031.9335128431255,0.1600803119017014,1.3378404404222133,0.8517952756887295,0.2884007375,0.6360453980080516
0.016,1.7936,1.0,2076.8569714498167,0.16479159789568054,1.3371919385920632,0.8587310747548937,0.2883842,0.6374413155246375
0.0165,1.7931937500000001,1.0,2119.485209753402,0.1694764567992597,1.3365665241293114,0.8651749279316858,0.2883671375,0.6387849962867145
0.017,1.792775,1.0,2159.9026129735435,0.17413503684353102,1.335962471704061,0.8711709670388861,0.28834955,0.6400804132860268
0.0175,1.7923437500000001,1.0,2198.197216017523,0.17876748545204302,1.33537813462695,0.8767586722851218,0.2883314375,0.6413313355042967
0.018000000000000002,1.7919,1.0,2234.4632832556586,0.18337395050473212,1.334811905679971,0.8819734087569179,0.2883128,0.6425414152262316
0.0185,1.79144375,1.0,2268.7813055147994,0.1879545777829274,1.3342624061132289,0.8868469531643847,0.2882936375,0.6437137878169479
0.019,1.790975,1.0,2301.221212955031,0.19250951103863806,1.333728437653185,0.8914078940869864,0.28827395,0.644851179533049
0.0195,1.79049375,1.0,2331.859458999403,0.19703889402387323,1.3332088020263013,0.8956819531234714,0.2882537375,0.6459562954470572
0.02,1.79,1.0,2360.7784736505355,0.20154287049064204,1.3327023009590397,0.8996923104136446,0.288233,0.6470318205885222
0.0205,1.78949375,1.0,2388.050728756867,0.2060215821312945,1.332207886024169,0.9034599225563323,0.2882117375,0.6480801035183441
0.021,1.788975,1.0,2413.7689818933914,0.21047517373702695,1.3317243576364763,0.907003705308906,0.28818995000000003,0.6491037963988111
0.021500000000000002,1.78844375,1.0,2437.9955749411115,0.2149037850122154,1.3312508526015743,0.9103408569492297,0.2881676375,0.6501048235036038
0.022,1.7879,1.0,2460.7906884873514,0.21930755483221398,1.3307865617557035,0.9134869856669484,0.2881448,0.6510849826589291
0.0225,1.78734375,1.0,2482.217596143973,0.22368662207237683,1.3303306759351046,0.9164562687966252,0.28812143749999997,0.6520460603834723
0.023,1.786775,1.0,2502.3424052228447,0.22804112560805806,1.3298823859760185,0.9192616037997471,0.28809755,0.6529898323430139
0.0235,1.78619375,1.0,2521.2278245184943,0.23237120309396259,1.3294409393412359,0.921914751496494,0.28807313749999996,0.6539179447894266
0.024,1.7856,1.0,2538.938226211196,0.23667699271276985,1.3290055892538504,0.9244264441552947,0.2880482,0.6548320224481081
0.0245,1.78499375,1.0,2555.53841748155,0.24095863245310536,1.3285756042444605,0.9268064909631427,0.2880227375,0.6557336489011085
0.025,1.784375,1.0,2571.074482152866,0.245216255937581,1.3281504455832989,0.9290638987729226,0.28799675,0.6566239957381454
0.025500000000000002,1.78374375,1.0,2585.593955289099,0.2494499967888087,1.3277295745405977,0.9312069199411539,0.2879702375,0.6575042282252513
0.026000000000000002,1.7831000000000001,1.0,2599.145701335887,0.25365998862940037,1.3273124523865893,0.933243125777482,0.2879432,0.6583755054613415
0.0265,1.78244375,1.0,2611.7797986961677,0.2578463650819679,1.3268985403915061,0.9351794719481556,0.2879156375,0.6592389805162718
0.027,1.781775,1.0,2623.543435682243,0.2620092586607875,1.326487336865179,0.9370223620618638,0.28788755,0.6600957234269231
0.0275,1.7810937500000001,1.0,2634.4793407771754,0.2661488011145268,1.326078390346439,0.9387777012626246,0.2878589375,0.6609466943529188
0.028,1.7804,1.0,2644.642917105906,0.27026512720473544,1.3256711400630317,0.9404509199767972,0.2878298,0.6617930756697871
0.0285,1.77969375,1.0,2654.067853263104,0.27435836497945143,1.3252652331902084,0.9420470593339296,0.2878001375,0.6626356124927275
0.029,1.778975,1.0,2662.788445999548,0.2784286424867127,1.324860316903221,0.9435707787708969,0.28776995,0.663475046242152
0.029500000000000002,1.7782437500000001,1.0,2670.8395469331886,0.2824760877745572,1.32445603837732,0.9450263898594848,0.2877392375,0.6643121146699458
0.03,1.7775,1.0,2678.256512019477,0.28650082889102296,1.3240520447877575,0.9464178867319617,0.287708,0.6651475518777845
0.0305,1.77674375,1.0,2685.0751537827796,0.290502993884148,1.3236479833097845,0.9477489734837948,0.2876762375,0.6659820883275174
0.031,1.775975,1.0,2691.327269067427,0.29448270922289715,1.323243541644954,0.9490230935468472,0.28764395,0.6668163672985552
0.0315,1.7751937500000001,1.0,2697.0431540842283,0.2984401018349254,1.3228384244217448,0.9502434492138117,0.2876111375,0.6676509939951701
0.032,1.7744,1.0,2702.258496473093,0.3023752994045531,1.322432289829485,0.951413013946326,0.2875778,0.6684866660564893
0.0325,1.77359375,1.0,2706.9967562796373,0.3062884244193627,1.3220249103480415,0.9525345687243415,0.2875439375,0.6693238428422699
0.033,1.772775,1.0,2711.281614194459,0.31017959936693695,1.3216160584572807,0.9536107055267432,0.28750955,0.6701629813214383
0.0335,1.7719437500000002,1.0,2715.136949929878,0.31404894673485856,1.3212055066370696,0.954643842448542,0.2874746375,0.6710045360523706
0.034,1.7711000000000001,1.0,2718.586821744467,0.31789658901071016,1.320793027367275,0.955636237437458,0.2874392,0.6718489591598813
0.0345,1.7702437500000001,1.0,2721.6554471155855,0.3217226486820744,1.3203783931277633,0.9565900007905914,0.2874032375,0.6726967003089042
0.035,1.7693750000000001,1.0,2724.3611614127535,0.325527244126261,1.3199614311981038,0.9575071114132415,0.28736675,0.6735480948522355
0.035500000000000004,1.76849375,1.0,2726.727365427457,0.32931049919256133,1.3195419238241228,0.9583894185508334,0.2873297375,0.6744035679807987
0.036000000000000004,1.7676,1.0,2728.7797792020274,0.33307253830679495,1.3191196331547597,0.9592386529812815,0.2872922,0.6752635833391952
0.0365,1.76669375,1.0,2730.5334425438496,0.33681347776303117,1.3186944192811856,0.9600564458730864,0.2872541375,0.6761284028030226
0.037,1.765775,1.0,2732.003466050948,0.3405334338553394,1.3182661422945723,0.9608443280750256,0.28721555,0.6769982865718465
0.0375,1.76484375,1.0,2733.205022886058,0.34423252287778894,1.3178346622860913,0.961603737404718,0.2871764375,0.6778734931424947
0.038,1.7639,1.0,2734.1533409837093,0.34791086112444913,1.3173998393469142,0.9623360253300287,0.28713679999999997,0.6787542792811003
0.0385,1.76294375,1.0,2734.86369569206,0.3515685648893893,1.3169615335682123,0.9630424630999955,0.28709663750000003,0.6796408999938999
0.039,1.761975,1.0,2735.3514028479417,0.35520575046667885,1.3165196050411574,0.9637242473761427,0.28705595,0.6805336084967786
0.0395,1.7609937500000001,1.0,2735.6318122869784,0.358822534150387,1.3160739138569209,0.9643825054098469,0.2870147375,0.6814326561835707
0.04,1.76,1.0,2735.7165737072137,0.36241902721397495,1.3156243539549712,0.9650183019079727,0.286973,0.682338224459525
0.0405,1.7589937500000001,1.0,2735.6170728494412,0.36599534321978877,1.3151708218763314,0.9656326418599427,0.2869307375,0.6832504880031818
0.041,1.757975,1.0,2735.352654647732,0.3695516073056553,1.3147131420620453,0.9662264696767074,0.28688795,0.6841697647112084
0.0415,1.75694375,1.0,2734.9313742311974,0.3730879285743126,1.3142512415838563,0.9668006833440227,0.2868446375,0.6850961644228469
0.042,1.7559,1.0,2734.361298224499,0.3766044161284992,1.313785047513508,0.9673561315908751,0.28680079999999997,0.6860297957810764
0.0425,1.75484375,1.0,2733.6505025035653,0.38010117907095337,1.3133144869227433,0.967893617091913,0.2867564375,0.6869707662128128
0.043000000000000003,1.753775,1.0,2732.807070068499,0.38357832650441337,1.312839486883306,0.968413899430264,0.28671155,0.6879191819087687
0.043500000000000004,1.75269375,1.0,2731.8390890360206,0.3870359675316175,1.3123599744669394,0.9689176978409109,0.28666613750000003,0.6888751478029751
0.044,1.7516,1.0,2730.7546507479537,0.3904742112553041,1.3118758767453869,0.9694056937529215,0.2866202,0.6898387675519652
0.0445,1.75049375,1.0,2729.561847999309,0.39389316677821157,1.3113871207903918,0.9698785331471305,0.2865737375,0.690810143513616
0.045,1.7493750000000001,1.0,2728.2687733830403,0.3972929432030782,1.3108936336736974,0.970336828744361,0.28652675,0.6917893767256533
0.0455,1.74824375,1.0,2726.883517753374,0.4006736496326422,1.3103953424670474,0.970781162037912,0.2864792375,0.6927765668838151
0.046,1.7471,1.0,2725.4128697159526,0.40403539176222325,1.3098921860592807,0.9712120855933517,0.2864312,0.693771788964924
0.0465,1.7459437500000001,1.0,2723.8587194967613,0.4073782624614959,1.3093841478825734,0.9716301259321599,0.28638263750000004,0.6947750288232588
0.047,1.744775,1.0,2722.237607783841,0.41070239536937386,1.3088710780411306,0.9720357793103863,0.28633355,0.6957865342784115
0.0475,1.74359375,1.0,2720.5532774017356,0.4140078915264691,1.3083529430062886,0.9724295216963416,0.28628393750000003,0.696806321872961
0.048,1.7424,1.0,2718.8094689412333,0.41729485197339355,1.3078297092493842,0.9728118059996067,0.2862338,0.6978344072176007
0.0485,1.74119375,1.0,2717.009920341808,0.4205633777507592,1.3073013432417542,0.9731830633986571,0.2861831375,0.698870804980273
0.049,1.739975,1.0,2715.158366496887,0.42381356989917796,1.306767811454735,0.9735437045802297,0.28613195,0.6999155288752301
0.0495,1.73874375,1.0,2713.258538885613,0.42704552945926183,1.3062290803596635,0.9738941208970586,0.2860802375,0.7009685916520242
0.05,1.7375,1.0,2711.3141652287786,0.43025935747162275,1.3056851164278764,0.9742346854500465,0.286028,0.7020300050844248
0.0505,1.73624375,1.0,2709.3289691698856,0.4334551549768727,1.30513588613071,0.9745657541004403,0.2859752375,0.7030997799592676
0.051000000000000004,1.734975,1.0,2707.3066699809933,0.43663302301562357,1.3045813559395014,0.9748876664171278,0.28592195,0.7041779260652257
0.051500000000000004,1.73369375,1.0,2705.2509822936877,0.43979306262848744,1.304021492325587,0.975200746563749,0.2858681375,0.7052644521815148
0.052000000000000005,1.7324,1.0,2703.165615854782,0.44293537485607615,1.3034562617603038,0.9755053041299458,0.2858138,0.7063593660665242
0.0525,1.73109375,1.0,2701.054275307236,0.4460600607390016,1.302885630714988,0.9758016349107242,0.28575893750000003,0.7074626744463772
0.053,1.729775,1.0,2698.9206599955364,0.44916722131787595,1.3023095656609764,0.9760900216375883,0.28570355000000003,0.7085743830034177
0.0535,1.72844375,1.0,2696.763410352455,0.4522569413782614,1.3017280792814403,0.9763707358688013,0.2856476375,0.709694407439837
0.054,1.7271,1.0,2694.5857613093353,0.4553293268741204,1.3011411422508203,0.9766440369686912,0.2855912,0.7108227437623444
0.0545,1.7257437500000001,1.0,2692.3952574710056,0.4583844925796061,1.3005486857563737,0.9769101716050754,0.2855342375,0.7119594626598104
0.055,1.724375,1.0,2690.193303144082,0.4614225310250163,1.2999506970939987,0.9771693771003409,0.28547675,0.7131045258699753
0.0555,1.72299375,1.0,2687.981300455777,0.46444353474064853,1.2993471635595941,0.9774218807619153,0.2854187375,0.7142578943521225
0.056,1.7216,1.0,2685.7606493239564,0.4674475962568007,1.2987380724490585,0.9776679003853371,0.2853602,0.7154195282825928
0.0565,1.72019375,1.0,2683.53274743062,0.4704348081037705,1.2981234110582902,0.977907644728056,0.28530113749999997,0.7165893870502862
0.057,1.718775,1.0,2681.2989901991464,0.4734052628118556,1.2975031666831882,0.9781413139558922,0.28524155,0.7177674292521529
0.0575,1.71734375,1.0,2679.060770774764,0.4763590529113537,1.2968773266196507,0.97836910006394,0.2851814375,0.7189536126886774
0.058,1.7159,1.0,2676.819480008992,0.4792962709325627,1.2962458781635766,0.9785911872735733,0.2851208,0.7201478943593473
0.0585,1.71444375,1.0,2674.5765064474895,0.48221700940578016,1.2956088086108644,0.9788077524070881,0.2850596375,0.7213502304581166
0.059000000000000004,1.7129750000000001,1.0,2672.3332363214613,0.4851213608613039,1.2949661052574126,0.979018965241408,0.28499795,0.7225605763688552
0.059500000000000004,1.71149375,1.0,2670.0910535426647,0.48800941782943164,1.2943177553991199,0.9792249888421806,0.2849357375,0.7237788866607904
0.06,1.71,1.0,2667.851339702,0.490881272840461,1.2936637463318845,0.9794259798794941,0.284873,0.7250051150839367
0.0605,1.7084937500000001,1.0,2665.6154740716465,0.49373701842468987,1.2930040653516055,0.9796220889263597,0.2848097375,0.7262392145645156
0.061,1.7069750000000001,1.0,2663.3848336109368,0.4965767471124159,1.292338699754181,0.9798134607410269,0.28474595,0.727481137200366
0.0615,1.7054437500000001,1.0,2661.1611950218303,0.499400551290552,1.291667633134433,0.9800002343273362,0.2846816375,0.7287308411408093
0.062,1.7039,1.0,2658.946722737794,0.5022085183649863,1.29099084548914,0.980182542829412,0.2846168,0.7299882903109551
0.0625,1.70234375,1.0,2656.7388429977423,0.5050007351345372,1.2903083604362107,0.9803605165915431,0.2845514375,0.7312533669031862
0.063,1.7007750000000001,1.0,2654.5376867100554,0.5077772895991605,1.2896201767039104,0.9805342798978686,0.28448555,0.7325259988711599
0.0635,1.69919375,1.0,2652.3438311800537,0.5105382696632446,1.2889262889023962,0.9807039522012198,0.28441913750000003,0.7338061211131667
0.064,1.6976,1.0,2650.159138595208,0.51328376298028,1.2882266797804736,0.9808696479319111,0.2843522,0.7350936896132791
0.0645,1.69599375,1.0,2647.9830398908784,0.5160138563737998,1.2875213544955468,0.9810314783979593,0.2842847375,0.7363886183324174
0.065,1.694375,1.0,2645.8161992803016,0.5187286359231635,1.2868103068278922,0.9811895502470531,0.28421675,0.7376908415092166
0.0655,1.69274375,1.0,2643.657354346579,0.5214281875872082,1.2860935483423312,0.9813439671544869,0.2841482375,0.7390002601941779
0.066,1.6911030708434016,1.0,2641.653420175617,0.5241125971052991,1.285371108347026,0.981494829946591,0.2840793289754229,0.7403167427321107
0.0665,1.6894618327544395,1.0,2640.2069548911913,0.5267819492894487,1.2846432705252064,0.9816422482290785,0.2840103969756865,0.7416396956145221
0.067,1.6878205946654776,1.0,2639.2999039070137,0.5294363283403367,1.2839104499591636,0.9817863341561303,0.2839414649759501,0.7429682921045448
0.0675,1.6861793565765155,1.0,2638.8879243170472,0.5320758183151765,1.2831730540004183,0.9819271957086114,0.2838725329762136,0.7443017266839165
0.068,1.6845381184875536,1.0,2638.928454378548,0.5347005030683498,1.2824314750290895,0.9820649365246669,0.2838036009764773,0.7456392280385612
0.0685,1.6828968803985915,1.0,2639.385294410493,0.5373104654585766,1.2816860477517804,0.9821996540056105,0.2837346689767408,0.7469801355292783
0.069,1.6812556423096296,1.0,2640.2252069661017,0.5399057878488593,1.2809370803476734,0.9823314410611337,0.2836657369770044,0.7483238421100922
0.0695,1.6796144042206675,1.0,2641.4221350495804,0.5424865505776324,1.2801848152699047,0.9824603843585406,0.283596804977268,0.7496698638143157
0.07,1.6779731661317057,1.0,2642.9372019820557,0.5450528379086006,1.2794296138728412,0.9825865735170102,0.2835278729775316,0.7510175092183511
0.07050000000000001,1.6763319280427436,1.0,2644.737941892754,0.5476047328327209,1.2786717784740427,0.9827100924900659,0.2834589409777952,0.7523661986036801
0.07100000000000001,1.6746906899537817,1.0,2646.8054627770975,0.5501423145420312,1.2779114861458463,0.9828310165839363,0.2833900089780588,0.7537155799368849
0.07150000000000001,1.6730494518648196,1.0,2649.1208848050564,0.5526656622285696,1.2771489139605896,0.9829494187044013,0.28332107697832243,0.7550653044976585
0.07200000000000001,1.6714082137758577,1.0,2651.6653310231854,0.555174855084374,1.2763842389906097,0.9830653694538103,0.28325214497858603,0.7564150269055534
0.0725,1.6697669756868958,1.0,2654.419918751295,0.5576699723014824,1.2756176383082438,0.9831789372236109,0.28318321297884963,0.7577644051447261
0.073,1.6681257375979337,1.0,2657.3657516748167,0.5601510930719331,1.274849288985829,0.9832901882826169,0.28311428097911323,0.7591131005866846
0.0735,1.6664844995089718,1.0,2660.4839126319253,0.5626182965877637,1.2740793680957025,0.983399186861241,0.28304534897937683,0.7604607780110344
0.074,1.6648432614200097,1.0,2663.759224626396,0.5650716600941426,1.2733080180447554,0.9835059935863005,0.2829764169796404,0.761807166047346
