Time [s],Phi [rad],STIM [ ],Fsee [N],Gamma [ ],Lcerel [ ],q [ ],Lmtc [m],fisomrel [ ]
0.0,1.8,1.0,17.974349396120566,8.542607695843139e-05,1.3793389406422274,0.00500191229079584,0.288653,0.5411414799503593
0.0005,1.79999375,1.0,18.308681030850764,0.005694156213039801,1.3792988417716698,0.01315123729274666,0.2886527375,0.5412384841539215
0.001,1.799975,1.0,21.706367281326443,0.011271425807613896,1.3789293247921157,0.036002694131461455,0.28865195,0.5421319094789263
0.0015,1.79994375,1.0,31.277025942178774,0.016817411330364778,1.37802853024045,0.07114050270662703,0.2886506375,0.54430621914619
0.002,1.7999,1.0,54.02908044379539,0.022332288259220144,1.376339212718683,0.11535550932758246,0.2886488,0.5483698882980925
0.0025,1.79984375,1.0,97.86872053571102,0.027816231088414405,1.3738991064774246,0.16526814574737722,0.28864643749999996,0.5542074559164014
0.003,1.7997750000000001,1.0,161.93316001408814,0.03326941333551845,1.3711779039327674,0.21799549173867067,0.28864354999999997,0.5606727156635118
0.0035,1.79969375,1.0,238.784610544612,0.038692007541587324,1.368550851129714,0.27132397007934267,0.2886401375,0.5668694838378936
0.004,1.7996,1.0,322.6382134245179,0.044084185281784115,1.366125093584329,0.3236042518663978,0.2886362,0.5725523464536555
0.0045000000000000005,1.7994937500000001,1.0,410.48066363410203,0.04944611717061157,1.3638943635424952,0.3736879787668886,0.2886317375,0.5777451919068954
0.005,1.799375,1.0,500.65100782288886,0.05477797285341049,1.3618320617670823,0.4208587989684091,0.28862675,0.5825177266498163
0.0055,1.79924375,1.0,592.0386768290091,0.06007992104969243,1.3599144599392545,0.46473968288189893,0.2886212375,0.586931063541565
0.006,1.7991000000000001,1.0,683.7675984258044,0.06535212950618348,1.3581237127286778,0.5052000863114656,0.2886152,0.5910312703489395
0.006500000000000001,1.79894375,1.0,775.1229772770105,0.07059476504429875,1.356446065148139,0.5422763242749663,0.2886086375,0.5948539625013033
0.007,1.798775,1.0,865.5003922524407,0.07580799335940243,1.3548707825084667,0.5761102867483321,0.28860155,0.5984270654395043
0.0075,1.79859375,1.0,954.4500221568385,0.08099197998574521,1.3533882231273564,0.6069040715786531,0.2885939375,0.6017753946265618
0.008,1.7984,1.0,1041.545492466578,0.08614688840429635,1.3519911745857989,0.6348901484141467,0.2885858,0.6049177710896354
0.0085,1.79819375,1.0,1126.4693412918962,0.09127288166579561,1.350672893528521,0.6603097614668942,0.2885771375,0.6078715616847403
0.009000000000000001,1.797975,1.0,1209.0045576014043,0.09637012222966354,1.3494269484989978,0.6833999844011138,0.28856795,0.6106530856590522
0.0095,1.79774375,1.0,1288.9630613230015,0.10143877147322805,1.3482479564644445,0.7043865006328753,0.2885582375,0.6132760230176606
0.01,1.7975,1.0,1366.2086322323432,0.10647898941274035,1.347131000675037,0.7234791391678694,0.288548,0.6157527690380978
0.0105,1.79724375,1.0,1440.646789910925,0.1114909349983358,1.3460715918041988,0.7408700669766506,0.2885372375,0.6180945578638649
0.011,1.796975,1.0,1512.2800842389522,0.11647476886499439,1.3450648546995394,0.7567330866126804,0.28852595000000003,0.6203132846019954
0.0115,1.79669375,1.0,1581.0591344545392,0.1214306474950616,1.344107277408135,0.7712250599148939,0.2885141375,0.6224176710292117
0.012,1.7964,1.0,1646.9694472217623,0.12635872695314376,1.343195486527792,0.7844863495965065,0.28850180000000003,0.6244160013614546
0.0125,1.79609375,1.0,1710.038227755957,0.13125916330384724,1.342326108656317,0.7966420942530545,0.2884889375,0.6263164391971412
0.013000000000000001,1.7957750000000001,1.0,1770.3187470010869,0.1361321121942542,1.3414959048394544,0.8078036906584348,0.28847555,0.6281267441896758
0.0135,1.79544375,1.0,1827.8691521117184,0.1409777281925166,1.3407019567335259,0.8180702682027294,0.2884616375,0.6298538797128401
0.014,1.7951000000000001,1.0,1882.742824823031,0.145796164050165,1.3399417146141186,0.8275300252881648,0.2884472,0.6315039243150931
0.0145,1.79474375,1.0,1935.006317076654,0.1505875720315415,1.3392127504179667,0.8362613632276323,0.2884322375,0.6330826210263973
0.015,1.794375,1.0,1984.7308888252535,0.15535210362817714,1.3385128173282748,0.8443340331138455,0.28841675,0.6345952567106954
0.0155,1.79399375,1.0,2032.0181330167934,0.16008991087915703,1.3378395489618824,0.8518100472140304,0.2884007375,0.636047318741173
0.016,1.7936,1.0,2076.936004812135,0.16480114278012487,1.3371911150412306,0.8587447985770357,0.2883842,0.6374430865346035
0.0165,1.7931937500000001,1.0,2119.5583409001006,0.169485947899617,1.336565769782915,0.8651877002219746,0.2883671375,0.6387866154669448
0.017,1.792775,1.0,2159.97154026081,0.17414447480616976,1.3359617674035316,0.8711828681422303,0.28834955,0.640081922331299
0.0175,1.7923437500000001,1.0,2198.2625280800594,0.17877687064303058,1.3353774731050532,0.8767697771088021,0.2883314375,0.6413327504262416
0.018000000000000002,1.7919,1.0,2234.530515414684,0.18338328365785916,1.3348112302589736,0.8819837713871387,0.2883128,0.6425428574377314
0.0185,1.79144375,1.0,2268.8435533503116,0.18796385827243356,1.334261785512421,0.8868566537094561,0.2882936375,0.6437151107973478
0.019,1.790975,1.0,2301.2768702145604,0.19251873889556914,1.333727886683903,0.8914169915762443,0.28827395,0.6448523521986478
0.0195,1.79049375,1.0,2331.9123805116246,0.19704806993608132,1.333208281591927,0.8956904881269487,0.2882537375,0.6459574013984537
0.02,1.79,1.0,2360.823675557575,0.20155199386825542,1.3327018591705073,0.8997003390242437,0.288233,0.6470327579862498
0.0205,1.78949375,1.0,2388.1079962913973,0.20603065627788908,1.3322073295160732,0.9034674434910716,0.2882117375,0.6480812825758901
0.021,1.788975,1.0,2413.830292687091,0.2104841977816702,1.3317237650200195,0.9070107742313511,0.28818995000000003,0.6491050501305576
0.021500000000000002,1.78844375,1.0,2438.052341507649,0.214912758015292,1.3312503066413284,0.9103475252082812,0.2881676375,0.6501059768814603
0.022,1.7879,1.0,2460.8394106123055,0.21931647661444753,1.3307860953389816,0.9134932901036815,0.2881448,0.6510859666147646
0.0225,1.78734375,1.0,2482.259967134913,0.2236954932148299,1.3303302720719612,0.9164622333909801,0.28812143749999997,0.6520469112017351
0.023,1.786775,1.0,2502.379985589273,0.22804994636327777,1.3298820292182898,0.9192672504536551,0.28809755,0.6529905829044114
0.0235,1.78619375,1.0,2521.265545704742,0.2323799748181335,1.3294405825903586,0.9219200948683891,0.28807313749999996,0.6539186943320316
0.024,1.7856,1.0,2538.983839723932,0.23668571738327474,1.3290051593682686,0.9244314931784705,0.2880482,0.6548329244549114
0.0245,1.78499375,1.0,2555.5830937712494,0.24096730846760575,1.3285751845614666,0.9268112796837455,0.2880227375,0.655734528349484
0.025,1.784375,1.0,2571.1131780079168,0.24522488248003077,1.328150083179399,0.9290684525665647,0.28799675,0.6566247541752342
0.025500000000000002,1.78374375,1.0,2585.6254688715126,0.24945857382945402,1.3277292802315124,0.9312112563945845,0.2879702375,0.6575048433639503
0.026000000000000002,1.7831000000000001,1.0,2599.1727186460716,0.2536685169247798,1.3273122007272535,0.9332472554772793,0.2879432,0.6583760307878894
0.0265,1.78244375,1.0,2611.802899158872,0.25785484464402825,1.3268983257375895,0.9351834074198727,0.2879156375,0.659239428029212
0.027,1.781775,1.0,2623.5640095595413,0.2620176905187164,1.3264871461178158,0.9370261141351306,0.28788755,0.6600961205989924
0.0275,1.7810937500000001,1.0,2634.5107121569295,0.2661571890484966,1.3260781000963868,0.9387812643751335,0.2878589375,0.6609472979513098
0.028,1.7804,1.0,2644.6782668259457,0.2702734690901979,1.325670813634295,0.940454314035098,0.2878298,0.6617937536568124
0.0285,1.77969375,1.0,2654.1026224823763,0.2743666595006491,1.3252649126925329,0.9420503000646053,0.2878001375,0.6626362773313743
0.029,1.778975,1.0,2662.8203572267776,0.278436889136679,1.3248600232320933,0.9435738780903897,0.28776995,0.6634756546736091
0.029500000000000002,1.7782437500000001,1.0,2670.8686215892117,0.28248428685511673,1.3244557712139686,0.9450293562088623,0.2877392375,0.6643126674934594
0.03,1.7775,1.0,2678.2850848772528,0.286508981512791,1.3240517825991516,0.9464207253800271,0.287708,0.6651480937318629
0.0305,1.77674375,1.0,2685.102117572625,0.2905110997877778,1.3236477362005368,0.9477516929704402,0.2876762375,0.665982598380956
0.031,1.775975,1.0,2691.355528760141,0.2944907705658402,1.3232432829604477,0.9490256979110356,0.28764395,0.6668169005770151
0.0315,1.7751937500000001,1.0,2697.0788186170444,0.29844812097727197,1.3228380983009185,0.9502459385951985,0.2876111375,0.6676516654510412
0.032,1.7744,1.0,2702.296735316511,0.30238327431803647,1.3224319405065148,0.951415399318941,0.2875778,0.668487384378837
0.0325,1.77359375,1.0,2707.034279587901,0.3062963538840972,1.3220245678618021,0.9525368589016394,0.2875439375,0.6693245462162616
0.033,1.772775,1.0,2711.3166803261174,0.3101874829714176,1.321615738651346,0.9536129073270209,0.28750955,0.6701636372823632
0.0335,1.7719437500000002,1.0,2715.1693714963412,0.3140567848759613,1.3212052111597123,0.9546459608463046,0.2874746375,0.6710051413387902
0.034,1.7711000000000001,1.0,2718.6179703341904,0.31790438289369166,1.3207927436714668,0.9556382757019627,0.2874392,0.6718495395654738
0.0345,1.7702437500000001,1.0,2721.685606812131,0.321730398825443,1.3203781185934897,0.9565919628782636,0.2874032375,0.6726972612452036
0.035,1.7693750000000001,1.0,2724.395737635644,0.32553495514988895,1.3199611166180307,0.9575089970284073,0.28736675,0.6735487367746905
0.035500000000000004,1.76849375,1.0,2726.7679919552957,0.32931817171515154,1.3195415543580125,0.9583912300225386,0.2873297375,0.6744043209134738
0.036000000000000004,1.7676,1.0,2728.8201435602373,0.33308016713290156,1.3191192662109383,0.9592403986056155,0.2872922,0.6752643301434702
0.0365,1.76669375,1.0,2730.5700525331426,0.33682106001480966,1.3186940865743113,0.9600581314180301,0.2872541375,0.6761290790260375
0.037,1.765775,1.0,2732.035654835089,0.34054096897254665,1.3182658498456346,0.9608459569417921,0.28721555,0.6769988801723087
0.0375,1.76484375,1.0,2733.239974733485,0.34424000750507544,1.3178343448034238,0.9616053052216056,0.2871764375,0.6778741366816912
0.038,1.7639004892434447,1.0,2734.2229273821276,0.34791829584064426,1.3173994283239983,0.9623375284771514,0.28713682054822465,0.678755111286987
0.0385,1.7629539865404171,1.0,2735.3953031291026,0.351575958998473,1.316961329386561,0.9630439347037274,0.28709706743469754,0.6796413127343879
0.039,1.7620074838373896,1.0,2736.8961635069522,0.3552131095148747,1.3165202508768004,0.9637257498041875,0.2870573143211704,0.6805323047987479
0.0395,1.761060981134362,1.0,2738.7034203258113,0.35882985992616273,1.316076395680405,0.964384128290001,0.2870175612076432,0.6814276533599621
0.04,1.7601144784313345,1.0,2740.7950097546186,0.36242632276865017,1.3156299666830633,0.965020158207003,0.28697780809411605,0.6823269264402052
0.0405,1.759167975728307,1.0,2743.1488802873523,0.36600261057865013,1.3151811667704638,0.9656348656715501,0.2869380549805889,0.6832296942385494
0.041,1.7582214730252794,1.0,2745.742981621663,0.3695588358924759,1.3147301988282953,0.9662292190516316,0.2868983018670617,0.6841355291629518
0.0415,1.7572749703222519,1.0,2748.5552544500174,0.37309511124644057,1.3142772657422461,0.966804132824123,0.28685854875353456,0.6850440058596226
0.042,1.7563284676192243,1.0,2751.56362116364,0.37661154917685735,1.3138225703980049,0.9673604711363283,0.28681879564000745,0.6859547012397618
0.0425,1.7553819649161968,1.0,2754.7459774690296,0.3801082622200394,1.31336631568126,0.9678990510972698,0.28677904252648023,0.6868671945036763
0.043000000000000003,1.7544354622131693,1.0,2758.080184917539,0.38358536291229994,1.3129087044777001,0.968420645821755,0.2867392894129531,0.6877810671622683
0.043500000000000004,1.753488959510142,1.0,2761.5585095558936,0.3870429553107195,1.3124498091357018,0.9689259754813259,0.28669953629942596,0.6886961631730344
0.044,1.7525424568071144,1.0,2765.1567272301495,0.3904811588140516,1.3119898508442511,0.9694157364931817,0.2866597831858988,0.689612031154917
0.0445,1.7515959541040869,1.0,2768.8651810385136,0.3939000801897266,1.3115289188287154,0.969890576789588,0.28662003007237163,0.6905284844815424
0.045,1.7506494514010593,1.0,2772.6752788862755,0.3972998253831664,1.311067092533006,0.9703511101036006,0.28658027695884447,0.6914453569612957
0.0455,1.7497029486980318,1.0,2776.5784101092486,0.40068050033979297,1.3106044514010342,0.9707979189325819,0.28654052384531736,0.6923624833222659
0.046,1.7487564459950042,1.0,2780.565943968133,0.4040422110050282,1.3101410748767117,0.9712315564321182,0.28650077073179014,0.693279699216575
0.0465,1.7478099432919767,1.0,2784.6292282840272,0.4073850633242941,1.3096770424039494,0.9716525481776379,0.28646101761826304,0.6941968412243065
0.047,1.7468634405889492,1.0,2788.7595882120545,0.4107091632430125,1.3092124334266588,0.9720613938041441,0.2864212645047359,0.6951137468570283
0.0475,1.7459169378859216,1.0,2792.948325156807,0.41401461670660533,1.308747327388751,0.9724585685335725,0.2863815113912087,0.6960302545609163
0.048,1.744970435182894,1.0,2797.1867158264677,0.4173015296604946,1.308281803734138,0.9728445245984563,0.28634175827768155,0.6969462037194721
0.0485,1.7440239324798665,1.0,2801.4700156093477,0.4205700022276154,1.3078159059807721,0.973219689353181,0.2863020051641544,0.6978615051825142
0.049,1.743077429776839,1.0,2805.7895329840026,0.4238201443664085,1.3073497129074263,0.9735844735280322,0.2862622520506272,0.6987760011980952
0.0495,1.7421309270738115,1.0,2810.139854754913,0.427052059656896,1.3068832736885638,0.9739392657821808,0.28622249893710006,0.6996895928896366
0.05,1.7411844243707841,1.0,2814.5176121394225,0.43026584811137175,1.3064166190504662,0.9742844350644151,0.28618274582357295,0.7006022180155659
0.0505,1.7402379216677566,1.0,2818.9194260123227,0.43346160974212977,1.3059497797194153,0.9746203333589936,0.2861429927100458,0.7015138146991112
0.051000000000000004,1.739291418964729,1.0,2823.3419067699633,0.43663944456146403,1.3054827864216925,0.9749472966180026,0.2861032395965186,0.7024243214286946
0.051500000000000004,1.7383449162617015,1.0,2827.781654214598,0.4397994525816685,1.3050156698835789,0.9752656456345085,0.28606348648299146,0.7033336770582642
0.052000000000000005,1.737398413558674,1.0,2832.235257460061,0.4429417338150371,1.3045484608313567,0.9755756868607455,0.2860237333694643,0.7042418208075625
0.0525,1.7364519108556464,1.0,2836.699294858375,0.44606638827386375,1.3040811899913067,0.9758777131752574,0.28598398025593713,0.7051486922623432
0.053,1.735505408152619,1.0,2841.17033394696,0.4491735159704425,1.303613888089711,0.9761720046025917,0.28594422714240997,0.7060542313745167
0.0535,1.7345589054495913,1.0,2845.6476698764577,0.45226320408715587,1.3031465614745634,0.9764588261903788,0.28590447402888286,0.7069584255935866
0.054,1.7336124027465638,1.0,2850.127877449138,0.45533555708708134,1.3026792406719403,0.976738434792947,0.2858647209153557,0.7078612157725053
0.0545,1.7326659000435363,1.0,2854.605702404806,0.4583906891632678,1.3022119723690888,0.9770110782003236,0.28582496780182853,0.7087625119795443
0.055,1.7317193973405087,1.0,2859.0802770940186,0.4614286930544904,1.301744764148342,0.9772769892871257,0.28578521468830137,0.7096623000926706
0.0555,1.7307728946374814,1.0,2863.5507312159775,0.4644496614995243,1.3012776235920325,0.9775363911783741,0.2857454615747742,0.7105605660801582
0.056,1.7298263919344539,1.0,2868.0161918294007,0.46745368723714475,1.3008105582824938,0.9777894977386035,0.28570570846124704,0.7114572960005561
0.0565,1.7288798892314263,1.0,2872.4757833645035,0.47044086300612686,1.3003435758020587,0.9780365140325532,0.2856659553477199,0.7123524760026563
0.057,1.7279333865283988,1.0,2876.9286276365515,0.4734112815452458,1.29987668373306,0.9782776367593137,0.28562620223419277,0.7132460923254538
0.0575,1.7269868838253712,1.0,2881.3738438598516,0.47636503559327675,1.2994098896578308,0.9785130546616589,0.2855864491206656,0.7141381312981046
0.058,1.7260403811223437,1.0,2885.8105486640625,0.47930221788899485,1.298943201158704,0.9787429489121733,0.28554669600713845,0.7150285793398807
0.0585,1.7250938784193162,1.0,2890.237856111336,0.4822229211711754,1.298476625818013,0.9789674934776628,0.2855069428936113,0.7159174229601208
0.059000000000000004,1.7241473757162886,1.0,2894.6548777143003,0.4851272381785934,1.29801017121809,0.9791868554632346,0.2854671897800841,0.7168046487581782
0.059500000000000004,1.723200873013261,1.0,2899.0607224560235,0.48801526165002407,1.2975438449412688,0.979401195437333,0.28542743666655696,0.7176902434233615
0.06,1.7222543703102335,1.0,2903.4544968110176,0.4908870843242426,1.2970776545698819,0.9796106677389227,0.2853876835530298,0.7185741937348786
0.0605,1.721307867607206,1.0,2907.835304767109,0.4937427989400242,1.2966116076862624,0.9798154207679381,0.28534793043950263,0.7194564865617691
0.061,1.7203613649041785,1.0,2912.2022478492613,0.49658249823614403,1.296145711872743,0.9800155972600237,0.28530817732597546,0.7203371088628387
0.0615,1.719414862201151,1.0,2916.556489471841,0.49940623551036994,1.2956799565593897,0.980211330548293,0.28526842421244836,0.7212160819165734
0.062,1.7184683594981234,1.0,2920.8961035307043,0.5022141467867056,1.295214358355914,0.9804027567346016,0.2852286710989212,0.7220933757031442
0.0625,1.717521856795096,1.0,2925.2207340524174,0.5050063241701774,1.2947489200378592,0.9805900027690262,0.28518891798539403,0.7229689864047055
0.063,1.7165753540920685,1.0,2929.5303716288136,0.507782851670842,1.2942836413333403,0.9807731901560502,0.28514916487186687,0.723842915955325
0.0635,1.715628851389041,1.0,2933.825007112579,0.5105438132987562,1.2938185219704714,0.9809524359569914,0.2851094117583397,0.7247151662853559
0.064,1.7146823486860134,1.0,2938.1046316163997,0.5132892930639765,1.2933535616773675,0.9811278529854408,0.2850696586448126,0.725585739321438
0.0645,1.713735845982986,1.0,2942.369236511655,0.5160193749765597,1.2928887601821426,0.9812995499927204,0.2850299055312854,0.726454636986503
0.065,1.7127893432799584,1.0,2946.618813428078,0.5187341430465625,1.2924241172129116,0.9814676318439428,0.28499015241775827,0.7273218611997747
0.0655,1.7118428405769308,1.0,2950.85335425201,0.5214336812840416,1.2919596324977893,0.9816321996852085,0.2849503993042311,0.7281874138767723
0.066,1.7108963378739033,1.0,2955.0728511260986,0.5241180736990536,1.29149530576489,0.9817933511024518,0.28491064619070394,0.7290512969293155
0.0665,1.7099498351708757,1.0,2959.277296448102,0.5267874043016554,1.291031136742328,0.9819511802724065,0.2848708930771768,0.7299135122655243
0.067,1.7090033324678482,1.0,2963.466682869838,0.5294417571019034,1.2905671251582183,0.9821057781061369,0.2848311399636496,0.7307740617898224
0.0675,1.7080568297648206,1.0,2967.641003296437,0.5320812161098545,1.2901032707406752,0.9822572323855484,0.28479138685012245,0.7316329474029417
0.068,1.707110327061793,1.0,2971.800250885222,0.5347058653355653,1.2896395732178134,0.9824056278932723,0.2847516337365953,0.7324901710019225
0.0685,1.7061638243587658,1.0,2975.9444190448685,0.5373157887890926,1.2891760323177477,0.982551046536283,0.2847118806230682,0.7333457344801178
0.069,1.7052173216557382,1.0,2980.073501434353,0.5399110704804929,1.2887126477685922,0.982693567463599,0.284672127509541,0.7341996397271966
0.0695,1.7042708189527107,1.0,2984.1874919621823,0.5424917944198231,1.2882494192984617,0.9828332671783847,0.28463237439601385,0.7350518886291442
0.07,1.7033243162496832,1.0,2988.2863847852823,0.5450580446171398,1.2877863466354706,0.982970219644757,0.2845926212824867,0.7359024830682677
0.07050000000000001,1.7023778135466556,1.0,2992.3701743080883,0.5476099050824996,1.287323429507734,0.9831044963895818,0.2845528681689595,0.7367514249231958
0.07100000000000001,1.701431310843628,1.0,2996.4390373720566,0.5501473849029682,1.2868606660628104,0.9832361620576721,0.28451311505543236,0.7375987189604618
0.07150000000000001,1.7004848081406005,1.0,3000.4931711055206,0.5526706537208991,1.2863980542787834,0.983365288723174,0.2844733619419052,0.7384443702338235
