Time [s],Phi [rad],STIM [ ],Fsee [N],Gamma [ ],Lcerel [ ],q [ ],Lmtc [m],fisomrel [ ]
0.0,1.8,1.0,17.96688471894119,1.7802948604234487e-05,1.37933977685523,0.005000084087859917,0.288653,0.5411394569369398
0.0005,1.79999375,1.0,18.278872617430967,0.005626912396939071,1.3793021513646502,0.01296219196905082,0.2886527375,0.5412304782211352
0.001,1.799975,1.0,21.626323972481593,0.011204559176151783,1.3789374909874343,0.03564925238110382,0.28865195,0.5421121745030233
0.0015,1.79994375,1.0,31.08943659076336,0.01675091976780925,1.3780444829880236,0.07065738076817468,0.2886506375,0.5442677579155546
0.002,1.7999,1.0,53.626969186512774,0.022266169661812066,1.3763652400802353,0.11478377271260376,0.2886488,0.5483074172810805
0.0025,1.79984375,1.0,97.1945645955585,0.027750483364017118,1.373931523686563,0.1646464065750286,0.28864643749999996,0.5541301517648131
0.003,1.7997750000000001,1.0,161.05710981993886,0.03320403440387923,1.3712106407946285,0.21735423112584054,0.28864354999999997,0.5605952173496216
0.0035,1.79969375,1.0,237.7954240392385,0.038626995334100994,1.3685812818947367,0.27068626845173466,0.2886401375,0.5667979548368388
0.004,1.7996,1.0,321.58623060549996,0.04401953774140016,1.3661529286703602,0.3229868540617754,0.2886362,0.5724873495730807
0.0045000000000000005,1.7994937500000001,1.0,409.39161614412365,0.04938183225169825,1.363919906794531,0.37310195561371073,0.2886317375,0.5776859101998085
0.005,1.799375,1.0,499.54000277009095,0.05471404852122787,1.3618556544322158,0.4203105642549102,0.28862675,0.5824632823833955
0.0055,1.79924375,1.0,590.9181524101675,0.06001635528367823,1.3599363395354231,0.4642321228324518,0.2886212375,0.5868808401844408
0.006,1.7991000000000001,1.0,682.6460944901024,0.06528892029416823,1.3581440884086928,0.5047336543645052,0.2886152,0.5909847319448547
0.006500000000000001,1.79894375,1.0,774.010678956254,0.07053191038215367,1.356465044406627,0.5418498307735651,0.2886086375,0.594810816697007
0.007,1.798775,1.0,864.4163830585096,0.07574549144811481,1.3548882859221734,0.5757214733521314,0.28860155,0.5983874506225183
0.0075,1.79859375,1.0,953.3730245286823,0.08092982843744967,1.353404782660726,0.6065505513380431,0.2885939375,0.6017380726802455
0.008,1.7984,1.0,1040.4866882724764,0.08608508539900955,1.3520067584201765,0.6345689721645741,0.2885858,0.6048827870743607
0.0085,1.79819375,1.0,1125.4457223257382,0.09121142545091146,1.350687380069799,0.6600179194770316,0.2885771375,0.6078391628181773
0.009000000000000001,1.797975,1.0,1208.0060317025195,0.0963090107247786,1.3494405887525187,0.6831347913925604,0.28856795,0.610622687921853
0.0095,1.79774375,1.0,1287.9938923360128,0.1013780026502116,1.3482607782441243,0.7041453141179917,0.2885582375,0.6132475457168269
0.01,1.7975,1.0,1365.2758067481916,0.1064185616447767,1.34714298747945,0.7232595047005398,0.288548,0.6157262316449056
0.0105,1.79724375,1.0,1439.761536406809,0.11143084688694999,1.3460826693360317,0.7406697249887009,0.2885372375,0.6180701083713231
0.011,1.796975,1.0,1511.4086512390352,0.11641501698966884,1.3450754977921562,0.756550257235895,0.28852595000000003,0.6202898623198203
0.0115,1.79669375,1.0,1580.210962787762,0.1213712304299244,1.3441174084786665,0.7710578971753781,0.2885141375,0.6223954374423681
0.012,1.7964,1.0,1646.1533686168748,0.12629964322806222,1.3432050371223199,0.7843332094640447,0.28850180000000003,0.6243950972380965
0.0125,1.79609375,1.0,1709.2581575536744,0.131200411226303,1.3423350678245933,0.7965015367200731,0.2884889375,0.6262968792650865
0.013000000000000001,1.7957750000000001,1.0,1769.5774919023308,0.13607368993251565,1.341504271936494,0.8076744393729272,0.28847555,0.6281085212025674
0.0135,1.79544375,1.0,1827.1581626128125,0.14091963346972247,1.3407098547902931,0.8179512364445647,0.2884616375,0.629836718267785
0.014,1.7951000000000001,1.0,1882.0570531246344,0.14573839474763334,1.3399492206560768,0.8274202307045542,0.2884472,0.6314876510692794
0.0145,1.79474375,1.0,1934.3563844642536,0.1505301269941403,1.3392197674100497,0.8361598722420842,0.2884322375,0.6330674406832648
0.015,1.794375,1.0,1984.1282007420457,0.15529498171072376,1.338519242165682,0.8442400136747354,0.28841675,0.6345813861083303
0.0155,1.79399375,1.0,2031.4390972870328,0.1600331089749176,1.3378456493840913,0.851722878299064,0.2884007375,0.6360341747201583
0.016,1.7936,1.0,2076.371899598027,0.1647446588642557,1.3371969935263959,0.8586638757760285,0.2883842,0.6374304450151778
0.0165,1.7931937500000001,1.0,2119.017128129276,0.16942978063953384,1.3365713526906753,0.8651124312887505,0.2883671375,0.6387746318493912
0.017,1.792775,1.0,2159.463643341628,0.17408862318321494,1.3359669573690733,0.8711127173625915,0.28834955,0.6400708021561456
0.0175,1.7923437500000001,1.0,2197.7857586233113,0.17872133308778618,1.33538230235379,0.8767043012039095,0.2883314375,0.6413224211347925
0.018000000000000002,1.7919,1.0,2234.0666469109538,0.18332805685285367,1.3348158905351988,0.881922614612001,0.2883128,0.6425329063938833
0.0185,1.79144375,1.0,2268.385911799406,0.1879089402287471,1.3342663483231418,0.8867994664997874,0.2882936375,0.6437053838606889
0.019,1.790975,1.0,2300.840859777775,0.19246412932858525,1.3337322030711356,0.8913634053146002,0.28827395,0.644843165284714
0.0195,1.79049375,1.0,2331.5034985741713,0.19699376745966515,1.33321230272299,0.8956401943464073,0.2882537375,0.6459488562310027
0.02,1.79,1.0,2360.444448098495,0.20149799743110347,1.3327055657457438,0.8996530668248455,0.288233,0.6470248932455502
0.0205,1.78949375,1.0,2387.7394957514184,0.2059769620520169,1.332210910606436,0.9034229934885343,0.2882117375,0.6480736953891666
0.021,1.788975,1.0,2413.4665338251316,0.2104308030390834,1.3317272811421907,0.9069689384633306,0.28818995000000003,0.6490976114349807
0.021500000000000002,1.78844375,1.0,2437.7004703679886,0.21485966238180462,1.3312536909127288,0.9103080896766249,0.2881676375,0.6500988273491528
0.022,1.7879,1.0,2460.503526470903,0.21926367917787726,1.330789310850435,0.9134560663382847,0.2881448,0.651079183122112
0.0225,1.78734375,1.0,2481.9408161419306,0.22364299245922314,1.3303333141749079,0.9164270561054066,0.28812143749999997,0.6520405023795333
0.023,1.786775,1.0,2502.0743464685333,0.2279977400032451,1.329884930787623,0.9192339759807207,0.28809755,0.6529844784414706
0.0235,1.78619375,1.0,2520.9648653040813,0.23232805943437737,1.3294434263713872,0.9218886009710833,0.28807313749999996,0.6539127194537001
0.024,1.7856,1.0,2538.6958970264814,0.2366340931432574,1.3290078731554842,0.924401641910822,0.2880482,0.6548272302350282
0.0245,1.78499375,1.0,2555.312552549457,0.24091597487009644,1.328577726045094,0.9267829498067164,0.2880227375,0.6557292026372297
0.025,1.784375,1.0,2570.8615383673705,0.2451738383551058,1.3281524399453968,0.9290415378623283,0.28799675,0.6566198219320241
0.025500000000000002,1.78374375,1.0,2585.3910262885283,0.2494078173384967,1.3277314697615727,0.931185664164592,0.2879702375,0.6575002669895387
0.026000000000000002,1.7831000000000001,1.0,2598.95052975588,0.25361804556048045,1.3273142703988021,0.933222905202941,0.2879432,0.6583717104378184
0.0265,1.78244375,1.0,2611.5907867553474,0.25780465676126824,1.3269002967622647,0.9351602213337095,0.2879156375,0.6592353188033905
0.027,1.781775,1.0,2623.363649312514,0.2619677846810714,1.326489003757141,0.9370040151579557,0.28788755,0.6600922526328747
0.0275,1.7810937500000001,1.0,2634.313197012388,0.2661075592917544,1.3260799275482027,0.9387601943456517,0.2878589375,0.660943497608925
0.028,1.7804,1.0,2644.4869317574125,0.27022411597742096,1.3256725804993703,0.9404342053070988,0.2878298,0.6617900838994935
0.0285,1.77969375,1.0,2653.9202907719546,0.2743175834711247,1.3252665934234444,0.94203109074105,0.2878001375,0.6626327908249607
0.029,1.778975,1.0,2662.6479110003093,0.2783880897052757,1.3248616102329844,0.9435555130483162,0.28776995,0.6634723666990833
0.029500000000000002,1.7782437500000001,1.0,2670.704988086386,0.2824357626122839,1.3244572748405492,0.9450117865098775,0.2877392375,0.6643095561321566
0.03,1.7775,1.0,2678.127225285104,0.2864607301245595,1.3240532311586979,0.9464039077376671,0.287708,0.6651451000497689
0.0305,1.77674375,1.0,2684.950785185386,0.29046312017451253,1.3236491230999896,0.9477355830996936,0.2876762375,0.6659797357034687
0.031,1.775975,1.0,2691.206537227186,0.29444305710751756,1.3232446468193453,0.949010258953946,0.28764395,0.6668140889752447
0.0315,1.7751937500000001,1.0,2696.924154003242,0.2984006666029325,1.3228395125885608,0.9502311402349621,0.2876111375,0.6676487535445806
0.032,1.7744,1.0,2702.1469133820565,0.3023360842951077,1.322433309187645,0.9514011964775453,0.2875778,0.6684845699180628
0.0325,1.77359375,1.0,2706.896192689294,0.3062494313780154,1.322025828233129,0.9525232128255484,0.2875439375,0.6693219577511713
0.033,1.772775,1.0,2711.1935804130853,0.310140829045628,1.3216168613415438,0.9535997851017672,0.28750955,0.6701613345051474
0.0335,1.7719437500000002,1.0,2715.0608565062316,0.3140103984919178,1.321206200129421,0.9546333349527087,0.2874746375,0.6710031154286302
0.034,1.7711000000000001,1.0,2718.519973651172,0.3178582609108571,1.3207936362132913,0.9556261236102359,0.2874392,0.671847713536526
0.0345,1.7702437500000001,1.0,2721.5930394878897,0.3216845374964183,1.3203789612096861,0.9565802644110305,0.2874032375,0.6726955395861047
0.035,1.7693750000000001,1.0,2724.3022998044507,0.32548934944257363,1.3199619667351365,0.9574977341990527,0.28736675,0.6735470020503296
0.035500000000000004,1.76849375,1.0,2726.6701226904115,0.3292728179432955,1.3195424444061739,0.9583803837223588,0.2873297375,0.6744025070884161
0.036000000000000004,1.7676,1.0,2728.7189836527655,0.3330350641925562,1.319120185839329,0.9592299471234196,0.2872922,0.6752624585136227
0.0365,1.76669375,1.0,2730.4682408202057,0.3367762058024935,1.3186950118315879,0.9600480527632258,0.2872541375,0.6761271984491839
0.037,1.765775,1.0,2731.934036027171,0.34049636042124587,1.3182667731020434,0.9608362318687612,0.28721555,0.6769970061837131
0.0375,1.76484375,1.0,2733.1391473389554,0.3441956546380318,1.3178352606675456,0.961595918662957,0.2871764375,0.677872280218091
0.038,1.7639,1.0,2734.096048924657,0.3478742023963879,1.3174003596694668,0.962328467605327,0.28713679999999997,0.6787532260258071
0.0385,1.76294375,1.0,2734.8172588561833,0.35153211763985087,1.3169619552491787,0.9630351527488796,0.28709663750000003,0.6796400475912552
0.039,1.761975,1.0,2735.3153335073457,0.35516951431195737,1.3165199325480534,0.9637171733852219,0.28705595,0.6805329473844888
0.0395,1.7609937500000001,1.0,2735.6028622466724,0.35878650635624404,1.316074176707463,0.9643756592346745,0.2870147375,0.6814321263351384
0.04,1.76,1.0,2735.6924624213325,0.36238320771624755,1.3156245728687799,0.9650116752225616,0.286973,0.6823377838054856
0.0405,1.7589937500000001,1.0,2735.596774634877,0.36595973233550455,1.3151710061733757,0.9656262258787126,0.2869307375,0.6832501175626977
0.041,1.757975,1.0,2735.328458316423,0.3695161941575517,1.3147133617626225,0.966220259393564,0.28688795,0.684169323750219
0.0415,1.75694375,1.0,2734.9001875828003,0.3730527071259257,1.3142515247778925,0.96679467136098,0.2868446375,0.6850955968583214
0.042,1.7559,1.0,2734.3192735578996,0.37656937744655367,1.3137854291636024,0.9673503110382066,0.28680079999999997,0.6860290320300186
0.0425,1.75484375,1.0,2733.5942917196335,0.38006631633845056,1.313314997472129,0.9678879814866047,0.2867564375,0.6869697460428565
0.043000000000000003,1.753775,1.0,2732.7453454349125,0.3835436512570415,1.3128400476004882,0.9684084367032076,0.28671155,0.6879180631929983
0.043500000000000004,1.75269375,1.0,2731.778623783845,0.38700148831584735,1.3123605238409273,0.9689123973842121,0.28666613750000003,0.6888740533986655
0.044,1.7516,1.0,2730.7003194119525,0.39043993362838886,1.3118763704856928,0.969400546350655,0.2866202,0.6898377854995883
0.0445,1.75049375,1.0,2729.5166272420397,0.39385909330818714,1.3113875318270327,0.9698735309100966,0.2865737375,0.6908093272406528
0.045,1.7493750000000001,1.0,2728.2337432540844,0.397259073468763,1.3108939521571934,0.9703319650486268,0.28652675,0.6917887452553595
0.0455,1.74824375,1.0,2726.857863333864,0.4006399802236372,1.3103955757684222,0.9707764314669319,0.2864792375,0.6927761050490742
0.046,1.7471,1.0,2725.395182190853,0.40400191968633087,1.3098923469529664,0.9712074834729174,0.2864312,0.6937714709820864
0.0465,1.7459437500000001,1.0,2723.8518923446586,0.40734499797036466,1.309384210003073,0.9716256467422762,0.28638263750000004,0.6947749062524694
0.047,1.744775,1.0,2722.2341831800672,0.41066932118925953,1.308871109210989,0.9720314209573936,0.28633355,0.6957864728787413
0.0475,1.74359375,1.0,2720.5482400717206,0.41397499545653643,1.3083529888689618,0.9724252813340623,0.28628393750000003,0.6968062316823276
0.048,1.7424,1.0,2718.800243576149,0.4172621268857162,1.307829793269238,0.9728076800446811,0.2862338,0.6978342422698285
0.0485,1.74119375,1.0,2716.9963686943865,0.42053082159031974,1.3073014667040652,0.973179047545843,0.2861831375,0.6988705630150839
0.049,1.739975,1.0,2715.1386513567854,0.42378117389211034,1.3067679911308925,0.9735397949800887,0.28613195,0.6999151773517751
0.0495,1.73874375,1.0,2713.2332784427635,0.42701329437678387,1.3062293106542664,0.9738903135158531,0.2860802375,0.7009681418884337
0.05,1.7375,1.0,2711.287509161638,0.43022729523230047,1.305685359533272,0.9742309755678031,0.286028,0.7020295311448157
0.0505,1.73624375,1.0,2709.304061506236,0.43342327455423246,1.3051361133737018,0.9745621374376161,0.2859752375,0.7030993377397685
0.051000000000000004,1.734975,1.0,2707.285650409731,0.43660133043815214,1.3045815477813487,0.9748841391236348,0.28592195,0.7041775534155549
0.051500000000000004,1.73369375,1.0,2705.234987562904,0.4397615609796318,1.3040216383620051,0.9751973052082139,0.2858681375,0.7052641690295988
0.052000000000000005,1.7324,1.0,2703.154781244571,0.4429040642742438,1.303456360721464,0.9755019456892241,0.2858138,0.7063591745461886
0.0525,1.73109375,1.0,2701.047736165135,0.44602893841756025,1.302885690465518,0.9757983567596935,0.28575893750000003,0.7074625590281456
0.053,1.729775,1.0,2698.9165533235287,0.44913628150515367,1.3023096031999595,0.976086821539231,0.28570355000000003,0.7085743106284537
0.0535,1.72844375,1.0,2696.7639298771537,0.45222619163259625,1.3017280745305815,0.9763676107606152,0.2856476375,0.7096944165818491
0.054,1.7271,1.0,2694.5925590250818,0.4552987668954603,1.3011410800631766,0.9766409834146472,0.2855912,0.7108228631963758
0.0545,1.7257437500000001,1.0,2692.4051299045464,0.4583541053893181,1.3005485954035374,0.9769071873561409,0.2855342375,0.7119596358449005
0.055,1.724375,1.0,2690.204327500136,0.461392305209742,1.2999505961574567,0.9771664598736982,0.28547675,0.7131047189565891
0.0555,1.72299375,1.0,2687.9928325672304,0.4644134644523043,1.2993470579307271,0.9774190282257204,0.2854187375,0.714258096008348
0.056,1.7216,1.0,2685.769772271215,0.4674176806178305,1.2987379888524766,0.9776651119955106,0.2853602,0.7154196875522244
0.0565,1.72019375,1.0,2683.5399268853776,0.4704050463762284,1.2981233452432572,0.9779049181950892,0.28530113749999997,0.7165895121842145
0.057,1.718775,1.0,2681.3075506703435,0.4733756553105705,1.2975030881755198,0.9781386456687142,0.28524155,0.7177675782080002
0.0575,1.717344019941681,1.0,2679.082415675696,0.47632960144757697,1.2968772499417942,0.9783664892280061,0.2851814488375506,0.7189537578667011
0.058,1.7159091177372896,1.0,2677.259129684477,0.47926697837716054,1.29624596063562,0.97858864126812,0.28512118294496613,0.7201477385429804
0.0585,1.714474215532898,1.0,2675.9894748702004,0.4821878788667432,1.2956095944012476,0.9788053000173509,0.2850609170523817,0.7213487490367663
0.059000000000000004,1.7130393133285065,1.0,2675.229944018963,0.48509239541673027,1.294968547078998,0.9790166570374889,0.2850006511597973,0.7225559828893653
0.059500000000000004,1.711604411124115,1.0,2674.939040058895,0.4879806199894856,1.2943231976940124,0.9792228954221044,0.2849403852672128,0.7237686712346023
0.06,1.7101695089197235,1.0,2675.0807446168496,0.4908526435185557,1.293673876250159,0.9794241884180965,0.28488011937462837,0.7249861428833111
0.0605,1.7087346067153322,1.0,2675.6273649889927,0.4937085546698781,1.2930208373000476,0.9796206983712966,0.28481985348204397,0.7262078727933006
0.061,1.7072997045109406,1.0,2676.525471425399,0.4965484497470302,1.2923645724191024,0.9798125946778313,0.2847595875894595,0.7274328979406742
0.0615,1.7058648023065492,1.0,2677.7527045690294,0.4993724167398109,1.291705288422829,0.9800000246625075,0.28469932169687506,0.7286607930680935
0.062,1.7044299001021577,1.0,2679.2867478952544,0.5021805436380192,1.2910431921267334,0.9801831301307863,0.2846390558042906,0.7298911362139076
0.0625,1.7029949978977663,1.0,2681.1053143425497,0.5049729184314541,1.2903784903463205,0.9803620476227028,0.28457878991170615,0.7311235087506118
0.063,1.7015600956933747,1.0,2683.1861338907274,0.5077496291099145,1.2897113898970962,0.9805369086533302,0.28451852401912175,0.7323574954205763
0.0635,1.7001251934889832,1.0,2685.5069420880086,0.5105107636631995,1.289042097594566,0.9807078399405943,0.2844582581265373,0.7335926843690478
0.064,1.6986902912845918,1.0,2688.045469526441,0.5132564100811079,1.2883708202542357,0.980874963621191,0.28439799223395285,0.7348286671744239
0.0645,1.6972553890802002,1.0,2690.781652783041,0.515986655235572,1.2876977443632447,0.9810383963528461,0.2843377263413684,0.7360650761744296
0.065,1.6958204868758089,1.0,2693.6995174678455,0.518701585255973,1.2870230188268044,0.9811982487197473,0.284277460448784,0.7373016156363135
0.0655,1.6943855846714173,1.0,2696.777962175915,0.5214012895132907,1.2863468392880493,0.9813546299433732,0.28421719455619954,0.7385379069826024
0.066,1.692950682467026,1.0,2700.0062131537657,0.5240858517308238,1.2856693066985376,0.9815076403879173,0.2841569286636151,0.739773747482069
0.0665,1.6915157802626344,1.0,2703.373483031037,0.526755355631871,1.2849905220098279,0.9816573769274826,0.28409666277103063,0.7410089361114982
0.067,1.6900808780582428,1.0,2706.868967905069,0.5294098849397311,1.2843105861734785,0.9818039330947829,0.2840363968784462,0.7422432735640723
0.0675,1.6886459758538515,1.0,2710.4818446512077,0.5320495233777028,1.2836296001410477,0.9819473992225244,0.2839761309858618,0.7434765622571091
0.068,1.6872110736494599,1.0,2714.201268459263,0.534674354669085,1.282947664864094,0.982087862577881,0.2839158650932773,0.7447086063391464
0.0685,1.6857761714450685,1.0,2718.016370596078,0.5372844625371762,1.2822648812941762,0.9822254074904406,0.28385559920069287,0.7459392116963797
0.069,1.684341269240677,1.0,2721.920303611931,0.5398799261856395,1.2815813135439693,0.982360113452578,0.2837953333081084,0.7471682521136889
0.0695,1.6829063670362856,1.0,2725.9031495091285,0.54246083016894,1.280897053510143,0.9824920589541944,0.283735067415524,0.7483955527082905
0.07,1.681471464831894,1.0,2729.952045464484,0.5450272630684825,1.2802122196177599,0.9826213213846495,0.28367480152293956,0.7496208927834449
0.07050000000000001,1.6800365626275027,1.0,2734.0625343265974,0.5475793036748721,1.2795268536229871,0.9827479714746825,0.2836145356303551,0.7508441903814832
0.07100000000000001,1.678601660423111,1.0,2738.2301470999723,0.5501170307787139,1.278840997281991,0.9828720776567192,0.28355426973777065,0.7520653642690839
0.07150000000000001,1.6771667582187195,1.0,2742.450402471529,0.5526405231706131,1.2781546923509381,0.9829937061560597,0.2834940038451862,0.7532843339386319
0.07200000000000001,1.6757318560143282,1.0,2746.7188063762314,0.5551498596411747,1.2774679805859956,0.9831129210778756,0.2834337379526018,0.7545010196094692
0.0725,1.6742969538099366,1.0,2751.030851600823,0.5576451189810039,1.2767809037433298,0.9832297844902372,0.28337347206001734,0.7557153422290358
0.073,1.6728620516055452,1.0,2755.3820174268344,0.5601263799807058,1.2760935035791072,0.9833443565033743,0.2833132061674329,0.7569272234738951
0.0735,1.6714271494011537,1.0,2759.767769311663,0.5625937214308856,1.2754058218494946,0.9834566953453672,0.28325294027484843,0.758136585750652
