Time [s],Phi [rad],STIM [ ],Fsee [N],Gamma [ ],Lcerel [ ],q [ ],Lmtc [m],fisomrel [ ]
0.0,1.8,1.0,17.97338049240325,7.711243681730051e-05,1.3793390491715927,0.005001559455653089,0.288653,0.5411412173902806
0.0005,1.79999375,1.0,18.304947421279458,0.005685889205843255,1.3792992561622672,0.013127879999345834,0.2886527375,0.5412374817434655
0.001,1.799975,1.0,21.69643844940318,0.01126320517179073,1.3789303369345547,0.03595914446275314,0.28865195,0.5421294634906406
0.0015,1.79994375,1.0,31.253819147525956,0.016809236805805646,1.3780305011667906,0.07108103518467196,0.2886506375,0.5443014674349016
0.002,1.7999,1.0,53.979427781600286,0.022324159587287052,1.3763424213213653,0.11528517405513387,0.2886488,0.5483621872256759
0.0025,1.79984375,1.0,97.78563172701791,0.027808148011898407,1.3739030958092475,0.16519168545091958,0.28864643749999996,0.5541979430620557
0.003,1.7997750000000001,1.0,161.82531673499366,0.03326137559867196,1.3711819291089333,0.2179166484912345,0.28864354999999997,0.5606631871905956
0.0035,1.79969375,1.0,238.66290759674592,0.03868401489009412,1.368554591724439,0.27124557713205993,0.2886401375,0.5668606917054593
0.004,1.7996,1.0,322.50881719184696,0.0440762374627488,1.3661285149119136,0.3235283639904367,0.2886362,0.5725443576798364
0.0045000000000000005,1.7994937500000001,1.0,410.34672652690443,0.04943821393254306,1.3638975031645564,0.37361595369599565,0.2886317375,0.5777379055822758
0.005,1.799375,1.0,500.5143802388716,0.05477011394615442,1.3618349616993355,0.4207914226396652,0.28862675,0.5825110347322718
0.0055,1.79924375,1.0,591.9009102997272,0.06007210622482177,1.359917148880563,0.4646773079294775,0.2886212375,0.5869248913956844
0.006,1.7991000000000001,1.0,683.6297950004335,0.06534435851631835,1.3581262154645333,0.5051427666086541,0.2886152,0.591025554199779
0.006500000000000001,1.79894375,1.0,774.9857208148744,0.0705870376450084,1.356448406432155,0.5422239201512723,0.2886086375,0.5948486401529889
0.007,1.798775,1.0,865.3660033790593,0.07580030930126203,1.354872951879896,0.5760625192998359,0.28860155,0.5984221556889316
0.0075,1.79859375,1.0,954.3139605552234,0.08098433898675753,1.3533903146464772,0.6068606645579985,0.2885939375,0.601770680848418
0.008,1.7984,1.0,1041.4124040970576,0.08613929032535401,1.3519931329895614,0.6348507075646824,0.2885858,0.6049133747710236
0.0085,1.79819375,1.0,1126.3395398916812,0.09126532620148853,1.3506747301496604,0.6602739319222868,0.2885771375,0.607867454191527
0.009000000000000001,1.797975,1.0,1208.87476907985,0.09636260908488528,1.349428721142285,0.6833674504771656,0.28856795,0.6106491353343979
0.0095,1.79774375,1.0,1288.84219540183,0.1014313005183147,1.3482495552167724,0.7043568752660236,0.2885582375,0.6132724722299752
0.01,1.7975,1.0,1366.0971181956784,0.10647156039901706,1.3471324334146377,0.7234521286731584,0.288548,0.6157495971671942
0.0105,1.79724375,1.0,1440.5529671558559,0.1114835480932788,1.3460727656846572,0.7408453557255301,0.2885372375,0.6180919670005497
0.011,1.796975,1.0,1512.1832110495652,0.11646742307209969,1.3450660376915597,0.7567105600713466,0.28852595000000003,0.6203106812240022
0.0115,1.79669375,1.0,1580.9566023423276,0.12142334253382368,1.3441085019686916,0.7712045078058144,0.2885141375,0.6224149836507111
0.012,1.7964,1.0,1646.8654911054964,0.12635146280498472,1.343196702998081,0.7844675483297887,0.28850180000000003,0.6244133388113745
0.0125,1.79609375,1.0,1709.9394936510946,0.13125193992643838,1.3423272425123902,0.7966248341869773,0.2884889375,0.6263139637559413
0.013000000000000001,1.7957750000000001,1.0,1770.2326410712228,0.13612492961716635,1.341496876691126,0.807787783827486,0.28847555,0.6281246275835648
0.0135,1.79544375,1.0,1827.7956209922443,0.14097058615798924,1.3407027734858368,0.8180555808220168,0.2884616375,0.6298521050352635
0.014,1.7951000000000001,1.0,1882.67474748706,0.14578906203524697,1.3399424596863125,0.8275164666182766,0.2884472,0.6315023090000631
0.0145,1.79474375,1.0,1934.9403958403182,0.15058050973527937,1.3392134620823435,0.8362488367994836,0.2884322375,0.6330810814480565
0.015,1.794375,1.0,1984.6666847410982,0.15534508070187134,1.3385135017168184,0.8443224419481128,0.28841675,0.6345937791945715
0.0155,1.79399375,1.0,2031.956635655528,0.16008292735764576,1.337840196825148,0.85179930050037,0.2884007375,0.6360459228607946
0.016,1.7936,1.0,2076.8793182482336,0.16479419868777573,1.3371917057302756,0.8587348117319943,0.2883842,0.6374418162841431
0.0165,1.7931937500000001,1.0,2119.506795637489,0.1694790429708918,1.3365663014699711,0.8651784031267965,0.2883671375,0.6387854742181904
0.017,1.792775,1.0,2159.923617123674,0.17413760848562454,1.335962257082005,0.871174203320374,0.28834955,0.6400808731389186
0.0175,1.7923437500000001,1.0,2198.217798766628,0.17877004268406077,1.3353779261507823,0.8767616902332944,0.2883314375,0.6413317814119911
0.018000000000000002,1.7919,1.0,2234.483431358273,0.18337649346728974,1.3348117032690494,0.8819762273362123,0.2883128,0.6425418474300957
0.0185,1.79144375,1.0,2268.7995155675067,0.1879571064467059,1.3342622245610805,0.8868495931261173,0.2882936375,0.6437141748452737
0.019,1.790975,1.0,2301.236729895369,0.1925120254437347,1.333728284045285,0.8914103721967801,0.28827395,0.644851506467441
0.0195,1.79049375,1.0,2331.8723006365412,0.19704139427980144,1.333208675740074,0.895684282648277,0.2882537375,0.6459565638123284
0.02,1.79,1.0,2360.789451593453,0.20154535677633145,1.3327021936638572,0.8996945015496156,0.288233,0.6470320482501826
0.0205,1.78949375,1.0,2388.0591418800386,0.20602405443674035,1.3322078042676357,0.9034619877552152,0.2882117375,0.6480802767336614
0.021,1.788975,1.0,2413.776598730351,0.21047763236572364,1.3317242840134196,0.9070056507843056,0.28818995000000003,0.649103952154924
0.021500000000000002,1.78844375,1.0,2438.00150409789,0.21490622985344138,1.3312507955767978,0.9103426935570382,0.2881676375,0.6501049439723805
0.022,1.7879,1.0,2460.794731216778,0.21930998586576408,1.330786523054494,0.9134887219331761,0.2881448,0.6510850643033124
0.0225,1.78734375,1.0,2482.2202601020977,0.22368903936856238,1.3303306505432317,0.9164579111804706,0.28812143749999997,0.6520461138765477
0.023,1.786775,1.0,2502.344916095244,0.22804352932770677,1.3298823621397349,0.9192631569262966,0.28809755,0.6529898824907807
0.0235,1.78619375,1.0,2521.2311319421156,0.23237359311902686,1.3294409080609282,0.9219162199313349,0.28807313749999996,0.6539180105101756
0.024,1.7856,1.0,2538.9448751145064,0.23667936970293083,1.3290055265908702,0.9244278297897534,0.2880482,0.6548321539306894
0.0245,1.78499375,1.0,2555.5454192270263,0.24096099622437256,1.3285755384707727,0.9268078043585015,0.2880227375,0.6557337867303628
0.025,1.784375,1.0,2571.07993713933,0.24521860639677048,1.3281503944947584,0.929065147844702,0.28799675,0.6566241026560411
0.025500000000000002,1.78374375,1.0,2585.5970694552866,0.24945233393354305,1.3277295454569502,0.9312081102334975,0.2879702375,0.6575042890133317
0.026000000000000002,1.7831000000000001,1.0,2599.1468001414137,0.2536623125481087,1.327312442151471,0.9332442607079487,0.2879432,0.658375526826658
0.0265,1.78244375,1.0,2611.78033883264,0.2578486759538859,1.3268985353724438,0.9351805530261785,0.2879156375,0.6592389909800735
0.027,1.781775,1.0,2623.54310260772,0.2620115559487404,1.3264873399532313,0.9370233929191791,0.28788755,0.6600957169970127
0.0275,1.7810937500000001,1.0,2634.4811788030242,0.2661510857656605,1.3260783733408565,0.9387786811887822,0.2878589375,0.6609467297174139
0.028,1.7804,1.0,2644.646182778712,0.270267399308245,1.3256711099068474,0.9404518531282834,0.2878298,0.6617931383037057
0.0285,1.77969375,1.0,2654.071805705084,0.2743606245909375,1.3252651967570594,0.9420479495313878,0.2878001375,0.6626356880694879
0.029,1.778975,1.0,2662.7923476342603,0.2784308896281816,1.3248602809973478,0.943571629529418,0.28776995,0.6634751206324115
0.029500000000000002,1.7782437500000001,1.0,2670.842664146811,0.28247832243442067,1.3244560097335674,0.9450272044158448,0.2877392375,0.664312173940597
0.03,1.7775,1.0,2678.258115759557,0.2865030510240984,1.3240520300715735,0.9464186680691501,0.287708,0.6651475822911099
0.0305,1.77674375,1.0,2685.074520095012,0.29050520341165825,1.3236479891172215,0.9477497243531294,0.2876762375,0.665982076340494
0.031,1.775975,1.0,2691.326237604713,0.2944849067289473,1.323243551086817,0.9490238137246749,0.28764395,0.6668163478341337
0.0315,1.7751937500000001,1.0,2697.0410656187537,0.2984422859630076,1.322838443518994,0.9502441407273551,0.2876111375,0.6676509546754891
0.032,1.7744,1.0,2702.2565157412923,0.30237747095912787,1.322432307924114,0.9514136773223829,0.2875778,0.6684866288479889
0.0325,1.77359375,1.0,2706.9954501541233,0.3062905839729571,1.3220249222694749,0.9525352050285786,0.2875439375,0.6693238183588606
0.033,1.772775,1.0,2711.280949170355,0.3101817472601442,1.3216160645223738,0.9536113163218578,0.28750955,0.6701629688811872
0.0335,1.7719437500000002,1.0,2715.1362901448124,0.31405108307633817,1.3212055126501083,0.9546444297559887,0.2874746375,0.6710045237346336
0.034,1.7711000000000001,1.0,2718.5849274772654,0.31789871367718797,1.3207930446199758,0.9556368037024444,0.2874392,0.6718489238630301
0.0345,1.7702437500000001,1.0,2721.650473708815,0.3217247613183426,1.3203784383992738,0.9565905488500651,0.2874032375,0.6726966078088097
0.035,1.7693750000000001,1.0,2724.356681711232,0.32552934825545093,1.3199614719552994,0.9575076395895286,0.28736675,0.6735480116843053
0.035500000000000004,1.76849375,1.0,2726.721682092376,0.32931258691454135,1.319541975509776,0.9583899275390172,0.2873297375,0.6744034626508603
0.036000000000000004,1.7676,1.0,2728.7740171294154,0.33307461172793057,1.3191196855367615,0.9592391431794014,0.2872922,0.6752634767312451
0.0365,1.76669375,1.0,2730.528571939472,0.3368155389202484,1.3186944635447797,0.9600569177632456,0.2872541375,0.6761283128377076
0.037,1.765775,1.0,2732.0000003442906,0.34053548423622965,1.3182661737821095,0.9608447823862512,0.28721555,0.6769982226597451
0.0375,1.76484375,1.0,2733.2030180402326,0.34423456342060926,1.31783468049703,0.9616041751009038,0.2871764375,0.6778734562287974
0.038,1.7639,1.0,2734.152395045086,0.34791289221812205,1.3173998479378197,0.9623364475984815,0.28713679999999997,0.6787542618910999
0.0385,1.76294375,1.0,2734.8629485534307,0.35157058637350286,1.3169615403527577,0.963042871340583,0.28709663750000003,0.6796408862793596
0.039,1.761975,1.0,2735.3495362004646,0.3552077616314865,1.316519621990123,0.9637246431910301,0.28705595,0.6805335742832579
0.0395,1.7609937500000001,1.0,2735.6270497349715,0.35882453373680784,1.3160739570981943,0.9643828905938076,0.2870147375,0.6814325690187781
0.04,1.76,1.0,2735.71040910006,0.36242101843420177,1.315624409925251,0.9650186763381182,0.286973,0.6823381117963556
0.0405,1.7589937500000001,1.0,2735.6101267037275,0.3659973254325537,1.315170884943581,0.9656330054012573,0.2869307375,0.6832503612368623
0.041,1.757975,1.0,2735.3296964443507,0.36955355847162663,1.3147133505205053,0.9662268309104752,0.28688795,0.684169346314278
0.0415,1.75694375,1.0,2734.898971808997,0.37308985791689814,1.3142515358179025,0.9668010390283374,0.2868446375,0.6850955747324283
0.042,1.7559,1.0,2734.3249510154706,0.37660633122204995,1.3137853776031831,0.9673564791258705,0.28680079999999997,0.6860291352118233
0.0425,1.75484375,1.0,2733.614641002068,0.3801030858407639,1.3133148126437564,0.9678939544922812,0.2867564375,0.6869701153635455
0.043000000000000003,1.753775,1.0,2732.775055646056,0.3835802292267217,1.3128397777070326,0.968414225299091,0.28671155,0.6879186016716021
0.043500000000000004,1.75269375,1.0,2731.8132140729,0.38703786883360514,1.3123602095604217,0.9689180113447993,0.28666613750000003,0.6888746794750302
0.044,1.7516,1.0,2730.736139052071,0.3904761121150959,1.3118760449713331,0.9694059945983584,0.2866202,0.6898384329497418
0.0445,1.75049375,1.0,2729.550855483248,0.3938950665248759,1.3113872207071773,0.9698788215580683,0.2865737375,0.6908099450901137
0.045,1.7493750000000001,1.0,2728.264388969886,0.39729483951662675,1.3108936735353636,0.9703371054409684,0.28652675,0.6917892976903277
0.0455,1.74824375,1.0,2726.8837644819246,0.40067553854403026,1.3103953402233022,0.9707814282164521,0.2864792375,0.692776571325448
0.046,1.7471,1.0,2725.4160051075105,0.40403727106076825,1.309892157538403,0.9712123424965878,0.2864312,0.69377184533225
0.0465,1.7459437500000001,1.0,2723.868130892582,0.40738014452052246,1.309384062248076,0.9716303732945312,0.28638263750000004,0.6947751977897918
0.047,1.744775,1.0,2722.2471577697256,0.41070426637697455,1.3088709911197307,0.972036019661402,0.28633355,0.6957867054997298
0.0475,1.74359375,1.0,2720.5600965757462,0.4140097440838065,1.3083528809207774,0.9724297562111023,0.28628393750000003,0.6968064439663804
0.048,1.7424,1.0,2718.7959551666017,0.417296683889751,1.307829832325903,0.9728120459546868,0.2862338,0.6978341655937705
0.0485,1.74119375,1.0,2716.980529956755,0.42056518810809507,1.3073016110033062,0.9731833058094106,0.2861831375,0.6988702802129231
0.049,1.739975,1.0,2715.149038002547,0.42381536016485183,1.3067678964709415,0.9735439271354933,0.28613195,0.6999153625471739
0.0495,1.738744037193627,1.0,2713.2842322906963,0.42704730153790327,1.3062289758192742,0.973894323940101,0.2860802495621323,0.7009687958184897
0.05,1.7375092167160977,1.0,2711.7684224169343,0.4302611137051316,1.3056851361387702,0.9742348908533809,0.2860283871020761,0.7020299666575941
0.0505,1.7362743962385685,1.0,2710.760845380693,0.4334568981444189,1.3051366645198954,0.9745660042175043,0.2859765246420199,0.7030982651966607
0.051000000000000004,1.735039575761039,1.0,2710.2297452461767,0.43663475633364723,1.3045838480531156,0.9748880231053274,0.28592466218196366,0.7041730851567494
0.051500000000000004,1.7338047552835099,1.0,2710.1460390505263,0.43979478884155837,1.3040269507560094,0.9752012886819054,0.2858727997219074,0.7052538686671016
0.052000000000000005,1.7325699348059806,1.0,2710.467783289523,0.44293709652400004,1.303466355024836,0.9755061343645225,0.2858209372618512,0.7063398321681766
0.0525,1.7313351143284514,1.0,2711.156509405059,0.44606177983462597,1.302902412362376,0.9758028767122217,0.285769074801795,0.7074302569676438
0.053,1.7301002938509222,1.0,2712.1869141844295,0.4491689363377236,1.3023353547728354,0.9760918105485117,0.28571721234173875,0.7085246596121932
0.0535,1.728865473373393,1.0,2713.5337429421174,0.4522586635975801,1.3017654142604194,0.9763732178271592,0.2856653498816825,0.7096225598094308
0.054,1.7276306528958636,1.0,2715.171774093507,0.45533105917848277,1.3011928228293344,0.976647368309939,0.2856134874216263,0.7107234804722488
0.0545,1.7263958324183344,1.0,2717.0758049224314,0.458386220644719,1.3006178124837862,0.9769145202032513,0.28556162496157006,0.7118269477597678
0.055,1.7251610119408052,1.0,2719.2227316592516,0.46142424466728876,1.3000405961664085,0.9771749195303924,0.28550976250151383,0.7129325275896242
0.0555,1.723926191463276,1.0,2721.5906012323785,0.464445228246057,1.299461376323582,0.9774288013839031,0.2854579000414576,0.71403980896169
0.056,1.7226913709857468,1.0,2724.1591952128474,0.467449267915631,1.2988803395269293,0.9776763900920635,0.2854060375814014,0.7151484140442204
0.0565,1.7214565505082176,1.0,2726.914199483392,0.4704364574776349,1.2982976185169628,0.9779178973558806,0.28535417512134514,0.7162580701119532
0.057,1.7202217300306883,1.0,2729.8412903233457,0.47340689073369285,1.2977133460341943,0.9781535262241553,0.2853023126612889,0.7173685063556253
0.0575,1.718986909553159,1.0,2732.92612964691,0.47636066148542894,1.297127654819136,0.9783834715205554,0.2852504502012327,0.7184794538956645
0.058,1.7177520890756297,1.0,2736.15436063251,0.47929786353446735,1.2965406776122996,0.9786079202463398,0.28519858774117646,0.7195906457947646
0.0585,1.7165172685981005,1.0,2739.5157806400966,0.4822185870323514,1.2959525092572315,0.978827049536174,0.28514672528112023,0.7207018885980494
0.059000000000000004,1.7152824481205713,1.0,2742.9966929105553,0.48512292623257824,1.2953632761370772,0.9790410316272764,0.285094862821064,0.7218129308340965
0.059500000000000004,1.714047627643042,1.0,2746.5794047821005,0.4880109798294095,1.2947731405965093,0.9792500343532974,0.28504300036100777,0.722923455302521
0.06,1.7128128071655129,1.0,2750.2573058306657,0.4908828367235915,1.2941821642596765,0.9794542127784314,0.28499113790095154,0.7240333361973621
0.0605,1.7115779866879834,1.0,2754.0237723649157,0.49373858581587066,1.293590408750727,0.9796537160085501,0.2849392754408953,0.7251424486274904
0.061,1.7103431662104542,1.0,2757.87216631963,0.49657831600699315,1.2929979356938102,0.9798486874676053,0.2848874129808391,0.7262506686197892
0.0615,1.709108345732925,1.0,2761.795834233188,0.4994021161977054,1.2924048067130738,0.9800392651591878,0.28483555052078285,0.7273578731220982
0.062,1.7078735252553958,1.0,2765.7881063091777,0.5022100752887537,1.291811083432667,0.9802255819141499,0.2847836880607266,0.728463940005909
0.0625,1.7066387047778666,1.0,2769.8422955625415,0.5050022821808844,1.2912168274767382,0.9804077656251268,0.2847318256006704,0.7295687480688258
0.063,1.7054038843003374,1.0,2773.9516970495133,0.5077788257748437,1.290622100469436,0.9805859394687519,0.28467996314061417,0.7306721770367762
0.0635,1.704169063822808,1.0,2778.10958718196,0.510539794971378,1.290026964034909,0.9807602221162889,0.28462810068055794,0.7317741075659874
0.064,1.7029342433452788,1.0,2782.3099764366616,0.5132852769836601,1.2894314730152887,0.9809307274683317,0.2845762382205017,0.7328744337633935
0.0645,1.7016994228677496,1.0,2786.5527977471747,0.5160153484582024,1.2888356288165659,0.9810975618941269,0.2845243757604455,0.7339731489991677
0.065,1.7004646023902203,1.0,2790.825725443981,0.5187301157514539,1.2882395430428368,0.9812608355448067,0.28447251330038925,0.7350700440894662
0.0655,1.6992297819126911,1.0,2795.126464419394,0.5214296616071826,1.287643236863985,0.9814206485522043,0.284420650840333,0.7361650774439077
0.066,1.697994961435162,1.0,2799.4527126548764,0.5241140687691567,1.287046731449894,0.981577097530215,0.2843687883802768,0.7372582077931521
0.0665,1.6967601409576325,1.0,2803.8021611226536,0.526783419981144,1.2864500479704477,0.9817302757241744,0.28431692592022056,0.7383493941891843
0.067,1.6955253204801033,1.0,2808.172493697234,0.5294377979869126,1.2858532075955298,0.9818802731528746,0.28426506346016434,0.7394385960055707
0.0675,1.694290500002574,1.0,2812.561387076635,0.5320772855302305,1.285256231495024,0.9820271767436376,0.2842132010001081,0.7405257729376826
0.068,1.6930556795250449,1.0,2816.966510713973,0.5347019653548657,1.2846591408388137,0.9821710704608239,0.2841613385400519,0.7416108850028968
0.0685,1.6918208590475157,1.0,2821.3855267583617,0.5373119202045863,1.284061956796783,0.9823120354281448,0.28410947607999565,0.7426938925407607
0.069,1.6905860385699865,1.0,2825.816090006443,0.5399072328231601,1.2834647005388153,0.9824501500451158,0.2840576136199394,0.7437747562131369
0.0695,1.689351218092457,1.0,2830.255847863327,0.5424879859543554,1.2828673932347945,0.9825854900979687,0.2840057511598832,0.7448534370043117
0.07,1.6881163976149278,1.0,2834.7024403137916,0.54505426234194,1.282270056054604,0.9827181288653238,0.28395388869982696,0.7459298962210799
0.07050000000000001,1.6868815771373986,1.0,2839.1534999031624,0.5476061447296819,1.281672710168128,0.9828481372189042,0.28390202623977073,0.747004095492799
0.07100000000000001,1.6856467566598694,1.0,2843.60823549946,0.5501437043107257,1.2810753626411633,0.9829755823789321,0.2838501637797145,0.7480760220540132
0.07150000000000001,1.6844119361823402,1.0,2848.066129293691,0.5526670173846786,1.280478018085239,0.9831005295917504,0.2837983013196583,0.7491456676370418
0.07200000000000001,1.683177115704811,1.0,2852.5225926736093,0.5551761912391968,1.2798807172928046,0.9832230454636848,0.28374643885960205,0.7502129594632181
0.0725,1.6819422952272818,1.0,2856.977060908406,0.5576713014302813,1.2792834651787057,0.9833431910059565,0.2836945763995458,0.7512778892786183
