Time [s],Phi [rad],STIM [ ],Fsee [N],Gamma [ ],Lcerel [ ],q [ ],Lmtc [m],fisomrel [ ]
0.0,1.8,1.0,18.652858005466616,0.0008433286373351607,1.3792636441982218,0.0051829605458209495,0.288653,0.5413236230532036
0.0005,1.79999375,1.0,19.21265934693758,0.006447807539431008,1.379199723725159,0.015414923943482994,0.2886527375,0.5414782191542191
0.001,1.799975,1.0,23.17365972238227,0.012020849746150562,1.3787822119619806,0.040082226135970345,0.28865195,0.5424873593787922
0.0015,1.79994375,1.0,34.019890586908545,0.01756263159288704,1.3778005189940477,0.07663895689112551,0.2886506375,0.5448557648208809
0.002,1.7999,1.0,59.27531775447153,0.02307332842507017,1.3760081247479379,0.12181224088622547,0.2886488,0.5491641904449591
0.0025,1.79984375,1.0,106.13199042671437,0.028553114605574123,1.3735104842839918,0.17225744649491798,0.28864643749999996,0.5551336675061795
0.003,1.7997750000000001,1.0,172.33685161382442,0.03400216351850032,1.3707957012395076,0.22518305854399048,0.28864354999999997,0.5615770023670341
0.0035,1.79969375,1.0,250.35287677982092,0.03942064757497766,1.3681995451453757,0.2784565842940239,0.2886401375,0.5676948180954671
0.004,1.7996,1.0,334.8360700396586,0.04480873822039129,1.3658055977482226,0.33049905201974755,0.2886362,0.5732980378063315
0.0045000000000000005,1.7994937500000001,1.0,423.03857728298345,0.05016660594080615,1.3636022347409036,0.38022495297643716,0.2886317375,0.5784228791180512
0.005,1.799375,1.0,513.4088374773124,0.055494420254273084,1.361562997531187,0.42696924621953586,0.28862675,0.5831383890824711
0.0055,1.79924375,1.0,604.8690248634578,0.060792349741978814,1.3596653926347908,0.4703934590424061,0.2886212375,0.5875025680512174
0.006,1.7991000000000001,1.0,696.5748936734187,0.06606056203887938,1.3578922020424702,0.5103936905582726,0.2886152,0.5915598587920654
0.006500000000000001,1.79894375,1.0,787.8258611973044,0.07129922382896772,1.3562302728647777,0.5470237128925058,0.2886086375,0.5953443644600958
0.007,1.798775,1.0,878.0431171724824,0.07650850084054645,1.3546690477706234,0.5804357739621125,0.28860155,0.5988835030404315
0.0075,1.79859375,1.0,966.7548482622309,0.08168855801829875,1.35319968758098,0.6108378822361754,0.2885939375,0.6022001935353896
0.008,1.7984,1.0,1053.567835397177,0.08683955903120784,1.351814778267871,0.6384645142044969,0.2885858,0.6053136536745175
0.0085,1.79819375,1.0,1138.1972602381293,0.09196166711994253,1.3505073841339836,0.6635568343438215,0.2885771375,0.6082416252154084
0.009000000000000001,1.797975,1.0,1220.4021769455433,0.09705504422003436,1.3492716498764685,0.6863509958558311,0.28856795,0.6109990898997755
0.0095,1.79774375,1.0,1300.0044739538837,0.10211985139211861,1.3481022211839102,0.7070707011350603,0.2885582375,0.6135996288483038
0.01,1.7975,1.0,1376.8930048607615,0.10715624914936224,1.346993997296879,0.7259233407423608,0.288548,0.6160560135201962
0.0105,1.79724375,1.0,1450.9828262363749,0.11216439660952082,1.345942503836242,0.7430986465050415,0.2885372375,0.6183794133913
0.011,1.796975,1.0,1522.227512440927,0.11714445224675132,1.3449435801534144,0.7587683506753252,0.28852595000000003,0.6205801228027582
0.0115,1.79669375,1.0,1590.6191844929206,0.12209657395729766,1.3439932738338243,0.7730867960695572,0.2885141375,0.6226678174652027
0.012,1.7964,1.0,1656.1546021074105,0.12702091799229626,1.34308815511704,0.786192195132838,0.28850180000000003,0.6246508859004654
0.0125,1.79609375,1.0,1718.8552506397837,0.1319176398936758,1.3422249861777136,0.7982078088477093,0.2884889375,0.6265371774096421
0.013000000000000001,1.7957750000000001,1.0,1778.7870795136366,0.13678689581352194,1.3414004405129956,0.8092432519513437,0.28847555,0.6283346276069279
0.0135,1.79544375,1.0,1835.9936869396076,0.14162883927256423,1.3406118138297138,0.8193961755874446,0.2884616375,0.63004972027944
0.014,1.7951000000000001,1.0,1890.5240794657343,0.14644362279045633,1.3398566412765025,0.8287534135528316,0.2884472,0.6316883398605061
0.0145,1.79474375,1.0,1942.4509872570986,0.1512313988868519,1.3391324580019952,0.8373921146565628,0.2884322375,0.6332563007956791
0.015,1.794375,1.0,1991.8493261873257,0.15599231903129318,1.3384370063075561,0.8453809318934237,0.28841675,0.6347589054897297
0.0155,1.79399375,1.0,2038.822713454046,0.16072653523425445,1.3377679244264538,0.8527809142216184,0.2884007375,0.6362016238158337
0.016,1.7936,1.0,2083.4379841321092,0.16543419625732625,1.337123416095406,0.8596466135396633,0.2883842,0.6375886553576651
0.0165,1.7931937500000001,1.0,2125.7690667604284,0.17011545048750504,1.3365017536762929,0.8660266963430837,0.2883671375,0.6389240107550367
0.017,1.792775,1.0,2165.902227924244,0.17477044631178737,1.3359012095309946,0.871964620366416,0.28834955,0.640211662741119
0.0175,1.7923437500000001,1.0,2203.9178547124275,0.1793993308318748,1.3353202295968674,0.8774992972340685,0.2883314375,0.6414551773695923
0.018000000000000002,1.7919,1.0,2239.922138334621,0.18400225225548933,1.3347570985164952,0.8826655356048206,0.2883128,0.6426584342883213
0.0185,1.79144375,1.0,2273.985943190323,0.18857935508552492,1.3342105460901967,0.8874946758410409,0.2882936375,0.6438243331699378
0.019,1.790975,1.0,2306.182135686011,0.19313078341896184,1.333679354010631,0.892014888868606,0.28827395,0.6449556400097192
0.0195,1.79049375,1.0,2336.5900859083004,0.19765668135278017,1.3331623039704577,0.8962515263360282,0.2882537375,0.6460550995315574
0.02,1.79,1.0,2365.288123889473,0.20215719198536555,1.332658245942692,0.9002274554463998,0.288233,0.6471252914742709
0.0205,1.78949375,1.0,2392.3614589058934,0.20663245927266685,1.3321660143250555,0.9039633192024077,0.2882117375,0.6481688103552519
0.021,1.788975,1.0,2417.8819868301184,0.21108262481656423,1.3316846189169491,0.9074778224464383,0.28818995000000003,0.6491878621617291
0.021500000000000002,1.78844375,1.0,2441.9117698048963,0.21550782816535105,1.3312132029539108,0.9107879335788092,0.2881676375,0.6501843564700622
0.022,1.7879,1.0,2464.5163137506,0.2199082088673206,1.3307509096714778,0.9139090449642242,0.2881448,0.6511601905340878
0.0225,1.78734375,1.0,2485.7642797012363,0.22428390647076624,1.330296882305188,0.9168551411174012,0.28812143749999997,0.6521172498069925
0.023,1.786775,1.0,2505.7194479638706,0.22863505863138178,1.3298503377410718,0.9196389600672975,0.28809755,0.6530572534824646
0.0235,1.78619375,1.0,2524.452041310241,0.23296180575436326,1.3294104557038162,0.922272104386322,0.28807313749999996,0.653981988753202
0.024,1.7856,1.0,2542.01984173588,0.2372642849676719,1.3289765551755426,0.924765186467199,0.2880482,0.654892940512861
0.0245,1.78499375,1.0,2558.4725571598465,0.24154263071933021,1.328548049121693,0.9271279201635961,0.2880227375,0.6557913884513062
0.025,1.784375,1.0,2573.8615411159026,0.24579697745736065,1.3281243505077096,0.9293691951849444,0.28799675,0.6566786052420082
0.025500000000000002,1.78374375,1.0,2588.2396528873514,0.25002745962978573,1.3277048722990343,0.9314971582658627,0.2879702375,0.6575558567330153
0.026000000000000002,1.7831000000000001,1.0,2601.6611252817565,0.2542342116846279,1.3272890274611095,0.9335192853514253,0.2879432,0.6584244021159473
0.0265,1.78244375,1.0,2614.1718927751554,0.25841736542596605,1.3268763176339664,0.9354424587613707,0.2879156375,0.6592853092157471
0.027,1.781775,1.0,2625.8231135132296,0.2625770561185163,1.3264662057502392,0.9372730059357087,0.28788755,0.6601397209918447
0.0275,1.7810937500000001,1.0,2636.664237328412,0.2667134173896121,1.326058179670368,0.9390167586625279,0.2878589375,0.6609887227998914
0.028,1.7804,1.0,2646.730275413986,0.27082657788098485,1.3256518685775225,0.9406791143983134,0.2878298,0.6618331010585715
0.0285,1.77969375,1.0,2656.05691754929,0.274916666234366,1.3252469016548716,0.9422650569325389,0.2878001375,0.6626736382777625
0.029,1.778975,1.0,2664.680473112107,0.2789838110914868,1.3248429080855852,0.9437791934698583,0.28776995,0.6635111130947067
0.029500000000000002,1.7782437500000001,1.0,2672.6378151393515,0.2830281410940787,1.324439517052833,0.9452257879433318,0.2877392375,0.6643463003014176
0.03,1.7775,1.0,2679.966327437236,0.28704978488387295,1.3240363577397838,0.9466087909827936,0.287708,0.6651799708633128
0.0305,1.77674375,1.0,2686.7028392178386,0.2910488704766202,1.3236330686335442,0.9479318679114102,0.2876762375,0.666012872725879
0.031,1.775975,1.0,2692.876491032626,0.2950255218063281,1.3232293623289055,0.9491984301225739,0.28764395,0.6668455973483709
0.0315,1.7751937500000001,1.0,2698.527685855093,0.29897987183054897,1.3228248515052539,0.9504116387131827,0.2876111375,0.6676789389368967
0.032,1.7744,1.0,2703.6797095576653,0.30291204308606606,1.3224193082947917,0.9515744509933585,0.2875778,0.6685133598173089
0.0325,1.77359375,1.0,2708.3560894498264,0.3068221581096626,1.3220125048297218,0.9526896210007985,0.2875439375,0.669349319940333
0.033,1.772775,1.0,2712.5805715490337,0.31071033943812193,1.3216042132422463,0.9537597159359372,0.28750955,0.67018727686491
0.0335,1.7719437500000002,1.0,2716.377099003094,0.31457670960822726,1.3211942056645676,0.9547871310807804,0.2874746375,0.6710276857382254
0.034,1.7711000000000001,1.0,2719.7697916635975,0.3184213911567618,1.3207822542288883,0.9557741033574192,0.2874392,0.6718709992724263
0.0345,1.7702437500000001,1.0,2722.782926810813,0.32224450662050896,1.3203681310674107,0.9567227236646426,0.2874032375,0.6727176677180305
0.035,1.7693750000000001,1.0,2725.437280536302,0.32604617477505493,1.3199516414276888,0.957634950738797,0.28736675,0.6735680712618866
0.035500000000000004,1.76849375,1.0,2727.753069335155,0.32982651470745555,1.3195325967013427,0.9585126193381137,0.2873297375,0.6744225753995443
0.036000000000000004,1.7676,1.0,2729.7599960913335,0.33358565772755056,1.3191107229780088,0.9593574428683977,0.2872922,0.6752817170932798
0.0365,1.76669375,1.0,2731.472245733532,0.3373237194003683,1.3186858882631531,0.9601710390541288,0.2872541375,0.6761457417790979
0.037,1.765775,1.0,2732.9040709374235,0.34104081529093727,1.3182579605622422,0.9609549262892563,0.28721555,0.6770148932996247
0.0375,1.76484375,1.0,2734.0697844636948,0.3447370609642858,1.3178268078807427,0.9617105308424194,0.2871764375,0.6778894138786271
0.038,1.7639,1.0,2734.9837518821673,0.34841257198544223,1.3173922982241206,0.9624391934629014,0.28713679999999997,0.6787695440944225
0.0385,1.76294375,1.0,2735.6603846824046,0.35206746391943505,1.3169542995978423,0.9631421754431879,0.28709663750000003,0.6796555228521723
0.039,1.761975,1.0,2736.1141337698095,0.35570185233129265,1.3165126800073743,0.9638206641882515,0.28705595,0.6805475873550686
0.0395,1.7609937500000001,1.0,2736.3594833496527,0.3593158527860433,1.316067307458183,0.9644757783365842,0.2870147375,0.6814459730744082
0.04,1.76,1.0,2736.410945195346,0.3629095808487155,1.3156180499557346,0.9651085724734779,0.286973,0.6823509137185568
0.0405,1.7589937500000001,1.0,2736.283053304909,0.36648315208433757,1.3151647755054954,0.965720041473005,0.2869307375,0.6832626412007994
0.041,1.757975,1.0,2735.978030607085,0.37003667205322993,1.3147074640399703,0.9663111324246452,0.28688795,0.684181160961514
0.0415,1.75694375,1.0,2735.518044644841,0.3735702648034487,1.3142459145548693,0.9668827277283425,0.2868446375,0.6851068405152225
0.042,1.7559,1.0,2734.9146967219185,0.3770840425164058,1.3137800220580016,0.9674356674904198,0.28680079999999997,0.686039852542347
0.0425,1.75484375,1.0,2734.175372289979,0.38057811352895204,1.3133097199067139,0.9679707488325731,0.2867564375,0.686980291492272
0.043000000000000003,1.753775,1.0,2733.3074633605597,0.384052586177938,1.3128349414583522,0.9684887261465523,0.28671155,0.6879282506465221
0.043500000000000004,1.75269375,1.0,2732.318366729218,0.3875075688002145,1.3123556200702629,0.9689903138106227,0.28666613750000003,0.6888838220998776
0.044,1.7516,1.0,2731.215482297266,0.3909431697326321,1.311871689099792,0.969476188707145,0.2866202,0.6898470967412077
0.0445,1.75049375,1.0,2730.006211492788,0.39435949731204156,1.3113830819042855,0.9699469925576677,0.2865737375,0.6908181642340211
0.045,1.7493750000000001,1.0,2728.697955789444,0.39775665987529363,1.3108897318410901,0.9704033340904287,0.28652675,0.6917971129967317
0.0455,1.74824375,1.0,2727.2981153240657,0.4011347657592389,1.3103915722675519,0.9708457910538123,0.2864792375,0.6927840301826439
0.046,1.7471,1.0,2725.814087612888,0.40449392330072814,1.309888536541017,0.9712749120881055,0.2864312,0.6937790016596519
0.0465,1.7459437500000001,1.0,2724.25178183339,0.40783423650060674,1.3093805715256603,0.9716912188744264,0.28638263750000004,0.6947820853394635
0.047,1.744775,1.0,2722.6172123392275,0.4111558100907337,1.3088676231000977,0.9720952073702338,0.28633355,0.6957933399250509
0.0475,1.74359375,1.0,2720.919350467688,0.4144587598263366,1.3083496101857552,0.9724873487835418,0.28628393750000003,0.6968128759511887
0.048,1.7424,1.0,2719.1620482600456,0.4177431870916545,1.3078264982461263,0.9728680929361184,0.2862338,0.6978407110252793
0.0485,1.74119375,1.0,2717.3491549272985,0.4210091932709263,1.307298252744704,0.9732378680936287,0.2861831375,0.6988768617986355
0.049,1.739975,1.0,2715.4845164443464,0.424256879748391,1.3067648391449813,0.9735970821935076,0.28613195,0.6999213439552097
0.0495,1.73874375,1.0,2713.571975171926,0.42748634790828755,1.306226222910452,0.9739461239920543,0.2860802375,0.7009741722002494
0.05,1.7375,1.0,2711.6153695045064,0.43069769913485495,1.3056823695046091,0.9742853641367415,0.286028,0.7020353602488763
0.0505,1.73624375,1.0,2709.6185335444857,0.43389103481233227,1.3051332443909462,0.974615156169249,0.2859752375,0.703104920814589
0.051000000000000004,1.734975,1.0,2707.5852968031763,0.4370664563249584,1.3045788130329565,0.974935837464277,0.28592195,0.7041828655976892
0.051500000000000004,1.73369375,1.0,2705.5194839280266,0.44022406505697237,1.304019040894133,0.9752477301087801,0.2858681375,0.7052692052736336
0.052000000000000005,1.7324,1.0,2703.4249144561977,0.4433639623926131,1.3034538934379694,0.9755511417258996,0.2858138,0.7063639494813059
0.0525,1.73109375,1.0,2701.303951275971,0.4464862368955996,1.3028833493885668,0.975846365735966,0.28575893750000003,0.707467081196312
0.053,1.729775,1.0,2699.1591788983483,0.4495909805390881,1.3023073854148324,0.9761336828783596,0.28570355000000003,0.7085785864912245
0.0535,1.72844375,1.0,2696.9969989197216,0.4526783269089787,1.3017259432475776,0.9764133637045727,0.2856476375,0.709698517765815
0.054,1.7271,1.0,2694.8190002172896,0.45574836898054916,1.3011390085527006,0.9766856655827787,0.2855912,0.7108268416068129
0.0545,1.7257437500000001,1.0,2692.6267693009504,0.4588011997290773,1.3005465669960983,0.9769508348447599,0.2855342375,0.7119635238101397
0.055,1.724375,1.0,2690.4218902671396,0.46183691212984074,1.2999486042436685,0.977209107349183,0.28547675,0.7131085293758772
0.0555,1.72299375,1.0,2688.2059447572815,0.46485559915811736,1.2993451059613088,0.9774607090115859,0.2854187375,0.7142618225032296
0.056,1.7216,1.0,2685.98051192051,0.4678573537891848,1.2987360578149165,0.9777058563033064,0.2853602,0.7154233665854683
0.0565,1.72019375,1.0,2683.7471683810695,0.47084226899832093,1.2981214454703895,0.9779447567214105,0.28530113749999997,0.7165931242048647
0.057,1.718775,1.0,2681.5074882107974,0.4738104377608034,1.297501254593625,0.9781776092315302,0.28524155,0.7177710571276119
0.0575,1.71734375,1.0,2679.263042904789,0.47676195305191,1.2968754708505206,0.978404604685375,0.2851814375,0.71895712629873
0.058,1.7159,1.0,2677.0154013632505,0.47969690784691843,1.2962440799069739,0.9786259262145626,0.2851208,0.7201512918369595
0.0585,1.71444375,1.0,2674.7661298768317,0.48261539512110657,1.2956070674288824,0.9788417496022838,0.2850596375,0.7213535130296433
0.059000000000000004,1.7129750000000001,1.0,2672.516792116937,0.485517507849752,1.2949644190821437,0.9790522436342182,0.28499795,0.7225637483275942
0.059500000000000004,1.71149375,1.0,2670.268949130459,0.4884033390081326,1.2943161205326552,0.9792575704300129,0.2849357375,0.7237819553399476
0.06,1.71,1.0,2668.0241593390433,0.4912729815715261,1.2936621574463147,0.9794578857565409,0.284873,0.7250080908290046
0.0605,1.7084937500000001,1.0,2665.7839785431906,0.4941265285152102,1.2930025154890192,0.9796533393240779,0.2848097375,0.7262421107050607
0.061,1.7069750000000001,1.0,2663.5499599303394,0.4969640728144627,1.292337180326667,0.9798440750664481,0.28474595,0.7274839700212175
0.0615,1.7054437500000001,1.0,2661.3203506950654,0.49978567167789073,1.291666168033929,0.9800302302208728,0.2846816375,0.7287335664043493
0.062,1.7039,1.0,2659.0969014798397,0.5025914396901299,1.2909894624486642,0.9802119395951043,0.2846168,0.7299908569637674
0.0625,1.70234375,1.0,2656.8821945207983,0.5053814906026527,1.290307039720334,0.9803893324159797,0.2845514375,0.7312558121454605
0.063,1.7007750000000001,1.0,2654.67641698871,0.5081559077933104,1.289618898033796,0.9805625319044788,0.28448555,0.7325283606558983
0.0635,1.69919375,1.0,2652.4797557628767,0.5109147746399544,1.288925035573907,0.9807316567190475,0.28441913750000003,0.733808430544058
0.064,1.6976,1.0,2650.2923974336804,0.5136581745204356,1.2882254505255246,0.9808968211564774,0.2843522,0.73509594920076
0.0645,1.69599375,1.0,2648.1145283064116,0.5163861908126055,1.287520141073506,0.9810581353425142,0.2842847375,0.7363908433580078
0.065,1.694375,1.0,2645.9463344039023,0.5190989068943153,1.2868091054027082,0.9812157054127879,0.28421675,0.7376930390883234
0.0655,1.69274375,1.0,2643.7880014697503,0.5217964061434159,1.2860923416979886,0.9813696336846205,0.2841482375,0.739002461804086
0.066,1.6911,1.0,2641.6397149718487,0.524478771937759,1.2853698481442044,0.981520018820237,0.2840792,0.7403190362568677
0.0665,1.6894437500000001,1.0,2639.5016601058483,0.5271460876551957,1.284641622926213,0.9816669559818652,0.2840096375,0.7416426865367716
0.067,1.687775,1.0,2637.37402179793,0.5297984366735771,1.2839076642288711,0.9818105369791804,0.28393955,0.7429733360717684
0.0675,1.68609375,1.0,2635.2569847093177,0.5324359023707543,1.2831679702370367,0.9819508504095275,0.2838689375,0.7443109076270304
0.068,1.6844000000000001,1.0,2633.150733239101,0.535058568124579,1.2824225391355664,0.9820879817913184,0.2837978,0.7456553233042713
0.0685,1.68269375,1.0,2631.055451528119,0.5376665173129019,1.2816713691093178,0.9822220136909848,0.2837261375,0.7470065045410793
0.069,1.680975,1.0,2628.971323462862,0.5402598333135746,1.280914458343148,0.9823530258438365,0.28365395,0.7483643721102544
0.0695,1.67924375,1.0,2626.898532679087,0.5428385995044482,1.280151805021914,0.9824810952691604,0.28358123749999997,0.7497288461191437
0.07,1.6775,1.0,2624.837262565765,0.5454028992633739,1.2793834073304735,0.9826062963798691,0.283508,0.7510998460089755
0.07050000000000001,1.67574375,1.0,2622.7876962690684,0.547952815968203,1.2786092634536834,0.982728701086996,0.2834342375,0.7524772905541965
0.07100000000000001,1.673975,1.0,2620.750016696243,0.5504884329967867,1.2778293715764013,0.9828483788993063,0.28335995,0.7538610978618047
0.07150000000000001,1.67219375,1.0,2618.724692579942,0.5530098289140034,1.2770437272288815,0.9829653966070193,0.2832851375,0.7552511900609985
0.07200000000000001,1.6704,1.0,2616.7153200040857,0.5555170355208756,1.2762522969025547,0.9830798146949151,0.2832098,0.7566475397195879
0.0725,1.66859375,1.0,2614.7178479581926,0.5580102024181176,1.275455118056867,0.9831917018306704,0.2831339375,0.7580499934192522
0.073,1.6667750000000001,1.0,2612.73214492928,0.5604894036118719,1.2746521917951827,0.9833011183787088,0.28305755,0.7594584615500707
0.0735,1.66494375,1.0,2610.7580796545835,0.562954713108281,1.273843519220868,0.9834081227560725,0.2829806375,0.7608728538926344
0.074,1.6631,1.0,2608.795521119451,0.5654062049134871,1.2730291014372874,0.983512771506419,0.2829032,0.7622930796184548
0.0745,1.6612437500000001,1.0,2606.8443385548217,0.5678439530336329,1.2722089395478067,0.9836151193707373,0.2828252375,0.7637190472903652
0.075,1.659375,1.0,2604.904401434981,0.5702680314748605,1.2713830346557906,0.9837152193549427,0.28274675,0.7651506648629272
0.0755,1.65749375,1.0,2602.9755794747684,0.5726785142433125,1.2705513878646046,0.9838131227945126,0.2826677375,0.7665878396828325
