Time [s],Phi [rad],STIM [ ],Fsee [N],Gamma [ ],Lcerel [ ],q [ ],Lmtc [m],fisomrel [ ]
0.0,1.8,1.0,17.967757160628295,1.0000176761725099e-05,1.3793396791130268,0.005000026652706573,0.288653,0.5411396934005926
0.0005,1.79999375,1.0,18.277033748346746,0.005619153392472791,1.3793023556204556,0.012940513796685923,0.2886527375,0.5412299841223644
0.001,1.799975,1.0,21.618620414849357,0.011196843693566407,1.378938277718034,0.035608575299155794,0.28865195,0.5421102732145735
0.0015,1.79994375,1.0,31.069379760009777,0.016743247562976907,1.3780461914814943,0.07060170259584428,0.2886506375,0.5442636387319431
0.002,1.7999,1.0,53.58227348040282,0.02225854049198962,1.3763681391059925,0.11471783338916983,0.2886488,0.5483004587560341
0.0025,1.79984375,1.0,97.11844275521906,0.02774289698780011,1.3739351911072204,0.16457467089642103,0.28864643749999996,0.5541214057768067
0.003,1.7997750000000001,1.0,160.95750570480453,0.03319649058123543,1.3712143685025007,0.21728022500898359,0.28864354999999997,0.5605863922745206
0.0035,1.79969375,1.0,237.6825688878213,0.03861949382634269,1.368584757724969,0.2706126606753955,0.2886401375,0.5667897843521235
0.004,1.7996,1.0,321.46596640489986,0.04401207831117203,1.3661561137158063,0.3229155811233018,0.2886362,0.5724799119532449
0.0045000000000000005,1.7994937500000001,1.0,409.2669420041006,0.049374414662960886,1.3639228331518585,0.3730342985413905,0.2886317375,0.5776791183377699
0.005,1.799375,1.0,499.4126880475924,0.054706672539221325,1.3618583596893061,0.420247265828695,0.28862675,0.5824570392951682
0.0055,1.79924375,1.0,590.7896095634677,0.060009020675229216,1.359938850816048,0.4641735185346774,0.2886212375,0.5868750754885932
0.006,1.7991000000000001,1.0,682.5173075500721,0.06528162682712549,1.3581464293034147,0.5046797979003905,0.2886152,0.5909793851314229
0.006500000000000001,1.79894375,1.0,773.8805490775113,0.07052465782756942,1.3564672657166787,0.5418006104578376,0.2886086375,0.5948057668127384
0.007,1.798775,1.0,864.2850650260597,0.07573827956932074,1.354890407049531,0.5756766462411789,0.28860155,0.5983826498221246
0.0075,1.79859375,1.0,953.2425729765275,0.08092265701497899,1.353406789072447,0.6065097938710333,0.2885939375,0.6017335505022414
0.008,1.7984,1.0,1040.343645966045,0.08607795377499838,1.352008864372549,0.6345320721428241,0.2885858,0.6048780593212641
0.0085,1.79819375,1.0,1125.3136073766816,0.09120433399222355,1.3506892502773589,0.6599843381845428,0.2885771375,0.607834980037959
0.009000000000000001,1.797975,1.0,1207.9000007471313,0.09630195961908031,1.3494420375077978,0.683104104299742,0.28856795,0.6106194592550984
0.0095,1.79774375,1.0,1287.8926534940904,0.10137099114374543,1.348262117878179,0.7041173936832807,0.2885582375,0.6132445703157057
0.01,1.7975,1.0,1365.167210822455,0.10641158905439575,1.3471443832028158,0.7232341530814042,0.288548,0.6157231416158693
0.0105,1.79724375,1.0,1439.6583693889843,0.11142391333679622,1.3460839605278083,0.7406466004456285,0.2885372375,0.618067258499319
0.011,1.796975,1.0,1511.3209785741224,0.11640812277824994,1.3450765687365753,0.756529074893418,0.28852595000000003,0.6202875054495907
0.0115,1.79669375,1.0,1580.1202520673296,0.1213643745566662,1.3441184921427805,0.7710385589077621,0.2885141375,0.6223930592008264
0.012,1.7964,1.0,1646.057268611285,0.1262928253404335,1.343206161939606,0.7843155382699474,0.28850180000000003,0.6243926352253983
0.0125,1.79609375,1.0,1709.1738259263982,0.13119363184939659,1.3423360365024788,0.7964852815519433,0.2884889375,0.6262947643870329
0.013000000000000001,1.7957750000000001,1.0,1769.506161633713,0.13606694901635735,1.3415050771866572,0.8076594532550344,0.28847555,0.628106767397115
0.0135,1.79544375,1.0,1827.090662105474,0.14091293033841595,1.3407106047023825,0.8179374324292863,0.2884616375,0.6298350887861508
0.014,1.7951000000000001,1.0,1881.9913604688272,0.14573172931267253,1.339949939759896,0.8274075014035385,0.2884472,0.6314860920192702
0.0145,1.79474375,1.0,1934.2803640453885,0.1505234982902442,1.3392205882408754,0.8361481591572334,0.2884322375,0.6330656649027884
0.015,1.794375,1.0,1984.0547119761466,0.15528839031364522,1.338520025644914,0.8442291738170038,0.28841675,0.6345796946344606
0.0155,1.79399375,1.0,2031.3740437269323,0.16002655497195886,1.3378463348092169,0.8517128095910173,0.2884007375,0.6360326978825847
0.016,1.7936,1.0,2076.3118246474,0.1647381417246948,1.337197619608616,0.8586545179931773,0.2883842,0.6374290986297295
0.0165,1.7931937500000001,1.0,2118.955940662727,0.1694233000313627,1.3365719839179433,0.8651037388495625,0.2883671375,0.6387732769181751
0.017,1.792775,1.0,2159.3898959020275,0.17408217772294696,1.3359677110110577,0.8711046636157693,0.28834955,0.6400691873660409
0.0175,1.7923437500000001,1.0,2197.7203248354895,0.17871492430706742,1.3353829651804905,0.8766967721959593,0.2883314375,0.6413210034016005
0.018000000000000002,1.7919,1.0,2234.0143693734826,0.1833216849197416,1.3348164157742137,0.8819155521221302,0.2883128,0.6425317848472859
0.0185,1.79144375,1.0,2268.3465469646626,0.1879026046170309,1.3342667408227469,0.886792831169148,0.2882936375,0.6437045471292684
0.019,1.790975,1.0,2300.7989128002396,0.19245782845499687,1.3337326183566094,0.8913571990164755,0.28827395,0.6448422813929902
0.0195,1.79049375,1.0,2331.452376031131,0.19698750043023366,1.333212805510143,0.8956343971589805,0.2882537375,0.6459477877680471
0.02,1.79,1.0,2360.3957601435836,0.20149176542461536,1.3327060416441592,0.8996476201849949,0.288233,0.6470238834613362
0.0205,1.78949375,1.0,2387.7057983255213,0.20597076629911945,1.332211238092004,0.9034178428578701,0.2882117375,0.6480730015477612
0.021,1.788975,1.0,2413.444957658909,0.21042464334791855,1.3317274897074585,0.9069640668027278,0.28818995000000003,0.6490971701925639
0.021500000000000002,1.78844375,1.0,2437.679631793604,0.21485353686518538,1.3312538913443042,0.9103034977126084,0.2881676375,0.6500984039198212
0.022,1.7879,1.0,2460.4798148800833,0.2192575871450925,1.3307895378563224,0.9134517398479559,0.2881448,0.651078704224492
0.0225,1.78734375,1.0,2481.914258557152,0.2236369336355591,1.3303335673269328,0.9164229753753659,0.28812143749999997,0.6520399690595114
0.023,1.786775,1.0,2502.0500497417443,0.22799171544050262,1.3298851614549578,0.9192301145074643,0.28809755,0.6529839931499886
0.0235,1.78619375,1.0,2520.960138063708,0.23232207259011517,1.3294434710821283,0.9218849142848152,0.28807313749999996,0.6539126255145372
0.024,1.7856,1.0,2538.6942895769407,0.2366281402453103,1.3290078883057224,0.9243981438460518,0.2880482,0.6548271984458205
0.0245,1.78499375,1.0,2555.3041242804106,0.2409100535670015,1.3285778052230182,0.9267796427267295,0.2880227375,0.6557290367181898
0.025,1.784375,1.0,2570.8429618102678,0.24516794771610234,1.3281526139312934,0.9290384138548134,0.28799675,0.6566194578126898
0.025500000000000002,1.78374375,1.0,2585.365675324525,0.2494019578535264,1.3277317065278265,0.9311827061125202,0.2879702375,0.6574997721184905
0.026000000000000002,1.7831000000000001,1.0,2598.9224388138805,0.2536122176806437,1.327314532069955,0.9332200963758198,0.2879432,0.65837116420863
0.0265,1.78244375,1.0,2611.56423411944,0.25779886153661397,1.3269005435045362,0.9351575462888895,0.2879156375,0.6592348043891545
0.027,1.781775,1.0,2623.3472972195623,0.26196202435520516,1.3264891553686442,0.9370014539008582,0.28788755,0.6600919369472873
0.0275,1.7810937500000001,1.0,2634.3084725031445,0.26610183581505015,1.3260799712611988,0.9387577384774107,0.2878589375,0.6609434067037493
0.028,1.7804,1.0,2644.485385204878,0.2702184255947817,1.3256725947811194,0.9404318581613305,0.2878298,0.6617900542363928
0.0285,1.77969375,1.0,2653.916374162292,0.2743119233730327,1.3252666295273259,0.942028851945391,0.2878001375,0.66263271593091
0.029,1.778975,1.0,2662.640428056422,0.2783824588284359,1.3248616790987378,0.9435533773186543,0.28776995,0.6634722240215203
0.029500000000000002,1.7782437500000001,1.0,2670.697125136511,0.2824301616396241,1.3244573470942749,0.945009744079243,0.2877392375,0.6643094066216366
0.03,1.7775,1.0,2678.120030789831,0.28645515871229016,1.3240532971782237,0.9464019518083071,0.287708,0.6651449636094446
0.0305,1.77674375,1.0,2684.9500296675583,0.29045758085481194,1.3236491300240998,0.947733702683915,0.2876762375,0.6659797214114903
0.031,1.775975,1.0,2691.217797219658,0.29443755443822633,1.3232445437447806,0.9490084447041967,0.28764395,0.666814301464377
0.0315,1.7751937500000001,1.0,2696.949478476274,0.29839520367410055,1.3228392810131684,0.9502293869706098,0.2876111375,0.6676492303408816
0.032,1.7744,1.0,2702.17150817079,0.3023306527740017,1.3224330845021648,0.9513995146586454,0.2875778,0.6684850319464919
0.0325,1.77359375,1.0,2706.910583126069,0.30624402594949673,1.3220256968846718,0.9525216073858802,0.2875439375,0.6693222275061911
0.033,1.772775,1.0,2711.1936361080793,0.3101354474121528,1.3216168608335912,0.9535982558619251,0.28750955,0.6701613355470231
0.0335,1.7719437500000002,1.0,2715.047811148496,0.314005041373537,1.3212063190218248,0.9546318769993379,0.2874746375,0.671002871876434
0.034,1.7711000000000001,1.0,2718.494134941693,0.31785292283394456,1.3207938715517822,0.9556247316376288,0.2874392,0.6718472320625596
0.0345,1.7702437500000001,1.0,2721.568416278032,0.3216792277152609,1.3203791853507525,0.9565789235802434,0.2874032375,0.6726950816134827
0.035,1.7693750000000001,1.0,2724.2876356529987,0.32548407404390134,1.3199621001540045,0.9574964348730437,0.28736675,0.6735467297992308
0.035500000000000004,1.76849375,1.0,2726.6687306224053,0.32926757967241654,1.3195424570661123,0.9583791212074624,0.2873297375,0.6744024812887494
0.036000000000000004,1.7676,1.0,2728.7287348914247,0.33302986245335714,1.31912009719165,0.9592287213306451,0.2872922,0.6752626389298212
0.0365,1.76669375,1.0,2730.48476771857,0.33677104023927373,1.318694861635192,0.9600468657442968,0.2872541375,0.6761275037223402
0.037,1.765775,1.0,2731.954023878606,0.34049123088271716,1.3182665915013123,0.9608350846622966,0.28721555,0.6769973747899771
0.0375,1.76484375,1.0,2733.1537641862888,0.3441905522362379,1.3178351278945857,0.9615948152978077,0.2871764375,0.6778725493502308
0.038,1.7639,1.0,2734.1013065787047,0.34786912215238674,1.317400311919586,0.9623274085431698,0.28713679999999997,0.6787533226828746
0.0385,1.76294375,1.0,2734.8140177584423,0.35152705848371424,1.3169619846808878,0.9630341350992907,0.28709663750000003,0.6796399880967878
0.039,1.761975,1.0,2735.301698508242,0.35516446953656744,1.3165200563533812,0.9637161956395501,0.28705595,0.6805326974682793
0.0395,1.7609937500000001,1.0,2735.582618048736,0.35878147831192897,1.3160743605145413,0.9643747170366513,0.2870147375,0.6814317558205478
0.04,1.76,1.0,2735.6748850496942,0.3623782072574634,1.3156247324597719,0.965010761540927,0.286973,0.6823374625628107
0.0405,1.7589937500000001,1.0,2735.5876070533755,0.36595476663199694,1.3151710894103872,0.9656253361411514,0.2869307375,0.6832499502546867
0.041,1.757975,1.0,2735.329909309786,0.36951126669435574,1.314713348587702,0.9662193913548311,0.28688795,0.6841693501936082
0.0415,1.75694375,1.0,2734.910931860418,0.3730478177033659,1.314251427213031,0.9667938249796068,0.2868446375,0.6850957923934091
0.042,1.7559,1.0,2734.339826774709,0.3765645299178537,1.3137852425076886,0.9673494855580453,0.28680079999999997,0.6860294055624716
0.0425,1.75484375,1.0,2733.6257555379348,0.3800615135966452,1.3133147116929895,0.9678871755804462,0.2867564375,0.6869703170814376
0.043000000000000003,1.753775,1.0,2732.777886590433,0.3835388789985666,1.3128397519902484,0.9684076544479379,0.28671155,0.6879186529804844
0.043500000000000004,1.75269375,1.0,2731.805393020333,0.38699673638244403,1.3123602806207797,0.9689116412160518,0.28666613750000003,0.68887453791616
0.044,1.7516,1.0,2730.7174504063723,0.3904351960071036,1.3118762148058982,0.969399817137079,0.2866202,0.6898380951477846
0.0445,1.75049375,1.0,2729.5232348141462,0.3938543681313716,1.3113874717669185,0.9698728280178196,0.2865737375,0.6908094465134138
0.045,1.7493750000000001,1.0,2728.2319209434027,0.39725436301407413,1.3108939687251553,0.9703312864078283,0.28652675,0.6917887124053641
0.0455,1.74824375,1.0,2726.849813108744,0.4006352891102455,1.3103956489774222,0.9707757753476262,0.2864792375,0.692775960127184
0.046,1.7471,1.0,2725.3817313751333,0.4039972514361172,1.3098924693079872,0.971206848985539,0.2864312,0.693771229165173
0.0465,1.7459437500000001,1.0,2723.835149610999,0.407340355713944,1.309384362346131,0.9716250321174138,0.28638263750000004,0.6947746056622384
0.047,1.744775,1.0,2722.217299033408,0.410664707594823,1.3088712628864152,0.9720308237431938,0.28633355,0.6957861701624712
0.0475,1.74359375,1.0,2720.5035398321475,0.4139704106262223,1.308353395846834,0.9724247189103143,0.28628393750000003,0.6968054313447885
0.048,1.7424,1.0,2718.757936479663,0.4172575730092653,1.3078301785822175,0.9728071321882247,0.2862338,0.6978334858228319
0.0485,1.74119375,1.0,2716.9776386126837,0.4205262986519334,1.3073016373450188,0.9731785002552154,0.2861831375,0.6988702285875974
0.049,1.7399801127035084,1.0,2715.381479142551,0.4237766895183038,1.306768087100759,0.9735392586205363,0.28613216473354736,0.6999149895935624
0.0495,1.7387664183475728,1.0,2714.2979150047477,0.4270088475724536,1.3062298428149595,0.9738898222063194,0.286081189570598,0.7009671025813942
0.05,1.7375527239916373,1.0,2713.69491556021,0.4302228747784599,1.3056872194531413,0.974230586516143,0.28603021440764875,0.7020259051754052
0.0505,1.7363390296357017,1.0,2713.5377709525983,0.4334188731003999,1.305140531980826,0.9745619287273323,0.2859792392446995,0.7030907389746763
0.051000000000000004,1.735125335279766,1.0,2713.7918910851517,0.43659694450235065,1.304590095363535,0.9748842087125892,0.28592826408175015,0.7041609496378592
0.051500000000000004,1.7339116409238304,1.0,2714.4299208369216,0.4397571880245635,1.3040361594641785,0.9751977654645207,0.2858772889188009,0.7052360131960225
0.052000000000000005,1.7326979465678949,1.0,2715.406960949997,0.4428997074280694,1.3034791346896575,0.9755029335144108,0.2858263137558516,0.7063150982398494
0.0525,1.7314842522119593,1.0,2716.6986503550734,0.4460246010391881,1.3029192446603561,0.9758000200978242,0.2857753385929023,0.7073977398418345
0.053,1.7302705578560236,1.0,2718.2830992452473,0.4491319664424467,1.302356690799169,0.9760893174510249,0.285724363429953,0.7084835189061724
0.0535,1.729056863500088,1.0,2720.138441697545,0.452221901222372,1.3017916745289908,0.9763711050607581,0.2856733882670037,0.7095720190847822
0.054,1.7278431691441525,1.0,2722.2428242267106,0.4552945029634911,1.301224397272716,0.976645650334502,0.2856224131040544,0.7106628268102326
0.0545,1.726629474788217,1.0,2724.5743952383805,0.45834986925033094,1.3006550604532388,0.976913209230091,0.2855714379411051,0.7117555313260822
0.055,1.7254157804322812,1.0,2727.1118349252592,0.4613880973440501,1.3000838605870548,0.9771740265229074,0.2855204627781558,0.7128497341044931
0.0555,1.7242020860763456,1.0,2729.8447852516106,0.46440927875588034,1.299510894418265,0.9774283302529075,0.2854694876152065,0.7139452299897033
0.056,1.72298839172041,1.0,2732.7417930638985,0.4674135189166082,1.2989364503254093,0.9776763514956889,0.28541851245225724,0.7150414498304978
0.0565,1.7217746973644745,1.0,2735.792521798092,0.47040091045890436,1.298360624505197,0.9779182994623944,0.2853675372893079,0.7161381943395051
0.057,1.7205610030085388,1.0,2738.9866245622434,0.47337154601543974,1.2977835131543376,0.9781543748182407,0.28531656212635864,0.7172352656041469
0.0575,1.7193473086526032,1.0,2742.3137412920255,0.47632551821888497,1.29720521246954,0.9783847701031985,0.2852655869634093,0.7183324670948203
0.058,1.7181336142966677,1.0,2745.763496111437,0.479262919701911,1.2966258186475135,0.9786096701287363,0.28521461180046004,0.7194296036724888
0.0585,1.716919919940732,1.0,2749.325494898909,0.4821838430971884,1.296045427884967,0.9788292523521692,0.28516363663751076,0.7205264815956851
0.059000000000000004,1.7157062255847964,1.0,2752.9893230581242,0.4850883810373881,1.29546413637861,0.9790436872300406,0.28511266147456144,0.7216229085269203
0.059500000000000004,1.7144925312288608,1.0,2756.7445434947617,0.48797662615518084,1.2948820403251515,0.979253138551873,0.28506168631161216,0.7227186935385067
0.06,1.7132788368729253,1.0,2760.580694797425,0.4908486710832373,1.294299235921301,0.9794577637555135,0.28501071114866283,0.7238136471177883
0.0605,1.7120651425169897,1.0,2764.4952316060444,0.49370459851212384,1.2937157476324805,0.9796577095768468,0.28495973598571356,0.7249077155379242
0.061,1.710851448161054,1.0,2768.472908254029,0.49654451159513635,1.2931317145090282,0.9798531248807527,0.2849087608227643,0.7260006312149158
0.0615,1.7096377538051184,1.0,2772.5073608847697,0.49936850047414366,1.2925471951193352,0.9800441476332599,0.28485778565981495,0.7270922787876581
0.062,1.7084240594491829,1.0,2776.5945658664145,0.5021766519860112,1.2919622267861905,0.9802309092636873,0.2848068104968657,0.7281825833228606
0.0625,1.707210365093247,1.0,2780.730488788078,0.5049690529676045,1.2913768468323825,0.9804135363163269,0.28475583533391635,0.7292714704401093
0.063,1.7059966707373115,1.0,2784.911084104313,0.5077457902557889,1.2907910925807002,0.9805921506696171,0.2847048601709671,0.730358866312891
0.0635,1.704782976381376,1.0,2789.1322948093357,0.5105069506874298,1.2902050013539321,0.9807668697439192,0.2846538850080178,0.7314446976695288
0.064,1.7035692820254404,1.0,2793.3900521430055,0.5132526210993926,1.2896186104748673,0.9809378066985716,0.28460290984506853,0.7325288917940278
0.0645,1.7023555876695047,1.0,2797.680275327549,0.5159828883285429,1.2890319572662938,0.9811050706188463,0.2845519346821192,0.7336113765268345
0.065,1.7011418933135691,1.0,2801.9988713348434,0.518697839211746,1.2884450790510011,0.9812687666933994,0.28450095951916987,0.7346920802655028
0.0655,1.6999281989576336,1.0,2806.3417346849747,0.5213975605858672,1.2878580131517774,0.9814289963827597,0.2844499843562206,0.7357709319652779
0.066,1.698714504601698,1.0,2810.704747275093,0.5240821392877721,1.2872707968914117,0.9815858575793732,0.2843990091932713,0.7368478611395832
0.0665,1.6975008102457623,1.0,2815.086911570168,0.526751650288677,1.2866834395481888,0.9817394425953787,0.284348034030322,0.7379228491352678
0.067,1.6962871158898267,1.0,2819.484495209777,0.5294061848503517,1.286095974831381,0.9818898428209071,0.2842970588673727,0.7389958328612304
0.0675,1.6950734215338912,1.0,2823.8921366632394,0.5320458402567917,1.2855084509049366,0.9820371475872484,0.28424608370442345,0.7400667234115543
0.068,1.6938597271779556,1.0,2828.30862901916,0.5346706966566023,1.2849208786844626,0.9821814402868979,0.2841951085414741,0.7411355002859494
0.0685,1.6926460328220199,1.0,2832.732761565177,0.5372808341983891,1.284333269085565,0.9823228014922588,0.28414413337852484,0.7422021431476902
0.069,1.6914323384660843,1.0,2837.1633197771926,0.5398763330307579,1.283745633023851,0.9824613090709398,0.28409315821557557,0.7432666318236418
0.0695,1.6902186441101488,1.0,2841.59908531205,0.542457273302314,1.2831579814149268,0.982597038295581,0.28404218305262624,0.7443289463042857
0.07,1.6890049497542132,1.0,2846.038836002383,0.545023735161663,1.282570325174399,0.9827300619485001,0.28399120788967697,0.7453890667437323
0.07050000000000001,1.6877912553982775,1.0,2850.481345853905,0.5475757987574106,1.2819826752178745,0.9828604504214379,0.28394023272672764,0.7464469734597281
0.07100000000000001,1.686577561042342,1.0,2854.925385046079,0.5501135442381622,1.2813950424609597,0.9829882718106646,0.28388925756377836,0.7475026469336565
0.07150000000000001,1.6853638666864064,1.0,2859.369719934423,0.5526370517525233,1.2808074378192613,0.9831135920076913,0.2838382824008291,0.7485560678105283
0.07200000000000001,1.6841501723304706,1.0,2863.813113056395,0.5551464014490997,1.280219872208386,0.9832364747858192,0.28378730723787976,0.7496072168989664
0.0725,1.682936477974535,1.0,2868.254323139521,0.5576416734764966,1.27963235654394,0.9833569818827421,0.2837363320749305,0.7506560751711824
