Time [s],Phi [rad],STIM [ ],Fsee [N],Gamma [ ],Lcerel [ ],q [ ],Lmtc [m],fisomrel [ ]
0.0,1.8,1.0,18.041277342339832,0.00027977427320892043,1.3793314509396253,0.005020319198240897,0.288653,0.5411595992603273
0.0005,1.79999375,1.0,18.437988113578918,0.005887414269628471,1.3792845160545124,0.013706415211933106,0.2886527375,0.5412731373765762
0.001,1.799975,1.0,21.979976839114265,0.011463599839328919,1.3789015236320414,0.037028223190020186,0.28865195,0.5421990924404259
0.0015,1.79994375,1.0,31.865396184520826,0.0170085074177666,1.3779788026781041,0.07253594433677985,0.2886506375,0.544426099253912
0.002,1.7999,1.0,55.24206012094451,0.022522312448531555,1.3762612817899218,0.11700278060873694,0.2886488,0.5485569127098376
0.0025,1.79984375,1.0,99.8617487472653,0.028005189392387345,1.3738039179651542,0.16705682757997242,0.28864643749999996,0.5544344098019778
0.003,1.7997750000000001,1.0,164.49688287938315,0.03345731173277266,1.371082606381729,0.21983858485725993,0.28864354999999997,0.5608982756407614
0.0035,1.79969375,1.0,241.66506729184627,0.03887885197730987,1.3684625956393668,0.2731555933068577,0.2886401375,0.5670768992815705
0.004,1.7996,1.0,325.6932620710951,0.04426998166790955,1.3660445143459585,0.325376671564171,0.2886362,0.5727404767768858
0.0045000000000000005,1.7994937500000001,1.0,413.63791858267405,0.04963087138619189,1.3638205020682181,0.37536971071996067,0.2886317375,0.5779165888865743
0.005,1.799375,1.0,503.86751917193214,0.05496169074525138,1.3617639049901271,0.4224316755996314,0.28862675,0.5826749905812956
0.0055,1.79924375,1.0,595.2800936597364,0.06026260842738237,1.359851283667014,0.46619558547735973,0.2886212375,0.5870760639132724
0.006,1.7991000000000001,1.0,687.0091209032812,0.06553379215249441,1.358064913943015,0.5065378458553006,0.2886152,0.5911655529431801
0.006500000000000001,1.79894375,1.0,778.3414413980852,0.07077540868257458,1.3563912247466323,0.5434993742174723,0.2886086375,0.5949786190165671
0.007,1.798775,1.0,868.6918272260581,0.07598762394949296,1.3548193141943279,0.5772246605319786,0.28860155,0.5985435404166672
0.0075,1.79859375,1.0,957.5684731495495,0.08117060268513761,1.353340327551502,0.6079177314982346,0.2885939375,0.6018833320337926
0.008,1.7984,1.0,1044.5972568764385,0.08632450917307397,1.3519463019599138,0.635811173613499,0.2885858,0.6050184966095062
0.0085,1.79819375,1.0,1129.4573983636114,0.09144950627683214,1.3506306433193525,0.6611463601910146,0.2885771375,0.6079660458082177
0.009000000000000001,1.797975,1.0,1211.9044417114064,0.0965457559765357,1.3493873668517893,0.6841603128896026,0.28856795,0.6107412878965983
0.0095,1.79774375,1.0,1291.7764819886477,0.1016134200316444,1.3482107631376985,0.7050780232807446,0.2885582375,0.6133586238362935
0.01,1.7975,1.0,1368.9383184502371,0.10665265856904567,1.3470959477047508,0.7241087459955114,0.288548,0.6158303669864187
0.0105,1.79724375,1.0,1443.2994434053642,0.11166363068999338,1.3460384184515375,0.7414440182070616,0.2885372375,0.6181677709042048
0.011,1.796975,1.0,1514.8136333169875,0.11664649490634177,1.345033929051987,0.7572573217232799,0.28852595000000003,0.6203813386573609
0.0115,1.79669375,1.0,1583.4868885969292,0.12160140994236958,1.3440782938697884,0.7717045965959582,0.2885141375,0.6224812745142078
0.012,1.7964,1.0,1649.3075985553676,0.12652853182352752,1.3431681361602446,0.7849256659980004,0.28850180000000003,0.62447586200352
0.0125,1.79609375,1.0,1712.28917262976,0.13142801599865434,1.342300267824986,0.7970452552951244,0.2884889375,0.6263728528282616
0.013000000000000001,1.7957750000000001,1.0,1772.4780974722023,0.13630001768012429,1.3414715406253526,0.8081743464571599,0.28847555,0.6281798053027685
0.0135,1.79544375,1.0,1829.9392625052787,0.1411446915838498,1.3406789695680683,0.8184116361934091,0.2884616375,0.6299038255549719
0.014,1.7951000000000001,1.0,1884.734497330484,0.14596219123269905,1.339919922719194,0.827844934637213,0.2884472,0.6315511675337282
0.0145,1.79474375,1.0,1936.9185294595204,0.1507526681796058,1.3391921120640449,0.8365523769487677,0.2884322375,0.6331272675814172
0.015,1.794375,1.0,1986.5670234610238,0.15551627397750392,1.338493249587935,0.8446034163232133,0.28841675,0.6346374999470663
0.0155,1.79399375,1.0,2033.7591115232296,0.1602531590992869,1.3378212121425972,0.8520598939018654,0.2884007375,0.63608682597738
0.016,1.7936,1.0,2078.5970696935938,0.16496347525468652,1.3371738098816177,0.8589768644728658,0.2883842,0.6374802995214117
0.0165,1.7931937500000001,1.0,2121.1537125950485,0.16964737069389016,1.3365493167913978,0.8654035574094042,0.2883671375,0.6388219303802405
0.017,1.792775,1.0,2161.5015026883857,0.17430499267412342,1.3359461371060328,0.8713839637064186,0.28834955,0.6401154112357609
0.0175,1.7923437500000001,1.0,2199.7237928423992,0.17893648845261184,1.3353626750596186,0.8769574171901389,0.2883314375,0.6413644010741604
0.018000000000000002,1.7919,1.0,2235.9104944339906,0.1835420048874404,1.334797369095661,0.8821591509208149,0.2883128,0.6425724542303055
0.0185,1.79144375,1.0,2270.148768850897,0.18812168805475632,1.3342487746861151,0.8870207967801041,0.2882936375,0.6437428463674446
0.019,1.790975,1.0,2302.529113452531,0.19267568426781134,1.3337154920823941,0.89157078338019,0.28827395,0.6448787319649412
0.0195,1.79049375,1.0,2333.117313429564,0.19720413613350865,1.333196433782976,0.8958347644116925,0.2882537375,0.6459825781706214
0.02,1.79,1.0,2361.9847883470343,0.20170718625875142,1.3326905122863388,0.8998358593537178,0.288233,0.6470568336564204
0.0205,1.78949375,1.0,2389.2081261712,0.20618497725044282,1.3321966400909606,0.9035949379274797,0.2882117375,0.6481039295672091
0.021,1.788975,1.0,2414.8632514318674,0.2106376506973067,1.331713781802514,0.9071308803824908,0.28818995000000003,0.649126170160313
0.021500000000000002,1.78844375,1.0,2439.027320102185,0.2150653486877406,1.3312409306427173,0.9104607911695591,0.2881676375,0.6501257840144979
0.022,1.7879,1.0,2461.77310515468,0.2194682125680651,1.3307771579765013,0.9136002001303468,0.2881448,0.6511048206664181
0.0225,1.78734375,1.0,2483.157658494465,0.22384637997264684,1.3303217164510766,0.9165632487308449,0.28812143749999997,0.6520649350791281
0.023,1.786775,1.0,2503.240732500664,0.2281999885358525,1.3298738587136538,0.9193628022228925,0.28809755,0.6530077721216976
0.0235,1.78619375,1.0,2522.0845546321657,0.23252917589204863,1.329432837411444,0.9220105824749518,0.28807313749999996,0.6539349669484859
0.024,1.7856,1.0,2539.7536144164183,0.23683407967560194,1.328997905191657,0.9245172853908011,0.2880482,0.6548481453427982
0.0245,1.78499375,1.0,2556.301609373774,0.2411148345277203,1.3285684354273986,0.9268927047002551,0.2880227375,0.6557486710484421
0.025,1.784375,1.0,2571.7963732520343,0.24537158018014318,1.3281436852010202,0.9291457847147473,0.28799675,0.6566381436948143
0.025500000000000002,1.78374375,1.0,2586.2865832236157,0.2496044507283944,1.3277231064195694,0.9312847514856306,0.2879702375,0.6575177471897564
0.026000000000000002,1.7831000000000001,1.0,2599.8150129264322,0.25381357831464957,1.3273062183053892,0.933317162651595,0.2879432,0.6583885186818397
0.0265,1.78244375,1.0,2612.4255740735202,0.2579990950810842,1.3268925400808222,0.9352499614710047,0.2879156375,0.6592514899219006
0.027,1.781775,1.0,2624.163219499635,0.262161133169874,1.3264815909682117,0.9370895350051645,0.28788755,0.6601076873688307
0.0275,1.7810937500000001,1.0,2635.0738513325905,0.2662998247231944,1.3260728901899002,0.9388417660831916,0.2878589375,0.6609581322806293
0.028,1.7804,1.0,2645.2036962895118,0.2704153016190043,1.3256659619357565,0.9405120804039845,0.2878298,0.6618038304734006
0.0285,1.77969375,1.0,2654.5906052915425,0.27450769125224816,1.3252604147584734,0.9421054978461672,0.2878001375,0.6626456077523784
0.029,1.778975,1.0,2663.2868674269416,0.27857713009186424,1.324855730255035,0.9436266441843091,0.28776995,0.663484548853533
0.029500000000000002,1.7782437500000001,1.0,2671.3222740077545,0.2826237443793717,1.3244516028473874,0.9450798256647284,0.2877392375,0.6643212927607182
0.03,1.7775,1.0,2678.7270810584796,0.2866476603562898,1.324047726957477,0.9464690315616101,0.287708,0.665156475298764
0.0305,1.77674375,1.0,2685.531968330548,0.2906490042641377,1.3236437970072499,0.9477979615296475,0.2876762375,0.6659907291413585
0.031,1.775975,1.0,2691.768000386419,0.2946279023444346,1.3232395074186523,0.9490700502734427,0.28764395,0.666824683812969
0.0315,1.7751937500000001,1.0,2697.466589754619,0.29858448083869965,1.3228345526136305,0.9502884898259687,0.2876111375,0.6676589656848121
0.032,1.7744,1.0,2702.659462154397,0.30251886598845207,1.3224286270141308,0.9514562496936722,0.2875778,0.6684941979648678
0.0325,1.77359375,1.0,2707.36359649994,0.3064311771242413,1.3220215621915905,0.9525761094392134,0.2875439375,0.669330719016861
0.033,1.772775,1.0,2711.620194129099,0.3103215461880134,1.3216129706675215,0.9536506377361763,0.28750955,0.6701693147270791
0.0335,1.7719437500000002,1.0,2715.460298901917,0.31419009891472593,1.3212025598411277,0.9546822403059413,0.2874746375,0.6710105725494477
0.034,1.7711000000000001,1.0,2718.902428651469,0.31803695477605776,1.3207901529509585,0.9556731749965823,0.2874392,0.6718548398268517
0.0345,1.7702437500000001,1.0,2721.9652418688565,0.3218622332436877,1.3203755732355629,0.956625552041591,0.2874032375,0.6727024619706139
0.035,1.7693750000000001,1.0,2724.667523748646,0.32566605378929453,1.31995864393349,0.9575413454354661,0.28736675,0.6735537824369966
0.035500000000000004,1.76849375,1.0,2727.028172926855,0.32944853588455714,1.3195391882832892,0.9584224033066855,0.2873297375,0.6744091427017114
0.036000000000000004,1.7676,1.0,2729.0661889116386,0.33320979900115427,1.3191170295235093,0.9592704573868578,0.2872922,0.6752688822324353
0.0365,1.76669375,1.0,2730.800660207151,0.33694996261076476,1.3186919908926993,0.960087131664133,0.2872541375,0.6761333384593358
0.037,1.765775,1.0,2732.2507531292513,0.3406691461850675,1.3182638956294086,0.9608739502995253,0.28721555,0.6770028467435999
0.0375,1.76484375,1.0,2733.4357013151757,0.34436746919574124,1.3178325669721864,0.9616323448764551,0.2871764375,0.6778777403439753
0.038,1.7639,1.0,2734.368488536227,0.34804504161686955,1.3173978854402646,0.9623636645775594,0.28713679999999997,0.6787582344325531
0.0385,1.76294375,1.0,2735.070771126871,0.3517019917907164,1.3169596532130086,0.9630691748953378,0.28709663750000003,0.6796447010047493
0.039,1.761975,1.0,2735.55471902564,0.3553384337709953,1.3165177589859651,0.963750072254034,0.28705595,0.6805373349697146
0.0395,1.7609937500000001,1.0,2735.8315730245895,0.3589544800378013,1.3160721001765183,0.9644074842003753,0.2870147375,0.6814363121492506
0.04,1.76,1.0,2735.9126006046527,0.3625502430712292,1.315622574202052,0.9650424736479941,0.286973,0.6823418069326218
0.0405,1.7589937500000001,1.0,2735.809091775185,0.366125835351374,1.3151690784799501,0.9656560432634906,0.2869307375,0.6832539922515913
0.041,1.757975,1.0,2735.532355146796,0.3696813693583306,1.314711510427597,0.9662491395103757,0.28688795,0.6841730395547847
0.0415,1.75694375,1.0,2735.093714237223,0.373216957572194,1.314249767462376,0.9668226563808825,0.2868446375,0.6850991187813857
0.042,1.7559,1.0,2734.5045040108635,0.37673271247305895,1.313783747001672,0.9673774388427229,0.28680079999999997,0.6860323983341541
0.0425,1.75484375,1.0,2733.776067651804,0.3802287465410205,1.3133133464628681,0.9679142860252761,0.2867564375,0.6869730450517817
0.043000000000000003,1.753775,1.0,2732.916850828573,0.38370516704920243,1.3128384896316558,0.9684339554843653,0.28671155,0.6879211715720165
0.043500000000000004,1.75269375,1.0,2731.9286837176533,0.38716207231527583,1.3123591604405385,0.9689371679934186,0.28666613750000003,0.6888767694160777
0.044,1.7516,1.0,2730.835290887733,0.39059960127870275,1.3118751439308047,0.9694245969472689,0.2866202,0.6898402251216194
0.0445,1.75049375,1.0,2729.6418319321283,0.39401785830990016,1.3113863937802293,0.9698968886078576,0.2865737375,0.690811587272143
0.045,1.7493750000000001,1.0,2728.3534677067273,0.39741694777928466,1.3108928636665866,0.970354655992557,0.28652675,0.6917909034476696
0.0455,1.74824375,1.0,2726.9753594173885,0.40079697405727305,1.3103945072676513,0.9707984809042376,0.2864792375,0.6927782202106887
0.046,1.7471,1.0,2725.512667755466,0.40415804151428203,1.3098912782611982,0.9712289158184294,0.2864312,0.6937735830919662
0.0465,1.7459437500000001,1.0,2723.9705520804846,0.4075002545207283,1.3093831303250016,0.9716464856389154,0.28638263750000004,0.6947770365762215
0.047,1.744775,1.0,2722.3541696502616,0.4108237174470287,1.3088700171368366,0.9720516893320928,0.28633355,0.6957886240876603
0.0475,1.74359375,1.0,2720.668674899287,0.41412853466359995,1.3083518923744775,0.9724450014495511,0.28628393750000003,0.6968083879753784
0.048,1.7424,1.0,2718.9192187637277,0.41741481054085877,1.3078287097156989,0.9728268735474809,0.2862338,0.6978363694986225
0.0485,1.74119375,1.0,2717.1109480549617,0.42068264944922185,1.3073004228382756,0.9731977355108056,0.2861831375,0.6988726088119165
0.049,1.739975,1.0,2715.2490048797636,0.423932155759106,1.3067669854199824,0.9735579967892534,0.28613195,0.6999171449500521
0.0495,1.73874375,1.0,2713.3385261088547,0.4271634338409279,1.3062283511385935,0.9739080475519768,0.2860802375,0.700970015812941
0.05,1.7375,1.0,2711.3846428926963,0.4303765880651044,1.3056844736718836,0.9742482597667821,0.286028,0.7020312581503301
0.0505,1.73624375,1.0,2709.3889659280276,0.4335717225852398,1.3051353387595799,0.9745789903076832,0.2859752375,0.703100845153305
0.051000000000000004,1.734975,1.0,2707.3531140860878,0.4367489368318224,1.3045809320551458,0.9749005791690234,0.28592195,0.7041787494528656
0.051500000000000004,1.73369375,1.0,2705.312023158534,0.43990833048553574,1.3040209350091847,0.9752133312917864,0.2858681375,0.7052655327683071
0.052000000000000005,1.7324,1.0,2703.2448998408463,0.443050002456543,1.3034555376022872,0.9755175703555863,0.2858138,0.7063607675335041
0.0525,1.731095773368521,1.0,2701.2309899967936,0.44617405165500773,1.3028849298150431,0.9758136056082517,0.2857590224814779,0.7074640283512004
0.053,1.7297903856264627,1.0,2699.7097345581133,0.44928057699109325,1.3023093016280431,0.9761017326388353,0.28570419619631143,0.7085748920572859
0.0535,1.7284849978844041,1.0,2698.718106868502,0.45236967694125935,1.3017288356273342,0.9763822336021983,0.285649369911145,0.7096929520120316
0.054,1.7271796101423458,1.0,2698.210131808957,0.45544144981542084,1.301143949457253,0.9766553927674229,0.2855945436259785,0.7108173523765544
0.0545,1.7258742224002872,1.0,2698.139980501554,0.45849599329362023,1.3005550608488698,0.9769214821399297,0.28553971734081207,0.7119472429787377
0.055,1.7245688346582289,1.0,2698.476384037139,0.46153340309540314,1.2999624554969862,0.9771807540772498,0.2854848910556456,0.7130820321818194
0.0555,1.7232634469161705,1.0,2699.188162488424,0.46455377494031513,1.2993664190964032,0.9774334503155594,0.28543006477047916,0.7142211323896579
0.056,1.721958059174112,1.0,2700.2442022715845,0.4675572045479017,1.2987672373419221,0.9776798025125627,0.2853752384853127,0.7153639601118482
0.0565,1.7206526714320536,1.0,2701.6155043883155,0.47054378699729377,1.2981651770244662,0.9779200316040176,0.28532041220014626,0.7165099719705635
0.057,1.719347283689995,1.0,2703.27369097994,0.47351361771302364,1.297560499526864,0.9781543492075316,0.2852655859149798,0.7176586387797297
0.0575,1.7180418959479367,1.0,2705.1954232645267,0.47646679063177466,1.2969534203477813,0.978382955623359,0.28521075962981335,0.7188095221420725
0.058,1.716736508205878,1.0,2707.3612243427365,0.47940339838539675,1.2963441198055228,0.9786060410136066,0.2851559333446469,0.7199622533695471
0.0585,1.7154311204638197,1.0,2709.751620368145,0.48232353360573965,1.2957327782183927,0.978823787971576,0.28510110705948044,0.7211164664771395
0.059000000000000004,1.7141257327217612,1.0,2712.347132026935,0.48522728892465317,1.2951195759046956,0.9790363718877183,0.28504628077431393,0.7222717982073744
0.059500000000000004,1.7128203449797028,1.0,2715.135945780845,0.4881147524088002,1.2945046231987039,0.9792439570884814,0.28499145448914753,0.7234280194980531
0.06,1.7115149572376442,1.0,2718.091885566081,0.49098602166816463,1.293888161225206,0.979446709400899,0.284936628203981,0.7245846578178168
0.0605,1.710209569495586,1.0,2721.1983116434494,0.49384118911459157,1.2932703439247106,0.9796447831794295,0.2848818019188146,0.7257414074435011
0.061,1.7089041817535273,1.0,2724.4454396857786,0.4966803430215881,1.2926512626354998,0.979838323238787,0.2848269756336481,0.726898081880892
0.0615,1.707598794011469,1.0,2727.8234725858492,0.49950357166266135,1.2920310086958555,0.9800274689235818,0.2847721493484817,0.7280544960461772
0.062,1.7062934062694106,1.0,2731.322597988046,0.5023109633113184,1.2914096734440599,0.980212354358791,0.2847173230633152,0.7292104662730433
0.0625,1.704988018527352,1.0,2734.9329860073162,0.5051026062410664,1.2907873482183945,0.9803931086869662,0.2846624967781488,0.7303658103192417
0.063,1.7036826307852937,1.0,2738.6447871304354,0.5078785887254122,1.2901641243571418,0.9805698562929765,0.2846076704929823,0.7315203473726185
0.0635,1.7023772430432351,1.0,2742.4481303052667,0.5106389990378634,1.2895400931985836,0.9807427170170262,0.2845528442078159,0.7326738980566183
0.064,1.7010718553011768,1.0,2746.333121211965,0.5133839254519266,1.2889153460810017,0.980911806356641,0.2844980179226494,0.7338262844352521
0.0645,1.6997664675591182,1.0,2750.2919462796144,0.5161134533136258,1.2882899552764309,0.9810772344920903,0.284443191637483,0.7349773650724283
0.065,1.6984610798170598,1.0,2754.320094940816,0.5188276658077097,1.287663962988343,0.981239106027299,0.2843883653523165,0.7361270548400548
0.0655,1.6971556920750013,1.0,2758.403496845674,0.5215266607824468,1.28703749775791,0.981397527149518,0.28433353906715003,0.7372751112272891
0.066,1.695850304332943,1.0,2762.538395923516,0.5242105209062249,1.286410594571395,0.9815525946888731,0.2842787127819836,0.73842146465963
0.0665,1.6945449165908844,1.0,2766.7210258541004,0.5268793288474319,1.2857832884150615,0.9817044021022736,0.2842238864968171,0.7395660461182199
0.067,1.693239528848826,1.0,2770.9476097412717,0.529533167274456,1.2851556142751726,0.981853039615819,0.28416906021165067,0.7407087871407814
0.0675,1.6919341411067674,1.0,2775.214359814107,0.5321721188556849,1.2845276071379914,0.9819985943602367,0.2841142339264842,0.7418496198224771
0.068,1.690628753364709,1.0,2779.517477154813,0.5347962662595068,1.2838993019897813,0.9821411504997379,0.28405940764131776,0.7429884768166931
0.0685,1.6893233656226507,1.0,2783.8531514542524,0.5374056921543093,1.2832707338168057,0.9822807893546545,0.2840045813561513,0.7441252913357412
0.069,1.6880179778805922,1.0,2788.2175607940835,0.5400004792084807,1.2826419376053275,0.9824175895181994,0.28394975507098486,0.7452599971514864
0.0695,1.6867125901385338,1.0,2792.6068714565326,0.5425807100904088,1.2820129483416105,0.9825516269676674,0.2838949287858184,0.7463925285958932
0.07,1.6854072023964752,1.0,2797.017237760975,0.5451464674684815,1.2813838010119174,0.9826829751703811,0.28384010250065195,0.7475228205614977
0.07050000000000001,1.6841018146544169,1.0,2801.4448019276565,0.5476978340110867,1.2807545306025119,0.9828117051846595,0.2837852762154855,0.748650808501796
0.07100000000000001,1.6827964269123583,1.0,2805.89016106568,0.5502348753258176,1.2801251320519569,0.9829378828958129,0.28373044993031904,0.7497764999772759
0.07150000000000001,1.6814910391703,1.0,2810.34721947692,0.5527576900270692,1.2794956602694236,0.9830615767598669,0.2836756236451526,0.7508997955693844
0.07200000000000001,1.6801856514282414,1.0,2814.812674006039,0.5552663635885497,1.2788661449949827,0.9831828511175605,0.28362079735998613,0.7520206415039454
0.0725,1.678880263686183,1.0,2819.2854039739213,0.5577609722059833,1.2782365963551192,0.9833017668377654,0.2835659710748197,0.7531390192880053
0.073,1.6775748759441247,1.0,2823.7642851165615,0.5602415920750943,1.2776070244763171,0.9834183828644962,0.2835111447896532,0.7542549105912164
