Time [s],Phi [rad],STIM [ ],Fsee [N],Gamma [ ],Lcerel [ ],q [ ],Lmtc [m],fisomrel [ ]
0.0,1.8,1.0,18.03972406482531,0.0002744220073525219,1.379331624604561,0.005019552199204643,0.288653,0.5411591791290319
0.0005,1.79999375,1.0,18.43464650868164,0.00588209202575025,1.379284885631899,0.013690888075488516,0.2886527375,0.5412722434030524
0.001,1.799975,1.0,21.972597499496906,0.011458307449030147,1.3789022711604761,0.03699977973330157,0.28865195,0.5421972860632431
0.0015,1.79994375,1.0,31.849226364705753,0.017003244713591104,1.3779801631450752,0.07249736358671538,0.2886506375,0.5444228197347651
0.002,1.7999,1.0,55.20854927479942,0.022517079263969245,1.3762634232191036,0.11695731794587721,0.2886488,0.5485517740670975
0.0025,1.79984375,1.0,99.80677689894632,0.027999985561849267,1.3738065306553404,0.16700751594731966,0.28864643749999996,0.5544281812481444
0.003,1.7997750000000001,1.0,164.4263066912637,0.033452137091610774,1.3710852198265193,0.2197878100079723,0.28864354999999997,0.5608920906451016
0.0035,1.79969375,1.0,241.58583531148875,0.03887370636179589,1.3684650162032637,0.2731051609866456,0.2886401375,0.5670712112064051
0.004,1.7996,1.0,325.60924441429927,0.04426486491523126,1.3660467253094288,0.3253278884075704,0.2886362,0.5727353153387869
0.0045000000000000005,1.7994937500000001,1.0,413.5510907362619,0.049625783334443035,1.3638225295596527,0.375323436917272,0.2886317375,0.5779118845179071
0.005,1.799375,1.0,503.7790594726365,0.05495663123341771,1.3617657765068742,0.4223884060719838,0.28862675,0.5826706726670228
0.0055,1.79924375,1.0,595.1909557574446,0.06025757729543257,1.359853018690534,0.4661555397858062,0.2886212375,0.587072082076882
0.006,1.7991000000000001,1.0,686.9199289093796,0.06552878924118354,1.3580665299606502,0.5065010542254081,0.2886152,0.5911618626337333
0.006500000000000001,1.79894375,1.0,778.2529438176031,0.0707704338351976,1.3563927311665305,0.5434657391270084,0.2886086375,0.5949751950626949
0.007,1.798775,1.0,868.6043153872761,0.07598267700416583,1.3548207242370054,0.5771940130810124,0.28860155,0.5985403496553794
0.0075,1.79859375,1.0,957.4825558948114,0.08116568348864574,1.3533416460893253,0.607889858390759,0.2885939375,0.6018803607745089
0.008,1.7984,1.0,1044.513192540753,0.08631961757505535,1.3519475371490424,0.6357858479014061,0.2885858,0.6050157241540927
0.0085,1.79819375,1.0,1129.3752404688116,0.09144464210718056,1.3506318042590215,0.6611233547039816,0.2885771375,0.6079634497514772
0.009000000000000001,1.797975,1.0,1211.8244676087404,0.09654091909236234,1.3493884578140574,0.6841394063916015,0.28856795,0.6107388569716667
0.0095,1.79774375,1.0,1291.698864550448,0.10160861030469677,1.3482117886940288,0.7050590087244782,0.2885582375,0.6133563463472738
0.01,1.7975,1.0,1368.8622101970777,0.10664787578938384,1.3470969245667792,0.7240914388040388,0.288548,0.6158282045799859
0.0105,1.79724375,1.0,1443.2257261422583,0.11165887473254767,1.3460393399272745,0.7414282390735749,0.2885372375,0.6181657373172709
0.011,1.796975,1.0,1514.7464656676514,0.11664176569282875,1.345034748596863,0.7572428901892246,0.28852595000000003,0.6203795352700878
0.0115,1.79669375,1.0,1583.4218935596539,0.12159670728403843,1.3440790695180007,0.7716913989448334,0.2885141375,0.6224795724477896
0.012,1.7964,1.0,1649.2390126095022,0.12652385544122705,1.3431689381636192,0.7849136055714246,0.28850180000000003,0.6244741067591012
0.0125,1.79609375,1.0,1712.2191567260531,0.13142336579189107,1.3423010713510364,0.7970342060249825,0.2884889375,0.626371098698765
0.013000000000000001,1.7957750000000001,1.0,1772.4089948821816,0.1362953933964944,1.3414723200883398,0.808164195612098,0.28847555,0.6281781078236173
0.0135,1.79544375,1.0,1829.8766260337586,0.14114009349694337,1.3406796649125965,0.8184022714467772,0.2884616375,0.6299023147801052
0.014,1.7951000000000001,1.0,1884.6761295734539,0.14595761901130527,1.339920561186488,0.8278362876194997,0.2884472,0.6315497834268595
0.0145,1.79474375,1.0,1936.8629903729143,0.15074812157436707,1.3391927113492381,0.836544383663372,0.2884322375,0.6331259711975524
0.015,1.794375,1.0,1986.5136896774357,0.15551175282091576,1.3384938178400703,0.8445960167253665,0.28841675,0.6346362732272108
0.0155,1.79399375,1.0,2033.708995678724,0.16024866343889774,1.337821739876932,0.8520530290690278,0.2884007375,0.6360856889876353
0.016,1.7936,1.0,2078.5491521771864,0.1649590047978583,1.3371743089947836,0.85897048817024,0.2883842,0.6374792262560274
0.0165,1.7931937500000001,1.0,2121.1077821892104,0.1696429251777013,1.3365497903829437,0.8653976257537274,0.2883671375,0.6388209138813667
0.017,1.792775,1.0,2161.4583921775725,0.1743005719611698,1.3359465774529309,0.8713784344871481,0.28834955,0.6401144677859117
0.0175,1.7923437500000001,1.0,2199.685417775591,0.17893209253100678,1.335363063616264,0.8769522497418536,0.2883314375,0.6413635700316127
0.018000000000000002,1.7919,1.0,2235.8755271917044,0.18353763341148033,1.3347977202703862,0.8821543174131093,0.2883128,0.6425717044060977
0.0185,1.79144375,1.0,2270.121957533572,0.18811734170546657,1.3342490419126953,0.8870162573239398,0.2882936375,0.6437422767233586
0.019,1.790975,1.0,2302.504009674743,0.19267136234119064,1.3337157405244298,0.8915665290324812,0.28827395,0.6448782032086463
0.0195,1.79049375,1.0,2333.0904024627193,0.19719983820556644,1.333196698358487,0.8958307799893771,0.2882537375,0.6459820159534546
0.02,1.79,1.0,2361.9555821150175,0.20170291218550787,1.3326907976677649,0.8998321242492187,0.288233,0.6470562281479156
0.0205,1.78949375,1.0,2389.1792427958203,0.20618072716792887,1.3321969207051603,0.9035914268284596,0.2882117375,0.6481033350574281
0.021,1.788975,1.0,2414.8320214740193,0.21063342403661092,1.3317140835988124,0.9071275812040243,0.28818995000000003,0.6491255317034443
0.021500000000000002,1.78844375,1.0,2439.0029829572154,0.21506114670981213,1.3312411646609839,0.9104576697462443,0.2881676375,0.6501252896493463
0.022,1.7879,1.0,2461.754099293627,0.21946403435334425,1.330777339884483,0.9135972455445578,0.2881448,0.6511044369226567
0.0225,1.78734375,1.0,2483.142711181482,0.22384222492609981,1.3303218588966679,0.9165604507135384,0.28812143749999997,0.6520646349969702
0.023,1.786775,1.0,2503.2288681173964,0.22819585638697137,1.3298739713248966,0.919360151068764,0.28809755,0.6530075352115475
0.0235,1.78619375,1.0,2522.075101905758,0.23252506669485148,1.3294329267965277,0.9220080689705636,0.28807313749999996,0.6539347791526582
0.024,1.7856,1.0,2539.743264189215,0.2368299932708743,1.3289980027224848,0.9245149055373405,0.2880482,0.6548479407034946
0.0245,1.78499375,1.0,2556.2871659421926,0.24111077179700618,1.3285685710875612,0.9268904551748177,0.2880227375,0.655748386777673
0.025,1.784375,1.0,2571.782067593021,0.2453675412938638,1.3281438191617674,0.9291436499643095,0.28799675,0.6566378633479889
0.025500000000000002,1.78374375,1.0,2586.2706545710566,0.2496004344083362,1.3277232551599067,0.9312827259788233,0.2879702375,0.6575174363118452
0.026000000000000002,1.7831000000000001,1.0,2599.796868314984,0.25380958378731244,1.3273063872967819,0.9333152397809991,0.2879432,0.6583881659270696
0.0265,1.78244375,1.0,2612.4058017372954,0.25799512207768155,1.3268927237871957,0.9352481336542587,0.2879156375,0.6592511069355491
0.027,1.781775,1.0,2624.1436000518443,0.26215718192633264,1.326481772845951,0.9370877937770932,0.28788755,0.660107308671444
0.0275,1.7810937500000001,1.0,2635.057366962833,0.26629589598015474,1.3260730426878513,0.9388401021795904,0.2878589375,0.6609578151539754
0.028,1.7804,1.0,2645.188995227898,0.27041139323233515,1.3256660976755297,0.9405104899895438,0.2878298,0.661803548548445
0.0285,1.77969375,1.0,2654.58690431021,0.2745038088632472,1.3252604488703525,0.9421039664777863,0.2878001375,0.6626455369918902
0.029,1.778975,1.0,2663.284625391637,0.2785732707031746,1.3248557508860666,0.9436251793761988,0.28776995,0.6634845061104907
0.029500000000000002,1.7782437500000001,1.0,2671.315114489453,0.2826199059279333,1.3244516686295777,0.9450784307533904,0.2877392375,0.6643211566437586
0.03,1.7775,1.0,2678.7118173406566,0.28664384171333906,1.3240478670077924,0.9464677060691234,0.287708,0.6651561858663906
0.0305,1.77674375,1.0,2685.5086241316553,0.2906452052352079,1.323644010927616,0.9477967014933217,0.2876762375,0.6659902875978483
0.031,1.775975,1.0,2691.7398267168815,0.2946241236693558,1.3232397652959544,0.9490688485449598,0.28764395,0.6668241522047713
0.0315,1.7751937500000001,1.0,2697.4355612339727,0.2985807208634974,1.322834836321681,0.9502873404474403,0.2876111375,0.6676583815598003
0.032,1.7744,1.0,2702.622984909199,0.3025151205016377,1.3224289602219714,0.9514551514488101,0.2875778,0.6684935127875586
0.0325,1.77359375,1.0,2707.343510733816,0.3064274589784097,1.3220217455088232,0.9525750396270197,0.2875439375,0.6693303425365137
0.033,1.772775,1.0,2711.6174272322605,0.3103178566664685,1.3216129959003553,0.9536495940249461,0.28750955,0.6701692629719326
0.0335,1.7719437500000002,1.0,2715.465206837978,0.31418643393846923,1.321202515114686,0.9546812300587945,0.2874746375,0.6710106641709181
0.034,1.7711000000000001,1.0,2718.907488432963,0.3180333111670671,1.3207901068699337,0.9556722032286369,0.2874392,0.671854934101966
0.0345,1.7702437500000001,1.0,2721.9650607417575,0.3218586087249173,1.3203755748842172,0.9566246215921376,0.2874032375,0.6727024586020642
0.035,1.7693750000000001,1.0,2724.6588465794753,0.3256624469846748,1.3199587228756546,0.9575404571260381,0.28736675,0.6735536213513394
0.035500000000000004,1.76849375,1.0,2727.009887954478,0.32944494631899485,1.3195393545623648,0.9584215560861996,0.2873297375,0.6744088038452402
0.036000000000000004,1.7676,1.0,2729.0393320246217,0.33320622710053255,1.3191172736624661,0.9592696484648915,0.2872922,0.6752683853642689
0.0365,1.76669375,1.0,2730.7684179080893,0.336946409701943,1.3186922838940769,0.9600863566333174,0.2872541375,0.6761327429412536
0.037,1.765775,1.0,2732.218213749614,0.3406656141457128,1.3182641912520294,0.9608732033977467,0.28721555,0.6770022467050116
0.0375,1.76484375,1.0,2733.399941073861,0.34436394876410004,1.3178328917862374,0.9616316253931414,0.2871764375,0.6778770819476974
0.038,1.7639,1.0,2734.3396335761663,0.34804154696671813,1.317398147488042,0.9623629653876803,0.28713679999999997,0.6787577039896655
0.0385,1.76294375,1.0,2735.0486264458004,0.3516985216966327,1.3169598542951044,0.9630684949061202,0.28709663750000003,0.6796442945319712
0.039,1.761975,1.0,2735.538291033505,0.3553349858969092,1.3165179081450855,0.9637494108988244,0.28705595,0.6805370338758265
0.0395,1.7609937500000001,1.0,2735.820030135781,0.3589510525106132,1.3160722049756466,0.9644068409162512,0.2870147375,0.6814361008987018
0.04,1.76,1.0,2735.9052735179584,0.3625468344808103,1.315622640724449,0.9650418478711127,0.286973,0.6823416730297368
0.0405,1.7589937500000001,1.0,2735.8054736781496,0.36612244475056593,1.3151691113291535,0.9656554344250873,0.2869307375,0.6832539262244632
0.041,1.757975,1.0,2735.53210185084,0.3696779962629458,1.3147115127274214,0.9662485470333314,0.28688795,0.6841730349388333
0.0415,1.75694375,1.0,2735.0966442509252,0.3732136019610153,1.3142497408569136,0.9668220796767858,0.2868446375,0.6850991721025594
0.042,1.7559,1.0,2734.5105985575633,0.37672937478783997,1.3137836916552916,0.9673768773093626,0.28680079999999997,0.6860325090917629
0.0425,1.75484375,1.0,2733.785470638431,0.38022542768648543,1.3133132610602165,0.9679137390445067,0.2867564375,0.6869732157009332
0.043000000000000003,1.753775,1.0,2732.92415137414,0.3837018576148132,1.3128384233139958,0.9684334249314966,0.28671155,0.6879213038852461
0.043500000000000004,1.75269375,1.0,2731.942927700725,0.3871587904066031,1.3123590310258468,0.9689366494518394,0.28666613750000003,0.6888770272212821
0.044,1.7516,1.0,2730.8538883804595,0.39059634366526935,1.3118749749282446,0.9694240912357721,0.2866202,0.68984056126756
0.0445,1.75049375,1.0,2729.662546368155,0.39401462221781103,1.3113862054990821,0.9698963963460425,0.2865737375,0.6908119611762864
0.045,1.7493750000000001,1.0,2728.3744158488375,0.3974137308912271,1.3108926732162522,0.9703541776093674,0.28652675,0.6917912810601168
0.0455,1.74824375,1.0,2726.9950112417428,0.40079377451251663,1.310394328557648,0.9707980166460455,0.2864792375,0.6927785739771902
0.046,1.7471,1.0,2725.5298462589376,0.40415485790867856,1.3098911220011626,0.9712284657566868,0.2864312,0.6937738919160094
0.0465,1.7459437500000001,1.0,2723.984433018199,0.4074970859067119,1.3093830040246888,0.9716460496773885,0.28638263750000004,0.694777285780164
0.047,1.744775,1.0,2722.3642812097937,0.4108205633336158,1.3088699251061193,0.9720512672137029,0.28633355,0.6957888053728962
0.0475,1.74359375,1.0,2720.674897318626,0.4141253950163891,1.3083518357233475,0.9724445927628326,0.28628393750000003,0.6968084993815107
0.048,1.7424,1.0,2718.9217838995082,0.41741168578203103,1.3078286863542659,0.9728264777326777,0.2862338,0.6978364153616295
0.0485,1.74119375,1.0,2717.1104389080556,0.4206795404575404,1.307300427476768,0.9731973518656235,0.2861831375,0.6988725997212875
0.049,1.739975,1.0,2715.246355084902,0.42392906386991636,1.3067670095687463,0.973557624474281,0.28613195,0.6999170977048749
0.0495,1.73874375,1.0,2713.335019395047,0.4271603608461578,1.306228383108094,0.9739076855957923,0.2860802375,0.7009699533769208
0.05,1.7375,1.0,2711.3811812691365,0.4303735331497161,1.3056845052416803,0.9742479071620274,0.286028,0.7020311966044296
0.0505,1.73624375,1.0,2709.3856080456885,0.43356866645082176,1.3051353693945391,0.9745786444941672,0.2859752375,0.7031007855371754
0.051000000000000004,1.734975,1.0,2707.358770853104,0.4367458909727738,1.3045808804274204,0.9749002358821534,0.28592195,0.7041788497387036
0.051500000000000004,1.73369375,1.0,2705.302775294758,0.4399053031481205,1.3040210194437931,0.975213005406945,0.2858681375,0.7052653690572601
0.052000000000000005,1.7324,1.0,2703.2197243483715,0.4430469994094103,1.303455767547127,0.9755172625993513,0.2858138,0.7063603225203572
0.0525,1.73109375,1.0,2701.1117182561516,0.4461710761891915,1.302885105840891,0.9758133032172955,0.28575893750000003,0.7074636883282917
0.053,1.729775,1.0,2698.980854421806,0.44927762992001263,1.3023090154285548,0.9761014099750526,0.28570355000000003,0.7085754438476333
0.0535,1.72844375,1.0,2696.829227316025,0.45236675703442186,1.3017274774135876,0.976381853227824,0.2856476375,0.709695565604697
0.054,1.7271,1.0,2694.658928389887,0.45543855396496774,1.3011404728994587,0.9766548916147333,0.2855912,0.7108240292789872
0.0545,1.7257437500000001,1.0,2692.47204599572,0.4584931171441985,1.3005479829896376,0.9769207726631045,0.2855342375,0.7119608096966216
0.055,1.724375,1.0,2690.27066531653,0.4615305430046625,1.2999499887875936,0.9771797333566575,0.28547675,0.7131058808237325
0.0555,1.72299375,1.0,2688.056868302831,0.46455092797890823,1.2993464713967962,0.9774320006700586,0.2854187375,0.7142592157598441
0.056,1.7216,1.0,2685.8327336176494,0.467554368499484,1.2987374119207145,0.9776777920720818,0.2853602,0.7154207867312289
0.0565,1.72019375,1.0,2683.600336589476,0.4705409609989381,1.298122791462818,0.9779173159994641,0.28530113749999997,0.7165905650842385
0.057,1.718775,1.0,2681.3617491728774,0.47351080190981903,1.2975025911265758,0.9781507723033896,0.28524155,0.7177685212786142
0.0575,1.71734375,1.0,2679.1189244191833,0.4764639856743551,1.2968767930751164,0.9783783525546053,0.2851814375,0.7189546228744723
0.058,1.7159,1.0,2676.8726489361034,0.4794005715752011,1.2962453901481212,0.9786002381069084,0.2851208,0.7201488163775109
0.0585,1.71444375,1.0,2674.627963796159,0.48232070470454996,1.295608336107199,0.9788166082698274,0.2850596375,0.7213511212497872
0.059000000000000004,1.7129750000000001,1.0,2672.3854602481265,0.4852244727367936,1.2949656255135,0.9790276325148792,0.28499795,0.7225614788438446
0.059500000000000004,1.71149375,1.0,2670.145728548161,0.48811196334632406,1.2943172529281746,0.979233473627805,0.2849357375,0.7237798298112657
0.06,1.71,1.0,2667.90935796107,0.4909832642075333,1.2936632129123733,0.9794342880225211,0.284873,0.7250061141007083
0.0605,1.7084937500000001,1.0,2665.6769367632583,0.49383846299481343,1.293003500027246,0.9796302260379727,0.2848097375,0.7262402709559429
0.061,1.7069750000000001,1.0,2663.449052245155,0.49667764738255643,1.2923381088339432,0.9798214322189425,0.28474595,0.7274822389138826
0.0615,1.7054437500000001,1.0,2661.2262907151126,0.49950090504515426,1.2916670338936154,0.9800080455817971,0.2846816375,0.7287319558026168
0.062,1.7039,1.0,2659.009237504119,0.502308323656999,1.2909902697674127,0.9801901998660882,0.2846168,0.7299893587394399
0.0625,1.70234375,1.0,2656.7984769700333,0.5050999908924826,1.2903078110164854,0.9803680237728627,0.2845514375,0.7312543841288794
0.063,1.7007750000000001,1.0,2654.594592503708,0.507875994425997,1.289619652201984,0.9805416411904738,0.28448555,0.73252696766072
0.0635,1.69919375,1.0,2652.398166535414,0.5106364219319344,1.288925787885059,0.980711171408642,0.28441913750000003,0.7338070443080289
0.064,1.6976,1.0,2650.2097805412013,0.5133813610846866,1.2882262126268602,0.9808767293214545,0.2843522,0.7350945483251785
0.0645,1.69599375,1.0,2648.030015051187,0.5161108995586456,1.2875209209885383,0.9810384256199531,0.2842847375,0.7363894132458633
0.065,1.694375,1.0,2645.8594496572982,0.5188251250282037,1.2868099075312436,0.9811963669749183,0.28421675,0.7376915718811209
0.0655,1.69274375,1.0,2643.6986630223787,0.5215241251677527,1.2860931668161264,0.9813506562104107,0.2841482375,0.7390009563173472
0.066,1.6911,1.0,2641.5482328898274,0.5242079876516845,1.285370693404337,0.9815013924686059,0.2840792,0.740317497914311
0.0665,1.6894437500000001,1.0,2639.4087360939234,0.5268768001543913,1.2846424818570255,0.981648671366413,0.2840096375,0.7416411273031662
0.067,1.687775,1.0,2637.2818727963104,0.5295305947767894,1.2839085163394242,0.9817925809038246,0.28393955,0.742971793207739
0.0675,1.68609375,1.0,2635.1670795010195,0.5321695178491181,1.2831688019327199,0.9819332146382846,0.2838689375,0.7443094056504722
0.068,1.6844000000000001,1.0,2633.064123772296,0.5347936598870983,1.2824233406631154,0.9820706590066239,0.2837978,0.7456538796195341
0.0685,1.68269375,1.0,2630.972975189423,0.5374030991169119,1.28167213269039,0.9822049965705775,0.2837261375,0.7470051328623959
0.069,1.680975,1.0,2628.8936034278936,0.5399979137647414,1.280915178174322,0.9823363070652233,0.28365395,0.7483630824977325
0.0695,1.67924375,1.0,2626.8259782587625,0.542578182056769,1.2801524772746906,0.9824646675136374,0.28358123749999997,0.7497276450154782
0.07,1.6775,1.0,2624.7700695486096,0.5451439822191769,1.2793840301512747,0.9825901523361316,0.283508,0.7510987362768866
0.07050000000000001,1.67574375,1.0,2622.7258472588906,0.5476953924781475,1.278609836963853,0.9827128334543674,0.2834342375,0.7524762715145895
0.07100000000000001,1.673975,1.0,2620.693281445709,0.5502324910598628,1.2778298978722045,0.9828327803906178,0.28335995,0.7538601653326544
0.07150000000000001,1.67219375,1.0,2618.6723422595874,0.5527553561905054,1.2770442130361077,0.9829500603624313,0.2832851375,0.7552503317066447
0.07200000000000001,1.6704,1.0,2616.662999944854,0.5552640660962572,1.276252782615342,0.9830647383729452,0.2832098,0.7566466839836753
0.0725,1.66859375,1.0,2614.665224839479,0.5577586990033007,1.275455606769686,0.9831768772970704,0.2831339375,0.7580491348824747
0.073,1.6667750000000001,1.0,2612.678987374654,0.5602393331378179,1.2746526856589184,0.9832865379637649,0.28305755,0.7594575964934418
0.0735,1.66494375,1.0,2610.7042580744073,0.5627060467259914,1.2738440194428182,0.9833937792345959,0.2829806375,0.7608719802787034
0.074,1.6631,1.0,2608.741007555311,0.5651589179940032,1.2730296082811643,0.9834986580787821,0.2829032,0.7622921970721748
0.0745,1.6612437500000001,1.0,2606.789206526002,0.5675980251680357,1.2722094523337355,0.983601229644893,0.2828252375,0.7637181570796167
0.075,1.659375,1.0,2604.848825787114,0.570023446474271,1.2713835517603107,0.9837015473293792,0.28274675,0.7651497698786951
0.0755,1.65749375,1.0,2602.9198362305424,0.5724352601388915,1.2705519067206688,0.9837996628420852,0.2826677375,0.7665869444190387
