Time [s],Phi [rad],STIM [ ],Fsee [N],Gamma [ ],Lcerel [ ],q [ ],Lmtc [m],fisomrel [ ]
0.0,1.8,1.0,17.967776817231307,1.0012545869227639e-05,1.3793396769108672,0.005000026718419444,0.288653,0.5411396987281852
0.0005,1.79999375,1.0,18.27705575309899,0.005619165692199379,1.3793023531761759,0.012940548096156801,0.2886527375,0.5412299900351261
0.001,1.799975,1.0,21.618650565748357,0.01119685592430126,1.3789382746385814,0.03560863962381178,0.28865195,0.5421102806566807
0.0015,1.79994375,1.0,31.069429349344368,0.016743259725107006,1.3780461872566645,0.07060179060701006,0.2886506375,0.5442636489180452
0.002,1.7999,1.0,53.582362457973275,0.022258552585899778,1.3763681333335827,0.11471793761537145,0.2886488,0.5483004726115898
0.0025,1.79984375,1.0,97.1185812286885,0.027742909013872993,1.3739351844344998,0.16457478431461503,0.28864643749999996,0.5541214216898489
0.003,1.7997750000000001,1.0,160.9576800688214,0.03319650253985155,1.3712143619758779,0.21728034206002222,0.28864354999999997,0.5605864077258991
0.0035,1.79969375,1.0,237.68276253748186,0.038619505717880434,1.368584751760039,0.2706127771342754,0.2886401375,0.5667897983736943
0.004,1.7996,1.0,321.4661701576847,0.04401209013600763,1.3661561083191673,0.3229156939166776,0.2886362,0.5724799245553642
0.0045000000000000005,1.7994937500000001,1.0,409.2671513137857,0.049374426421468526,1.363922828238558,0.37303440563337925,0.2886317375,0.5776791297412277
0.005,1.799375,1.0,499.41290021644113,0.054706684231773,1.3618583551807326,0.42024736603829677,0.28862675,0.5824570496999195
0.0055,1.79924375,1.0,590.7898226613245,0.06000903230219495,1.35993884665263,0.4641736113240654,0.2886212375,0.5868750850458369
0.006,1.7991000000000001,1.0,682.5175199713345,0.06528163838887317,1.3581464254421596,0.5046798831831202,0.2886152,0.5909793939509045
0.006500000000000001,1.79894375,1.0,773.8807595008767,0.07052466932446483,1.3564672621246125,0.5418006884424006,0.2886086375,0.5948057749788991
0.007,1.798775,1.0,864.285272471403,0.07573829100172765,1.3548904036986225,0.5756767173136702,0.28860155,0.5983826574063418
0.0075,1.79859375,1.0,953.2427765540535,0.08092266838325905,1.3534067859412136,0.606509858515071,0.2885939375,0.6017335575596341
0.008,1.7984,1.0,1040.343838404398,0.08607796507921645,1.3520088615392618,0.6345321309385915,0.2885858,0.6048780656818649
0.0085,1.79819375,1.0,1125.313792481157,0.09120434523295042,1.3506892476569594,0.6599843916176115,0.2885771375,0.6078349858985835
0.009000000000000001,1.797975,1.0,1207.9001905011305,0.09630197079716518,1.3494420349150351,0.6831041527849873,0.28856795,0.6106194650332888
0.0095,1.79774375,1.0,1287.8928474336915,0.1013710022595058,1.3482621153118401,0.7041174377110287,0.2885582375,0.613244576015697
0.01,1.7975,1.0,1365.1673942149996,0.10641160010761734,1.3471443808457262,0.7232341931972052,0.288548,0.615723146834303
0.0105,1.79724375,1.0,1439.6585262066892,0.1114239243277238,1.3460839585651139,0.740646637146363,0.2885372375,0.6180672628313155
0.011,1.796975,1.0,1511.3211225085788,0.11640813370746847,1.3450765669783533,0.7565291084463008,0.28852595000000003,0.6202875093189861
0.0115,1.79669375,1.0,1580.120397893041,0.12136438542478958,1.344118490400667,0.7710385895539845,0.2885141375,0.6223930630241262
0.012,1.7964,1.0,1646.0574226968001,0.12629283614842415,1.3432061601360623,0.7843155662756435,0.28850180000000003,0.6243926391730216
0.0125,1.79609375,1.0,1709.1739674610506,0.13119364259626393,1.3423360348767162,0.7964853072834861,0.2884889375,0.6262947679365044
0.013000000000000001,1.7957750000000001,1.0,1769.5062906648632,0.13606695970222182,1.3415050757300047,0.8076594769397653,0.28847555,0.628106770569655
0.0135,1.79544375,1.0,1827.0907774647578,0.14091294096397997,1.3407106034207608,0.8179374542760208,0.2884616375,0.6298350915709856
0.014,1.7951000000000001,1.0,1881.9914596850297,0.14573173987922067,1.3399499386738178,0.8274075216041227,0.2884472,0.6314860943739398
0.0145,1.79474375,1.0,1934.280501926818,0.150523508798054,1.3392205867520852,0.8361481776586449,0.2884322375,0.6330656681236322
0.015,1.794375,1.0,1984.0548694392498,0.15528840076315872,1.3385200239661512,0.8442291908525734,0.28841675,0.6345796982587896
0.0155,1.79399375,1.0,2031.3741748551904,0.16002656536200807,1.3378463334275967,0.8517128254563312,0.2884007375,0.636032700859468
0.016,1.7936,1.0,2076.3119100271547,0.16473815205559117,1.3371976187188088,0.8586545328603109,0.2883842,0.6374291005432553
0.0165,1.7931937500000001,1.0,2118.9559887192204,0.16942331030489702,1.3365719834221752,0.8651037527842188,0.2883671375,0.6387732779823438
0.017,1.792775,1.0,2159.3899481158246,0.17408218793631122,1.3359677104774685,0.8711046765722864,0.28834955,0.6400691885093364
0.0175,1.7923437500000001,1.0,2197.7204129687907,0.17871493446527498,1.335382964287717,0.8766967841749777,0.2883314375,0.6413210053111731
0.018000000000000002,1.7919,1.0,2234.014475386923,0.18332169502282383,1.334816414709077,0.8819155632572482,0.2883128,0.6425317871216816
0.0185,1.79144375,1.0,2268.3466509912946,0.18790261466433403,1.334266739785512,0.8867928415831011,0.2882936375,0.6437045493404492
0.019,1.790975,1.0,2300.798993163864,0.19245783844518194,1.3337326175609858,0.8913572088222987,0.28827395,0.6448422830863928
0.0195,1.79049375,1.0,2331.452433374269,0.1969875103641408,1.3332128049461736,0.8956344064056208,0.2882537375,0.6459477889665284
0.02,1.79,1.0,2360.3957496822377,0.20149177529481238,1.3327060417464136,0.8996476290143889,0.288233,0.6470238832443677
0.0205,1.78949375,1.0,2387.7057920365583,0.20597077611501702,1.3322112381531226,0.9034178511510882,0.2882117375,0.6480730014182694
0.021,1.788975,1.0,2413.4449842449217,0.21042465311428857,1.3317274894504654,0.9069640745435056,0.28818995000000003,0.6490971707362608
0.021500000000000002,1.78844375,1.0,2437.679675636788,0.21485354658216088,1.3312538909226066,0.9103035049749206,0.2881676375,0.6500984048106947
0.022,1.7879,1.0,2460.4798151528544,0.2192575968081677,1.3307895378537107,0.9134517467850397,0.2881448,0.6510787042300017
0.0225,1.78734375,1.0,2481.914223922496,0.2236369432633687,1.3303335676570782,0.9164229820075022,0.28812143749999997,0.6520399683639877
0.023,1.786775,1.0,2502.049697970113,0.22799172498687104,1.329885164794602,0.9192301213495081,0.28809755,0.6529839861238467
0.0235,1.78619375,1.0,2520.959703437607,0.23232208207333335,1.3294434751928705,0.9218849209164719,0.28807313749999996,0.653912616877693
0.024,1.7856,1.0,2538.693928075546,0.23662814967753373,1.3290078917128794,0.9243981500194771,0.2880482,0.6548271912967036
0.0245,1.78499375,1.0,2555.3039121733486,0.24091006295425033,1.3285778072156234,0.9267796483478602,0.2880227375,0.6557290325426424
0.025,1.784375,1.0,2570.842894459056,0.24516795705826128,1.3281526145620983,0.9290384189667465,0.28799675,0.656619456492535
0.025500000000000002,1.78374375,1.0,2585.3656661728246,0.24940196714434465,1.3277317066132992,0.9311827108807097,0.2879702375,0.6574997719398418
0.026000000000000002,1.7831000000000001,1.0,2598.925933323074,0.25361222695187524,1.3273144995180235,0.9332200955711303,0.2879432,0.6583712321596487
0.0265,1.782446366876851,1.0,2611.6961970264792,0.25779887073945007,1.3269004990574944,0.9351575435010072,0.28791574740882775,0.6592348970534474
0.027,1.7817919552587214,1.0,2624.135587079357,0.26196203349112746,1.3264895043422464,0.9370015122718511,0.28788826212086627,0.6600912103136296
0.0275,1.7811375436405916,1.0,2636.2859677666474,0.2661018448868666,1.3260814559037368,0.9387579673146786,0.28786077683290484,0.6609403192464902
0.028,1.780483132022462,1.0,2648.151578503245,0.2702184346066269,1.3256762942734215,0.9404324081833383,0.2878332915449434,0.661782370370956
0.0285,1.7798287204043322,1.0,2659.736772718222,0.27431193233036755,1.3252739599827577,0.9420299110362423,0.28780580625698193,0.6626175094296409
0.029,1.7791743087862022,1.0,2671.046014088528,0.27838246773804776,1.3248743935632015,0.9435551667358857,0.2877783209690205,0.6634458813996877
0.029500000000000002,1.7785198971680725,1.0,2682.0838728493623,0.2824301705096269,1.3244775355462097,0.9450125150655785,0.287750835681059,0.6642676305033743
0.03,1.7778654855499427,1.0,2692.855134546212,0.286455164138614,1.324083325434989,0.9464059731819274,0.2877233503930976,0.6650829023437468
0.0305,1.777211073931813,1.0,2703.366736594643,0.2904575840939124,1.3236916839947603,0.9477392675972268,0.2876958651051361,0.6658918804612124
0.031,1.776556662313683,1.0,2713.6252052051036,0.29443755824812207,1.3233025367634121,0.9490158552622494,0.2876683798171747,0.666694737635021
0.0315,1.7759022506955533,1.0,2723.636925173194,0.29839520981713236,1.3229158115122357,0.9502389471309709,0.28764089452921326,0.667491641184293
0.032,1.7752478390774236,1.0,2733.408379509006,0.3023306620168327,1.3225314360125229,0.9514115299034639,0.2876134092412518,0.6682827576010838
0.0325,1.7745934274592938,1.0,2742.9461456165877,0.3062440380631123,1.3221493380355651,0.9525363844418983,0.28758592395329036,0.669068252561375
0.033,1.773939015841164,1.0,2752.256891588275,0.31013546117186064,1.3217694453526538,0.95361610246291,0.2875584386653289,0.669848290935732
0.0335,1.7732846042230341,1.0,2761.3473726160178,0.3140050545589671,1.3213916857350803,0.954653101686061,0.28753095337736745,0.6706230367996282
0.034,1.7726301926049044,1.0,2770.224427516689,0.31785294144032095,1.3210159869541362,0.9556496395976055,0.28750346808940597,0.6713926534434369
0.0345,1.7719757809867747,1.0,2778.89497537491,0.32167924503181167,1.320642276781113,0.956607825970781,0.28747598280144454,0.6721573033820922
0.035,1.771321369368645,1.0,2787.3527904965244,0.3254840345472215,1.3202706019146102,0.9575296336258549,0.2874484975134831,0.672916905450425
0.035500000000000004,1.7706669577505152,1.0,2795.616161299535,0.3292674745025754,1.3199007888399152,0.9584169098855623,0.28742101222552163,0.6736718281237244
0.036000000000000004,1.7700125461323852,1.0,2803.701098131488,0.3330297237576843,1.3195326857185272,0.9592713861080344,0.28739352693756015,0.6744223939971459
0.0365,1.7693581345142555,1.0,2811.6118953825016,0.33677089439529007,1.3191662466989371,0.9600946856539438,0.2873660416495987,0.6751687084442386
0.037,1.7687037228961258,1.0,2819.352895035036,0.34049109849813464,1.3188014259296352,0.9608883321795391,0.2873385563616373,0.6759108763559671
0.0375,1.768049311277996,1.0,2826.928484995472,0.34419044814895977,1.3184381775591123,0.9616537568789162,0.2873110710736758,0.6766490021455078
0.038,1.767394899659866,1.0,2834.343097472714,0.34786905543050733,1.3180764557358586,0.9623923051232498,0.2872835857857144,0.6773831897529157
0.0385,1.7667404880417363,1.0,2841.6012074023292,0.35152703242551925,1.3177162146083647,0.9631052425532655,0.2872561004977529,0.6781135426496541
0.039,1.7660860764236066,1.0,2848.7073309186753,0.3551644912167372,1.3173574083251216,0.9637937606754536,0.2872286152097915,0.6788401638429913
0.0395,1.7654316648054769,1.0,2855.6660238723643,0.3587815438869032,1.3169999910346193,0.9644589820073769,0.28720112992183,0.6795631558802656
0.04,1.7647772531873471,1.0,2862.4818803952785,0.36237830251875897,1.3166439168853488,0.9651019648128556,0.2871736446338686,0.6802826208530113
0.0405,1.7641228415692172,1.0,2869.1595315116656,0.36595487919504643,1.3162891400258003,0.9657237074637426,0.28714615934590715,0.6809986604009556
0.041,1.7634684299510874,1.0,2875.7036437959077,0.36951138599850736,1.3159356146044647,0.9663251524613702,0.28711867405794567,0.6817113757158774
0.0415,1.7628140183329577,1.0,2882.1189180774127,0.37304793501188366,1.3155832947698325,0.9669071901475145,0.28709118876998424,0.6824208675453349
0.042,1.762159606714828,1.0,2888.41008819117,0.3765646383179172,1.315232134670394,0.9674706621318317,0.28706370348202276,0.6831272361962584
0.0425,1.7615051950966982,1.0,2894.581919776004,0.38006160799934974,1.3148820884546397,0.9680163644601307,0.28703621819406133,0.6838305815384071
0.043000000000000003,1.7608507834785683,1.0,2900.639209118287,0.38353895613892314,1.3145331102710607,0.9685450505455337,0.28700873290609985,0.6845310030076939
0.043500000000000004,1.7601963718604385,1.0,2906.58678204355,0.3869967948193793,1.314185154268147,0.9690574338825002,0.2869812476181384,0.685228599609377
0.044,1.7595419602423088,1.0,2912.429492853526,0.39043523612346,1.3138381745943897,0.969554190561823,0.286953762330177,0.6859234699211141
0.0445,1.758887548624179,1.0,2918.1722233103724,0.3938543921339071,1.313492125398279,0.9700359616030431,0.2869262770422155,0.6866157120958856
0.045,1.7582331370060493,1.0,2923.8198816677896,0.39725437493346255,1.3131469608283053,0.9705033551192098,0.28689879175425403,0.6873054238647827
0.0455,1.7575787253879194,1.0,2929.376536419346,0.40063529168067524,1.3128026426253907,0.9709569482065196,0.2868713064662926,0.6879926873934059
0.046,1.7569243137697896,1.0,2934.8412653239106,0.4039972291660337,1.3124591764667062,0.9713972894212423,0.2868438211783312,0.6886774969443488
0.0465,1.75626990215166,1.0,2940.2217128447473,0.407340324206918,1.3121164930244547,0.9718249013595727,0.2868163358903697,0.6893599961164398
0.047,1.7556154905335302,1.0,2945.520146077317,0.4106646780687244,1.3117745703140804,0.9722402794852476,0.2867888506024083,0.6900402337546891
0.0475,1.7549610789154002,1.0,2950.738845084627,0.41397039201684926,1.3114333863510272,0.9726438951319458,0.2867613653144468,0.6907182585010581
0.048,1.7543066672972705,1.0,2955.880102532194,0.4172575673166889,1.311092919150739,0.9730361969040696,0.28673388002648537,0.6913941187955095
0.0485,1.7536522556791407,1.0,2960.9462233327667,0.42052630523363965,1.3107531467286602,0.973417611983639,0.2867063947385239,0.6920678628770275
0.049,1.752997844061011,1.0,2965.9395243029953,0.4237767070330979,1.3104140471002341,0.9737885473504017,0.28667890945056246,0.6927395387846098
0.0495,1.7523434324428813,1.0,2970.8623338294165,0.42700887398045984,1.310075598280905,0.9741493909216677,0.28665142416260103,0.6934091943582235
0.05,1.7516890208247513,1.0,2975.716991546313,0.4302229073411219,1.3097377782861168,0.9745005126178364,0.28662393887463955,0.6940768772397332
0.0505,1.7510346092066216,1.0,2980.505848023917,0.43341890838048036,1.3094005651313134,0.9748422653590848,0.2865964535866781,0.6947426348738006
0.051000000000000004,1.7503801975884918,1.0,2985.231264466817,0.4365969783639315,1.3090639368319388,0.9751749859982486,0.28656896829871664,0.695406514508748
0.051500000000000004,1.749725785970362,1.0,2989.895612424032,0.4397572185568718,1.3087278714034367,0.9754989961945109,0.2865414830107552,0.6960685631973949
0.052000000000000005,1.7490713743522324,1.0,2994.501273508853,0.4428997302246974,1.3083923468612515,0.9758146032321435,0.28651399772279373,0.696728827797862
0.0525,1.7484169627341024,1.0,2999.0506391303156,0.44602461463280474,1.308057341220827,0.9761221007882148,0.2864865124348323,0.6973873549743463
0.053,1.7477625511159727,1.0,3003.5461102342992,0.44913197304659014,1.307722832497607,0.9764217696528535,0.2864590271468709,0.6980441911978628
0.0535,1.747108139497843,1.0,3007.987916318809,0.4522218832343534,1.3073888175892394,0.9767138771975258,0.2864315418589094,0.6986993457305144
0.054,1.7464537278797132,1.0,3012.3781780933264,0.45529444898604926,1.3070552770532529,0.976998680917631,0.2864040565709479,0.6993528598014992
0.0545,1.7457993162615835,1.0,3016.7214366267553,0.4583498003703634,1.3067221705904775,0.9772764285978119,0.2863765712829865,0.7000048152687055
0.055,1.7451449046434535,1.0,3021.0188076265467,0.46138802904497733,1.3063894876241766,0.9775473555506222,0.28634908599502507,0.7006552355656713
0.0555,1.7444904930253238,1.0,3025.271411497031,0.4644092266675724,1.3060572175776144,0.977811687237119,0.2863216007070636,0.7013041440326812
0.056,1.743836081407194,1.0,3029.4803732417604,0.46741348489583,1.305725349874054,0.9780696397605582,0.28629411541910216,0.7019515639170513
0.0565,1.7431816697890643,1.0,3033.6468223673687,0.47040089538743163,1.3053938739367592,0.9783214203314354,0.28626663013114073,0.7025975183734019
0.057,1.7425272581709343,1.0,3037.7718927908054,0.4733715498000585,1.3050627791889937,0.9785672277057536,0.28623914484317925,0.7032420304639262
0.0575,1.7418728465528046,1.0,3041.856722748704,0.4763255397913922,1.3047320550540211,0.9788072525982608,0.28621165955521777,0.7038851231586513
0.058,1.7412184349346749,1.0,3045.9024547092367,0.47926295701911403,1.3044016909551055,0.9790416780722841,0.28618417426725634,0.7045268193356902
0.0585,1.7405640233165451,1.0,3049.9102352861632,0.48218389314090543,1.3040716763155098,0.9792706799076561,0.2861566889792949,0.7051671417814919
0.059000000000000004,1.7399096116984154,1.0,3053.8812151559205,0.4850884398144477,1.3037420005584983,0.9794944269481309,0.28612920369133343,0.7058061131910753
0.059500000000000004,1.7392552000802854,1.0,3057.8165489769867,0.4879766886974224,1.3034126531073345,0.9797130814295891,0.28610171840337195,0.7064437561682664
0.06,1.7386007884621557,1.0,3061.7173953113684,0.49084873144751073,1.3030836233852818,0.9799267992902306,0.2860742331154105,0.7070800932259205
0.0605,1.737946376844026,1.0,3065.5849165490663,0.4937046597223943,1.302754900815604,0.9801357304638806,0.2860467478274491,0.7077151467861408
0.061,1.7372919652258962,1.0,3069.420278834597,0.4965445651797543,1.3024264748215648,0.98034001915745,0.2860192625394876,0.7083489391804892
0.0615,1.7366375536077663,1.0,3073.2246519965506,0.49936853947727233,1.3020983348264281,0.9805398041135202,0.2859917772515262,0.7089814926501892
0.062,1.7359831419896365,1.0,3076.9992094790096,0.5021766742726297,1.3017704702534572,0.9807352188589588,0.28596429196356477,0.7096128293463244
0.0625,1.7353287303715068,1.0,3080.7451282755765,0.5049690612235077,1.3014428705259158,0.980926391940409,0.2859368066756033,0.7102429713300255
0.063,1.734674318753377,1.0,3084.4628124582528,0.5077457751572969,1.3011155317058394,0.9811134462536166,0.2859093213876418,0.7108719278236915
0.0635,1.7340199071352473,1.0,3088.1525860290985,0.5105068975156765,1.3007884505529002,0.9812965007172677,0.2858818360996804,0.7114997066772498
0.064,1.7333654955171174,1.0,3091.8166860047636,0.5132525508301956,1.3004616075003141,0.9814756720360247,0.28585435081171895,0.7121263469972168
0.0645,1.7327110838989876,1.0,3095.455641621633,0.5159828174242089,1.3001349976076897,0.9816510705562312,0.28582686552375747,0.7127518597290565
0.065,1.732056672280858,1.0,3099.0699838442324,0.518697779621071,1.2998086159346358,0.9818228026788691,0.28579938023579604,0.7133762557760142
0.0655,1.7314022606627282,1.0,3102.6602453396786,0.5213975197441361,1.2994824575407609,0.9819909710291782,0.2857718949478346,0.7139995459991912
0.066,1.7307478490445984,1.0,3106.2269604531953,0.5240821201167589,1.2991565174856734,0.982155674617812,0.28574440965987313,0.7146217412176148
0.0665,1.7300934374264685,1.0,3109.770665183894,0.5267516630622937,1.2988307908289822,0.9823170089940029,0.28571692437191165,0.715242852208307
0.067,1.7294390258083387,1.0,3113.2918971611266,0.5294062309040952,1.2985052726302961,0.9824750663911895,0.2856894390839502,0.7158628897063539
0.0675,1.728784614190209,1.0,3116.7911956212765,0.5320459059655177,1.2981799579492233,0.9826299358655286,0.2856619537959888,0.7164818644049727
0.068,1.7281302025720793,1.0,3120.2691013851268,0.5346707705699157,1.2978548418453728,0.9827817034276836,0.2856344685080273,0.7170997869555739
0.0685,1.7274757909539495,1.0,3123.726156836327,0.5372809070406438,1.297529919378353,0.982930452168264,0.2856069832200659,0.7177166679678278
0.069,1.7268213793358196,1.0,3127.1629058992135,0.5398763977010563,1.2972051856077722,0.9830762623772601,0.2855794979321044,0.7183325180097248
0.0695,1.7261669677176898,1.0,3130.579894018463,0.5424573248745077,1.2968806355932398,0.9832192116578017,0.285552012644143,0.7189473476076338
0.07,1.7255125560995601,1.0,3133.977668138312,0.5450237708843527,1.2965562643943638,0.9833593750345472,0.2855245273561815,0.7195611672463655
0.07050000000000001,1.7248581444814304,1.0,3137.356776682906,0.5475758180539455,1.2962320670707532,0.9834968250569908,0.2854970420682201,0.7201739873692243
