Time [s],Phi [rad],STIM [ ],Fsee [N],Gamma [ ],Lcerel [ ],q [ ],Lmtc [m],fisomrel [ ]
0.0,1.8,1.0,17.96742782948781,1.743551823005451e-05,1.3793397160086824,0.005000080666005129,0.288653,0.5411396041404726
0.0005,1.79999375,1.0,18.27924155748275,0.005626547027558392,1.3793021103851848,0.012961169489666323,0.2886527375,0.541230577351228
0.001,1.799975,1.0,21.62638930602056,0.01120419585620461,1.3789374843158055,0.03564733306151588,0.28865195,0.5421121906263031
0.0015,1.79994375,1.0,31.0889167515146,0.016750558485799365,1.3780445272623367,0.07065475284198541,0.2886506375,0.5442676511702691
0.002,1.7999,1.0,53.62529692070473,0.0222658104063091,1.3763653485239653,0.11478066039611129,0.2886488,0.5483071569848028
0.0025,1.79984375,1.0,97.19140477938176,0.02775012612365313,1.3739316758925504,0.16464302141433657,0.28864643749999996,0.554129788788867
0.003,1.7997750000000001,1.0,161.05281242484924,0.03320367916735132,1.371210801601872,0.21735073987069992,0.28864354999999997,0.5605948366520906
0.0035,1.79969375,1.0,237.79046163760972,0.038626642090169507,1.3685814347146004,0.27068279690355806,0.2886401375,0.5667975956113738
0.004,1.7996,1.0,321.5808801584812,0.04401918647888804,1.3661530703575315,0.3229834933208267,0.2886362,0.5724870187109458
0.0045000000000000005,1.7994937500000001,1.0,409.3860238388943,0.04938148295949011,1.3639200380478385,0.3730987658768918,0.2886317375,0.5776856055716193
0.005,1.799375,1.0,499.53425443781884,0.05471370118826543,1.3618557765686834,0.4203075804134864,0.28862675,0.5824630005225608
0.0055,1.79924375,1.0,590.9123221019862,0.06001600989899105,1.3599364534334748,0.46422936053682157,0.2886212375,0.5868805787300129
0.006,1.7991000000000001,1.0,682.6402274469264,0.06528857684682088,1.3581441950461524,0.5047311161115632,0.2886152,0.5909844883760955
0.006500000000000001,1.79894375,1.0,774.0048513229981,0.07053156886152681,1.3564651438800202,0.5418475098640617,0.2886086375,0.5948105905567491
0.007,1.798775,1.0,864.4105182094539,0.07574515184239547,1.3548883806512837,0.5757193593362598,0.28860155,0.5983872362203749
0.0075,1.79859375,1.0,953.367380424584,0.08092949073810138,1.3534048694670981,0.6065486274767231,0.2885939375,0.6017378770310693
0.008,1.7984,1.0,1040.4802295916143,0.08608474959261377,1.3520068535055272,0.6345672323186938,0.2885858,0.6048825736133238
0.0085,1.79819375,1.0,1125.4384595833944,0.09121109152923831,1.3506874828776871,0.6600163468586128,0.2885771375,0.6078389328855609
0.009000000000000001,1.797975,1.0,1207.9944396160047,0.09630867854096484,1.3494407471380414,0.6831333963003439,0.28856795,0.6106223349477278
0.0095,1.79774375,1.0,1287.9842595581467,0.1013776723423564,1.3482609057067423,0.7041440336288338,0.2885582375,0.613247262615815
0.01,1.7975,1.0,1365.278713802456,0.10641823339951437,1.3471429501174526,0.7232582577861069,0.288548,0.6157263143614536
0.0105,1.79724375,1.0,1439.7709088899694,0.11143052053978646,1.3460825520365598,0.740668547817148,0.2885372375,0.6180703672699678
0.011,1.796975,1.0,1511.4159397058372,0.11641469248452947,1.3450754087630359,0.7565491935170114,0.28852595000000003,0.6202900582494378
0.0115,1.79669375,1.0,1580.209999472809,0.12137090731972461,1.344117419986623,0.7710569676701481,0.2885141375,0.6223954121867031
0.012,1.7964,1.0,1646.1601862039427,0.12629932214693787,1.3432049573260711,0.7843323188539408,0.28850180000000003,0.6243952718967146
0.0125,1.79609375,1.0,1709.2710338839313,0.13120009214922534,1.3423349199223245,0.7965006900180075,0.2884889375,0.6262972021740296
0.013000000000000001,1.7957750000000001,1.0,1769.5832515490863,0.13607337250964321,1.3415042069163272,0.8076736920580793,0.28847555,0.6281086628139362
0.0135,1.79544375,1.0,1827.1536451080585,0.14091931724248677,1.3407099049780973,0.817950591009624,0.2884616375,0.6298366092149743
0.014,1.7951000000000001,1.0,1882.0666567905162,0.14573808115435796,1.3399491155307224,0.8274195800782891,0.2884472,0.6314878789855853
0.0145,1.79474375,1.0,1934.3692321470899,0.15052981547287722,1.3392196286887281,0.8361592583945149,0.2884322375,0.6330677407917138
0.015,1.794375,1.0,1984.1284429757138,0.15529467139588263,1.3385192395832017,0.8442394898160107,0.28841675,0.6345813916837082
0.0155,1.79399375,1.0,2031.4295593182987,0.16003280006551648,1.3378457498784952,0.8517224262578216,0.2884007375,0.6360339581920831
0.016,1.7936,1.0,2076.3568132523073,0.1647443511372801,1.3371971507506895,0.8586634744465604,0.2883842,0.6374301069056658
0.0165,1.7931937500000001,1.0,2119.0136740507824,0.16942947557686852,1.3365713883236867,0.865112023933195,0.2883671375,0.6387745553630935
0.017,1.792775,1.0,2159.4654904147733,0.17408832016004147,1.3359669384935748,0.8711123227887231,0.28834955,0.6400708425996636
0.0175,1.7923437500000001,1.0,2197.788246107064,0.17872103166255865,1.3353822771564423,0.8767039311529986,0.2883314375,0.6413224750298447
0.018000000000000002,1.7919,1.0,2234.0676747554594,0.18332775686017977,1.3348158802083767,0.8819222725605146,0.2883128,0.6425329284448021
0.0185,1.79144375,1.0,2268.387411061362,0.1879086412839101,1.334266333374341,0.8867991446222917,0.2882936375,0.6437054157285522
0.019,1.790975,1.0,2300.8433625413654,0.19246383178983445,1.3337321782932754,0.8913631009868964,0.28827395,0.6448432180217648
0.0195,1.79049375,1.0,2331.5114106733513,0.19699347222140642,1.3332122249084604,0.8956398963762551,0.2882537375,0.6459490215929644
0.02,1.79,1.0,2360.4583738837605,0.20149770462202532,1.3327054296296306,0.899652773397628,0.288233,0.6470251820630196
0.0205,1.78949375,1.0,2387.756138461976,0.20597667103509038,1.3322107488665211,0.9034227110191255,0.2882117375,0.6480740380661519
0.021,1.788975,1.0,2413.4812355645827,0.2104305135040008,1.3317271390288667,0.9069686758334725,0.28818995000000003,0.6490979120909532
0.021500000000000002,1.78844375,1.0,2437.6938706772694,0.21485937257180193,1.3312537543904144,0.910307884005657,0.2881676375,0.6500986932469868
0.022,1.7879,1.0,2460.49539356747,0.21926339046671592,1.3307893887116824,0.9134558752400332,0.2881448,0.6510790188640034
0.0225,1.7873469771522594,1.0,2482.0936786665975,0.22364270678001288,1.3303333145097471,0.9164268613670853,0.2881215730403949,0.6520405016741215
0.023,1.7867934592904504,1.0,2502.9239207248124,0.22799745851659542,1.329885202289955,0.9192338464431971,0.2880983252901989,0.6529839072388887
0.0235,1.7862399414286414,1.0,2523.033829329577,0.23232778268136609,1.3294447225576518,0.9218886755621704,0.28807507754000294,0.653909996106224
0.024,1.7856864235668324,1.0,2542.4487184433633,0.23663381627922753,1.3290115458181844,0.9244021540896039,0.2880518297898069,0.6548195239742627
0.0245,1.7851329057050234,1.0,2561.1948030285484,0.24091569631508233,1.3285853425768985,0.9267841532056007,0.28802858203961096,0.6557132418482852
0.025,1.7845793878432143,1.0,2579.2964562432744,0.24517355844630126,1.328165808498221,0.9290437071060746,0.288005334289415,0.6565918435354239
0.025500000000000002,1.7840258699814053,1.0,2596.776779744324,0.24940753838397647,1.3277526582032402,0.9311890952853957,0.28798208653921903,0.6574559790838967
0.026000000000000002,1.7834723521195963,1.0,2613.657145015156,0.25361776911266776,1.327345628815124,0.9332279151919074,0.28795883878902306,0.6583062477539257
0.0265,1.7829188342577873,1.0,2629.9591562587107,0.25780438327607097,1.3269444610676746,0.9351671459361488,0.28793559103882704,0.6591432378098463
0.027,1.7823653163959783,1.0,2645.7050007422426,0.2619675135178819,1.3265488956946943,0.9370132065349508,0.2879123432886311,0.6599675341855092
0.0275,1.7818117985341695,1.0,2660.9059107102867,0.26610728231471786,1.3261587793465661,0.9387720199977908,0.2878890955384351,0.6607794982626212
0.028,1.7812582806723605,1.0,2675.599444606191,0.27022383489312457,1.3257737205769826,0.9404490218540533,0.28786584778823915,0.6615799839969071
0.0285,1.7807047628105515,1.0,2689.808599840615,0.2743173041868001,1.325393467201954,0.9420492451498129,0.2878426000380432,0.6623695519843459
0.029,1.7801512449487424,1.0,2703.548799439603,0.2783878162328132,1.3250178403296498,0.9435773492964246,0.28781935228784716,0.6631486079956961
0.029500000000000002,1.7795977270869334,1.0,2716.8358118893275,0.2824354970682325,1.3246466610682393,0.9450376456434402,0.2877961045376512,0.6639175556672314
0.03,1.7790442092251244,1.0,2729.6857331408146,0.28646047273012676,1.324279750525892,0.9464341279449531,0.28777285678745523,0.6646767965525038
0.0305,1.7784906913633154,1.0,2742.1149693240177,0.2904628692555646,1.323916929810778,0.9477704997978023,0.2877496090372592,0.6654267301720648
0.031,1.7779371735015064,1.0,2754.1402201720157,0.29444281268161476,1.3235580200310662,0.9490501993855364,0.28772636128706325,0.6661677540611486
0.0315,1.7773836556396974,1.0,2765.7784631536388,0.29840042904534597,1.323202842294926,0.950276421821923,0.2877031135368673,0.6669002638153099
0.032,1.7768301377778883,1.0,2777.0469383167806,0.3023358443838269,1.3228512177105274,0.9514521393528736,0.2876798657866713,0.6676246531340231
0.0325,1.7762766199160795,1.0,2787.9631338405256,0.30624918473412616,1.3225029673860396,0.9525801196451742,0.28765661803647535,0.668341313862242
0.033,1.7757231020542705,1.0,2798.544772297079,0.3101405761333126,1.322157912429632,0.9536629423637861,0.28763337028627933,0.6690506360299155
0.0335,1.7751695841924615,1.0,2808.7976537415834,0.31401013074088346,1.3218159827633338,0.9547030228468849,0.28761012253608337,0.6697527845601712
0.034,1.7746160663306525,1.0,2818.7484764169735,0.31785798865055104,1.321476922484697,0.9557026032227985,0.2875868747858874,0.6704483045592098
0.0345,1.7740625484688435,1.0,2828.4080441806923,0.32168426907519115,1.3211406199411222,0.9566637894640737,0.28756362703569144,0.67113744331579
0.035,1.7735090306070345,1.0,2837.786314418173,0.3254890899977625,1.320806972251274,0.957588552295903,0.2875403792854955,0.671820429065594
0.035500000000000004,1.7729555127452254,1.0,2846.8933689736414,0.3292725694012239,1.3204758765338183,0.958478736873695,0.28751713153529945,0.6724974890302324
0.036000000000000004,1.7724019948834164,1.0,2855.739408212281,0.3330348252685342,1.3201472299074197,0.9593360722334752,0.2874938837851035,0.6731688494343295
0.0365,1.7718484770216074,1.0,2864.3347453158644,0.33677597558265204,1.3198209294907435,0.9601621799279344,0.2874706360349075,0.673834735521929
0.037,1.7712949591597984,1.0,2872.689800813828,0.3404961383265365,1.3194968724024547,0.9609585819266722,0.2874473882847115,0.6744953715722244
0.0375,1.7707414412979896,1.0,2880.8150973491984,0.34419543148314624,1.3191749557612187,0.9617267078508626,0.2874241405345156,0.6751509809146177
0.038,1.7701879234361806,1.0,2888.7212546779783,0.34787397303544004,1.3188550766857003,0.9624679016051733,0.2874008927843196,0.6758017859431
0.0385,1.7696344055743716,1.0,2896.4189849050276,0.3515318809663768,1.318537132294565,0.9631834274632493,0.2873776450341236,0.676448008129958
0.039,1.7690808877125626,1.0,2903.916979492713,0.35516926891665535,1.3182210382871147,0.9638744765235001,0.28735439728392764,0.6770898303299449
0.0395,1.7685273698507535,1.0,2911.220746224586,0.3587862461580124,1.3179067390250865,0.964542172723365,0.2873311495337316,0.6777273765383787
0.04,1.7679738519889445,1.0,2918.3466673993144,0.36238294554725947,1.3175940837478257,0.9651875715944798,0.28730790178353566,0.6783609629093721
0.0405,1.7674203341271355,1.0,2925.300446947103,0.3659594770328432,1.31728301635606,0.9658116730196002,0.2872846540333397,0.6789907127933679
0.041,1.7668668162653265,1.0,2932.0878363653983,0.36951595056321024,1.316973480750517,0.9664154209649833,0.2872614062831437,0.6796167490462426
0.0415,1.7663132984035175,1.0,2938.714632778758,0.3730524760868072,1.316665420831924,0.9669997071915448,0.28723815853294776,0.6802391940348869
0.042,1.7657597805417085,1.0,2945.186677068528,0.37656916355208087,1.3163587805010089,0.9675653746826933,0.28721491078275174,0.6808581696425846
0.0425,1.7652062626798997,1.0,2951.50985207223,0.3800661229074779,1.3160535036584993,0.9681132208131683,0.2871916630325558,0.6814737972741932
0.043000000000000003,1.7646527448180906,1.0,2957.6900808528253,0.3835434641014448,1.3157495342051226,0.9686440002809004,0.2871684152823598,0.6820861978611228
0.043500000000000004,1.7640992269562816,1.0,2963.733325037384,0.3870012970824285,1.3154468160416068,0.9691584278218465,0.2871451675321638,0.6826954918661118
0.044,1.7635457090944726,1.0,2969.6455832263464,0.3904397317988754,1.3151452930686793,0.9696571807258823,0.2871219197819678,0.6833017992878068
0.0445,1.7629921912326636,1.0,2975.4328894717087,0.3938588781992324,1.3148449091870675,0.9701409011701794,0.28709867203177186,0.6839052396651377
0.045,1.7624386733708546,1.0,2981.1013118252577,0.3972588462319461,1.3145456082974993,0.9706101983849794,0.2870754242815759,0.6845059320814928
0.0455,1.7618851555090456,1.0,2986.655992543968,0.4006397421704943,1.3142473426288304,0.971065650773601,0.28705217653137993,0.6851039784780565
0.046,1.7613316376472365,1.0,2992.0974271135383,0.40400165719683684,1.3139501049927318,0.9715078086103387,0.2870289287811839,0.6856993991551426
0.0465,1.7607781197854275,1.0,2997.437673844819,0.40734472877156563,1.3136537879938708,0.9719371937765753,0.28700568103098795,0.686292414786658
0.047,1.7602246019236185,1.0,3002.6797196902307,0.4106690583368372,1.3133583632872008,0.9723543032780043,0.286982433280792,0.6868830872384142
0.0475,1.7596710840618097,1.0,3007.8265684367684,0.41397474733480816,1.3130638025276755,0.9727596099140651,0.286959185530596,0.6874714781470428
0.048,1.7591175662000007,1.0,3012.881240154455,0.4172618972076349,1.312770077370248,0.9731535636830232,0.28693593778040005,0.6880576489215852
0.0485,1.7585640483381917,1.0,3017.8467706619867,0.42053060939747405,1.312477159469872,0.9735365930928778,0.28691269003020403,0.6886416607450259
0.049,1.7580105304763827,1.0,3022.7262110108854,0.4237809853464821,1.3121850204815013,0.9739091063852316,0.28688944228000807,0.68922357457578
0.0495,1.7574570126145737,1.0,3027.522626986563,0.42701312649681555,1.3118936320600891,0.9742714926786452,0.2868661945298121,0.6898034511491256
0.05,1.7569034947527646,1.0,3032.2390986280298,0.430227134290631,1.3116029658605888,0.9746241230374567,0.2868429467796161,0.6903813509785865
0.0505,1.7563499768909556,1.0,3036.878719765316,0.43342311017008484,1.3113129935379542,0.9749673514715632,0.2868196990294201,0.6909573343572631
0.051000000000000004,1.7557964590291466,1.0,3041.444597574007,0.4366011555773337,1.3110236867471385,0.9753015158721978,0.28679645127922415,0.691531461359113
0.051500000000000004,1.7552429411673376,1.0,3045.939852148363,0.4397613719545341,1.3107350171430956,0.975626938888336,0.2867732035290282,0.6921037918401789
0.052000000000000005,1.7546894233055286,1.0,3050.367616092004,0.4429038607438425,1.3104469563807788,0.9759439287479906,0.2867499557788322,0.6926743854397668
0.0525,1.7541359054437198,1.0,3054.731034126269,0.44602872338741545,1.3101594761151414,0.9762527800283133,0.2867267080286362,0.6932433015815722
0.053,1.7535823875819108,1.0,3059.0332627166017,0.44913606132740946,1.3098725480011373,0.9765537743781147,0.28670346027844024,0.6938105994747541
0.0535,1.7530288697201017,1.0,3063.2720554592693,0.45222593628726104,1.3095861901488073,0.9768471800391727,0.28668021252824427,0.6943762463939622
0.054,1.7524753518582927,1.0,3067.4557014287197,0.45529849714966836,1.3093003303019148,0.9771332569421889,0.2866569647780483,0.6949403879946632
0.0545,1.7519218339964837,1.0,3071.5858632374043,0.45835383816511177,1.3090149531958302,0.9774122518867701,0.28663371702785234,0.6955030570834786
0.055,1.7513683161346747,1.0,3075.663968319419,0.46139205166882835,1.3087300456343107,0.9776844011789553,0.2866104692776563,0.6960642822788151
0.0555,1.7508147982728657,1.0,3079.691449691603,0.46441322999605517,1.3084455944211142,0.9779499312265774,0.28658722152746036,0.6966240920988698
0.056,1.7502612804110567,1.0,3083.6697458176695,0.4674174654820292,1.3081615863599978,0.9782090590354588,0.2865639737772644,0.6971825149620205
0.0565,1.7497077625492476,1.0,3087.6003004765844,0.47040485046198766,1.3078780082547192,0.978461992676801,0.28654072602706837,0.6977395791872036
0.057,1.7491542446874386,1.0,3091.4845626353945,0.47337547727116747,1.307594846909036,0.9787089317276547,0.2865174782768724,0.6982953129942817
0.0575,1.7486007268256298,1.0,3095.323986324701,0.4763294382448058,1.3073120891267054,0.9789500676862319,0.28649423052667644,0.6988497445044002
0.058,1.7480472089638208,1.0,3099.1200305190696,0.47926682571813956,1.3070297217114848,0.9791855843636856,0.2864709827764805,0.6994029017403323
0.0585,1.7474936911020118,1.0,3102.874159020542,0.48218773202640597,1.306747731467132,0.9794156582538682,0.2864477350262845,0.699954812626812
0.059000000000000004,1.7469401732402028,1.0,3106.587840346697,0.485092249504842,1.3064661051974047,0.9796404588824729,0.2864244872760885,0.7005055049908586
0.059500000000000004,1.7463866553783938,1.0,3110.262547622265,0.48798047048868465,1.3061848297060599,0.9798601491368589,0.2864012395258925,0.7010550065620891
0.06,1.7458331375165848,1.0,3113.899758474114,0.49085248731317105,1.305903891796855,0.9800748855777756,0.28637799177569656,0.7016033449730166
0.0605,1.7452796196547757,1.0,3117.500954930931,0.49370839231353836,1.3056232782735482,0.9802848187341073,0.2863547440255006,0.702150547759341
0.061,1.7447261017929667,1.0,3121.0676233263475,0.4965482778250235,1.3053429759398962,0.9804900933816922,0.28633149627530463,0.7026966423602294
0.0615,1.7441725839311577,1.0,3124.6012542056474,0.4993722361828635,1.305062971599657,0.9806908488071876,0.2863082485251086,0.7032416561185808
0.062,1.743619066069349,1.0,3128.102615164142,0.5021803464958552,1.3047832582299956,0.9808872183837287,0.28628500077491265,0.7037856042815938
0.0625,1.74306554820754,1.0,3131.5706363503637,0.5049726610497872,1.3045038444213362,0.9810793293409241,0.2862617530247167,0.7043284717239372
0.063,1.7425120303457309,1.0,3135.010002278607,0.5077493393834213,1.3042246899449073,0.9812673095988323,0.28623850527452066,0.7048703380992508
0.0635,1.7419585124839219,1.0,3138.4213251299507,0.5105104639065321,1.3039457891847268,0.9814512784704414,0.2862152575243247,0.7054112156788062
0.064,1.7414049946221128,1.0,3141.8052189604514,0.5132561170288942,1.3036671365248127,0.9816313509350132,0.28619200977412873,0.7059511166926683
0.0645,1.7408514767603038,1.0,3145.1622996701835,0.5159863811602822,1.303388726349183,0.9818076378272116,0.28616876202393277,0.7064900533297849
0.065,1.7402979588984948,1.0,3148.4931849725904,0.5187013387104705,1.303110553041856,0.9819802460166495,0.2861455142737368,0.7070280377380744
0.0655,1.7397444410366858,1.0,3151.7984943646748,0.5214010720892339,1.3028326109868498,0.9821492785784038,0.2861222665235408,0.7075650820245132
0.066,1.7391909231748768,1.0,3155.078849097966,0.5240856637063469,1.3025548945681822,0.982314834955018,0.2860990187733448,0.7081011982552173
0.0665,1.7386374053130678,1.0,3158.3348721499633,0.526755195971584,1.302277398169871,0.9824770111104721,0.28607577102314885,0.7086363984555271
0.067,1.7380838874512587,1.0,3161.567188196077,0.5294097512947199,1.302000116175935,0.9826358996765724,0.28605252327295283,0.7091706946100823
0.0675,1.73753036958945,1.0,3164.776423583427,0.532049412085529,1.3017230429703914,0.9827915900921871,0.2860292755227569,0.709704098662906
0.068,1.736976851727641,1.0,3167.9632063034383,0.5346742607537861,1.3014461729372586,0.982944168735723,0.2860060277725609,0.7102366225174757
0.0685,1.736423333865832,1.0,3171.1281659670753,0.5372843797092656,1.301169500460555,0.9830937190512162,0.28598278002236494,0.7107682780367977
0.069,1.735869816004023,1.0,3174.2719337794706,0.539879851361742,1.300893019924298,0.9832403216683873,0.28595953227216897,0.711299077043482
0.0695,1.7353162981422139,1.0,3177.3951425156038,0.5424607581209901,1.3006167257125063,0.9833840545169894,0.28593628452197295,0.7118290313198079
0.07,1.7347627802804049,1.0,3180.4984264970703,0.5450271823967844,1.3003406122091974,0.9835249929357563,0.285913036771777,0.7123581526077951
