Time [s],Phi [rad],STIM [ ],Fsee [N],Gamma [ ],Lcerel [ ],q [ ],Lmtc [m],fisomrel [ ]
0.0,1.8,1.0,17.969947674089358,5.299984277053595e-05,1.379339433713832,0.005000738854975278,0.288653,0.5411402870844044
0.0005,1.79999375,1.0,18.293588559629644,0.00566191186437431,1.3793005171339519,0.01306032051960291,0.2886527375,0.5412344314474384
0.001,1.799975,1.0,21.66718000494099,0.011239362324247987,1.378933320879983,0.035832993333728747,0.28865195,0.5421222523178184
0.0015,1.79994375,1.0,31.186143385082367,0.01678552769777679,1.37803625297346,0.07090867988912314,0.2886506375,0.5442876002480426
0.002,1.7999,1.0,53.8351524673508,0.02230058346862718,1.376351752913617,0.11508125800007737,0.2886488,0.548339789792244
0.0025,1.79984375,1.0,97.5443752631952,0.027784704136608076,1.3739146888385567,0.1649699692200651,0.28864643749999996,0.5541702980572873
0.003,1.7997750000000001,1.0,161.51220299404793,0.03323806322498901,1.371193623470103,0.21768799282056572,0.28864354999999997,0.560635503492141
0.0035,1.79969375,1.0,238.30957558930453,0.038660833280408924,1.3685654569494332,0.27101820604795723,0.2886401375,0.5668351528815545
0.004,1.7996,1.0,322.13318431687804,0.04405318588357239,1.366138450799958,0.32330824328452545,0.2886362,0.5725211570338222
0.0045000000000000005,1.7994937500000001,1.0,409.95794625467425,0.04941529165445919,1.363906619473086,0.37340702671203213,0.2886317375,0.5777167484173169
0.005,1.799375,1.0,500.1178242950406,0.05474732024362346,1.3618433808757557,0.42059597310210783,0.28862675,0.5824916062385292
0.0055,1.79924375,1.0,591.5010362449799,0.06004944037735329,1.3599249554363737,0.46449636223641205,0.2886212375,0.5869069721113661
0.006,1.7991000000000001,1.0,683.2296770302225,0.0653218198064277,1.3581334836918935,0.5049764844942426,0.2886152,0.5910089536310851
0.006500000000000001,1.79894375,1.0,774.5912388791871,0.0705646253581705,1.3564551365539668,0.5420718519979104,0.2886086375,0.5948333406386892
0.007,1.798775,1.0,864.9893833318139,0.0757780229139833,1.3548790323639985,0.5759238083586803,0.28860155,0.5984083940956381
0.0075,1.79859375,1.0,953.9327455258535,0.08096217736149518,1.353396175422596,0.6067346090053505,0.2885939375,0.6017574719281943
0.008,1.7984,1.0,1041.0402727801345,0.08611725300135283,1.3519986095896235,0.6347361617783721,0.2885858,0.6049010805069255
0.0085,1.79819375,1.0,1125.9813474440382,0.0912434125620971,1.3506797989323187,0.6601698356583033,0.2885771375,0.6078561180509838
0.009000000000000001,1.797975,1.0,1208.5210022603637,0.09634081826922794,1.3494335533500084,0.6832728923488893,0.28856795,0.6106383666874582
0.0095,1.79774375,1.0,1288.5008082329132,0.1014096320150733,1.3482540713158462,0.7042708632105193,0.2885582375,0.6132624420023518
0.01,1.7975,1.0,1365.7694758482628,0.10645001354091832,1.3471366433231855,0.7233737964768637,0.288548,0.6157402769844117
0.0105,1.79724375,1.0,1440.2386889131267,0.11146212231322747,1.3460766981125458,0.740773925469689,0.2885372375,0.6180832877025442
0.011,1.796975,1.0,1511.8710762999542,0.1164461170251793,1.3450698496635927,0.7566453891206977,0.28852595000000003,0.620302292261306
0.0115,1.79669375,1.0,1580.6584892280919,0.12140215602520532,1.3441120626160166,0.7711448903696415,0.2885141375,0.6224071695221642
0.012,1.7964,1.0,1646.5838275206686,0.12633039529584758,1.3431999991527799,0.7844129057790691,0.28850180000000003,0.6244061243033543
0.0125,1.79609375,1.0,1709.6710304246299,0.13123099080179781,1.3423303256922408,0.7965746785323609,0.2884889375,0.6263072324982282
0.013000000000000001,1.7957750000000001,1.0,1769.9605403930807,0.13610409742451035,1.3414999479648182,0.8077417396670526,0.28847555,0.6281179385842681
0.0135,1.79544375,1.0,1827.5341019497148,0.1409498708895129,1.340705678460941,0.8180131790564693,0.2884616375,0.6298457929351718
0.014,1.7951000000000001,1.0,1882.4308368943477,0.1457684633406458,1.3399451292756428,0.8274773218878283,0.2884472,0.6314965213066535
0.0145,1.79474375,1.0,1934.7097431983098,0.15056002673496985,1.3392159522291915,0.8362126506064915,0.2884322375,0.6330756943662081
0.015,1.794375,1.0,1984.4511655389556,0.15532471302954595,1.3385157991418555,0.8442889259440044,0.28841675,0.6345888192963998
0.0155,1.79399375,1.0,2031.7350728342524,0.1600626728437372,1.3378425310295636,0.8517682753356264,0.2884007375,0.6360408935827115
0.016,1.7936,1.0,2076.665338118463,0.16477405766732084,1.3371939355326858,0.8587060034443978,0.2883842,0.6374370211734022
0.0165,1.7931937500000001,1.0,2119.3080283773093,0.16945901534604338,1.3365683518058202,0.865151586906053,0.2883671375,0.6387810732229389
0.017,1.792775,1.0,2159.7386684963476,0.17411769353587964,1.3359641469374708,0.8711492052008315,0.28834955,0.6400768238921478
0.0175,1.7923437500000001,1.0,2198.0438537034893,0.17875023989280445,1.3353796880161424,0.8767383586438974,0.2883314375,0.6413280129661831
0.018000000000000002,1.7919,1.0,2234.3062501000563,0.18335680072011412,1.3348134832903513,0.8819544556027027,0.2883128,0.6425380465783853
0.0185,1.79144375,1.0,2268.6255591918443,0.1879375237880741,1.3342639589160672,0.8868292325483023,0.2882936375,0.6437104775821356
0.019,1.790975,1.0,2301.0735828610796,0.19249255305515106,1.333729899123691,0.8913912867088599,0.28827395,0.6448480689760556
0.0195,1.79049375,1.0,2331.721181391429,0.19702203168561336,1.3332101618872074,0.8956663647713033,0.2882537375,0.6459534056603987
0.02,1.79,1.0,2360.645033820983,0.20152610284372946,1.3327036051806007,0.8996776689122483,0.288233,0.647029053252012
0.0205,1.78949375,1.0,2387.926601388649,0.20600490960584372,1.3322090922782484,0.9034461436659352,0.2882117375,0.648077547856066
0.021,1.788975,1.0,2413.6357348296847,0.21045859284888002,1.3317256455988273,0.9069907588079723,0.28818995000000003,0.6491010715945191
0.021500000000000002,1.78844375,1.0,2437.861715846351,0.21488729666390746,1.3312521400349586,0.9103286626988618,0.2881676375,0.6501021037061867
0.022,1.7879,1.0,2460.661666146967,0.21929115935651744,1.3307877969083948,0.9134754767795252,0.2881448,0.65108237696585
0.0225,1.78734375,1.0,2482.0957291827795,0.22367031923230157,1.330331837540888,0.916445390182101,0.28812143749999997,0.6520436132234071
0.023,1.786775,1.0,2502.2268212243043,0.22802491459685129,1.3298834832541904,0.9192513108768541,0.28809755,0.6529875238395482
0.0235,1.78619375,1.0,2521.120395880974,0.23235508375575806,1.3294419553700545,0.9219049990854032,0.28807313749999996,0.6539158100827648
0.024,1.7856,1.0,2538.8351818927804,0.2366609627478643,1.3290065604115737,0.9244171995301251,0.2880482,0.6548299847134742
0.0245,1.78499375,1.0,2555.4365902139207,0.2409426909926074,1.3285765608096838,0.9267977239716338,0.2880227375,0.6557316444084189
0.025,1.784375,1.0,2570.977060915932,0.24520040386153674,1.3281513579886055,0.9290555723721041,0.28799675,0.6566220862571239
0.025500000000000002,1.78374375,1.0,2585.5025234411974,0.2494342343709545,1.327730428443624,0.9311990023822005,0.2879702375,0.6575024434698937
0.026000000000000002,1.7831000000000001,1.0,2599.060215916775,0.2536443155371629,1.3273132486700248,0.9332355900931539,0.2879432,0.6583738432559775
0.0265,1.78244375,1.0,2611.6985730700376,0.2578307803764641,1.3268992951630936,0.9351722954933359,0.2879156375,0.659237406957502
0.027,1.781775,1.0,2623.4671202214945,0.2619937619051604,1.3264880444181153,0.9370155208400748,0.28788755,0.6600942501659273
0.0275,1.7810937500000001,1.0,2634.4080650611263,0.2661333909923494,1.3260790498004376,0.9387711735100329,0.2878589375,0.6609453229631498
0.028,1.7804,1.0,2644.5649916654015,0.27024980012207567,1.3256718596550254,0.9404447007967854,0.2878298,0.661791581086854
0.0285,1.77969375,1.0,2653.9913418150336,0.2743431231123045,1.3252659384691534,0.9420411202702902,0.2878001375,0.6626341494635871
0.029,1.778975,1.0,2662.7185576306306,0.2784134870999299,1.3248609600747343,0.9435650968294728,0.28776995,0.6634737137095723
0.029500000000000002,1.7782437500000001,1.0,2670.778612193813,0.2824610192218458,1.3244565983036807,0.9450209470277077,0.2877392375,0.6643109560497577
0.03,1.7775,1.0,2678.2039630847894,0.28648584661494614,1.324052526987906,0.9464126695440773,0.287708,0.6651465553340321
0.0305,1.77674375,1.0,2685.0275082789517,0.29048809641612494,1.3236484199593228,0.9477439726272776,0.2876762375,0.665981187046664
0.031,1.775975,1.0,2691.282544402104,0.2944678957622762,1.323243951049844,0.94901829884583,0.28764395,0.6668155233089481
0.0315,1.7751937500000001,1.0,2697.0027273439664,0.298425371790294,1.3228387940913826,0.9502388474382042,0.2876111375,0.6676502328750697
0.032,1.7744,1.0,2702.2150302878035,0.3023606471553495,1.3224326869087466,0.9514086009725743,0.2875778,0.6684858495306321
0.0325,1.77359375,1.0,2706.9542152181393,0.3062738520073832,1.3220252986356573,0.9525303306980084,0.2875439375,0.6693230454037491
0.033,1.772775,1.0,2711.244116218062,0.3101651092768262,1.3216164004441224,0.9536066294563079,0.28750955,0.6701622798640494
0.0335,1.7719437500000002,1.0,2715.106248199417,0.3140345401281136,1.3212057864421465,0.9546399182747458,0.2874746375,0.6710039628701601
0.034,1.7711000000000001,1.0,2718.5622967463546,0.3178822657256802,1.3207932507377338,0.9556324578154406,0.2874392,0.6718485021719307
0.0345,1.7702437500000001,1.0,2721.6341006484254,0.32170840723396105,1.3203785874388887,0.9565863608902138,0.2874032375,0.672696303286551
0.035,1.7693750000000001,1.0,2724.343635372682,0.3255130858173911,1.319961590653616,0.9575036038589457,0.28736675,0.673547769471964
0.035500000000000004,1.76849375,1.0,2726.712997476709,0.32929642264040526,1.31954205448992,0.9583860370227162,0.2873297375,0.6744033016975799
0.036000000000000004,1.7676,1.0,2728.760814777379,0.33305853522064705,1.31911980555726,0.9592353966231598,0.2872922,0.6752632324652316
0.0365,1.76669375,1.0,2730.503996279446,0.3367995400281802,1.318694686886668,0.960053312277541,0.2872541375,0.6761278588973489
0.037,1.765775,1.0,2731.9729831077016,0.3405195692800627,1.318266419246801,0.9608413046713736,0.28721555,0.6769977244254448
0.0375,1.76484375,1.0,2733.180309256818,0.34421873716824347,1.3178348867718432,0.9616008141841195,0.2871764375,0.6778730381081939
0.038,1.7639,1.0,2734.138558931344,0.34789715788467124,1.3173999735959787,0.9623331946847968,0.28713679999999997,0.6787540075295664
0.0385,1.76294375,1.0,2734.8603605795993,0.35155494562129486,1.3169615638533916,0.9630397196746343,0.28709663750000003,0.6796408387742742
0.039,1.761975,1.0,2735.3583812252823,0.3551922145700631,1.316519541678266,0.9637215879292451,0.28705595,0.6805337364023611
0.0395,1.7609937500000001,1.0,2735.6453210969553,0.3588090789229249,1.316073791204786,0.9643799286860659,0.2870147375,0.681432903422938
0.04,1.76,1.0,2735.73390855466,0.362405652871829,1.3156241965671358,0.9650158064181865,0.286973,0.6823385412670601
0.0405,1.7589937500000001,1.0,2735.6368953146684,0.36598205060872424,1.3151706418994995,0.9656302252315981,0.2869307375,0.6832508497597496
0.041,1.757975,1.0,2735.367051971628,0.3695383863255595,1.3147130113360612,0.9662241329192242,0.28688795,0.6841700270911614
0.0415,1.75694375,1.0,2734.937163818384,0.3730747742142836,1.314251189011005,0.966798424701837,0.2868446375,0.6850962697868932
0.042,1.7559,1.0,2734.357153573659,0.37659132319213345,1.3137850851533284,0.967353947991811,0.28680079999999997,0.6860297204570105
0.0425,1.75484375,1.0,2733.6368479108296,0.3800881452638908,1.3133146109437284,0.9678915048106758,0.2867564375,0.6869705183966204
0.043000000000000003,1.753775,1.0,2732.7897398569476,0.38356536047166745,1.3128396443132875,0.9684118526821174,0.28671155,0.6879188678122953
0.043500000000000004,1.75269375,1.0,2731.8225417082203,0.38702307562748894,1.3123601248117174,0.9689157117276579,0.28666613750000003,0.6888748483023226
0.044,1.7516,1.0,2730.741969286422,0.3904613975433808,1.3118759919887304,0.9694037642241004,0.2866202,0.6898385383324152
0.0445,1.75049375,1.0,2729.55474051609,0.39388043303136855,1.3113871853940384,0.9698766569632528,0.2865737375,0.6908100152180445
0.045,1.7493750000000001,1.0,2728.2675740817954,0.3972802889034778,1.3108936445773534,0.9703350034421114,0.28652675,0.6917893551065379
0.0455,1.74824375,1.0,2726.88718816659,0.400661071971734,1.3103953090883873,0.9707793858972216,0.2864792375,0.692776632958943
0.046,1.7471,1.0,2725.4202992720016,0.4040228890481627,1.3098921184768522,0.9712103571957068,0.2864312,0.6937719225316602
0.0465,1.7459437500000001,1.0,2723.8736211182313,0.4073658469447894,1.3093840122924603,0.9716284425943542,0.28638263750000004,0.6947752963578406
0.047,1.744775,1.0,2722.2538636260556,0.41069005247363966,1.308870930084923,0.9720341413771248,0.28633355,0.6957868257285542
0.0475,1.74359375,1.0,2720.567731979588,0.41399561244673905,1.3083528114039529,0.9724279283805742,0.28628393750000003,0.6968065806737189
0.048,1.7424,1.0,2718.8136189427346,0.41728261827569746,1.3078296714533637,0.9728102588098161,0.2862338,0.6978344814187314
0.0485,1.74119375,1.0,2716.9989402762394,0.42055118278614323,1.3073014432756398,0.9731815629821536,0.2861831375,0.6988706089308314
0.049,1.739975,1.0,2715.1376302203516,0.4238014270482222,1.3067680004371525,0.9735422476272377,0.28613195,0.6999151591447424
0.0495,1.73874375,1.0,2713.232522762712,0.42703344964578516,1.3062293175436726,0.9738927044566857,0.2860802375,0.7009681284334712
0.05,1.7375,1.0,2711.2864491185474,0.4302473491626828,1.3056853692009718,0.9742333069223676,0.286028,0.702029512297403
0.0505,1.73624375,1.0,2709.302237509932,0.4334432241827658,1.3051361300148208,0.9745644112286393,0.2859752375,0.7030993053557986
0.051000000000000004,1.734975,1.0,2707.282712959145,0.4366211732898849,1.3045815745909912,0.9748863572797266,0.28592195,0.7041775013382412
0.051500000000000004,1.73369375,1.0,2705.2306970961677,0.4397812950678908,1.3040216775352542,0.97519946956696,0.2858681375,0.705264093076052
0.052000000000000005,1.7324,1.0,2703.149007980668,0.4429236881006343,1.303456413453381,0.9755040580001701,0.2858138,0.7063590724936565
0.0525,1.73109375,1.0,2701.0404599385515,0.446048450971966,1.3028857569511427,0.9758004186872166,0.28575893750000003,0.7074624305999149
0.053,1.729775,1.0,2698.9078634120533,0.4491556822657367,1.3023096826343106,0.9760888346653084,0.28570355000000003,0.7085741574794082
0.0535,1.72844375,1.0,2696.7540248248474,0.4522454805657971,1.301728165108656,0.9763695765874856,0.2856476375,0.7096942422836849
0.054,1.7271,1.0,2694.5817464613233,0.4553179444559979,1.3011411789799503,0.9766429033673703,0.2855912,0.7108226732224667
0.0545,1.7257437500000001,1.0,2692.3938263597715,0.45837317252018983,1.3005486988539643,0.9769090627850571,0.2855342375,0.7119594375548122
0.055,1.724375,1.0,2690.193058220185,0.4614112633422236,1.2999506993364696,0.9771682920567922,0.28547675,0.7131045215802387
0.0555,1.72299375,1.0,2687.9822313263376,0.46443231550594993,1.2993471550332372,0.977420818370887,0.2854187375,0.7142579106298057
0.056,1.7216,1.0,2685.7352169286996,0.4674364248741251,1.2987383054952542,0.977666874664138,0.2853602,0.7154190842787762
0.0565,1.72019375,1.0,2683.509228579063,0.4704236853030765,1.2981236266593994,0.97790663973705,0.28530113749999997,0.7165889771283388
0.057,1.718775,1.0,2681.305373197618,0.47339419078343276,1.2975031081450052,0.9781403145035726,0.28524155,0.7177675403190731
0.0575,1.7173450375793504,1.0,2679.1523561275253,0.47634803411186155,1.2968770678379733,0.9783681102310005,0.2851814915783327,0.7189541026528298
0.058,1.7159132111570363,1.0,2677.475486144425,0.47928530808503045,1.2962458236242045,0.9785902296645341,0.2851213548685955,0.7201479974018391
0.0585,1.7144813847347222,1.0,2676.3313918541476,0.48220610549960724,1.2956096933895995,0.9788068674482558,0.2850612181588583,0.721348562417433
0.059000000000000004,1.7130495583124081,1.0,2675.685105944038,0.4851105191522595,1.2949689950200598,0.9790182105222249,0.2850010814491211,0.7225551402323213
0.059500000000000004,1.711617731890094,1.0,2675.5048427544075,0.48799864095557405,1.2943240186801488,0.9792244369058976,0.2849409447393839,0.7237671301912227
0.06,1.71018590546778,1.0,2675.7473872548107,0.49087056298696896,1.2936751606701564,0.9794257234750557,0.28488080802964677,0.7249837372619828
0.0605,1.708754079045466,1.0,2676.3712316252413,0.4937263774046724,1.2930228025331358,0.9796222395264613,0.28482067131990957,0.7262042002411572
0.061,1.707322252623152,1.0,2677.3503671461194,0.4965661732759769,1.2923671841928632,0.9798141401232972,0.28476053461017237,0.7274280280839809
0.0615,1.7058904262008379,1.0,2678.658840269278,0.4993900396681751,1.2917085455731148,0.980001574470209,0.2847003979004352,0.7286547335447003
0.062,1.7044585997785238,1.0,2680.2707359132132,0.5021980656485595,1.2910471265976673,0.9801846861856685,0.28464026119069796,0.729883833224622
0.0625,1.7030267733562097,1.0,2682.1601620356723,0.5049903402844227,1.2903831671902968,0.9803636135597544,0.2845801244809608,0.7311148476164928
0.063,1.7015949469338956,1.0,2684.3013362536103,0.507766952602198,1.2897169063511145,0.9805384897475969,0.2845199877712236,0.7323473028518481
0.0635,1.7001631205115815,1.0,2686.675529901195,0.5105279893164052,1.2890485184206826,0.9807094395785918,0.2844598510614864,0.7335808482104857
0.064,1.6987312940892674,1.0,2689.2568677453055,0.5132735407821739,1.2883782431665693,0.9808765869467203,0.2843997143517492,0.7348150155234789
0.0645,1.6972994676669533,1.0,2692.0310736800016,0.5160036924873,1.2877062139695719,0.9810400456122642,0.284339577642012,0.7360495358523436
0.065,1.6958676412446394,1.0,2694.9838630951976,0.5187185299195799,1.2870325642104872,0.9811999252843107,0.28427944093227486,0.7372841424832671
0.0655,1.6944358148223253,1.0,2698.100937886276,0.5214181385668096,1.2863574272701124,0.981356331797777,0.28421930422253766,0.7385185709414614
0.066,1.6930039884000112,1.0,2701.367981859811,0.5241026039167852,1.2856809365292448,0.9815093672815101,0.28415916751280046,0.7397525590043802
0.0665,1.691572161977697,1.0,2704.770656532066,0.5267720114573028,1.2850032253686816,0.9816591303179685,0.28409903080306326,0.7409858467138026
0.067,1.690140335555383,1.0,2708.3024474675,0.5294264405235489,1.2843243555356232,0.981805712214948,0.28403889409332606,0.7422183062795042
0.0675,1.688708509133069,1.0,2711.942399045333,0.532065983608358,1.2836445203896545,0.9819492083476881,0.2839787573835889,0.7434495728728409
0.068,1.6872766827107548,1.0,2715.67995629966,0.5346907250042616,1.2829638180579082,0.982089705788722,0.2839186206738517,0.7446794568561577
0.0685,1.6858448562884407,1.0,2719.5086076553876,0.5373007456789796,1.2822823096263332,0.9822272867099766,0.2838584839641145,0.745907836964359
0.069,1.6844130298661266,1.0,2723.421827191254,0.5398961266002312,1.2816000561808796,0.9823620305331547,0.2837983472543773,0.7471345929812675
0.0695,1.6829812034438127,1.0,2727.4130735898666,0.5424769487357365,1.2809171188074966,0.9824940140422459,0.2837382105446401,0.7483596057426494
0.07,1.6815493770214986,1.0,2731.4757891699473,0.5450432930532148,1.2802335585921338,0.9826233114907148,0.28367807383490296,0.7495827571389959
0.07050000000000001,1.6801175505991846,1.0,2735.603399001247,0.5475952405203859,1.2795494366207407,0.9827499947036474,0.28361793712516575,0.7508039301180691
0.07100000000000001,1.6786857241768705,1.0,2739.7893101025484,0.5501328721049693,1.278864813979267,0.9828741331751311,0.28355780041542855,0.7520230086872091
0.07150000000000001,1.6772538977545564,1.0,2744.02691072221,0.5526562687746848,1.2781797517536622,0.9829957941611142,0.28349766370569135,0.7532398779154047
0.07200000000000001,1.6758220713322423,1.0,2748.3095697012773,0.5551655114972518,1.2774943110298758,0.9831150427679907,0.28343752699595415,0.754454423935123
0.0725,1.6743902449099282,1.0,2752.634519543403,0.5576606734618165,1.2768085177418287,0.9832319400013863,0.283377390286217,0.7556665959999098
0.073,1.6729584184876143,1.0,2756.9956074007187,0.560141838720658,1.2761224283675638,0.9833465469374478,0.2833172535764798,0.7568762900267844
0.0735,1.6715265920653002,1.0,2761.3853153002083,0.5626090940720821,1.2754361115491473,0.9834589234376543,0.2832571168667426,0.7580833815519314
