Time [s],Phi [rad],STIM [ ],Fsee [N],Gamma [ ],Lcerel [ ],q [ ],Lmtc [m],fisomrel [ ]
0.0,1.8,1.0,17.966734336242883,1.3417302880075735e-05,1.3793397937032852,0.005000047868427023,0.288653,0.5411394161771335
0.0005,1.79999375,1.0,18.27725687212356,0.005622551351217607,1.379302330836019,0.012950005244237721,0.2886527375,0.5412300440764131
0.001,1.799975,1.0,21.621446169469415,0.011200222592448834,1.3789379891198157,0.03562639055703797,0.28865195,0.5421109706691023
0.0015,1.79994375,1.0,31.077617846984722,0.01674660750891013,1.378045489672914,0.07062609114454947,0.2886506375,0.5442653307970877
0.002,1.7999,1.0,53.60128918183265,0.022261881591279495,1.3763669055733878,0.11474671820124342,0.2886488,0.5483034196081396
0.0025,1.79984375,1.0,97.15123117393918,0.027746219346167028,1.3739336112408875,0.16460609485715297,0.28864643749999996,0.5541251734194796
0.003,1.7997750000000001,1.0,161.00062080382986,0.03319979430379833,1.371212754768056,0.2173126428765222,0.28864354999999997,0.5605902126833902
0.0035,1.79969375,1.0,237.73154114941997,0.03862277901763173,1.3685832493250392,0.27064490336587876,0.2886401375,0.5667933300924619
0.004,1.7996,1.0,321.5182342135279,0.044015345075134084,1.3661547293957288,0.3229468005403362,0.2886362,0.5724831445827188
0.0045000000000000005,1.7994937500000001,1.0,409.3211852148179,0.04937766310296694,1.3639215598978753,0.3730639337108306,0.2886317375,0.5776820734741618
0.005,1.799375,1.0,499.46812831982885,0.05470990275808585,1.361857181619856,0.42027499147230507,0.28862675,0.5824597580042559
0.0055,1.79924375,1.0,590.8456192200822,0.06001223277505516,1.3599377565483712,0.4641991878414713,0.2886212375,0.5868775874072878
0.006,1.7991000000000001,1.0,682.5734570888033,0.06528482090958532,1.3581454086746485,0.504703387343022,0.2886152,0.5909817163433324
0.006500000000000001,1.79894375,1.0,773.938838707657,0.07052783399506307,1.3564662706927282,0.5418221524363399,0.2886086375,0.5948080288852635
0.007,1.798775,1.0,864.3429149317597,0.07574143791861271,1.354889472603417,0.5756962749097161,0.28860155,0.5983847647808307
0.0075,1.79859375,1.0,953.2981650164047,0.08092579765201063,1.3534059340216003,0.6065276582951068,0.2885939375,0.6017354776732153
0.008,1.7984,1.0,1040.4129137552056,0.08608107722000095,1.352007844553626,0.6345481754756741,0.2885858,0.6048803487650198
0.0085,1.79819375,1.0,1125.3722743049318,0.09120743969147278,1.3506884197799494,0.6599990389754283,0.2885771375,0.6078368374752616
0.009000000000000001,1.797975,1.0,1207.9384143881496,0.09630504739174096,1.3494415126351906,0.6831176044673438,0.28856795,0.6106206289771362
0.0095,1.79774375,1.0,1287.9288822644035,0.1013740616740627,1.348261638478119,0.704129679152916,0.2885582375,0.6132456350909948
0.01,1.7975,1.0,1365.2071435328878,0.10641464256976806,1.3471438699633236,0.7232453066186387,0.288548,0.6157242778918594
0.0105,1.79724375,1.0,1439.6862919010666,0.11142694938345346,1.3460836110576986,0.7406568342011783,0.2885372375,0.6180680298382131
0.011,1.796975,1.0,1511.3511296153347,0.11641114202555337,1.3450762004302559,0.7565383999897066,0.28852595000000003,0.6202883159968682
0.0115,1.79669375,1.0,1580.1580059499304,0.1213673772701769,1.3441180411170326,0.7710470397316517,0.2885141375,0.6223940490362764
0.012,1.7964,1.0,1646.0973331099638,0.12629581144910734,1.3432056929945322,0.7843232886114851,0.28850180000000003,0.624393661658619
0.0125,1.79609375,1.0,1709.2007094645178,0.1311966008205804,1.342335727701279,0.7964924493162254,0.2884889375,0.6262954385817465
0.013000000000000001,1.7957750000000001,1.0,1769.5206070984632,0.13606990074508077,1.3415049141099358,0.8076660923409237,0.28847555,0.6281071225725938
0.0135,1.79544375,1.0,1827.1118052841086,0.1409158658888159,1.3407103698059877,0.8179435142168281,0.2884616375,0.6298355991921784
0.014,1.7951000000000001,1.0,1882.0197483804177,0.14573464870922248,1.339949629010444,0.8274130784487178,0.2884472,0.6314867657387164
0.0145,1.79474375,1.0,1934.3139175916865,0.15052640166373718,1.339220225944315,0.8361532886467409,0.2884322375,0.6330664486935202
0.015,1.794375,1.0,1984.065724740525,0.15529127599417455,1.3385199082345862,0.8442339970724354,0.28841675,0.6345799481149468
0.0155,1.79399375,1.0,2031.3825735190298,0.16002942451112512,1.337846244935973,0.8517172874784937,0.2884007375,0.6360328915263476
0.016,1.7936,1.0,2076.331442787069,0.16474099607182863,1.3371974151535455,0.8586586387159646,0.2883842,0.6374295383092076
0.0165,1.7931937500000001,1.0,2118.9834549280117,0.16942613887695138,1.3365717000718473,0.8651075444537355,0.2883671375,0.6387738861949823
0.017,1.792775,1.0,2159.422201083513,0.17408500112715955,1.3359673808754216,0.8711081916111205,0.28834955,0.6400698947312163
0.0175,1.7923437500000001,1.0,2197.738105116801,0.17871773051883932,1.3353827850700388,0.8767001001684325,0.2883314375,0.6413213886436995
0.018000000000000002,1.7919,1.0,2234.022115798103,0.1833244743317968,1.3348163379445204,0.8819186853973272,0.2883128,0.6425319510376937
0.0185,1.79144375,1.0,2268.360874929057,0.1879053790883021,1.3342665979608266,0.8867957445953878,0.2882936375,0.6437048516827013
0.019,1.790975,1.0,2300.822717256832,0.19246058841137625,1.3337323826861247,0.8913599039632365,0.28827395,0.6448427829931187
0.0195,1.79049375,1.0,2331.4824546984178,0.19699024592404019,1.3332125096875818,0.8956369183609982,0.2882537375,0.64594841641487
0.02,1.79,1.0,2360.4208368442555,0.20149449524931484,1.3327057965323654,0.8996499973668728,0.288233,0.6470244035515442
0.0205,1.78949375,1.0,2387.7118386659313,0.20597347829901771,1.3322111793892994,0.9034201168165605,0.2882117375,0.648073125920825
0.021,1.788975,1.0,2413.4454725145415,0.21042733941168462,1.3317274847306133,0.9069662182650384,0.28818995000000003,0.6490971807216221
0.021500000000000002,1.78844375,1.0,2437.68841365904,0.21485621898586735,1.3312538068776192,0.9103055091000737,0.2881676375,0.6500985823631537
0.022,1.7879,1.0,2460.499732016751,0.21926025576220595,1.3307893471770442,0.9134536161614453,0.2881448,0.6510791064865591
0.0225,1.78734375,1.0,2481.941571404891,0.2236395884813406,1.3303333069756151,0.9164247334285771,0.28812143749999997,0.6520405175464095
0.023,1.786775,1.0,2502.0788934215634,0.2279943558839114,1.3298848876200589,0.9192317732380156,0.28809755,0.6529845692598889
0.0235,1.78619375,1.0,2520.9763285680083,0.23232469621393645,1.3294433179507938,0.9218865046555711,0.28807313749999996,0.6539129472499112
0.024,1.7856,1.0,2538.6902187157425,0.23663074598072933,1.3290079266736765,0.9243996833380873,0.2880482,0.6548271179396962
0.0245,1.78499375,1.0,2555.2987830245434,0.24091264487051084,1.3285778554005958,0.9267811051539578,0.2880227375,0.6557289315699781
0.025,1.784375,1.0,2570.8463589023268,0.2451705263600151,1.3281525821144733,0.9290397891161679,0.28799675,0.656619524399247
0.025500000000000002,1.78374375,1.0,2585.378709103238,0.24940452392597628,1.3277315847982294,0.9311839985264629,0.2879702375,0.6575000265486001
0.026000000000000002,1.7831000000000001,1.0,2598.942903880463,0.2536147710451286,1.3273143414347852,0.9332213145575423,0.2879432,0.6583715621527833
0.0265,1.78244375,1.0,2611.58720918055,0.2578014011942061,1.3269003300070619,0.9351587017737386,0.2879156375,0.6592352494938586
0.027,1.781775,1.0,2623.3609808802184,0.261964547849943,1.3264890284979802,0.937002566559064,0.28788755,0.6600922011174906
0.0275,1.7810937500000001,1.0,2634.3078824214163,0.2661043406421258,1.326079976720867,0.9387588170090085,0.2878589375,0.6609433953498686
0.028,1.7804,1.0,2644.4809955475803,0.2702209157060373,1.3256726353177448,0.9404328921978138,0.2878298,0.6617899700420765
0.0285,1.77969375,1.0,2653.9144019110713,0.2743144011546388,1.3252666477078363,0.9420298369166772,0.2878001375,0.6626326782171758
0.029,1.778975,1.0,2662.6427020951446,0.2783849250550217,1.3248616581706818,0.9435543140430792,0.28776995,0.6634722673807242
0.029500000000000002,1.7782437500000001,1.0,2670.7010546065485,0.2824326154742774,1.3244573109858222,0.9450106382890442,0.2877392375,0.6643094813388057
0.03,1.7775,1.0,2678.1251248839953,0.2864576004794971,1.3240532504327975,0.9464028066567526,0.287708,0.665145060216641
0.0305,1.77674375,1.0,2684.9510371125452,0.29046000813777223,1.323649120791148,0.9477345258679348,0.2876762375,0.6659797404691227
0.031,1.775975,1.0,2691.2028962412473,0.29443996088530794,1.3232446801491686,0.9490092497991041,0.28764395,0.6668140202655028
0.0315,1.7751937500000001,1.0,2696.9207933456532,0.2983975903172867,1.322839543319612,0.9502301730744342,0.2876111375,0.6676486902716338
0.032,1.7744,1.0,2702.1436450912825,0.30233302654198035,1.322433339045164,0.9514002687822973,0.2875778,0.6684845085210025
0.0325,1.77359375,1.0,2706.892917471514,0.30624639103729207,1.32202585812767,0.9525223222404022,0.2875439375,0.6693218963556689
0.033,1.772775,1.0,2711.1902880254565,0.310137805281125,1.321616891368977,0.9535989294263465,0.28750955,0.6701612729150372
0.0335,1.7719437500000002,1.0,2715.0576260612347,0.3140073907513824,1.3212062295709304,0.9546325121245671,0.2874746375,0.6710030551174324
0.034,1.7711000000000001,1.0,2718.516973848993,0.3178552689259673,1.3207936635353767,0.9556253316898988,0.2874392,0.671847657638876
0.0345,1.7702437500000001,1.0,2721.590528784642,0.32168156128278297,1.3203789840641622,0.9565795015687135,0.2874032375,0.6726954928890794
0.035,1.7693750000000001,1.0,2724.300626523519,0.3254863892997326,1.3199619819591328,0.9574969987028621,0.28736675,0.6735469709846416
0.035500000000000004,1.76849375,1.0,2726.669725084687,0.3292698744547193,1.319542448022135,0.9583796739277874,0.2873297375,0.6744024997194553
0.036000000000000004,1.7676,1.0,2728.720389925417,0.33303213822564626,1.3191201730550146,0.9592292614639928,0.2872922,0.6752624845323263
0.0365,1.76669375,1.0,2730.4669295618396,0.33677329433148007,1.318695023748319,0.9600473935396612,0.2872541375,0.6761271742285024
0.037,1.765775,1.0,2731.9356485809517,0.3404934703772566,1.318266758451072,0.9608355942645771,0.28721555,0.6769970359217058
0.0375,1.76484375,1.0,2733.141644536817,0.34419278308755197,1.3178352379840823,0.9615953028052289,0.2871764375,0.6778723261977098
0.038,1.7639,1.0,2734.097941286635,0.3478713470705508,1.3174003424830778,0.9623278732976188,0.28713679999999997,0.6787532608151305
0.0385,1.76294375,1.0,2734.8176074377566,0.35152927693443764,1.3169619520837859,0.9630345794871712,0.28709663750000003,0.6796400539899102
0.039,1.761975,1.0,2735.3137504730753,0.3551666872873972,1.3165199469219349,0.9637166203729919,0.28705595,0.6805329183690547
0.0395,1.7609937500000001,1.0,2735.599511196973,0.3587836927376139,1.3160742071332523,0.9643751253971643,0.2870147375,0.6814320650034629
0.04,1.76,1.0,2735.688058497743,0.3623804078932724,1.3156246128534659,0.96501115922024,0.286973,0.6823377033198335
0.0405,1.7589937500000001,1.0,2735.592584429943,0.3659569473625573,1.3151710442183036,0.9656257261199722,0.2869307375,0.6832500410916587
0.041,1.757975,1.0,2735.3262996146696,0.3695134257536531,1.3147133813634932,0.9662197740466789,0.28688795,0.6841692844092999
0.0415,1.75694375,1.0,2734.8952458545828,0.3730499443805567,1.3142515696519863,0.9667942016492223,0.2868446375,0.6850955069236697
0.042,1.7559,1.0,2734.3170586035976,0.3765666306096403,1.3137854492789536,0.9673498538511885,0.28680079999999997,0.6860289917755269
0.0425,1.75484375,1.0,2733.602899189331,0.3800635996511131,1.3133149192921574,0.9678875325227889,0.2867564375,0.686969902260679
0.043000000000000003,1.753775,1.0,2732.759818029481,0.38354095864621895,1.312839916128383,0.9684079982143954,0.28671155,0.6879183254999562
0.043500000000000004,1.75269375,1.0,2731.794870700564,0.3869988147362015,1.3123603762244165,0.9689119710815877,0.28666613750000003,0.6888743474647354
0.044,1.7516,1.0,2730.715116330153,0.39043727506230447,1.3118762360170435,0.9694001334300627,0.2866202,0.6898380529586778
0.0445,1.75049375,1.0,2729.5276160803614,0.39385644676577164,1.3113874319430496,0.9698731320758475,0.2865737375,0.6908095255992113
0.045,1.7493750000000001,1.0,2728.239431719601,0.39725643698784674,1.3108939004392208,0.9703315805359174,0.28652675,0.6917888477987495
0.0455,1.74824375,1.0,2726.857624284535,0.4006373528697734,1.3103955779423426,0.9707760610629405,0.2864792375,0.6927761007456604
0.046,1.7471,1.0,2725.3892528317833,0.40399930155279545,1.309892400889201,0.9712071265366516,0.2864312,0.6937713643849706
0.0465,1.7459437500000001,1.0,2723.8413732786066,0.4073423901781565,1.3093843057165813,0.9716253022232353,0.28638263750000004,0.694774717398817
0.047,1.744775,1.0,2722.221037333439,0.41066672588710035,1.3088712288612696,0.9720310874131092,0.28633355,0.6957862371866366
0.0475,1.74359375,1.0,2720.5352915168164,0.41397241582087063,1.3083531067600513,0.9724249569465767,0.28628393750000003,0.6968059998451033
0.048,1.7424,1.0,2718.789194623025,0.41725956630548716,1.3078298938975763,0.9728073638067221,0.2862338,0.697834044716221
0.0485,1.74119375,1.0,2716.9867984340895,0.42052827950196314,1.3073015538941262,0.9731787393395056,0.2861831375,0.6988703921372943
0.049,1.739975,1.0,2715.133196914454,0.4237786578982215,1.3067680408406843,0.9735394937689136,0.28613195,0.6999150800981131
0.0495,1.73874375,1.0,2713.231390224171,0.4270108039723022,1.3062293278688355,0.9738900192930866,0.2860802375,0.7009681082684989
0.05,1.7375,1.0,2711.2839277543017,0.43022482010950114,1.3056853921960754,0.9742306900731993,0.286028,0.7020294674678941
0.0505,1.7362451249529745,1.0,2709.3634237362185,0.4334208082790753,1.3051361927355742,0.9745618617132503,0.2859752952480249,0.7030991832998676
0.051000000000000004,1.7349884878724144,1.0,2707.911444336207,0.4365988698132425,1.3045819278888584,0.9748838891392131,0.2859225164906414,0.7041768150622011
0.051500000000000004,1.7337318507918547,1.0,2706.974599953585,0.43975910472672197,1.304022964546957,0.9751971219010113,0.2858697377332579,0.7052615976660705
0.052000000000000005,1.7324752137112946,1.0,2706.512429831938,0.44290161303423314,1.3034596696008995,0.9755018938021714,0.2858169589758744,0.7063527708090335
0.0525,1.7312185766307349,1.0,2706.4866007359337,0.44602649427357927,1.3028923918528528,0.9757985225635342,0.28576418021849087,0.7074496140231438
0.053,1.7299619395501749,1.0,2706.8598114695656,0.4491338478494686,1.3023214717133822,0.9760873113375705,0.28571140146110735,0.70855142774571
0.0535,1.7287053024696148,1.0,2707.6019745324656,0.45222377153672544,1.3017471845226374,0.976368545833985,0.28565862270372383,0.7096576423235377
0.054,1.7274486653890548,1.0,2708.683756027196,0.4552963629459608,1.3011697993207092,0.9766424989954918,0.2856058439463403,0.7107677040086855
0.0545,1.726192028308495,1.0,2710.0830884655684,0.45835171684034126,1.3005895192652022,0.9769094278017958,0.2855530651889568,0.7118811891196258
0.055,1.724935391227935,1.0,2711.7648510895447,0.4613899335365137,1.3000066668733912,0.9771695860036411,0.28550028643157327,0.7129974484423409
0.0555,1.7236787541473753,1.0,2713.7004283803594,0.4644111114459667,1.2994215053973686,0.977423212981847,0.28544750767418975,0.7141159505917525
0.056,1.7224221170668153,1.0,2715.873430365044,0.4674153442167398,1.2988341866587592,0.977670531168854,0.28539472891680623,0.7152363803698912
0.0565,1.7211654799862552,1.0,2718.267472861613,0.47040272549687256,1.2982448624791882,0.9779117538206323,0.2853419501594227,0.7163584247601087
0.057,1.7199088429056955,1.0,2720.866170473291,0.4733733489344045,1.2976536846802806,0.9781470854739976,0.2852891714020392,0.7174817729472324
0.0575,1.7186522058251354,1.0,2723.6531300934607,0.47632730817737523,1.297060805083661,0.9783767223776217,0.28523639264465567,0.7186061163362475
0.058,1.7173955687445754,1.0,2726.6119449214307,0.47926469687382417,1.2964663755109547,0.9786008528984472,0.28518361388727215,0.7197311485695077
0.0585,1.7161389316640157,1.0,2729.726188990004,0.48218560867179094,1.2958705477837864,0.9788196579050884,0.2851308351298887,0.7208565655424815
0.059000000000000004,1.7148822945834556,1.0,2732.980001748384,0.48509013676519097,1.2952734683684484,0.9790333107957259,0.28507805637250516,0.7219820755027644
0.059500000000000004,1.7136256575028956,1.0,2736.3646235797423,0.48797837024719115,1.294675219021169,0.9792419743074716,0.28502527761512164,0.7231075105064607
0.06,1.7123690204223359,1.0,2739.8615243605714,0.49085040696947285,1.294075970024616,0.9794458103827598,0.2849724988577381,0.7242325378000036
0.0605,1.7111123833417758,1.0,2743.463143418436,0.4937063357493978,1.2934757918404252,0.9796449686463449,0.2849197201003546,0.7253570140422049
0.061,1.7098557462612158,1.0,2747.161905712967,0.4965462454043276,1.2928747549302322,0.9798395930209598,0.2848669413429711,0.7264807969533049
0.0615,1.708599109180656,1.0,2750.9502204392825,0.4993702247516239,1.292272929755673,0.9800298219900231,0.28481416258558756,0.7276037453189905
0.062,1.707342472100096,1.0,2754.8204797415283,0.5021783626086482,1.2916703867783834,0.9802157888463372,0.28476138382820404,0.7287257189940951
0.0625,1.706085835019536,1.0,2758.765057536518,0.5049707477927624,1.2910671964599987,0.9803976219276267,0.2847086050708205,0.7298465789059838
0.063,1.7048291979389762,1.0,2762.7763084472977,0.5077474691213278,1.290463429262155,0.9805754448397067,0.284655826313437,0.7309661870576181
0.0635,1.7035725608584162,1.0,2766.8465668468134,0.5105086154117063,1.289859155646488,0.9807493766680141,0.2846030475560535,0.7320844065303095
0.064,1.7023159237778562,1.0,2770.9738503122903,0.5132542655818922,1.289254394614161,0.9809195288582354,0.28455026879866996,0.7332011964170766
0.0645,1.7010592866972964,1.0,2775.147009348014,0.5159845178857202,1.2886492477614089,0.9810860143767277,0.28449749004128644,0.7343163640522092
0.065,1.6998026496167364,1.0,2779.359371381258,0.5186994624612118,1.2880437760628218,0.9812489395561438,0.2844447112839029,0.7354297929574967
0.0655,1.6985460125361764,1.0,2783.6080370977056,0.5213991824690569,1.2874380063528892,0.9814084047901208,0.2843919325265194,0.7365414301781774
0.066,1.6972893754556166,1.0,2787.8900987066068,0.5240837610699458,1.286831965466099,0.9815645069449261,0.2843391537691359,0.7376512231723682
0.0665,1.6960327383750566,1.0,2792.202639771022,0.5267532814245686,1.2862256802369405,0.9817173395093768,0.28428637501175236,0.7387591198115455
0.067,1.6947761012944966,1.0,2796.5427350550676,0.5294078266936153,1.2856191774999022,0.9818669927373678,0.28423359625436884,0.7398650683809929
0.0675,1.6935194642139368,1.0,2800.9074503858205,0.5320474800377759,1.285012484089473,0.9820135537834276,0.2841808174969853,0.7409690175801911
0.068,1.6922628271333768,1.0,2805.2938425326292,0.5346723246177407,1.2844056268401414,0.982157106831681,0.2841280387396018,0.7420709165231705
0.0685,1.6910061900528168,1.0,2809.698959100952,0.5372824435941999,1.2837986325863964,0.9822977332185907,0.2840752599822183,0.7431707147388125
0.069,1.689749552972257,1.0,2814.119838443494,0.5398779201278432,1.2831915281627266,0.9824355115498133,0.2840224812248348,0.7442683621711085
0.0695,1.688492915891697,1.0,2818.5535095861123,0.5424588373793608,1.2825843404036208,0.982570517811495,0.2839697024674513,0.7453638091793704
0.07,1.6872362788111372,1.0,2822.9969921706515,0.5450252785094432,1.281977096143568,0.9827028254763023,0.28391692371006777,0.7464570065383962
0.07050000000000001,1.6859796417305772,1.0,2827.449628015506,0.5475773139049136,1.281369801393999,0.982832503866814,0.28386414495268425,0.7475479428045333
0.07100000000000001,1.6847230046500172,1.0,2831.9094577254587,0.5501150279265716,1.2807624737592944,0.9829596214277654,0.28381136619530073,0.7486365858691375
0.07150000000000001,1.6834663675694572,1.0,2836.371817900666,0.5526385199880102,1.280155154899385,0.9830842463745257,0.2837585874379172,0.7497228609161403
0.07200000000000001,1.6822097304888974,1.0,2840.8359272052576,0.5551478663519185,1.279547851755059,0.983206441791203,0.2837058086805337,0.7508067556732513
0.0725,1.6809530934083374,1.0,2845.301001855306,0.5576431432809861,1.2789405712671038,0.9833262687513551,0.28365302992315017,0.7518882579757072
