Time [s],Phi [rad],STIM [ ],Fsee [N],Gamma [ ],Lcerel [ ],q [ ],Lmtc [m],fisomrel [ ]
0.0,1.8,1.0,18.493258460280675,0.0007399286298543732,1.379281230653801,0.005141003349563572,0.288653,0.5412810844188083
0.0005,1.79999375,1.0,19.025098873730414,0.006344987524227885,1.3792200940892014,0.015090534419001288,0.2886527375,0.5414289548436773
0.001,1.799975,1.0,22.908967748580558,0.011918606469815938,1.3788083983936603,0.0395130550481175,0.28865195,0.5424240985536669
0.0015,1.79994375,1.0,33.57265181404413,0.017460961820626678,1.3778370527908346,0.07587996897155105,0.2886506375,0.5447677344972452
0.002,1.7999,1.0,58.476976818012226,0.0229722289399393,1.3760575340342773,0.1209262537035123,0.2886488,0.5490456986481453
0.0025,1.79984375,1.0,104.92889960245577,0.028452582208118804,1.3735661001458552,0.17130172829450685,0.28864643749999996,0.5550011760899772
0.003,1.7997750000000001,1.0,170.85452594012895,0.033902195028577255,1.3708494389099108,0.22420249302262626,0.28864354999999997,0.5614499160083046
0.0035,1.79969375,1.0,248.72071923718457,0.039321239829695244,1.3682486113805432,0.2774851535726316,0.2886401375,0.5675795925264722
0.004,1.7996,1.0,333.125892922566,0.04470988807454051,1.365850037124689,0.3295611546615052,0.2886362,0.5731943569383405
0.0045000000000000005,1.7994937500000001,1.0,421.28771482942705,0.05006831026441331,1.3636427015986075,0.37933649010721426,0.2886317375,0.5783290356315884
0.005,1.799375,1.0,511.62761716652915,0.05539667590257022,1.3616003612868117,0.42613939241950377,0.28862675,0.5830522280524466
0.0055,1.79924375,1.0,603.0941905079825,0.06069515371536603,1.3596996878446812,0.46962582547983256,0.2886212375,0.5874238984835425
0.006,1.7991000000000001,1.0,694.8061622208585,0.06596391119517682,1.3579240470473208,0.5096887599247487,0.2886152,0.5914871701060819
0.006500000000000001,1.79894375,1.0,786.0729237136845,0.07120311509705214,1.3562599471639574,0.5463794913330178,0.2886086375,0.5952769453020865
0.007,1.798775,1.0,876.3192213834758,0.07641293125832112,1.354696688773064,0.5798488272874088,0.28860155,0.5988209788693373
0.0075,1.79859375,1.0,965.0538810497267,0.08159352432914815,1.353225678180548,0.6103042213591822,0.2885939375,0.6021416462815431
0.008,1.7984,1.0,1051.9164059182394,0.08674505861047345,1.3518389488129468,0.6379795425154019,0.2885858,0.605259419955997
0.0085,1.79819375,1.0,1136.5887127598273,0.09186769674723166,1.3505300340197708,0.6631162487248702,0.2885771375,0.6081909925066911
0.009000000000000001,1.797975,1.0,1218.8327513522634,0.09696160074424534,1.3492929909525366,0.6859506149665963,0.28856795,0.6109515512481861
0.0095,1.79774375,1.0,1298.4909825177165,0.10202693225491419,1.3481221610106957,0.7067064518349196,0.2885582375,0.6135553603738624
0.01,1.7975,1.0,1375.4310452294753,0.10706385125149842,1.3470127122175002,0.7255916192385253,0.288548,0.6160145968094848
0.0105,1.79724375,1.0,1449.5665596718707,0.112072516912303,1.3459601645096366,0.7427961762384061,0.2885372375,0.6183404482540343
0.011,1.796975,1.0,1520.8593706543709,0.11705308773730855,1.3449602363684254,0.7584921216040239,0.28852595000000003,0.6205434799892859
0.0115,1.79669375,1.0,1589.3073505427753,0.12200572213939903,1.3440088971315143,0.772834077604519,0.2885141375,0.622633541754972
0.012,1.7964,1.0,1654.8967872867966,0.12693057594929325,1.3431028354576033,0.7859606017060002,0.28850180000000003,0.6246187637147729
0.0125,1.79609375,1.0,1717.6525885632698,0.13182780489871393,1.3422387642141738,0.797995196459755,0.2884889375,0.6265071054501121
0.013000000000000001,1.7957750000000001,1.0,1777.6154364596905,0.13669756384912532,1.3414136349920958,0.8090478237019082,0.28847555,0.628305898729222
0.0135,1.79544375,1.0,1834.8667278064972,0.14154000831262362,1.3406243056754725,0.8192161694029758,0.2884616375,0.6300225841297904
0.014,1.7951000000000001,1.0,1889.4536817524026,0.14635529062068206,1.3398683336567485,0.82858727219275,0.2884472,0.6316629967391105
0.0145,1.79474375,1.0,1941.433451831531,0.15114356247552957,1.3391434232578103,0.837238513257382,0.2884322375,0.633232584378105
0.015,1.794375,1.0,1990.8840222232056,0.1559049755793952,1.338447278800544,0.8452386797304704,0.28841675,0.6347367330118205
0.0155,1.79399375,1.0,2037.8841261248551,0.1606396806274375,1.3377777968169386,0.8526490341410745,0.2884007375,0.6361803570710935
0.016,1.7936,1.0,2082.53769339378,0.1653478287660439,1.3371327836621427,0.8595241124373169,0.2883842,0.637568514605277
0.0165,1.7931937500000001,1.0,2124.915987645017,0.17002956802363833,1.336510541113284,0.8659126964760716,0.2883671375,0.6389051521672346
0.017,1.792775,1.0,2165.0934658768115,0.17468504589958897,1.335909462862033,0.8718583717808255,0.28834955,0.6401939820144787
0.0175,1.7923437500000001,1.0,2203.155431219674,0.17931440989326405,1.33532794260006,0.8774001145556893,0.2883314375,0.6414386827538614
0.018000000000000002,1.7919,1.0,2239.1837688195146,0.1839178063310141,1.3347645078726231,0.8825728683379913,0.2883128,0.6426426156530627
0.0185,1.79144375,1.0,2273.2781363240338,0.18849538259470475,1.3342175953263578,0.8874079560092886,0.2882936375,0.6438093079536574
0.019,1.790975,1.0,2305.5109049593098,0.19304728257418788,1.3336859921139796,0.8919336068565205,0.28827395,0.6449415136062153
0.0195,1.79049375,1.0,2335.9535478102853,0.19757364946317832,1.3331685578584136,0.8961752412950871,0.2882537375,0.6460418113984213
0.02,1.79,1.0,2364.6832874282786,0.20207462645539087,1.3326641521825846,0.900155772036927,0.288233,0.6471127610097009
0.0205,1.78949375,1.0,2391.777378407519,0.20655035594905582,1.3321716855019696,0.9038958962040752,0.2882117375,0.6481567963991728
0.021,1.788975,1.0,2417.31564896835,0.21100098058600708,1.3316900887095353,0.9074143344972135,0.28818995000000003,0.6491762916194534
0.021500000000000002,1.78844375,1.0,2441.3741406010745,0.21542664222653676,1.3312183698431488,0.9107280586253892,0.2881676375,0.650173442214436
0.022,1.7879,1.0,2464.0108925736117,0.2198274793788261,1.3307557446798686,0.9138525048256629,0.2881448,0.6511499915856684
0.0225,1.78734375,1.0,2485.2869513428013,0.22420363055105638,1.3303014289967525,0.9168016966752454,0.28812143749999997,0.6521076722024977
0.023,1.786775,1.0,2505.2661211013674,0.22855523425140883,1.3298546385708583,0.9195883939257087,0.28809755,0.6530482060372719
0.0235,1.78619375,1.0,2524.0134909964386,0.23288242873582896,1.329414600871509,0.9222242259469501,0.28807313749999996,0.6539732803975267
0.024,1.7856,1.0,2541.58397967637,0.2371853497497056,1.3289806606711723,0.9247198256182796,0.2880482,0.6548843268633897
0.0245,1.78499375,1.0,2558.0555334426767,0.24146413765555091,1.328551964515503,0.9270848773181184,0.2880227375,0.6557831843526901
0.025,1.784375,1.0,2573.4724548142945,0.24571892575660936,1.3281279926519616,0.9293282984675796,0.28799675,0.6566709835401603
0.025500000000000002,1.78374375,1.0,2587.8804522466603,0.24994984735612538,1.3277082253280084,0.9314582607286601,0.2879702375,0.6575488490190284
0.026000000000000002,1.7831000000000001,1.0,2601.3265236320326,0.25415703575734333,1.327292142791104,0.9334822624896736,0.2879432,0.6584178994490039
0.0265,1.78244375,1.0,2613.8588457891838,0.2583406242635076,1.3268792252887085,0.935407193421705,0.2879156375,0.6592792476870337
0.027,1.781775,1.0,2625.526669942467,0.2625007461778627,1.326468953068283,0.9372393920577922,0.28788755,0.6601340009008267
0.0275,1.7810937500000001,1.0,2636.371430735071,0.26663753098089116,1.3260608876966402,0.9389847078660797,0.2878589375,0.6609830915640273
0.028,1.7804,1.0,2646.4481796959294,0.2707511148821835,1.3256544725752566,0.9406485210090965,0.2878298,0.6618276928945519
0.0285,1.77969375,1.0,2655.791561513534,0.274841626472165,1.3252493468217674,0.9422358246484032,0.2878001375,0.6626685663010639
0.029,1.778975,1.0,2664.4347526489237,0.27890919348575455,1.324845168646144,0.9437512368723479,0.28776995,0.6635064298700838
0.029500000000000002,1.7782437500000001,1.0,2672.411470141335,0.28295394365787113,1.3244415962583576,0.945199031537218,0.2877392375,0.6643419981419927
0.03,1.7775,1.0,2679.755922943393,0.2869760047234337,1.3240382878683796,0.9465831683294503,0.287708,0.6651759821279628
0.0305,1.77674375,1.0,2686.5027658467234,0.2909755044173613,1.3236349016861815,0.9479073198454205,0.2876762375,0.6660090893194377
0.031,1.775975,1.0,2692.6868683369325,0.2949525703314164,1.323231097639117,0.9491748961892288,0.28764395,0.6668420201499093
0.0315,1.7751937500000001,1.0,2698.333283064099,0.2989073215046235,1.3228266286968733,0.9503890757477921,0.2876111375,0.6676752799879182
0.032,1.7744,1.0,2703.488834824746,0.30283989655452176,1.3224210515696424,0.9515527976314014,0.2875778,0.6685097752063967
0.0325,1.77359375,1.0,2708.1747350200726,0.3067504167141341,1.3220141597227815,0.9526688221289606,0.2875439375,0.6693459213585172
0.033,1.772775,1.0,2712.412402201701,0.3106390032164834,1.3216057466216469,0.9537397222055191,0.28750955,0.6701841318237662
0.0335,1.7719437500000002,1.0,2716.2234427147623,0.3145057772945925,1.3211956057315957,0.9547678984637636,0.2874746375,0.6710248177892646
0.034,1.7711000000000001,1.0,2719.629632286551,0.31835086018148423,1.3207835305179847,0.9557555927411611,0.2874392,0.6718683882283711
0.0345,1.7702437500000001,1.0,2722.6528985612235,0.3221743731101816,1.3203693144461708,0.9567049004815852,0.2874032375,0.6727152498765643
0.035,1.7693750000000001,1.0,2725.315304579779,0.32597643731370735,1.3199527509815108,0.9576177820047602,0.28736675,0.6735658072046026
0.035500000000000004,1.76849375,1.0,2727.639033206411,0.3297571740250844,1.3195336335893615,0.9584960727832419,0.2873297375,0.6744204623889658
0.036000000000000004,1.7676,1.0,2729.6463724999394,0.33351670447733567,1.3191117557350798,0.9593414928246515,0.2872922,0.6752796152795753
0.0365,1.76669375,1.0,2731.3441206456073,0.3372551400278081,1.318687052464913,0.960155667360826,0.2872541375,0.6761433756097761
0.037,1.765775,1.0,2732.766444382289,0.3409726111287397,1.3182592107720206,0.9609401012946309,0.28721555,0.6770123557358756
0.0375,1.76484375,1.0,2733.9315951612207,0.3446692359853578,1.317828062934976,0.9616962198212211,0.2871764375,0.6778868699330389
0.038,1.7639,1.0,2734.8517182929018,0.3483451285966305,1.3173934971702608,0.962425367166252,0.28713679999999997,0.6787671172003561
0.0385,1.76294375,1.0,2735.5390014986483,0.3520004029615258,1.3169554016943577,0.9631288078700708,0.28709663750000003,0.6796532950789809
0.039,1.761975,1.0,2736.00566952866,0.35563517307901177,1.3165136647237485,0.9638077323744869,0.28705595,0.6805455996273677
0.0395,1.7609937500000001,1.0,2736.2639790581143,0.35924955294805655,1.3160681744749156,0.9644632621598648,0.2870147375,0.6814442253957088
0.04,1.76,1.0,2736.3262138593273,0.3628436565676282,1.3156188191643412,0.9650964544731625,0.286973,0.6823493653995756
0.0405,1.7589937500000001,1.0,2736.2046802518075,0.3664175979366947,1.3151654870085074,0.9657083066834863,0.2869307375,0.6832612110927625
0.041,1.757975,1.0,2735.911702828602,0.3699714910542243,1.3147080662238966,0.9662997602981217,0.28688795,0.6841799523393353
0.0415,1.75694375,1.0,2735.4596204602476,0.3735054499191849,1.3142464450269906,0.9668717046687798,0.2868446375,0.6851057773848807
0.042,1.7559,1.0,2734.8588752594155,0.37701958368553573,1.3137805289540578,0.9674249810586607,0.28680079999999997,0.686038838167448
0.0425,1.75484375,1.0,2734.119291542738,0.3805140048503255,1.3133102292261074,0.9679603861647474,0.2867564375,0.6869792737955487
0.043000000000000003,1.753775,1.0,2733.2520118247003,0.38398883180153326,1.312835445143235,0.9684786739167344,0.28671155,0.687927245733527
0.043500000000000004,1.75269375,1.0,2732.264037920532,0.38744417145903326,1.3123561136463016,0.9689805594351952,0.28666613750000003,0.6888828388640904
0.044,1.7516,1.0,2731.162374956989,0.3908801307426996,1.3118721716761683,0.9694667203075799,0.2866202,0.6898461369068578
0.0445,1.75049375,1.0,2729.954029882245,0.39429681657240656,1.3113835561736964,0.9699377989254901,0.2865737375,0.690817222399944
0.045,1.7493750000000001,1.0,2728.6460100632,0.3976943358680282,1.3108902040797465,0.9703944046542305,0.28652675,0.6917961766812932
0.0455,1.74824375,1.0,2727.245321970746,0.4010727955494387,1.3103920523351802,0.9708371158481873,0.2864792375,0.6927830798697537
0.046,1.7471,1.0,2725.758969954155,0.4044323025365123,1.3098890378808583,0.9712664817243872,0.2864312,0.6937780108459055
0.0465,1.7459437500000001,1.0,2724.1939551025507,0.40777296374912303,1.3093810976576419,0.9716830241054777,0.28638263750000004,0.6947810472326297
0.047,1.744775,1.0,2722.5572741952874,0.4110948861071451,1.3088681686063919,0.9720872390423951,0.28633355,0.6957922653754256
0.0475,1.74359375,1.0,2720.8559187403093,0.41439817653045274,1.3083501876679693,0.9724795983260823,0.28628393750000003,0.696811740322475
0.048,1.7424,1.0,2719.0911477728014,0.417682912615696,1.3078271439328901,0.9728605508779892,0.2862338,0.6978394434251267
0.0485,1.74119375,1.0,2717.2755392444424,0.420949238767695,1.3072989233823704,0.9732305252697387,0.2861831375,0.6988755474746047
0.049,1.739975,1.0,2715.412287932159,0.42419725533641317,1.30676549737134,0.9735899300967785,0.28613195,0.6999200561942422
0.0495,1.73874375,1.0,2713.504276202667,0.4274270610750115,1.3062268400757102,0.9739391547458042,0.2860802375,0.7009729668917264
0.05,1.7375,1.0,2711.5543836279676,0.4306387547366509,1.3056829256713918,0.9742785704721614,0.286028,0.7020342759980178
0.0505,1.73624375,1.0,2709.565486755678,0.43383243507449243,1.3051337283342952,0.9746085314038723,0.2859752375,0.7031039790587135
0.051000000000000004,1.734975,1.0,2707.540458894303,0.437008200841697,1.3045792222403318,0.9749293754814093,0.28592195,0.7041820707253653
0.051500000000000004,1.73369375,1.0,2705.4821699132995,0.44016615079142557,1.3040193815654124,0.9752414253378596,0.2858681375,0.7052685447467608
0.052000000000000005,1.7324,1.0,2703.3934860575923,0.44330638367683917,1.303454180485448,0.9755449891237556,0.2858138,0.7063633939601567
0.0525,1.73109375,1.0,2701.277269777669,0.4464289982510987,1.3028835931763492,0.9758403612804984,0.28575893750000003,0.7074666102824739
0.053,1.729775,1.0,2699.1363795733414,0.44953409326736526,1.302307593814027,0.9761278232660009,0.28570355000000003,0.7085781847014454
0.0535,1.72844375,1.0,2696.9736698531474,0.45262176747879973,1.301726156574392,0.9764076442358809,0.2856476375,0.7096981072667266
0.054,1.7271,1.0,2694.7919908084714,0.4556921196385631,1.3011392556333559,0.9766800816832913,0.2855912,0.7108263670809578
0.0545,1.7257437500000001,1.0,2692.594188301929,0.4587452484998163,1.3005468651668288,0.9769453820402209,0.2855342375,0.7119629522907909
0.055,1.724375,1.0,2690.3831037709274,0.46178125281572036,1.2999489593507219,0.9772037812428926,0.28547675,0.7131078500778667
0.0555,1.72299375,1.0,2688.16157414621,0.4648002313394362,1.299345512360946,0.9774555052636881,0.2854187375,0.7142610466497534
0.056,1.7216,1.0,2685.9266648113035,0.4678022362672289,1.2987365512164772,0.9777007693817644,0.2853602,0.7154224265538427
0.0565,1.72019375,1.0,2683.68811295853,0.4707874224869859,1.2981219868211473,0.9779397826974269,0.28530113749999997,0.7165920949420015
0.057,1.718775,1.0,2681.446910737397,0.47375588062981266,1.2975018101286937,0.9781727443844921,0.28524155,0.7177700030935927
0.0575,1.71734375,1.0,2679.2038923489513,0.4767077001076612,1.296876013526912,0.9783998454739105,0.2851814375,0.7189560988277066
0.058,1.7159,1.0,2676.9598906106216,0.4796429703324836,1.296244589403597,0.9786212692775419,0.2851208,0.7201503292381832
0.0585,1.71444375,1.0,2674.7157369525394,0.48256178071623185,1.2956075301465446,0.9788371917594604,0.2850596375,0.7213526406908792
0.059000000000000004,1.7129750000000001,1.0,2672.472261414939,0.4854642206708581,1.29496482814355,0.9790477818865562,0.28499795,0.7225629788209376
0.059500000000000004,1.71149375,1.0,2670.230292647534,0.4883503796083144,1.2943164757824086,0.9792532019597385,0.2849357375,0.7237812885300475
0.06,1.71,1.0,2667.990657909327,0.4912203469405528,1.2936624654509157,0.979453607926958,0.284873,0.7250075139837047
0.0605,1.7084937500000001,1.0,2665.7541830704563,0.4940742120795254,1.2930027895368665,0.9796491496791762,0.2848097375,0.7262415986084653
0.061,1.7069750000000001,1.0,2663.5216926148664,0.4969120644371842,1.2923374404280568,0.9798399713303382,0.28474595,0.7274834850891976
0.0615,1.7054437500000001,1.0,2661.294009644175,0.49973399342548136,1.2916664105122815,0.9800262114823265,0.2846816375,0.7287331153663307
0.062,1.7039,1.0,2659.071955883658,0.5025400884563689,1.2909896921773363,0.9802080034758087,0.2846168,0.7299904306330967
0.0625,1.70234375,1.0,2656.8563516881663,0.5053304389417989,1.2903072778110165,0.9803854756278321,0.2845514375,0.731255371332772
0.063,1.7007750000000001,1.0,2654.648016050616,0.5081051342937233,1.2896191598011173,0.9805587514569566,0.28448555,0.7325278771559148
0.0635,1.69919375,1.0,2652.447766611091,0.5108642639240943,1.2889253305354342,0.9807279498966716,0.28441913750000003,0.7338078870375959
0.064,1.6976,1.0,2650.2564196669314,0.5136079172448641,1.2882257824017627,0.9808931854977805,0.2843522,0.7350953391546293
0.0645,1.69599375,1.0,2648.074790185308,0.5163361836679845,1.2875205077878977,0.9810545686204092,0.2842847375,0.736390170922798
0.065,1.694375,1.0,2645.9027769677045,0.519049142435559,1.2868095075276016,0.981212205317875,0.28421675,0.7376923035451998
0.0655,1.69274375,1.0,2643.7374061109567,0.5217468492085947,1.2860928089883492,0.9813661974998449,0.2841482375,0.7390016092001146
0.066,1.6911,1.0,2641.583753585464,0.5244294462352773,1.2853703652046913,0.9815166457904373,0.2840792,0.7403180952262154
0.0665,1.6894437500000001,1.0,2639.441856509272,0.5270970134918554,1.284642175711113,0.9816636451959061,0.2840096375,0.7416416830562622
0.067,1.687775,1.0,2637.3117519853568,0.5297496309545778,1.2839082400421,0.9818072873799445,0.28393955,0.742972293482772
0.0675,1.68609375,1.0,2635.193477103442,0.5323873785996929,1.2831685577321372,0.9819476608032349,0.2838689375,0.7443098466578484
0.068,1.6844000000000001,1.0,2633.0870689404287,0.5350103364034493,1.2824231283157104,0.9820848508562235,0.2837978,0.7456542620930096
0.0685,1.68269375,1.0,2630.9925645617045,0.5376185843420956,1.2816719513273043,0.9822189399854873,0.2837261375,0.7470054586590202
0.069,1.680975,1.0,2628.910001022294,0.5402122023918805,1.2809150263014044,0.9823500078140499,0.28365395,0.7483633545857183
0.0695,1.67924375,1.0,2626.8394153675963,0.5427912705290525,1.2801523527724963,0.9824781312559703,0.28358123749999997,0.7497278674618457
0.07,1.6775,1.0,2624.780844634772,0.5453558687298603,1.279383930275065,0.9826033846255181,0.283508,0.7510989142348778
0.07050000000000001,1.67574375,1.0,2622.7343258537144,0.5479060769705524,1.2786097583435958,0.9827258397412232,0.2834342375,0.752476411210852
0.07100000000000001,1.673975,1.0,2620.6998960478986,0.5504419752273775,1.277829836512574,0.9828455660250718,0.28335995,0.7538602740541978
0.07150000000000001,1.67219375,1.0,2618.677592235846,0.5529636434765841,1.277044164316485,0.9829626305971116,0.2832851375,0.7552504177875654
0.07200000000000001,1.6704,1.0,2616.667451431951,0.5554711616944208,1.276252741289814,0.9830770983656996,0.2832098,0.7566467567916555
0.0725,1.66859375,1.0,2614.66951064757,0.5579646098571363,1.2754555669670462,0.983189032113626,0.2831339375,0.7580492048050482
0.073,1.6667750000000001,1.0,2612.683806892367,0.5604440679409791,1.274652640882667,0.9832984925803286,0.28305755,0.7594576749240329
0.0735,1.66494375,1.0,2610.710377175033,0.5629096159221979,1.2738439625711617,0.9834055385403929,0.2829806375,0.7608720796024369
0.074,1.6631,1.0,2608.7492585045757,0.5653613337770412,1.2730295315670157,0.9835102268785368,0.2829032,0.762292330651454
0.0745,1.6612437500000001,1.0,2606.8004878915244,0.5677993014817577,1.2722093474047143,0.9836126126612531,0.2828252375,0.7637183392394757
0.075,1.659375,1.0,2604.8641023489813,0.570223599012596,1.2713834096187424,0.9837127492052801,0.28274675,0.7651500158919192
0.0755,1.65749375,1.0,2602.9379794452034,0.572634265530548,1.2705517378436852,0.9838106867567383,0.2826677375,0.7665872358091895
