Time [s],Phi [rad],STIM [ ],Fsee [N],Gamma [ ],Lcerel [ ],q [ ],Lmtc [m],fisomrel [ ]
0.0,1.8,1.0,17.999730365672786,0.00018015790502596722,1.379336098696602,0.005008455054523858,0.288653,0.5411483553113582
0.0005,1.79999375,1.0,18.364698817632384,0.0057883566704832225,1.379292629463657,0.01341965150201423,0.2886527375,0.5412535115897482
0.001,1.799975,1.0,21.832658484179195,0.011365097874982076,1.3789164708429265,0.036500763083586824,0.28865195,0.5421629723339977
0.0015,1.79994375,1.0,31.555667563591825,0.016910557971529454,1.3780049223819506,0.07181939112573464,0.2886506375,0.5443631334662484
0.002,1.7999,1.0,54.610707997586296,0.022424912421306953,1.3763017366135415,0.11615767188621316,0.2886488,0.5484598310638803
0.0025,1.79984375,1.0,98.83091522800218,0.027908335702246063,1.3738530315294029,0.1661396607149363,0.28864643749999996,0.5543173176539392
0.003,1.7997750000000001,1.0,163.17523447693188,0.03336100131527432,1.371131640621987,0.21889384313655286,0.28864354999999997,0.5607822236263788
0.0035,1.79969375,1.0,240.18253436919503,0.03878308178514448,1.3685079534815385,0.27221696206565166,0.2886401375,0.5669703068266845
0.004,1.7996,1.0,324.1222306291256,0.044174748670819476,1.3660859040708166,0.3244685450476628,0.2886362,0.5726438483439185
0.0045000000000000005,1.7994937500000001,1.0,412.0152100025193,0.049536172570784506,1.3638584287023945,0.37450816482664717,0.2886317375,0.5778285837443384
0.005,1.799375,1.0,502.21512907578136,0.05486752311488874,1.361798891311105,0.4216259723427291,0.28862675,0.5825942673662476
0.0055,1.79924375,1.0,593.6153097326682,0.06016896900343087,1.3598837093052152,0.46544985441890757,0.2886212375,0.5870016446961714
0.006,1.7991000000000001,1.0,685.3440451145948,0.06544067797117083,1.3580950998005104,0.5058526689511457,0.2886152,0.5910966182999443
0.006500000000000001,1.79894375,1.0,776.6887346931288,0.07068281681106445,1.3564193715329222,0.5428729669122908,0.2886086375,0.5949146415691222
0.007,1.798775,1.0,867.0585696171776,0.075895551422139,1.3548456419280865,0.5766538712855037,0.28860155,0.5984839617495032
0.0075,1.79859375,1.0,955.9651966097584,0.08107904663798053,1.353364942152348,0.6073986041963204,0.2885939375,0.6018278624287876
0.008,1.7984,1.0,1043.027677989399,0.08623346669125806,1.3519693725826312,0.6353394954499276,0.2885858,0.604966711619225
0.0085,1.79819375,1.0,1127.9225158747165,0.09135897440656805,1.3506523390961431,0.6607179031119881,0.2885771375,0.6079175289745009
0.009000000000000001,1.797975,1.0,1210.4143419670906,0.09645573199960307,1.3494076998811697,0.6837709190990201,0.28856795,0.6106959797951226
0.0095,1.79774375,1.0,1290.3355877069848,0.10152390109425079,1.3482298066463145,0.7047238310390113,0.2885582375,0.613316332152648
0.01,1.7975,1.0,1367.5422354331984,0.10656364156044987,1.3471138709831612,0.7237862502256925,0.288548,0.6157906905965732
0.0105,1.79724375,1.0,1441.9486157268516,0.11157511274777729,1.346055307716917,0.7411499906894985,0.2885372375,0.6181304974520085
0.011,1.796975,1.0,1513.5288447235603,0.11655847410484878,1.345049608528673,0.7569887296956268,0.28852595000000003,0.6203468356320458
0.0115,1.79669375,1.0,1582.2529582067948,0.12151388285844696,1.344093022265138,0.7714589184934751,0.2885141375,0.6224489541723319
0.012,1.7964,1.0,1648.1124505844164,0.12644149528371829,1.3431821138991666,0.7847006251782329,0.28850180000000003,0.6244452700883272
0.0125,1.79609375,1.0,1711.1370361899187,0.13134146741718028,1.3423134922198787,0.7968387396768827,0.2884889375,0.626343982921655
0.013000000000000001,1.7957750000000001,1.0,1771.3804014082339,0.13621395486640275,1.3414839242078485,0.8079844448068869,0.28847555,0.6281528364400779
0.0135,1.79544375,1.0,1828.8953409363369,0.14105911205481145,1.3406905599797565,0.8182367025766343,0.2884616375,0.6298786426679845
0.014,1.7951000000000001,1.0,1883.727942001962,0.1458770914022331,1.3399309345095982,0.82768356690781,0.2884472,0.6315272951640027
0.0145,1.79474375,1.0,1935.948265452486,0.15066804532849445,1.3392025827713685,0.8364032671764698,0.2884322375,0.6331046168406662
0.015,1.794375,1.0,1985.632032797906,0.15543212524248498,1.3385032126801715,0.8444653997036023,0.28841675,0.6346159917257737
0.0155,1.79399375,1.0,2032.8793933796167,0.16016948358240557,1.3378304767739553,0.8519318627482754,0.2884007375,0.6360668653146749
0.016,1.7936,1.0,2077.7611820013626,0.16488026946579493,1.3371825173884075,0.8588579333508345,0.2883842,0.6374615751518375
0.0165,1.7931937500000001,1.0,2120.3487993454214,0.16956463105246583,1.3365576170493594,0.8652929387922362,0.2883671375,0.6388041148152321
0.017,1.792775,1.0,2160.7260753048063,0.17422271650223103,1.3359540582826412,0.8712809193076603,0.28834955,0.6400984398068358
0.0175,1.7923437500000001,1.0,2198.9826370045116,0.17885467337280278,1.335370180037596,0.8768612682137189,0.2883314375,0.6413483493034131
0.018000000000000002,1.7919,1.0,2235.2103899978097,0.18346064910993443,1.334804400741697,0.8820692842244104,0.2883128,0.6425574401913047
0.0185,1.79144375,1.0,2269.494745174302,0.188040790068994,1.3342552937460308,0.8869366669829167,0.2882936375,0.6437289496261309
0.019,1.790975,1.0,2301.9041416540585,0.19259523985543964,1.3337216775809013,0.8914919527717503,0.28827395,0.6448655673233066
0.0195,1.79049375,1.0,2332.513476888467,0.19712414207472947,1.3332023707766116,0.8957608167910036,0.2882537375,0.6459699620817776
0.02,1.79,1.0,2361.4035684781697,0.20162764033232156,1.3326961918634657,0.8997663979483413,0.288233,0.6470447829067221
0.0205,1.78949375,1.0,2388.648736247264,0.20610587656206625,1.3322020751022257,0.9035296086440763,0.2882117375,0.6480924148525996
0.021,1.788975,1.0,2414.338224477642,0.21055899499454594,1.3317188557540451,0.90706933628493,0.28818995000000003,0.6491154360243208
0.021500000000000002,1.78844375,1.0,2438.539074784196,0.2149871360741577,1.3312456256780922,0.9104027376342083,0.2881676375,0.6501158656541111
0.022,1.7879,1.0,2461.310263120387,0.21939043851117654,1.3307815881075666,0.9135453951864301,0.2881448,0.6510954750288143
0.0225,1.78734375,1.0,2482.713827405866,0.22376904101587755,1.3303259462756685,0.9165114632809385,0.28812143749999997,0.6520560242891715
0.023,1.786775,1.0,2502.814612449275,0.22812308229853576,1.3298779034155972,0.9193138187642822,0.28809755,0.6529992628766899
0.0235,1.78619375,1.0,2521.677225792929,0.2324527005903375,1.3294366892693046,0.9219641986981342,0.28807313749999996,0.6539268742451521
0.024,1.7856,1.0,2539.357656232621,0.23675803233050732,1.3290016364716215,0.9244733305055535,0.2880482,0.654840316323326
0.0245,1.78499375,1.0,2555.9343941578613,0.24103921723776092,1.328571884621202,0.9268509836809606,0.2880227375,0.6557414433560954
0.025,1.784375,1.0,2571.4517194604227,0.2452963887605785,1.3281469127043566,0.9291061539280295,0.28799675,0.6566313892940032
0.025500000000000002,1.78374375,1.0,2585.9553320916093,0.2495296803474402,1.3277261997073961,0.93124708352277,0.2879702375,0.6575112819685839
0.026000000000000002,1.7831000000000001,1.0,2599.49223464424,0.2537392254468262,1.3273092246166314,0.93328133464395,0.2879432,0.6583822432425368
0.0265,1.78244375,1.0,2612.1106209533564,0.2579251575072167,1.3268954664183725,0.9352158546724525,0.2879156375,0.6592453891425851
0.027,1.781775,1.0,2623.8597707155755,0.26208760997709174,1.3264844040989308,0.9370570344244971,0.28788755,0.6601018299750194
0.0275,1.7810937500000001,1.0,2634.7833317137934,0.26622671249203694,1.3260755778752178,0.9388107677902013,0.2878589375,0.6609525430910166
0.028,1.7804,1.0,2644.933999218319,0.2703426011247424,1.3256684521981954,0.9404824814183718,0.2878298,0.6617986582998461
0.0285,1.77969375,1.0,2654.3459485992007,0.2744354040119359,1.3252626698060466,0.9420772081655817,0.2878001375,0.6626409299446516
0.029,1.778975,1.0,2663.053767980434,0.2785052491913361,1.3248578752641873,0.9435996001546086,0.28776995,0.6634801048432326
0.029500000000000002,1.7782437500000001,1.0,2671.0926016633607,0.28255226470066164,1.324453713138034,0.9450539622896945,0.2877392375,0.6643169261190762
0.03,1.7775,1.0,2678.4980992555534,0.28657657857763114,1.3240498279930029,0.9464442826174703,0.287708,0.6651521332197234
0.0305,1.77674375,1.0,2685.3063676009706,0.2905783188599633,1.32364586439451,0.9477742596721638,0.2876762375,0.6659864619270743
0.031,1.775975,1.0,2691.541887233507,0.29455760799422626,1.3232415771001231,0.9490473393788937,0.28764395,0.6668204171996975
0.0315,1.7751937500000001,1.0,2697.2440227858337,0.29851457733304476,1.3228365876820298,0.9502667102663617,0.2876111375,0.6676547756818338
0.032,1.7744,1.0,2702.451924606172,0.302449357281932,1.3224305228325295,0.9514353389179633,0.2875778,0.6684902995725182
0.0325,1.77359375,1.0,2707.18702542122,0.30636206927048737,1.322023173730282,0.9525560048499442,0.2875439375,0.6693274093771574
0.033,1.772775,1.0,2711.4709686578226,0.31025283472831,1.3216143315539481,0.9536312987059257,0.28750955,0.6701665234027651
0.0335,1.7719437500000002,1.0,2715.3255887364026,0.3141217750849992,1.3212037874821871,0.9546636373608497,0.2874746375,0.6710080577394706
0.034,1.7711000000000001,1.0,2718.772892330096,0.31796901177015424,1.3207913326936598,0.9556552776459496,0.2874392,0.6718524262392401
0.0345,1.7702437500000001,1.0,2721.8350405917918,0.3217946662133744,1.320376758367026,0.9566083288352167,0.2874032375,0.6727000404918246
0.035,1.7693750000000001,1.0,2724.534332347199,0.3255988598442589,1.319959855680946,0.9575247640181521,0.28736675,0.6735513097979215
0.035500000000000004,1.76849375,1.0,2726.893188255191,0.3293817140924071,1.3195404158140798,0.9584064304697892,0.2873297375,0.6744066411395568
0.036000000000000004,1.7676,1.0,2728.93413593468,0.3331433503874181,1.3191182299450877,0.9592550591168261,0.2872922,0.6752664391476855
0.0365,1.76669375,1.0,2730.670861513816,0.336883882783155,1.3186931704467861,0.960072279759913,0.2872541375,0.6761309410413767
0.037,1.765775,1.0,2732.129084829096,0.34060343810949606,1.3182650010037427,0.96085961397913,0.28721555,0.6770006031125245
0.0375,1.76484375,1.0,2733.325012818073,0.3443021338303352,1.3178335723743935,0.9616184974143323,0.2871764375,0.677875702397102
0.038,1.7639,1.0,2734.2717139279116,0.3479800844705795,1.3173987643092173,0.9623502816783496,0.28713679999999997,0.6787564554049168
0.0385,1.76294375,1.0,2734.982301161124,0.35163740455513576,1.316960456558693,0.9630562381723455,0.28709663750000003,0.6796430770985489
0.039,1.761975,1.0,2735.4699261948954,0.35527420860891096,1.3165185288732986,0.9637375637155106,0.28705595,0.6805357808669734
0.0395,1.7609937500000001,1.0,2735.747773821596,0.3588906111568119,1.316072861003513,0.9643953857211272,0.2870147375,0.6814347784982586
0.04,1.76,1.0,2735.8290567094004,0.36248672672374566,1.3156233326998148,0.9650307669600173,0.286973,0.6823402801513457
0.0405,1.7589937500000001,1.0,2735.727010483832,0.366062669834619,1.3151698237126823,0.9656447099483135,0.2869307375,0.6832524943269029
0.041,1.757975,1.0,2735.454889129684,0.3696185550143389,1.3147122137925944,0.9662381609928201,0.28688795,0.6841716278372588
0.0415,1.75694375,1.0,2735.0197922502157,0.3731544863264656,1.3142504387023917,0.9668120169065562,0.2868446375,0.6850977735183494
0.042,1.7559,1.0,2734.4363170070446,0.3766705856220005,1.3137843662322182,0.9673671226201195,0.28680079999999997,0.6860311591461901
0.0425,1.75484375,1.0,2733.7173349911227,0.3801669709820704,1.3133138799057413,0.9679042778519524,0.2867564375,0.6869719791403404
0.043000000000000003,1.753775,1.0,2732.869848279142,0.3836437495577538,1.312838916601744,0.9684242419617112,0.28671155,0.6879203197048694
0.043500000000000004,1.75269375,1.0,2731.9008640514153,0.3871010285001291,1.3123594131990097,0.9689277339896698,0.28666613750000003,0.6888762658991401
0.044,1.7516,1.0,2730.817393000785,0.3905389149602747,1.3118753065763213,0.9694154351961358,0.2866202,0.6898399016196606
0.0445,1.75049375,1.0,2729.6264478306293,0.39395751608926904,1.3113865336124626,0.9698879914166284,0.2865737375,0.6908113095816795
0.045,1.7493750000000001,1.0,2728.335041840641,0.3973569390381906,1.3108930311862164,0.9703460152478663,0.28652675,0.6917905713005303
0.0455,1.74824375,1.0,2726.9501876011163,0.4007372909581177,1.3103947361763657,0.970790088078259,0.2864792375,0.692777767072718
0.046,1.7471,1.0,2725.4788957157043,0.40409867900012897,1.3098915854616942,0.9712207619753638,0.2864312,0.6937729759567524
0.0465,1.7459437500000001,1.0,2723.9281736724674,0.4074412103153026,1.3093835159209848,0.971638561441667,0.28638263750000004,0.6947762757537301
0.047,1.744775,1.0,2722.3050247828173,0.4107649920547172,1.308870464433021,0.9720439850490412,0.28633355,0.6957877429876593
0.0475,1.74359375,1.0,2720.616447209939,0.4140701313694512,1.3083523678765854,0.9724375069613372,0.28628393750000003,0.6968074528855324
0.048,1.7424,1.0,2718.8641475487852,0.4173567193731585,1.307829211267833,0.9728195797255395,0.2862338,0.6978353848540303
0.0485,1.74119375,1.0,2717.0563911478116,0.4206248752131213,1.3073009198717216,0.9731906335211012,0.2861831375,0.6988716347129903
0.049,1.739975,1.0,2715.199782932713,0.42387471008279587,1.3067674340034912,0.973551078088292,0.28613195,0.6999162673307198
0.0495,1.73874375,1.0,2713.297391434188,0.427106323033579,1.3062287261505374,0.9739013045893616,0.2860802375,0.7009692834190662
0.05,1.7375,1.0,2711.3522821964743,0.4303198131168677,1.3056847688002573,0.9742416859547662,0.286028,0.702030682791879
0.0505,1.73624375,1.0,2709.3675175272106,0.43351527938405876,1.3051355344400466,0.9745725778936928,0.2859752375,0.7031004643558263
0.051000000000000004,1.734975,1.0,2707.3461562648995,0.4366928208865493,1.3045809955573018,0.9748943198398552,0.28592195,0.7041786261011573
0.051500000000000004,1.73369375,1.0,2705.2912535624014,0.4398525366757362,1.3040211246394193,0.9752072358372423,0.2858681375,0.7052651650924192
0.052000000000000005,1.7324,1.0,2703.2058606877017,0.44299452580301635,1.3034558941737953,0.9755116353701293,0.2858138,0.7063600774591274
0.0525,1.73109375,1.0,2701.0930248412947,0.44611888731978666,1.302885276647826,0.9758078141413098,0.28575893750000003,0.7074633583863836
0.053,1.729775,1.0,2698.955788990288,0.4492257202774441,1.302309244548908,0.9760960548022073,0.28570355000000003,0.7085750021054482
0.0535,1.72844375,1.0,2696.797191719319,0.4523151237273857,1.3017277703644374,0.9763766276382237,0.2856476375,0.7096950018842645
0.054,1.7271,1.0,2694.6202670985517,0.45538719672100825,1.3011408265818105,0.9766497912124322,0.2855912,0.7108233500179335
0.0545,1.7257437500000001,1.0,2692.428044567864,0.4584420383097087,1.3005483856884237,0.9769157929704735,0.2855342375,0.7119600378191407
0.055,1.724375,1.0,2690.223548838245,0.4614797475448841,1.299950420171673,0.9771748698093067,0.28547675,0.7131050556085359
0.0555,1.72299375,1.0,2688.0084200431975,0.4645003887975739,1.299346915156936,0.9774272460791007,0.2854187375,0.7142583685778898
0.056,1.7216,1.0,2685.7864460624905,0.46750410205426296,1.2987378360653814,0.9776731426906292,0.2853602,0.7154199786446853
0.0565,1.72019375,1.0,2683.55880084424,0.47049098030208897,1.2981231722235442,0.977912768359725,0.28530113749999997,0.7165898411459535
0.057,1.718775,1.0,2681.3265490019744,0.47346111396053214,1.2975029139431844,0.978146323039292,0.28524155,0.7177679087860784
0.0575,1.71734375,1.0,2679.0907534100643,0.47641459344907255,1.2968770515360615,0.9783739985272908,0.2851814375,0.7189541335180316
0.058,1.7159,1.0,2676.8524751938007,0.4793515091871904,1.2962455753139355,0.9785959788626474,0.2851208,0.7201484665399087
0.0585,1.71444375,1.0,2674.61277372208,0.4822719515943658,1.2956084755885662,0.978812440698887,0.2850596375,0.7213508582914672
0.059000000000000004,1.7129750000000001,1.0,2672.3727066010547,0.4851760110900789,1.2949657426717138,0.9790235536569063,0.28499795,0.7225612584506516
0.059500000000000004,1.71149375,1.0,2670.13332967105,0.48806377809380985,1.294317366875138,0.9792294806582057,0.2849357375,0.7237796159301193
0.06,1.71,1.0,2667.8956970047007,0.4909353430250387,1.293663338510599,0.9794303782398058,0.284873,0.7250058788737546
0.0605,1.7084937500000001,1.0,2665.6608609078303,0.4937907963032458,1.293003647889856,0.9796263968519934,0.2848097375,0.7262399946531803
0.061,1.7069750000000001,1.0,2663.4298719216936,0.4966302283479111,1.2923382853246694,0.9798176811399502,0.28474595,0.7274819098642608
0.0615,1.7054437500000001,1.0,2661.203778827881,0.49945372957851486,1.291667241126799,0.980004370210261,0.2846816375,0.7287315703236021
0.062,1.7039,1.0,2658.9836286553086,0.5022613904145372,1.2909905056080049,0.9801865978832159,0.2846168,0.7299889210650436
0.0625,1.70234375,1.0,2656.7704666887375,0.5050533012754582,1.2903080690800466,0.980364492931767,0.2845514375,0.7312539063361445
0.063,1.7007750000000001,1.0,2654.5653364798563,0.5078295525807581,1.2896199218546842,0.9805381793079396,0.28448555,0.7325264695946639
0.0635,1.69919375,1.0,2652.3692798605457,0.5105902347499169,1.2889260542436778,0.980707776357446,0.28441913750000003,0.7338065535050362
0.064,1.6976,1.0,2650.179352393661,0.5133354360207999,1.2882264933149674,0.9808734007277385,0.2843522,0.7350940323703987
0.0645,1.69599375,1.0,2647.997737771625,0.5160652396049125,1.2875212188567606,0.9810351620676788,0.2842847375,0.7363888670507741
0.065,1.694375,1.0,2645.8269480117633,0.5187797311190395,1.28681020759302,0.981193166062826,0.28421675,0.7376910230243905
0.0655,1.69274375,1.0,2643.6678689722894,0.5214789962521617,1.2860934512291495,0.9813475153317873,0.2841482375,0.739000437384548
0.066,1.6911,1.0,2641.5205885079636,0.5241631205088801,1.2853709488309386,0.9814983091686508,0.2840792,0.7403170330463323
0.0665,1.6894437500000001,1.0,2639.385252271733,0.5268321892218931,1.2846426989290227,0.9816456433021138,0.2840096375,0.7416407332474546
0.067,1.687775,1.0,2637.2619130076164,0.5294862867138751,1.283908700911444,0.981789610057185,0.28393955,0.7429714590139548
0.0675,1.68609375,1.0,2635.1485124904193,0.532125496606826,1.283168973694309,0.9819302994181416,0.2838689375,0.7443090954620909
0.068,1.6844000000000001,1.0,2633.042895715212,0.5347499025184244,1.2824235371202395,0.9820677982901939,0.2837978,0.7456535257668773
0.0685,1.68269375,1.0,2630.947457364709,0.5373595875451398,1.2816723689415161,0.9822021885532156,0.2837261375,0.7470047084657985
0.069,1.68097821207274,1.0,2629.0220711996735,0.5399546346655038,1.2809154389445458,0.9823335488881737,0.28365408490705507,0.7483626153143914
0.0695,1.679262173200933,1.0,2627.6518734946294,0.5425351254843949,1.2801531456485353,0.9824619752639259,0.28358201127443916,0.7497264508393832
0.07,1.677546134329126,1.0,2626.817836320507,0.5451011416066915,1.2793858875726913,0.9825875605449537,0.2835099376418233,0.7510954267385825
0.07050000000000001,1.6758300954573193,1.0,2626.4778666636953,0.5476527643192688,1.2786140523922005,0.982710394103668,0.2834378640092074,0.7524687812806
0.07100000000000001,1.6741140565855124,1.0,2626.587858138967,0.5501900748081968,1.2778380479056495,0.9828305633987028,0.2833657903765915,0.7538457242856442
0.07150000000000001,1.6723980177137057,1.0,2627.112553728058,0.5527131529727456,1.2770582010320513,0.9829481493866495,0.28329371674397563,0.7552256162017968
0.07200000000000001,1.6706819788418987,1.0,2628.018509378174,0.5552220784493289,1.2762748227289928,0.9830632297591118,0.2832216431113598,0.7566078518050496
0.0725,1.668965939970092,1.0,2629.2776922431067,0.5577169294025113,1.275488174440497,0.9831758774862693,0.28314956947874387,0.7579919188247525
0.073,1.667249901098285,1.0,2630.855876346751,0.5601977859619961,1.2746985753940299,0.9832861659939678,0.28307749584612796,0.7593772087898294
0.0735,1.6655338622264784,1.0,2632.716602413493,0.5626647294481226,1.2739063656805032,0.9833941674836171,0.2830054222135121,0.7607630830347527
0.074,1.6638178233546714,1.0,2634.8411989708106,0.5651178363635123,1.273111720805019,0.9834999444364307,0.2829333485808962,0.7621491962975807
0.0745,1.6621017844828647,1.0,2637.211005353239,0.5675571832107864,1.2723148162726792,0.9836035574409268,0.2828612749482803,0.7635352067550287
