Time [s],Phi [rad],STIM [ ],Fsee [N],Gamma [ ],Lcerel [ ],q [ ],Lmtc [m],fisomrel [ ]
0.0,1.8,1.0,17.96531111592987,1.0034979387309495e-05,1.3793399531565953,0.005000026837825859,0.288653,0.5411390304182147
0.0005,1.79999375,1.0,18.274825607633726,0.005619187999884078,1.3793026009073723,0.01294061535558804,0.2886527375,0.5412293907681844
0.001,1.799975,1.0,21.616571496977382,0.011196878106856756,1.3789384869886396,0.035608772733489905,0.28865195,0.5421097674705376
0.0015,1.79994375,1.0,31.067401366612074,0.016743281783236787,1.3780463600361115,0.07060197837207952,0.2886506375,0.5442632323451747
0.002,1.7999,1.0,53.580364984832244,0.02225857452030005,1.3763682629205853,0.11471816148580159,0.2886488,0.5483001615629501
0.0025,1.79984375,1.0,97.11671190756941,0.0277429308252391,1.3739352745132218,0.16457502496111714,0.28864643749999996,0.5541212068709229
0.003,1.7997750000000001,1.0,160.95603588048598,0.03319652422887292,1.3712144235196622,0.2172805856871749,0.28864354999999997,0.5605862620247606
0.0035,1.79969375,1.0,237.6813588664716,0.03861952728524284,1.3685847949969348,0.2706130153147707,0.2886401375,0.5667896967380982
0.004,1.7996,1.0,321.46498054595025,0.04401211158239382,1.366156139827497,0.32291592141109726,0.2886362,0.5724798509777629
0.0045000000000000005,1.7994937500000001,1.0,409.26614255618983,0.04937444774755889,1.363922851917976,0.37303461928614073,0.2886317375,0.5776790747828027
0.005,1.799375,1.0,499.4120545091938,0.0547067054382592,1.36185837315196,0.42024756406740127,0.28862675,0.5824570082264569
0.0055,1.79924375,1.0,590.7891000269079,0.0600090533897005,1.3599388607711658,0.46417379342123727,0.2886212375,0.5868750526363372
0.006,1.7991000000000001,1.0,682.516922837,0.06528165935808296,1.3581464362964792,0.5046800493181194,0.2886152,0.5909793691585841
0.006500000000000001,1.79894375,1.0,773.8622781617784,0.0705246899170221,1.3564675776151818,0.5418010336716657,0.2886086375,0.5948050577460597
0.007,1.798775,1.0,864.291051464605,0.07573831180022066,1.3548903103494914,0.575676791706387,0.28860155,0.5983828686863575
0.0075,1.79859375,1.0,953.2565969944051,0.08092268919322827,1.3534065733692797,0.6065098494965144,0.2885939375,0.6017340366689539
0.008,1.7984,1.0,1040.3584074914834,0.0860779860258242,1.3520086470380515,0.6345321145327104,0.2885858,0.60487854722717
0.0085,1.79819375,1.0,1125.3188094314053,0.09120436588002677,1.350689176635455,0.6599844513373313,0.2885771375,0.6078351447409014
0.009000000000000001,1.797975,1.0,1207.8841005118,0.09630199080766659,1.3494422547663438,0.6831043654071498,0.28856795,0.6106189750759364
0.0095,1.79774375,1.0,1287.8742793729325,0.10137102205161858,1.3482623610177635,0.7041176512459065,0.2885582375,0.6132440302880515
0.01,1.7975,1.0,1365.1622231194394,0.10641162011047578,1.3471444473083374,0.7232343025223656,0.288548,0.6157229996906537
0.0105,1.79724375,1.0,1439.6599481092896,0.11142394443938772,1.3460839407689098,0.740646697217991,0.2885372375,0.6180673021105285
0.011,1.796975,1.0,1511.310890443502,0.11640815330850529,1.3450766919677093,0.7565292299583666,0.28852595000000003,0.6202872342494345
0.0115,1.79669375,1.0,1580.1053985659298,0.12136440461643777,1.3441186695912142,0.7710387273533693,0.2885141375,0.6223926697664948
0.012,1.7964,1.0,1646.0598450371037,0.12629285613454425,1.3432061317830057,0.7843156070492687,0.28850180000000003,0.6243927012326087
0.0125,1.79609375,1.0,1709.175247575388,0.1311936626741933,1.342336020172465,0.7964853504314138,0.2884889375,0.6262948000397884
0.013000000000000001,1.7957750000000001,1.0,1769.4885162153314,0.13606697904675358,1.341505276388972,0.8076596021172135,0.28847555,0.628106333541109
0.0135,1.79544375,1.0,1827.0622803823564,0.14091295959725494,1.3407109200196647,0.8179376163999644,0.2884616375,0.6298344036331429
0.014,1.7951000000000001,1.0,1881.9702323917686,0.1457317584853924,1.3399501710407895,0.8274076444658257,0.2884472,0.6314855905910012
0.0145,1.79474375,1.0,1934.2810889711711,0.15052352854832698,1.3392205804134099,0.8361482111672753,0.2884322375,0.6330656818367008
0.015,1.794375,1.0,1984.0518617330158,0.1552884202585561,1.3385200560322497,0.8442292347255309,0.28841675,0.6345796290303654
0.0155,1.79399375,1.0,2031.35781594476,0.16002658408857726,1.3378465057920328,0.8517129117621054,0.2884007375,0.6360323294774042
0.016,1.7936,1.0,2076.2891707899103,0.16473817034759747,1.3371978557023376,0.8586546348830265,0.2883842,0.6374285909111783
0.0165,1.7931937500000001,1.0,2118.9327685850662,0.16942332805812188,1.3365722229700512,0.865103850248562,0.2883671375,0.6387727637914482
0.017,1.792775,1.0,2159.3882615801444,0.17408220718703482,1.335967727712713,0.8711047063531772,0.28834955,0.6400691515802177
0.0175,1.7923437500000001,1.0,2197.7221638928454,0.17871495366849696,1.3353829465511984,0.8766968022783683,0.2883314375,0.6413210432482016
0.018000000000000002,1.7919,1.0,2234.010355099854,0.18332171343666906,1.3348164561063816,0.8819155953728584,0.2883128,0.6425316987256489
0.0185,1.79144375,1.0,2268.337302397584,0.1879026324257118,1.334266832999137,0.8867928849937897,0.2882936375,0.6437043506273186
0.019,1.790975,1.0,2300.7858008873964,0.19245785540798985,1.3337327481685726,0.891357258967243,0.28827395,0.6448420051015693
0.0195,1.79049375,1.0,2331.4482788648334,0.19698752825265123,1.3332128458057673,0.8956344333201194,0.2882537375,0.6459477021365496
0.02,1.79,1.0,2360.4014992272505,0.20149179434716227,1.3327059855474663,0.8996476327020848,0.288233,0.6470240024900802
0.0205,1.78949375,1.0,2387.7099184572126,0.20597079483445946,1.3322111980507303,0.9034178577583383,0.2882117375,0.6480730863829671
0.021,1.788975,1.0,2413.442447423946,0.21042467085747918,1.3317275139726188,0.9069640941415209,0.28818995000000003,0.6490971188569707
0.021500000000000002,1.78844375,1.0,2437.672081009395,0.2148535635591579,1.3312539639701926,0.9103035334825588,0.2881676375,0.650098250491181
0.022,1.7879,1.0,2460.470318375357,0.21925761300498395,1.3307896287726075,0.9134517772935846,0.2881448,0.6510785124250016
0.0225,1.78734375,1.0,2481.9088338172637,0.22363695970126948,1.3303336190367674,0.9164230035572895,0.28812143749999997,0.6520398601214026
0.023,1.786775,1.0,2502.056496283306,0.227991743654488,1.3298851002529193,0.919230120859602,0.28809755,0.6529841219104637
0.0235,1.78619375,1.0,2520.966399836397,0.23232210091183658,1.3294434118576266,0.9218849205527463,0.28807313749999996,0.653912749947724
0.024,1.7856,1.0,2538.693761012404,0.2366281675205123,1.3290078932874527,0.9243981608025378,0.2880482,0.654827187992832
0.0245,1.78499375,1.0,2555.2957409439955,0.24091007952771218,1.3285778839789606,0.9267796713478731,0.2880227375,0.6557288716833825
0.025,1.784375,1.0,2570.831277159141,0.24516797298063325,1.3281527233687136,0.9290384463691757,0.28799675,0.65661922878092
0.025500000000000002,1.78374375,1.0,2585.3506088558734,0.2494019814047047,1.3277318472422106,0.9311827418986371,0.2879702375,0.6574994780076797
0.026000000000000002,1.7831000000000001,1.0,2598.9129331628424,0.25361224198618354,1.3273146206167776,0.9332201227995345,0.2879432,0.6583709793702006
0.0265,1.78244375,1.0,2611.5688554677854,0.257798888801357,1.3269005005602355,0.9351575522013609,0.2879156375,0.659234893920496
0.027,1.781775,1.0,2623.357199472549,0.2619620523229133,1.3264890635579882,0.9370014521730816,0.28788755,0.6600921281155228
0.0275,1.7810937500000001,1.0,2634.317677238995,0.26610186302354094,1.326079886095441,0.9387577372807865,0.2878589375,0.6609435838137252
0.028,1.7804,1.0,2644.490812976153,0.27021845137592815,1.3256725446579982,0.9404318614036079,0.2878298,0.6617901583417862
0.0285,1.77969375,1.0,2653.917870803546,0.2743119478527633,1.3252666157310644,0.9420288596642683,0.2878001375,0.6626327445499365
0.029,1.778975,1.0,2662.64078649179,0.27838248292673473,1.3248616758000442,0.9435533860371476,0.28776995,0.6634722308558259
0.029500000000000002,1.7782437500000001,1.0,2670.693432534582,0.28243018330418934,1.3244573810261375,0.9450097566699277,0.2877392375,0.664309336408354
0.03,1.7775,1.0,2678.120032020904,0.286455181835006,1.3240532971669265,0.946401959961273,0.287708,0.6651449636327921
0.0305,1.77674375,1.0,2684.953597814563,0.2904576060256286,1.3236490973230368,0.9477337069570663,0.2876762375,0.665979788909386
0.031,1.775975,1.0,2691.2212886719126,0.29443758043406937,1.3232445117838867,0.9490084491293727,0.28764395,0.6668143673520305
0.0315,1.7751937500000001,1.0,2696.9505911107763,0.2983952296183407,1.3228392708388939,0.9502293938890998,0.2876111375,0.6676492512889393
0.032,1.7744,1.0,2702.1692887659347,0.30233067813645487,1.3224331047774767,0.9513995248606745,0.2875778,0.6684849902536887
0.0325,1.77359375,1.0,2706.905433357518,0.3062440505464242,1.322025743889053,0.952521620237509,0.2875439375,0.6693221309716264
0.033,1.772775,1.0,2711.1873172717137,0.31013547140626097,1.3216169184630409,0.9535982694205236,0.28750955,0.6701612173416382
0.0335,1.7719437500000002,1.0,2715.0364804498736,0.3140050649048821,1.32120642228745,0.9546318952887729,0.2874746375,0.6710026603357664
0.034,1.7711000000000001,1.0,2718.4762409060218,0.31785295332361807,1.320794034530986,0.9556247580181934,0.2874392,0.6718468986266981
0.0345,1.7702437500000001,1.0,2721.566359635012,0.321679259649597,1.3203792040720848,0.9565789338498267,0.2874032375,0.6726950433614078
0.035,1.7693780411237683,1.0,2724.43948757453,0.3254841035432025,1.3199620919875992,0.9574964413397195,0.28736687772719827,0.6735467464633901
0.035500000000000004,1.76851176053282,1.0,2727.518941121219,0.3292676046648183,1.3195428593543825,0.9583791697137084,0.2873304939423784,0.674401661465642
0.036000000000000004,1.7676454799418715,1.0,2730.815754169417,0.3330298826748282,1.3191216672492878,0.9592288886426998,0.28729411015755857,0.6752594435332744
0.0365,1.766779199350923,1.0,2734.312580703107,0.33677105723361567,1.3186986767491682,0.9600472571735998,0.2872577263727388,0.6761197494844682
0.037,1.7659129187599745,1.0,2737.9918957762934,0.3404912461039872,1.3182740503503256,0.9608358316212243,0.2872213425879189,0.6769822349285664
0.0375,1.765046638169026,1.0,2741.826517102839,0.34419056930821285,1.3178480378691049,0.961596082389278,0.2871849588030991,0.6778463801746176
0.038,1.7641803575780775,1.0,2745.8017677415605,0.3478691425790346,1.3174207752232598,0.962329379282438,0.2871485750182793,0.6787118987776299
0.0385,1.7633140769871292,1.0,2749.9033424259965,0.35152708146998085,1.3169923946726527,0.9630370101804838,0.28711219123345944,0.6795785131367895
0.039,1.7624477963961807,1.0,2754.1169013129047,0.3551645015345798,1.3165630284771446,0.9637201871947124,0.2870758074486396,0.6804459470707225
0.0395,1.7615815158052321,1.0,2758.4280668978035,0.35878151832635985,1.3161328088965978,0.9643800519480632,0.28703942366381974,0.6813139258263623
0.04,1.7607152352142836,1.0,2762.8301982723824,0.3623782402555579,1.3157017979289385,0.9650176728130385,0.2870030398789999,0.6821823175524098
0.0405,1.7598489546233351,1.0,2767.3015788720368,0.3659547915530727,1.3152701935069364,0.9656340723999703,0.28696665609418004,0.6830507177490398
0.041,1.7589826740323868,1.0,2771.8320277805233,0.36951128603102906,1.3148380888995683,0.9662302048121996,0.28693027230936025,0.6839189342412868
0.0415,1.7581163934414383,1.0,2776.4154675140253,0.37304783358522026,1.3144055401058974,0.9668069673294404,0.2868938885245404,0.6847868506081599
0.042,1.7572501128504898,1.0,2781.0458014949236,0.3765645441114394,1.313972603124986,0.9673652080196422,0.2868575047397206,0.6856543510424744
0.0425,1.7563838322595413,1.0,2785.7169135348336,0.3800615275054798,1.3135393339558974,0.9679057289448424,0.28682112095490075,0.686521320352335
0.043000000000000003,1.7555175516685928,1.0,2790.4226673875673,0.3835388936631345,1.3131057885976938,0.9684292891268426,0.2867847371700809,0.6873876439624245
0.043500000000000004,1.7546512710776445,1.0,2795.1569063714255,0.38699675248019666,1.3126720230494382,0.9689366072929493,0.28674835338526106,0.688253207915088
0.044,1.753784990486696,1.0,2799.9134530609167,0.39043521385245955,1.3122380933101934,0.9694283644201339,0.2867119696004412,0.6891178988712212
0.0445,1.7529187098957475,1.0,2804.6861090483026,0.39385438767571634,1.311804055379022,0.9699052060942704,0.28667558581562136,0.6899816041109559
0.045,1.752052429304799,1.0,2809.468654774504,0.39725438384576023,1.311369965254987,0.9703677446995868,0.28663920203080157,0.690844211534146
0.0455,1.7511861487138505,1.0,2814.2614502108395,0.400635298057893,1.310935819848949,0.9708165549950301,0.2866028182459817,0.6917057268331059
0.046,1.7503198681229022,1.0,2819.054188737262,0.4039972568706818,1.3105017114852182,0.9712521942391211,0.2865664344611619,0.6925659667243313
0.0465,1.7494535875319537,1.0,2823.844942093491,0.40734036376725363,1.3100676573012435,0.9716751831750785,0.2865300506763421,0.6934248976266537
0.047,1.7485873069410052,1.0,2828.632010505256,0.41066472162547835,1.3096336723363609,0.9720860166622368,0.2864936668915222,0.6942824902917701
0.0475,1.7477210263500567,1.0,2833.4136885227026,0.4139704333232256,1.3091997716299053,0.9724851654291005,0.2864572831067024,0.695138715637801
0.048,1.7468547457591082,1.0,2838.188265045685,0.4172576017383651,1.3087659702212124,0.972873077476587,0.2864208993218825,0.6959935447492136
0.0485,1.7459884651681599,1.0,2842.9540233546663,0.4205263297487667,1.308332283149618,0.9732501793870879,0.2863845155370627,0.696846948876734
0.049,1.7451221845772114,1.0,2847.7092411462713,0.4237767202323,1.3078987254544576,0.9736168775464821,0.2863481317522429,0.6976988994372466
0.0495,1.7442559039862628,1.0,2852.4521905737174,0.4270088760668348,1.3074653121750663,0.9739735592856407,0.28631174796742304,0.6985493680136767
0.05,1.7433896233953143,1.0,2857.1811382928304,0.4302229001302407,1.3070320583507802,0.9743205939474086,0.2862753641826032,0.6993983263548569
0.0505,1.7425233428043658,1.0,2861.8943455124377,0.43341889530038763,1.3065989790209345,0.9746583338845635,0.2862389803977834,0.7002457463753846
0.051000000000000004,1.7416570622134175,1.0,2866.590068050013,0.4365969644551452,1.3061660892248645,0.9749871153937969,0.28620259661296354,0.7010916001554601
0.051500000000000004,1.740790781622469,1.0,2871.268943113981,0.43975718731808455,1.3057333828498663,0.9753072557037663,0.2861662128281437,0.7019359011836004
0.052000000000000005,1.7399245010315205,1.0,2875.928750264483,0.4428996834112913,1.3053008791102125,0.975619063809203,0.28612982904332385,0.7027786135667455
0.0525,1.739058220440572,1.0,2880.567464070829,0.4460245682724573,1.3048685954347534,0.9759228344208768,0.286093445258504,0.7036197050945174
0.053,1.7381919398496235,1.0,2885.1850160573326,0.44913193630718035,1.3044365318975235,0.976218846012706,0.2860570614736842,0.7044591774432658
0.0535,1.737325659258675,1.0,2889.781338043653,0.45222188192105844,1.3040046885725571,0.9765073649715067,0.28602067768886436,0.70529703228923
0.054,1.7364593786677267,1.0,2894.356362145392,0.4552944995196896,1.3035730655338884,0.9767886462247343,0.2859842939040445,0.706133271308538
0.0545,1.7355930980767782,1.0,2898.910020774358,0.45834988350867156,1.3031416628555517,0.9770629338304966,0.2859479101192247,0.7069678961772037
0.055,1.7347268174858297,1.0,2903.442246638723,0.4613881282936025,1.3027104806115812,0.9773304615323948,0.28591152633440486,0.7078009085711272
0.0555,1.7338605368948812,1.0,2907.952972743688,0.4644093282800802,1.3022795188760112,0.977591453281575,0.285875142549585,0.7086323101660943
0.056,1.732994256303933,1.0,2912.4421323917436,0.4674135778737026,1.301848777722876,0.9778461237281783,0.28583875876476517,0.7094621026377737
0.0565,1.7321279757129844,1.0,2916.909659182864,0.4704009714800677,1.3014182572262096,0.9780946786842257,0.2858023749799453,0.7102902876617172
0.057,1.7312616951220359,1.0,2921.355487015138,0.4733716035047735,1.3009879574600467,0.9783373155598143,0.2857659911951255,0.7111168669133582
0.0575,1.7303954145310874,1.0,2925.7795500848633,0.47632556835341777,1.300557878498421,0.9785742237743723,0.2857296074103057,0.7119418420680113
0.058,1.7295291339401389,1.0,2930.1817828871094,0.47926296043159855,1.3001280204153676,0.978805585144584,0.2856932236254858,0.7127652148008696
0.0585,1.7286628533491903,1.0,2934.562120216081,0.48218387414491376,1.2996983832849198,0.9790315742504914,0.285656839840666,0.7135869867870067
0.059000000000000004,1.727796572758242,1.0,2938.9204971652766,0.48508840389896135,1.2992689671811126,0.9792523587811556,0.2856204560558462,0.7144071597013717
0.059500000000000004,1.7269302921672935,1.0,2943.2568491280913,0.48797664409933933,1.2988397721779799,0.9794680998611806,0.28558407227102633,0.7152257352187918
0.06,1.726064011576345,1.0,2947.571244293615,0.49084866680446043,1.2984107971906271,0.9796789504919634,0.2855476884862065,0.7160427172195614
0.0605,1.7251977309853965,1.0,2951.8641579374257,0.4937045556650752,1.297982037581996,0.9798850585601375,0.28551130470138664,0.7168581163216899
0.061,1.724331450394448,1.0,2956.135703370191,0.49654444854179447,1.2975534918927316,0.9800865707327646,0.2854749209165668,0.7176719370613588
0.0615,1.7234651698034997,1.0,2960.386127785258,0.49936843011234916,1.2971251575018423,0.9802836238774698,0.285438537131747,0.7184841861591371
0.062,1.7225988892125512,1.0,2964.6156795378674,0.5021765850544702,1.2966970317883353,0.980476349734497,0.28540215334692715,0.7192948703060955
0.0625,1.7217326086216027,1.0,2968.8246081332236,0.5049689980458884,1.2962691121312184,0.9806648751474941,0.2853657695621073,0.7201039961638378
0.063,1.7208663280306542,1.0,2973.0131642144097,0.5077457537643346,1.2958413959094992,0.980849322282244,0.2853293857772875,0.7209115703645375
0.0635,1.7200000474397057,1.0,2977.1815995502866,0.5105069368875399,1.2954138805021853,0.9810298088340565,0.28529300199246765,0.7217175995109713
0.064,1.7191337668487574,1.0,2981.3301670238816,0.5132526320932352,1.2949865632882847,0.9812064482244862,0.2852566182076478,0.7225220901765524
0.0645,1.718267486257809,1.0,2985.459120620968,0.5159829240591514,1.2945594416468045,0.9813793497880003,0.28522023442282796,0.7233250489053661
0.065,1.7174012056668604,1.0,2989.5687154182447,0.5186978974630193,1.2941325129567527,0.9815486189491829,0.2851838506380081,0.7241264822121993
0.0655,1.7165349250759119,1.0,2993.659207572532,0.5213976369825699,1.2937057745971368,0.9817143573910146,0.2851474668531883,0.7249263965825763
0.066,1.7156686444849634,1.0,2997.730854308908,0.5240822272955341,1.2932792239469646,0.9818766632147445,0.28511108306836846,0.7257247984727877
0.0665,1.714802363894015,1.0,3001.783913910623,0.5267517530796427,1.2928528583852434,0.9820356310918255,0.2850746992835486,0.7265216943099253
0.067,1.7139360833030666,1.0,3005.818645707611,0.5294062990126268,1.2924266752909814,0.9821913524083664,0.2850383154987288,0.7273170904919098
0.0675,1.713069802712118,1.0,3009.8353100659497,0.5320459497722173,1.292000672043186,0.9823439154025142,0.285001931713909,0.7281109933875247
0.068,1.7122035221211696,1.0,3013.8341683776084,0.5346707900361449,1.2915748460208647,0.982493405295164,0.2849655479290891,0.7289034093364446
0.0685,1.711337241530221,1.0,3017.8154830496924,0.5372809044821408,1.2911491946030251,0.9826399044143626,0.2849291641442693,0.729694344649266
0.069,1.7104709609392725,1.0,3021.779517494464,0.5398763777879357,1.2907237151686752,0.982783492313751,0.2848927803594494,0.7304838056075351
0.0695,1.7096046803483242,1.0,3025.7265361192703,0.5424572946312606,1.2902984050968225,0.9829242458853743,0.28485639657462963,0.7312717984637792
0.07,1.7087383997573757,1.0,3029.6568043163497,0.5450237396898463,1.2898732617664745,0.983062239467158,0.2848200127898098,0.7320583294415336
0.07050000000000001,1.7078721191664272,1.0,3033.570284979035,0.54757576425921,1.2894482851732096,0.9831975430559204,0.28478362900498994,0.7328433999052562
0.07100000000000001,1.7070058385754787,1.0,3037.46747054908,0.5501134695245986,1.2890234707513484,0.9833302271492146,0.2847472452201701,0.7336270196264174
0.07150000000000001,1.7061395579845302,1.0,3041.348835820375,0.5526369598968669,1.2885988141004268,0.9834603601314704,0.2847108614353503,0.7344091980224086
