Time [s],Phi [rad],STIM [ ],Fsee [N],Gamma [ ],Lcerel [ ],q [ ],Lmtc [m],fisomrel [ ]
0.0,1.8,1.0,18.055871317723568,0.00030348854086930006,1.3793298196181814,0.005023894250701193,0.288653,0.5411635457539478
0.0005,1.79999375,1.0,18.459848145261894,0.005910995519001955,1.379282099187621,0.013775355450024233,0.2886527375,0.5412789835326266
0.001,1.799975,1.0,22.019356404726526,0.011487048816540708,1.3788975365947937,0.03715432963840522,0.28865195,0.5422087269209086
0.0015,1.79994375,1.0,31.943763028932313,0.01703182486476146,1.377972214075613,0.07270689529829903,0.2886506375,0.5444419814629432
0.002,1.7999,1.0,55.39748396463308,0.022545499103072554,1.3762513582884308,0.11720416663082464,0.2886488,0.5485807250832617
0.0025,1.79984375,1.0,100.1121133660346,0.028028245988140736,1.373792027775038,0.16727523666459776,0.28864643749999996,0.5544627550121979
0.003,1.7997750000000001,1.0,164.8157801595024,0.03348023899924969,1.3710708045606435,0.22006346492038711,0.28864354999999997,0.560926205365806
0.0035,1.79969375,1.0,242.02160200854775,0.038901650639943525,1.3684517082897087,0.27337895173789445,0.2886401375,0.567102482966822
0.004,1.7996,1.0,326.0703676220415,0.044292652448069084,1.3660345941498344,0.3255927230944491,0.2886362,0.5727636348391774
0.0045000000000000005,1.7994937500000001,1.0,414.0269479067759,0.049653415001226976,1.3638114205707457,0.375574646880329,0.2886317375,0.5779376602751787
0.005,1.799375,1.0,504.26323140765464,0.05498410790841848,1.361755535029165,0.42262330693909644,0.28862675,0.5826943012619981
0.0055,1.79924375,1.0,595.678600075889,0.06028489984798188,1.3598435285322235,0.46637293692368575,0.2886212375,0.587093861522573
0.006,1.7991000000000001,1.0,687.4072757508203,0.06555595853585029,1.358057701286935,0.5067007893880079,0.2886152,0.5911820234346812
0.006500000000000001,1.79894375,1.0,778.7366292013529,0.07079745073001655,1.356384498841805,0.5436483345385956,0.2886086375,0.5949939062030469
0.007,1.798775,1.0,869.0818746386859,0.07600954235852696,1.354813030382525,0.5773603955265247,0.28860155,0.5985577597919943
0.0075,1.79859375,1.0,957.951634088773,0.08119239814920644,1.3533344480534655,0.6080411764757656,0.2885939375,0.6018965810546968
0.008,1.7984,1.0,1044.972121368447,0.08634618238166455,1.3519407945388018,0.6359233368097554,0.2885858,0.6050308582251178
0.0085,1.79819375,1.0,1129.8228780329791,0.09147105791621798,1.3506254793869898,0.6612482545021211,0.2885771375,0.6079775931270521
0.009000000000000001,1.797975,1.0,1212.2596874429564,0.09656718672824158,1.349382521221949,0.6842529146358478,0.28856795,0.6107520850274055
0.0095,1.79774375,1.0,1292.1209249762355,0.1016347305726282,1.348206212396987,0.7051622480671234,0.2885582375,0.6133687297453586
0.01,1.7975,1.0,1369.271650869785,0.10667384957607423,1.347091669647839,0.7241854370775808,0.288548,0.6158398369294497
0.0105,1.79724375,1.0,1443.6213567103184,0.1116847028325902,1.3460343947675142,0.7415139441217821,0.2885372375,0.6181766506309954
0.011,1.796975,1.0,1515.123996232928,0.11666744884985772,1.3450301424003264,0.7573211757128558,0.28852595000000003,0.6203896710306458
0.0115,1.79669375,1.0,1583.785658270697,0.12162224634833764,1.344074728569034,0.7717630007199896,0.2885141375,0.622489098087199
0.012,1.7964,1.0,1649.5949455123784,0.12654925135620898,1.3431647762766155,0.7849791754405627,0.28850180000000003,0.624483215315754
0.0125,1.79609375,1.0,1712.5651728850012,0.13144861931338045,1.3422971005132733,0.7970943656809516,0.2884889375,0.6263797671562694
0.013000000000000001,1.7957750000000001,1.0,1772.7428408886317,0.13632050542984767,1.3414685545147302,0.8082194990361402,0.28847555,0.6281863082832293
0.0135,1.79544375,1.0,1830.1928376007584,0.1411650644045116,1.3406761546834762,0.8184532235069188,0.2884616375,0.6299099414224496
0.014,1.7951000000000001,1.0,1884.9772634354158,0.1459824497791915,1.339917267280042,0.8278833047605547,0.2884472,0.6315569241226676
0.0145,1.79474375,1.0,1937.150828586391,0.15077281309604257,1.3391896055724206,0.8365878396262143,0.2884322375,0.6331326896416637
0.015,1.794375,1.0,1986.7891653553522,0.15553630589722006,1.338490882828606,0.8446362474187793,0.28841675,0.6346426091897671
0.0155,1.79399375,1.0,2033.9716342959787,0.1602730786489158,1.337818974288591,0.8520903384206636,0.2884007375,0.6360916473552432
0.016,1.7936,1.0,2078.8000874078384,0.16498328305934545,1.3371716952946449,0.8590051424007188,0.2883842,0.6374848465948189
0.0165,1.7931937500000001,1.0,2121.3475711943825,0.16966706740200463,1.3365473179586531,0.8654298644867215,0.2883671375,0.638826220583027
0.017,1.792775,1.0,2161.6864453065687,0.17432457891488107,1.335944248082713,0.8714084752608128,0.28834955,0.6401194584825911
0.0175,1.7923437500000001,1.0,2199.8999501204275,0.17895596483596252,1.3353608914689217,0.8769802905336991,0.2883314375,0.6413682157945477
0.018000000000000002,1.7919,1.0,2236.078346514621,0.1835613720580865,1.3347956834016281,0.8821805262241227,0.2883128,0.6425760534937398
0.0185,1.79144375,1.0,2270.30786305958,0.188140946514491,1.3342471890373968,0.8870408022610633,0.2882936375,0.6437462264687459
0.019,1.790975,1.0,2302.6804750468086,0.19269483469375237,1.3337139941460117,0.8915895308303944,0.28827395,0.6448819199971803
0.0195,1.79049375,1.0,2333.2616443809866,0.1972231791679618,1.3331950148174383,0.8958523553461899,0.2882537375,0.645985593433696
0.02,1.79,1.0,2362.122454286261,0.20172612250921054,1.3326891671416417,0.899852386158015,0.288233,0.6470596877123751
0.0205,1.78949375,1.0,2389.3391450383265,0.20620380728958984,1.332195367208587,0.9036104848628844,0.2882117375,0.6481066262919393
0.021,1.788975,1.0,2414.9881843128896,0.21065637520137476,1.3317125745107306,0.9071455226523885,0.28818995000000003,0.6491287242074715
0.021500000000000002,1.78844375,1.0,2439.1453234636924,0.21508396801936833,1.331239795976377,0.9104745996305061,0.2881676375,0.6501281809997708
0.022,1.7879,1.0,2461.8846225211614,0.21948672741866088,1.3307760906410044,0.913613236790206,0.2881448,0.6511070722584631
0.0225,1.78734375,1.0,2483.263127696488,0.22386479099201476,1.330320711358004,0.9165755699692867,0.28812143749999997,0.6520670524487953
0.023,1.786775,1.0,2503.340583913035,0.2282182963321921,1.3298729109807674,0.9193744593838244,0.28809755,0.6530097659473045
0.0235,1.78619375,1.0,2522.179209556332,0.23254738103195516,1.3294319423626864,0.9220216223894231,0.28807313749999996,0.6539368474207516
0.024,1.7856,1.0,2539.843483601298,0.23685218268406613,1.3289970583571522,0.9245277508392256,0.2880482,0.6548499221694535
0.0245,1.78499375,1.0,2556.3870639622296,0.24113283600284918,1.3285676328016485,0.9269026349294648,0.2880227375,0.6557503529181158
0.025,1.784375,1.0,2571.877106048392,0.24538948049492074,1.3281429292116735,0.929155216660909,0.28799675,0.6566397257920364
0.025500000000000002,1.78374375,1.0,2586.3638020996036,0.24962225061594304,1.3277223853630817,0.9312937168276189,0.2879702375,0.6575192542472315
0.026000000000000002,1.7831000000000001,1.0,2599.889577951129,0.25383127844136005,1.3273055238438374,0.9333256909899047,0.2879432,0.6583899683077525
0.0265,1.78244375,1.0,2612.497992435638,0.25801669604661576,1.3268918672419054,0.9352580805232169,0.2879156375,0.6592528926374377
0.027,1.781775,1.0,2624.2336411791766,0.26217863550715415,1.3264809381452505,0.9370972707800864,0.28788755,0.6601090466447612
0.0275,1.7810937500000001,1.0,2635.142065450292,0.2663172288984192,1.326072259141837,0.9388491430362965,0.2878589375,0.6609594445731464
0.028,1.7804,1.0,2645.269666062252,0.27043260829585486,1.32566535281963,0.9405191209526542,0.2878298,0.6618050955767407
0.0285,1.77969375,1.0,2654.625361028745,0.27452490086484677,1.325260094416619,0.9421122609600057,0.2878001375,0.6626462722579466
0.029,1.778975,1.0,2663.324350318742,0.27859424287322504,1.3248553853417158,0.943633103009309,0.28776995,0.6634852634390478
0.029500000000000002,1.7782437500000001,1.0,2671.384607449452,0.28264076102596153,1.3244510301267816,0.94508597047525,0.2877392375,0.6643224778369587
0.03,1.7775,1.0,2678.8194591050137,0.28666458152107077,1.3240468793628912,0.9464748741456229,0.287708,0.665158226961645
0.0305,1.77674375,1.0,2685.6425539463457,0.2906658305565675,1.32364278364112,0.9478035332084065,0.2876762375,0.6659928207813368
0.031,1.7759760246592389,1.0,2691.9184011838165,0.29464463433046606,1.3232385935525426,0.9490754001167607,0.28764399303568805,0.6668265677237697
0.0315,1.7752060859319019,1.0,2698.118899582976,0.2986011190407811,1.3228341596882336,0.9502936830432227,0.28761165560913987,0.6676597746759952
0.032,1.7744361472045649,1.0,2704.3695874810905,0.3025354108855273,1.322429332639268,0.9514613661828072,0.28757931818259175,0.6684927469827688
0.0325,1.773666208477228,1.0,2710.68219763656,0.3064476328403062,1.3220240067520252,0.9525812324111592,0.28754698075604357,0.6693256985821798
0.033,1.7728962697498911,1.0,2717.016542166522,0.31033791237791497,1.3216185498975401,0.9536559319478277,0.2875146433294954,0.6701578710516694
0.0335,1.7721263310225541,1.0,2723.357271484135,0.31420637313166677,1.3212131022125526,0.9546879090043351,0.28748230590294727,0.6709889762977941
0.034,1.7713563922952171,1.0,2729.6976875442124,0.3180531355114829,1.3208077245455148,0.9556794356453089,0.28744996847639914,0.6718188898977332
0.0345,1.7705864535678801,1.0,2736.0310612059025,0.32187831992728433,1.3204024777448788,0.9566326350692399,0.28741763104985096,0.6726474880578521
0.035,1.7698165148405434,1.0,2742.3506323685247,0.3256820467889924,1.3199974226590971,0.9575494931080656,0.2873852936233028,0.6734746476133137
0.035500000000000004,1.7690465761132064,1.0,2748.649610188738,0.3294644365065281,1.3195926201366215,0.9584318687118143,0.28735295619675466,0.6743002460274528
0.036000000000000004,1.7682766373858694,1.0,2754.921173380428,0.3332256094898127,1.3191881310259042,0.9592815035183879,0.28732061877020654,0.6751241613909128
0.0365,1.7675066986585324,1.0,2761.1601453718004,0.336965683020952,1.3187840010398464,0.960100028353949,0.28728828134365836,0.6759463031920512
0.037,1.7667367599311954,1.0,2767.3629675350685,0.3406847742886838,1.3183802610864648,0.9608889721794235,0.2872559439171102,0.6767666114493448
0.0375,1.7659668212038586,1.0,2773.5212306768967,0.3443830113857349,1.3179769856824517,0.9616497775875535,0.28722360649056206,0.6775849380621872
0.038,1.7651968824765216,1.0,2779.633708324814,0.3480605081653758,1.317574184328616,0.9623837911367868,0.28719126906401393,0.6784012673724945
0.0385,1.7644269437491846,1.0,2785.699170839869,0.35171737848087725,1.3171718665257652,0.963092279508521,0.28715893163746575,0.6792155838155682
0.039,1.7636570050218476,1.0,2791.7163855172603,0.35535373618550975,1.3167700417747084,0.9637764351182475,0.2871265942109176,0.6800278719198007
0.0395,1.7628870662945106,1.0,2797.6841166895556,0.35896969513254406,1.3163687195762537,0.9644373812743869,0.28709425678436945,0.6808381163063832
0.04,1.7621171275671739,1.0,2803.6011258309927,0.36256536917525073,1.3159679094312091,0.9650761769257349,0.2870619193578213,0.6816463016890026
0.0405,1.7613471888398369,1.0,2809.466171664705,0.3661408721669005,1.3155676208403835,0.9656938210343458,0.28702958193127315,0.6824524128735331
0.041,1.7605772501124999,1.0,2815.2780102716183,0.36969631796076385,1.3151678633045847,0.9662912566070548,0.28699724450472497,0.6832564347577252
0.0415,1.7598073113851629,1.0,2821.0353952011815,0.37323182041011155,1.3147686463246215,0.9668693744155775,0.28696490707817685,0.6840583523308843
0.042,1.7590373726578261,1.0,2826.737748280061,0.3767474863951148,1.314369973410703,0.9674290147692038,0.2869325696516287,0.6848581626841641
0.0425,1.7582674339304891,1.0,2832.386124414771,0.38024341625773744,1.313971833504394,0.9679709702402585,0.28690023222508054,0.685655892110616
0.043000000000000003,1.7574974952031521,1.0,2837.9780647738826,0.38371975216270443,1.3135742469306115,0.9684960001988056,0.28686789479853236,0.6864515040239154
0.043500000000000004,1.7567275564758151,1.0,2843.5142824097466,0.38717659948482797,1.3131772057046105,0.9690048155879242,0.28683555737198424,0.687245018581161
0.044,1.7559576177484781,1.0,2848.9954958648814,0.39061406359892015,1.3127807018416453,0.9694980901211558,0.28680321994543606,0.6880364558528309
0.0445,1.7551876790211414,1.0,2854.4224290771413,0.39403224987979324,1.3123847273569702,0.9699764626015179,0.28677088251888794,0.6888258358230592
0.045,1.7544177402938044,1.0,2859.7958112843185,0.39743126370225934,1.3119892742658394,0.9704405390740704,0.28673854509233976,0.6896131783899069
0.0455,1.7536478015664674,1.0,2865.1163769318373,0.4008112104411306,1.311594334583508,0.9708908948255038,0.28670620766579163,0.6903985033656279
0.046,1.7528778628391304,1.0,2870.3848655807533,0.40417219547121924,1.3111999003252297,0.9713280762429989,0.28667387023924346,0.6911818304769359
0.0465,1.7521079241117934,1.0,2875.602021817804,0.4075143241673373,1.3108059635062592,0.9717526025435285,0.28664153281269533,0.6919631793652611
0.047,1.7513379853844566,1.0,2880.768595166439,0.410837701904297,1.3104125161418507,0.9721649673837855,0.28660919538614715,0.6927425695870066
0.0475,1.7505680466571196,1.0,2885.8853399996287,0.41414243405691054,1.3100195502472591,0.9725656403600319,0.28657685795959903,0.6935200206137984
0.048,1.7497981079297826,1.0,2890.9530154537865,0.41742862599999,1.3096270578377383,0.9729550684063637,0.28654452053305085,0.6942955518327356
0.0485,1.7490281692024456,1.0,2895.9723853444793,0.4206963831083476,1.3092350309285428,0.9733336770991595,0.2865121831065027,0.6950691825466302
0.049,1.7482582304751086,1.0,2900.944218082866,0.42394581075679544,1.3088434615349271,0.9737018718748179,0.28647984567995455,0.6958409319742473
0.0495,1.7474882917477719,1.0,2905.869286594541,0.42717701432014576,1.3084523416721459,0.974060039167292,0.2864475082534064,0.6966108192505415
0.05,1.7467183530204349,1.0,2910.747501971202,0.4303900600050864,1.308061670980405,0.974408543458316,0.28641517082685825,0.6973788484463034
0.0505,1.7459484142930979,1.0,2915.580924161936,0.4335850798646296,1.3076714302142025,0.9747477388297022,0.2863828334003101,0.6981450606822294
0.051000000000000004,1.745178475565761,1.0,2920.3712029377234,0.4367622012268798,1.3072816038074164,0.975077962844019,0.28635049597376194,0.6989094896732844
0.051500000000000004,1.7444085368384241,1.0,2925.1191332551334,0.43992151914496286,1.3068921837608898,0.9753995347272986,0.2863181585472138,0.6996721541660467
0.052000000000000005,1.7436385981110871,1.0,2929.825514142062,0.4430631286720045,1.306503162075466,0.975712759470659,0.28628582112066564,0.7004330728244282
0.0525,1.7428686593837501,1.0,2934.491148626985,0.4461871248611305,1.3061145307519872,0.9760179285889772,0.2862534836941175,0.7011922642298809
0.053,1.7420987206564131,1.0,2939.1168436681664,0.4492936027654667,1.3057262817912973,0.9763153208327838,0.28622114626756934,0.7019497468815952
0.0535,1.7413287819290761,1.0,2943.7034100860888,0.45238265743813894,1.305338407194239,0.9766052028566468,0.2861888088410212,0.7027055391966998
0.054,1.7405588432017394,1.0,2948.2516624953955,0.45545438393227294,1.3049508989616554,0.9768878298470468,0.28615647141447303,0.7034596595104536
0.0545,1.7397889044744024,1.0,2952.762419240193,0.4585088773009945,1.3045637490943893,0.9771634461125313,0.2861241339879249,0.7042121260764346
0.055,1.7390189657470654,1.0,2957.236502328763,0.46154623259742944,1.304176949593284,0.9774322856387032,0.28609179656137673,0.7049629570667244
0.0555,1.7382490270197284,1.0,2961.6747373717017,0.4645665448747035,1.3037904924591823,0.9776945726104243,0.2860594591348286,0.7057121705720901
0.056,1.7374790882923914,1.0,2966.0779535195707,0.4675699091859425,1.3034043696929274,0.977950521903422,0.28602712170828043,0.7064597846021603
0.0565,1.7367091495650546,1.0,2970.4469834037395,0.4705564205842722,1.3030185732953623,0.978200339547332,0.2859947842817323,0.7072058170855968
0.057,1.7359392108377176,1.0,2974.782663077008,0.4735261741228185,1.30263309526733,0.9784442231620548,0.2859624468551841,0.7079502858702653
0.0575,1.7351692721103806,1.0,2979.0858319571144,0.4764792648547071,1.3022479276096735,0.9786823623691716,0.285930109428636,0.7086932087233979
0.058,1.7343993333830436,1.0,2983.357332770507,0.4794157878330638,1.3018630623232357,0.9789149391800328,0.2858977720020878,0.7094346033317549
0.0585,1.7336293946557069,1.0,2987.59801149821,0.4823358381110144,1.30147849140886,0.979142128362018,0.2858654345755397,0.7101744873017792
0.059000000000000004,1.7328594559283699,1.0,2991.80871732287,0.4852395107416847,1.301094206867389,0.9793640977843603,0.2858330971489915,0.7109128781597512
0.059500000000000004,1.7320895172010329,1.0,2995.990302577367,0.4881269007782005,1.300710200699666,0.979581008744828,0.2858007597224434,0.7116497933519343
0.06,1.7313195784736959,1.0,3000.1428696786143,0.49099807833292,1.3003264714351397,0.9797930146217564,0.2857684222958952,0.7123852377401729
0.0605,1.730549639746359,1.0,3004.2670970777017,0.4938531351380492,1.2999430126210092,0.9800002643827053,0.2857360848693471,0.7131192257009984
0.061,1.7297797010190221,1.0,3008.3647324686326,0.49669219884935273,1.2995598085688587,0.9802029036239562,0.2857037474427989,0.713851789190653
0.0615,1.7290097622916851,1.0,3012.436251211045,0.4995153543160139,1.299176854645429,0.9804010696523825,0.2856714100162508,0.7145829389173083
0.062,1.7282398235643481,1.0,3016.482130533784,0.5023226863872161,1.298794146217461,0.9805948946310483,0.2856390725897026,0.7153126855426611
0.0625,1.7274698848370111,1.0,3020.502849509724,0.5051142799121429,1.2984116786516955,0.9807845058106646,0.2856067351631545,0.7160410396820065
0.063,1.7266999461096741,1.0,3024.498889030511,0.5078902197399773,1.2980294473148737,0.9809700257489596,0.2855743977366063,0.7167680119043078
0.0635,1.7259300073823374,1.0,3028.4707317822626,0.510650590719903,1.2976474475737363,0.981151572518678,0.28554206031005813,0.7174936127322702
0.064,1.7251600686550004,1.0,3032.4188622216134,0.5133954777011035,1.297265674795024,0.9813292599048805,0.28550972288351,0.7182178526424077
0.0645,1.7243901299276634,1.0,3036.3437665518104,0.5161249655327619,1.2968841243454778,0.9815031975921656,0.2854773854569619,0.7189407420651112
0.065,1.7236201912003264,1.0,3040.245932699709,0.5188391390640618,1.296502791591839,0.9816734913424019,0.2854450480304137,0.7196622913847146
0.0655,1.7228502524729894,1.0,3044.1258502937244,0.5215380831441864,1.296121671900848,0.9818402431635124,0.2854127106038655,0.7203825109395618
0.066,1.7220803137456526,1.0,3047.984010641116,0.5242218826223193,1.295740760639246,0.9820035514698274,0.2853803731773174,0.7211014110220672
0.0665,1.7213103750183156,1.0,3051.8209067063785,0.5268906223476437,1.2953600531737735,0.9821635112344804,0.2853480357507693,0.721819001878781
0.067,1.7205404362909786,1.0,3055.637033090269,0.5295443871693433,1.2949795448711716,0.982320214134298,0.2853156983242211,0.7225352937104479
0.0675,1.7197704975636416,1.0,3059.4328860091164,0.5321832619366011,1.2945992310981815,0.9824737486876026,0.2852833608976729,0.7232502966720671
0.068,1.7190005588363046,1.0,3063.20896327456,0.5348073314986009,1.2942191072215437,0.9826242003853212,0.2852510234711248,0.7239640208729522
0.0685,1.7182306201089679,1.0,3066.9657642736365,0.5374166807045259,1.2938391686079993,0.9827716518157729,0.2852186860445767,0.724676476376785
0.069,1.7174606813816309,1.0,3070.703789949713,0.5400113944035593,1.293459410624289,0.9829161827834786,0.2851863486180285,0.7253876732016741
0.0695,1.7166907426542939,1.0,3074.4235427835583,0.5425915574448849,1.2930798286371539,0.9830578704223173,0.2851540111914803,0.7260976213202057
0.07,1.715920803926957,1.0,3078.125293705287,0.5451572425474495,1.2927004200082786,0.9831967886598972,0.2851216737649322,0.7268063269355145
0.07050000000000001,1.7151508651996201,1.0,3081.808961465941,0.5477085095785041,1.2923211851200629,0.9833330083652784,0.28508933633838407,0.7275137905931184
0.07100000000000001,1.7143809264722831,1.0,3085.4757474437156,0.5502454860917578,1.2919421133902473,0.9834666016152303,0.2850569989118359,0.7282200332564923
