Time [s],Phi [rad],STIM [ ],Fsee [N],Gamma [ ],Lcerel [ ],q [ ],Lmtc [m],fisomrel [ ]
0.0,1.8,1.0,17.96997397339497,5.289792203049893e-05,1.37933943076766,0.0050007360271909765,0.288653,0.5411402942119503
0.0005,1.79999375,1.0,18.293577718201654,0.005661810515328985,1.3793005183376692,0.013060035451622862,0.2886527375,0.5412344285356361
0.001,1.799975,1.0,21.667091406520377,0.011239261543690678,1.3789333299188211,0.03583246032786835,0.28865195,0.5421222304739601
0.0015,1.79994375,1.0,31.185892436304538,0.01678542748251867,1.3780362743133658,0.07090795126910662,0.2886506375,0.5442875487986915
0.002,1.7999,1.0,53.834578766742766,0.02230048381549752,1.3763517900449782,0.11508039573590235,0.2886488,0.5483397006694537
0.0025,1.79984375,1.0,97.54339095258011,0.027784605042453604,1.3739147361667066,0.1649690316041022,0.28864643749999996,0.5541701851957341
0.003,1.7997750000000001,1.0,161.51091200911452,0.033237964686674414,1.3711936717100417,0.21768702584608937,0.28864354999999997,0.5606353892934242
0.0035,1.79969375,1.0,238.30811101840828,0.03866073529481642,1.3685655020028462,0.2710172445104471,0.2886401375,0.5668350469814731
0.004,1.7996,1.0,322.1316221750772,0.044053088447601634,1.366138492132358,0.3233073124143013,0.2886362,0.5725210605199081
0.0045000000000000005,1.7994937500000001,1.0,409.9563256976582,0.049415194765027,1.363906657481738,0.37340614318494464,0.2886317375,0.5777166602055772
0.005,1.799375,1.0,500.11616817604,0.05474722389766254,1.3618434160433865,0.4205951465795007,0.28862675,0.5824915250830762
0.0055,1.79924375,1.0,591.4993642202822,0.060049344571819624,1.3599249880840758,0.46449559705262433,0.2886212375,0.586906897170529
0.006,1.7991000000000001,1.0,683.2280016303012,0.06532172453828802,1.3581335141303603,0.5049757813334991,0.2886152,0.5910088841091805
0.006500000000000001,1.79894375,1.0,774.5895638546963,0.07056453062431757,1.356455165134642,0.5420712091892487,0.2886086375,0.5948332756659285
0.007,1.798775,1.0,864.9877731609008,0.07577792871175688,1.3548790583628505,0.5759232221153093,0.28860155,0.5984083352534967
0.0075,1.79859375,1.0,953.9310901214693,0.0809620836870843,1.3533962008752332,0.6067340764977714,0.2885939375,0.6017574145629843
0.008,1.7984,1.0,1041.0386878164916,0.08611715985245798,1.3519986329173856,0.6347356776193596,0.2885858,0.604901028138685
0.0085,1.79819375,1.0,1125.9798927149563,0.09124331993627034,1.350679819519839,0.6601693950851317,0.2885771375,0.6078560720074397
0.009000000000000001,1.797975,1.0,1208.519584810567,0.09634072616417722,1.349433572712805,0.6832724919985178,0.28856795,0.6106383235368775
0.0095,1.79774375,1.0,1288.499379787951,0.10140954042482936,1.3482540902135336,0.7042704994734983,0.2885582375,0.6132624000304336
0.01,1.7975,1.0,1365.7680796858679,0.10644992246342422,1.3471366612636932,0.7233734653825165,0.288548,0.6157402372662497
0.0105,1.79724375,1.0,1440.23731453085,0.11146203174794314,1.3460767153105397,0.7407736237690898,0.2885372375,0.6180832497444759
0.011,1.796975,1.0,1511.8698733161264,0.11644602697099857,1.3450698643558954,0.756645112932474,0.28852595000000003,0.6203022599279464
0.0115,1.79669375,1.0,1580.657396862236,0.121402066474535,1.3441120756637943,0.7711446374151582,0.2885141375,0.622407140887612
0.012,1.7964,1.0,1646.5827429992996,0.12633030624369998,1.3432000118448846,0.7844126742183686,0.28850180000000003,0.6244060965231859
0.0125,1.79609375,1.0,1709.669912324322,0.13123090225082465,1.3423303385336278,0.796574466409166,0.2884889375,0.6263072044625375
0.013000000000000001,1.7957750000000001,1.0,1769.959684764408,0.1361040093702371,1.3414999576229019,0.807741543667631,0.28847555,0.6281179175496054
0.0135,1.79544375,1.0,1827.533513925422,0.14094978333563524,1.3407056849929975,0.8180129975833978,0.2884616375,0.6298457787418763
0.014,1.7951000000000001,1.0,1882.4302196352646,0.1457683762755381,1.3399451360317323,0.8274771547202965,0.2884472,0.6314965066593337
0.0145,1.79474375,1.0,1934.7089699767803,0.15055994015386587,1.339215960577211,0.836212496845411,0.2884322375,0.6330756763063778
0.015,1.794375,1.0,1984.4502907296321,0.15532462693453888,1.3385158084675381,0.8442887841160046,0.28841675,0.6345887991631666
0.0155,1.79399375,1.0,2031.7341655378225,0.16006258722109046,1.3378425405883572,0.8517681440600516,0.2884007375,0.6360408729872584
0.016,1.7936,1.0,2076.664583525537,0.16477397253240003,1.337193943396204,0.8587058811599657,0.2883842,0.6374370042631303
0.0165,1.7931937500000001,1.0,2119.3074190137067,0.1694589306978187,1.3365683580917116,0.8651514728226094,0.2883671375,0.6387810597303871
0.017,1.792775,1.0,2159.7381691196883,0.17411760936719325,1.335964152040347,0.871149098686354,0.28834955,0.64007681295858
0.0175,1.7923437500000001,1.0,2198.0434004103886,0.17875015619037046,1.335379692607576,0.8767382592043597,0.2883314375,0.6413280031455606
0.018000000000000002,1.7919,1.0,2234.3062223461493,0.18335671747888585,1.3348134835691818,0.8819543615855171,0.2883128,0.6425380459830013
0.0185,1.79144375,1.0,2268.6255056329182,0.18793744099402576,1.3342639594500627,0.8868291446660461,0.2882936375,0.6437104764437718
0.019,1.790975,1.0,2301.0733689069093,0.1924924707362539,1.3337299012417736,0.8913912048200184,0.28827395,0.6448480644679722
0.0195,1.79049375,1.0,2331.7206535316327,0.19702194984947202,1.3332101670784067,0.8956662887645994,0.2882537375,0.6459533946287638
0.02,1.79,1.0,2360.6440195526416,0.20152602147758192,1.3327036150940537,0.8996775987043837,0.288233,0.647029032217308
0.0205,1.78949375,1.0,2387.9254545933063,0.20600482876448545,1.3322091034228065,0.903446078060287,0.2882117375,0.6480775242443082
0.021,1.788975,1.0,2413.6329870128575,0.21045851232783802,1.3317256721595214,0.9069907004264114,0.28818995000000003,0.6491010154027861
0.021500000000000002,1.78844375,1.0,2437.8588784487365,0.21488721656071594,1.3312521673249358,0.9103286079599862,0.2881676375,0.6501020460539948
0.022,1.7879,1.0,2460.6597905248013,0.21929107974140988,1.3307878148642815,0.9134754233703467,0.2881448,0.651082339085822
0.0225,1.78734375,1.0,2482.0952666986664,0.2236702401286203,1.3303318419492267,0.9164453371453586,0.28812143749999997,0.6520436039363238
0.023,1.786775,1.0,2502.2276115325553,0.22802483598104759,1.3298834757514395,0.9192512584543333,0.28809755,0.652987539624201
0.0235,1.78619375,1.0,2521.1216570046977,0.23235500555739208,1.3294419434425875,0.9219049485792272,0.28807313749999996,0.6539158351427647
0.024,1.7856,1.0,2538.836563689092,0.23666088515713302,1.329006547388482,0.9244171515219275,0.2880482,0.6548300120392556
0.0245,1.78499375,1.0,2555.436966800087,0.24094261364265712,1.3285765572719985,0.9267976799695073,0.2880227375,0.6557316518216871
0.025,1.784375,1.0,2570.977283672964,0.24520032685199641,1.3281513559023397,0.9290555307881687,0.28799675,0.6566220906232654
0.025500000000000002,1.78374375,1.0,2585.503158772763,0.24943415777297837,1.3277304225100648,0.9311989622028023,0.2879702375,0.6575024558717297
0.026000000000000002,1.7831000000000001,1.0,2599.0615411339445,0.25364423939343034,1.327313236325732,0.933235550820026,0.2879432,0.6583738690241565
0.0265,1.78244375,1.0,2611.7005729069197,0.2578307047011798,1.3268992765799006,0.9351722570909805,0.2879156375,0.6592374457000563
0.027,1.781775,1.0,2623.4694839180875,0.26199368668405415,1.3264880225031292,0.9370154836887024,0.28788755,0.6600942957971816
0.0275,1.7810937500000001,1.0,2634.410915402429,0.26613331633405113,1.3260790234284658,0.9387711374034494,0.2878589375,0.6609453778059249
0.028,1.7804,1.0,2644.5682509390326,0.27024972598845504,1.3256718295574892,0.9404446657561963,0.2878298,0.6617916435990998
0.0285,1.77969375,1.0,2653.9943183380997,0.27434304937068726,1.325265911031513,0.9420410870929704,0.2878001375,0.6626342063802291
0.029,1.778975,1.0,2662.720718662046,0.2784134136644085,1.3248609401869802,0.9435650660646359,0.28776995,0.6634737549133651
0.029500000000000002,1.7782437500000001,1.0,2670.7795854601127,0.2824609460532794,1.3244565893603337,0.9450209189983512,0.2877392375,0.6643109745556753
0.03,1.7775,1.0,2678.2035380628877,0.2864857737209605,1.3240525308880162,0.9464126443667842,0.287708,0.6651465472738243
0.0305,1.77674375,1.0,2685.025637257293,0.2904880238511126,1.3236484371064707,0.9477439502301693,0.2876762375,0.665981151653504
0.031,1.775975,1.0,2691.2793433422485,0.29446782362739626,1.32324398035214,0.949018278984842,0.28764395,0.6668154629021215
0.0315,1.7751937500000001,1.0,2696.998476563928,0.29842530023347213,1.3228388329614673,0.9502388297118488,0.2876111375,0.6676501528446359
0.032,1.7744,1.0,2702.2106854724925,0.3023605760030184,1.3224327266003757,0.9514085841536244,0.2875778,0.668485767911503
0.0325,1.77359375,1.0,2706.9508571643523,0.3062737817129598,1.3220253292859554,0.9525303136918026,0.2875439375,0.6693229824562246
0.033,1.772775,1.0,2711.2414851423127,0.3101650394554931,1.3216164244399935,0.9536066124276955,0.28750955,0.6701622306455164
0.0335,1.7719437500000002,1.0,2715.1042468038027,0.31403447052571226,1.3212058046822368,0.9546399012483444,0.2874746375,0.6710039255052193
0.034,1.7711000000000001,1.0,2718.560990768917,0.3178821962187112,1.320793262632433,0.955632440685093,0.2874392,0.6718484778368586
0.0345,1.7702437500000001,1.0,2721.633719286606,0.321708337829584,1.3203785909103292,0.9565863434277427,0.2874032375,0.6726962961935968
0.035,1.7693750000000001,1.0,2724.344571593607,0.3255130166534246,1.3199615821356727,0.9575035857222559,0.28736675,0.6735477868534349
0.035500000000000004,1.76849375,1.0,2726.715808227483,0.329296353985327,1.3195420289282107,0.9583860177632874,0.2873297375,0.6744033537896765
0.036000000000000004,1.7676,1.0,2728.765780275894,0.3330584685745228,1.319119760416663,0.9592353763653317,0.2872922,0.6752633243354964
0.0365,1.76669375,1.0,2730.514784383301,0.3367994819096717,1.3186945888450068,0.960053289138256,0.2872541375,0.6761280581661737
0.037,1.765775,1.0,2731.98280684647,0.3405195139259804,1.3182663299932316,0.9608412835926989,0.28721555,0.6769979055887737
0.0375,1.76484375,1.0,2733.1842412236306,0.34421868032451497,1.3178348510558342,0.9616007985443862,0.2871764375,0.6778731105048332
0.038,1.7639,1.0,2734.1335345124476,0.34789709680634145,1.3174000192273119,0.962333186394401,0.28713679999999997,0.6787539151610398
0.0385,1.76294375,1.0,2734.8451802048135,0.35155487907252597,1.316961701702162,0.9630397192650225,0.28709663750000003,0.6796405601213957
0.039,1.761975,1.0,2735.3337117326846,0.35519214282413464,1.3165197656748817,0.9637215946355546,0.28705595,0.6805332842382589
0.0395,1.7609937500000001,1.0,2735.6136963054623,0.35880900376223357,1.3160740783399683,0.9643799405238577,0.2870147375,0.6814323246222564
0.04,1.76,1.0,2735.7002713730626,0.3624055761678422,1.3156245019687907,0.9650158195500935,0.286973,0.6823379265208955
0.0405,1.7589937500000001,1.0,2735.6174930273696,0.36598196683551076,1.3151708180613457,0.9656302256219361,0.2869307375,0.6832504956713716
0.041,1.7579779067339198,1.0,2735.4945607486725,0.36953830513228025,1.3147131663051337,0.9662241320679694,0.28688807208282463,0.684169716052925
0.0415,1.7569614313071051,1.0,2735.7514512252246,0.3730747002010746,1.3142517804638754,0.9667984624506923,0.2868453801148984,0.6850950844237382
0.042,1.7559449558802904,1.0,2736.3939160480513,0.37659126118481767,1.3137868943012918,0.9673540894519049,0.2868026881469722,0.6860261000151464
0.0425,1.754928480453476,1.0,2737.396336132585,0.3800880972264333,1.313318741581104,0.9678918382024672,0.286759996179046,0.6869622645855655
0.043000000000000003,1.7539120050266612,1.0,2738.733148010558,0.38356531746884537,1.3128475560670334,0.9684124893619543,0.28671730421111974,0.6879030824709325
0.043500000000000004,1.7528955295998467,1.0,2740.378827506261,0.3870230310549779,1.3123735715228009,0.9689167819693042,0.28667461224319357,0.6888480606316634
0.044,1.751879054173032,1.0,2742.307874622852,0.39046134712775454,1.3118970217121273,0.9694054160835852,0.28663192027526735,0.689796708696125
0.0445,1.7508625787462173,1.0,2744.494799641726,0.3938803748300994,1.3114181403987337,0.9698790552322514,0.2865892283073411,0.6907485390006205
0.045,1.7498461033194028,1.0,2746.9141104323003,0.3972802233049363,1.3109371613463416,0.9703383286826558,0.2865465363394149,0.6917030666258901
0.0455,1.7488296278925881,1.0,2749.540300974365,0.4006610016951891,1.3104543183186717,0.97078383355117,0.2865038443714887,0.6926598094301304
0.046,1.7478131524657736,1.0,2752.3527472302344,0.4040228163685008,1.309969800669996,0.9712161330731992,0.2864611524035625,0.6936183758692696
0.0465,1.746796677038959,1.0,2755.3360922011348,0.4073657743755905,1.3094837498994818,0.9716357589098169,0.2864184604356363,0.6945784711356984
0.047,1.7457802016121442,1.0,2758.470881624119,0.4106899849205741,1.308996344396913,0.9720432193898899,0.28637576846771007,0.6955397294303072
0.0475,1.7447637261853297,1.0,2761.746509870445,0.41399555095423374,1.308507682307511,0.9724389913962005,0.28633307649978385,0.6965019450167342
0.048,1.743747250758515,1.0,2765.1523566104665,0.41728257542735153,1.3080178617764977,0.9728235287375315,0.2862903845318576,0.6974649133502371
0.0485,1.7427307753317005,1.0,2768.6777841863804,0.4205511612907097,1.3075269809490946,0.9731972634818152,0.2862476925639314,0.6984284310852527
0.049,1.7417142999048858,1.0,2772.312135197879,0.42380141149509043,1.3070351379705232,0.9735606072004616,0.2862050005960052,0.69939229608234
0.0495,1.740697824478071,1.0,2776.044730301962,0.4270334289912759,1.3065424309860052,0.9739139521305423,0.286162308628079,0.7003563074145097
0.05,1.7396813490512566,1.0,2779.864866225658,0.43024731673004823,1.3060489581407622,0.9742576722609523,0.2861196166601528,0.7013202653729401
0.0505,1.7386648736244419,1.0,2783.761813993167,0.4334431776621896,1.305554817580016,0.9745921243481586,0.28607692469222656,0.7022839714720763
0.051000000000000004,1.7376483981976274,1.0,2787.7301014006243,0.4366211091179448,1.3050600599233582,0.9749176451336857,0.28603423272430034,0.7032473209169552
0.051500000000000004,1.7366319227708127,1.0,2791.757653830259,0.43978121885497984,1.3045647950108556,0.975234561129314,0.2859915407563741,0.7042100945152918
0.052000000000000005,1.735615447343998,1.0,2795.8390799510607,0.4429236053931138,1.3040690723600525,0.9755431793644003,0.2859488487884479,0.7051721914352587
0.0525,1.7345989719171835,1.0,2799.969680793118,0.44604836634037,1.3035729351438303,0.9758437927721103,0.2859061568205217,0.7061335237505095
0.053,1.7335824964903688,1.0,2804.1447444145724,0.44915559930477167,1.30307642653507,0.976136681432562,0.2858634648525955,0.7070940040775902
0.0535,1.7325660210635543,1.0,2808.359545524885,0.4522454018943421,1.302579589706653,0.976422113248344,0.2858207728846693,0.7080535455770203
0.054,1.7315495456367396,1.0,2812.6093451507368,0.45531787171710447,1.3020824678314609,0.9767003445789855,0.28577808091674306,0.7090120619542551
0.0545,1.7305330702099249,1.0,2816.889390342079,0.45837310638108214,1.3015851040823745,0.9769716208371899,0.28573538894881684,0.7099694674605337
0.055,1.7295165947831104,1.0,2821.1949139200515,0.4614112034942983,1.3010875416322754,0.9772361770494467,0.2856926969808906,0.7109256768935996
0.0555,1.7285001193562957,1.0,2825.5222363902353,0.46443225794978776,1.300589813807848,0.9774942375466477,0.28565000501296445,0.711880624473735
0.056,1.7274836439294812,1.0,2829.867565779326,0.4674363672726396,1.3000919548396932,0.977746017636412,0.2856073130450382,0.7128342431138124
0.0565,1.7264671685026665,1.0,2834.2270132896697,0.4704236292974781,1.2995939997182355,0.9779917238242216,0.285564621077112,0.7137864647092791
0.057,1.725450693075852,1.0,2838.598576329281,0.4733941365668367,1.299095966514807,0.9782315527360067,0.2855219291091858,0.7147372538730021
0.0575,1.7244342176490373,1.0,2842.980246106384,0.476347981623249,1.2985978733007406,0.9784656930443314,0.28547923714125956,0.715686575447305
0.058,1.7234177422222225,1.0,2847.37000760188,0.47928525700924834,1.298099738147369,0.9786943258546018,0.28543654517333333,0.7166343945040501
0.0585,1.722401266795408,1.0,2851.7658395489543,0.48220605526736826,1.2976015791260247,0.9789176250695507,0.2853938532054071,0.7175806763446954
0.059000000000000004,1.7213847913685933,1.0,2856.1657144199976,0.48511046894014226,1.2971034143080404,0.9791357577333758,0.28535116123748094,0.7185253865003345
0.059500000000000004,1.7203683159417789,1.0,2860.5675984201916,0.4879985905701038,1.2966052617647486,0.9793488843568269,0.2853084692695547,0.7194684907317124
0.06,1.7193518405149641,1.0,2864.9694514894763,0.49087051269978627,1.2961071395674821,0.9795571592244321,0.2852657773016285,0.7204099550292209
0.0605,1.7183353650881494,1.0,2869.373600675617,0.4937262945405835,1.2956090270163307,0.9797607259509004,0.2852230853337023,0.7213498187068184
0.061,1.717318889661335,1.0,2873.773045163222,0.4965660728546807,1.2951109861059165,0.979959733208142,0.28518039336577605,0.7222879651772754
0.0615,1.7163024142345202,1.0,2878.1669589402595,0.49938993573753143,1.2946130239834455,0.9801543173152034,0.28513770139784983,0.7232243816942914
0.062,1.7152859388077057,1.0,2882.5548581536023,0.5021979685594391,1.294115144748254,0.9803446091139606,0.2850950094299236,0.7241590613192399
0.0625,1.714269463380891,1.0,2886.93625758279,0.5049902566907074,1.293617352499679,0.9805307345839773,0.28505231746199744,0.7250919971654313
0.063,1.7132529879540763,1.0,2891.3106706475123,0.5077668855016396,1.2931196513370575,0.9807128150598536,0.2850096254940712,0.7260231823980926
0.0635,1.7122365125272618,1.0,2895.6776094162747,0.5105279403625393,1.292622045359726,0.9808909674372992,0.284966933526145,0.7269526102343448
0.064,1.7112200371004471,1.0,2900.0365846144928,0.5132735066437101,1.2921245386670208,0.9810653043685971,0.28492424155821877,0.7278802739431769
0.0645,1.7102035616736326,1.0,2904.387105633364,0.5160036697154554,1.2916271353582793,0.9812359344480774,0.28488154959029255,0.7288061668454204
0.065,1.709187086246818,1.0,2908.72868053911,0.5187185149480787,1.291129839532838,0.9814029623881797,0.2848388576223664,0.7297302823137243
0.0655,1.7081706108200032,1.0,2913.0608160824577,0.5214181277118836,1.2906326552900336,0.9815664891866465,0.2847961656544401,0.7306526137725272
0.066,1.7071541353931887,1.0,2917.383017709038,0.5241025933771734,1.2901355867292028,0.9817266122853584,0.28475347368651394,0.7315731546980269
0.0665,1.706137659966374,1.0,2921.6947895688627,0.5267719973142517,1.2896386379496825,0.9818834257212813,0.2847107817185877,0.732491898618153
0.067,1.7051211845395595,1.0,2925.99563452801,0.5294264248934222,1.2891418130508092,0.9820370202699726,0.2846680897506615,0.7334088391125348
0.0675,1.7041047091127448,1.0,2930.285054178917,0.5320659614849881,1.2886451161319197,0.9821874835820642,0.28462539778273527,0.7343239698124701
0.068,1.7030882336859303,1.0,2934.562548852268,0.534690692459253,1.288148551292351,0.9823349003131103,0.28458270581480904,0.735237284400891
0.0685,1.7020717582591156,1.0,2938.8276176287063,0.5373007031865206,1.2876521226314392,0.9824793522471705,0.2845400138468829,0.7361487766123325
0.069,1.701055282832301,1.0,2943.0801868472686,0.5398960611526811,1.287155830497638,0.9826209171144459,0.28449732187895665,0.7370584471020785
0.0695,1.7000388074054864,1.0,2947.3206417044453,0.5424768362415421,1.2866596712257174,0.9827596700304326,0.28445462991103043,0.7379663038672308
0.07,1.6990223319786717,1.0,2951.547976467515,0.5450431565566721,1.286163653320183,0.9828956877625822,0.2844119379431042,0.7388723326481063
0.07050000000000001,1.6980058565518572,1.0,2955.762210907066,0.5475950985907213,1.2856677763047444,0.9830290409685344,0.284369245975178,0.739776535654026
0.07100000000000001,1.6969893811250425,1.0,2959.96336508156,0.5501327388363397,1.2851720397031106,0.9831597980026686,0.28432655400725176,0.7406789150879067
0.07150000000000001,1.6959729056982278,1.0,2964.151459335779,0.5526561537861776,1.2846764430389912,0.9832880250067743,0.28428386203932554,0.7415794731462628
0.07200000000000001,1.6949564302714133,1.0,2968.3265142996183,0.5551654199328852,1.2841809858360953,0.9834137859965694,0.2842411700713994,0.7424782120192124
