Time [s],Phi [rad],STIM [ ],Fsee [N],Gamma [ ],Lcerel [ ],q [ ],Lmtc [m],fisomrel [ ]
0.0,1.8,1.0,17.96783833979191,1.0879835199218749e-05,1.3793396700184075,0.005000031526927846,0.288653,0.5411397154028244
0.0005,1.79999375,1.0,18.277403723116013,0.005620028116722405,1.379302314523994,0.012942955923574792,0.2886527375,0.5412300835355266
0.001,1.799975,1.0,21.619641514905947,0.011197713511304566,1.3789381734295,0.03561315870790593,0.28865195,0.5421105252484506
0.0015,1.79994375,1.0,31.07179170938683,0.016744112501725673,1.378045985996153,0.0706079766450079,0.2886506375,0.5442641341587902
0.002,1.7999,1.0,53.58746518189057,0.022259400579115157,1.3763678023029517,0.11472526409332019,0.2886488,0.548301267186372
0.0025,1.79984375,1.0,97.12717465483806,0.027743752250517457,1.3739347703462037,0.16458275533173677,0.28864643749999996,0.5541224092032266
0.003,1.7997750000000001,1.0,160.9688742002674,0.033197341046605065,1.3712139429755357,0.21728856587684628,0.28864354999999997,0.5605873996828947
0.0035,1.79969375,1.0,237.69541706505902,0.03862033952127352,1.368584361971836,0.2706209571086333,0.2886401375,0.5667907146358881
0.004,1.7996,1.0,321.479636092052,0.04401291926242266,1.366155751661401,0.3229236147358545,0.2886362,0.5724807574147784
0.0045000000000000005,1.7994937500000001,1.0,409.2810967536525,0.049375250897141496,1.363922500888478,0.37304192483462056,0.2886317375,0.5776798894996036
0.005,1.799375,1.0,499.4271292323359,0.054707504082796704,1.3618580528172972,0.4202544010062275,0.28862675,0.5824577474849303
0.0055,1.79924375,1.0,590.8041807042955,0.06000984755448993,1.359938566132853,0.4641801247018818,0.2886212375,0.5868757289866897
0.006,1.7991000000000001,1.0,682.5318973286705,0.06528244906824232,1.3581461641013355,0.5046858689776684,0.2886152,0.5909799908785054
0.006500000000000001,1.79894375,1.0,773.8951537354582,0.07052547545642984,1.3564670164066475,0.5418061604023594,0.2886086375,0.594806333591017
0.007,1.798775,1.0,864.2990969179222,0.07573909261201275,1.3548901803903366,0.5756817080246874,0.28860155,0.5983831628268953
0.0075,1.79859375,1.0,953.2560299958635,0.08092346549742539,1.3534065820902432,0.6065144008222864,0.2885939375,0.6017340170130491
0.008,1.7984,1.0,1040.3646372947094,0.08607875805633364,1.3520085553168855,0.6345361909791716,0.2885858,0.6048787531368597
0.0085,1.79819375,1.0,1125.3304215093176,0.0912051337258884,1.3506890122518842,0.6599881097662799,0.2885771375,0.6078355123909369
0.009000000000000001,1.797975,1.0,1207.8979848693373,0.09630275435195616,1.349442065052385,0.6831076702087702,0.28856795,0.6106193978696579
0.0095,1.79774375,1.0,1287.8824336655084,0.10137178119636352,1.3482622531140862,0.7041206944480801,0.2885582375,0.6132442699486612
0.01,1.7975,1.0,1365.171245581615,0.10641237510133024,1.3471443313452953,0.7232370660018337,0.288548,0.6157232564248336
0.0105,1.79724375,1.0,1439.6694522485614,0.11142469518593795,1.346083821817528,0.7406492116191706,0.2885372375,0.6180675646561657
0.011,1.796975,1.0,1511.3213078462725,0.11640889989155354,1.3450765647143723,0.7565315185432322,0.28852595000000003,0.6202875143014274
0.0115,1.79669375,1.0,1580.1197205121669,0.12136514723583185,1.3441184984930283,0.7710407974951355,0.2885141375,0.6223930452643611
0.012,1.7964,1.0,1646.0727306980946,0.1262935943376195,1.343205980959018,0.7843175077022572,0.28850180000000003,0.6243930313582851
0.0125,1.79609375,1.0,1709.1866761194499,0.1311943964398274,1.3423358888967893,0.796487098738407,0.2884889375,0.6262950866493786
0.013000000000000001,1.7957750000000001,1.0,1769.5019273973844,0.13606770862073372,1.341505124987625,0.807661198143322,0.28847555,0.6281066632882225
0.0135,1.79544375,1.0,1827.0807427719396,0.14091368530035556,1.3407107149046198,0.817939062815812,0.2884616375,0.6298348493277516
0.014,1.7951000000000001,1.0,1881.9974142463366,0.14573248084888366,1.3399498734917727,0.8274089422339059,0.2884472,0.6314862356917338
0.0145,1.79474375,1.0,1934.3009821709331,0.15052424654269278,1.339220365614975,0.8361494349132848,0.2884322375,0.6330661465307483
0.015,1.794375,1.0,1984.0612313303402,0.15528913365815766,1.3385199561401175,0.8442304028112161,0.28841675,0.6345798446903472
0.0155,1.79399375,1.0,2031.3643886911543,0.16002729324949289,1.3378464365386988,0.8517140028914343,0.2884007375,0.6360324786929303
0.016,1.7936,1.0,2076.2973989648053,0.16473887534301324,1.3371977699498865,0.8586556414892058,0.2883842,0.6374287753215033
0.0165,1.7931937500000001,1.0,2118.9583945183545,0.16942403055754954,1.3365719586030966,0.8651047327377324,0.2883671375,0.638773331256618
0.017,1.792775,1.0,2159.413162344125,0.17408290569307666,1.3359674732445648,0.8711055284154849,0.28834955,0.6400696968165264
0.0175,1.7923437500000001,1.0,2197.738149492248,0.17871564754956948,1.335382784620526,0.8766975919615045,0.2883314375,0.6413213896051719
0.018000000000000002,1.7919,1.0,2234.0195745159467,0.1833224029270029,1.3348163634772152,0.8819163498528876,0.2883128,0.642531896517517
0.0185,1.79144375,1.0,2268.3416254004746,0.18790331739189955,1.3342667898950074,0.886793602214463,0.2882936375,0.6437044425168591
0.019,1.790975,1.0,2300.7997224929195,0.1924585377603963,1.3337326103404152,0.8913579075328646,0.28827395,0.644842298454632
0.0195,1.79049375,1.0,2331.4697096391756,0.19698820787736743,1.333212635034527,0.8956350237198023,0.2882537375,0.6459481500425609
0.02,1.79,1.0,2360.4184879018544,0.20149246979455068,1.3327058194920085,0.8996481959397633,0.288233,0.6470243548346654
0.0205,1.78949375,1.0,2387.7180291483696,0.20597146556368365,1.332211119227525,0.9034184054358231,0.2882117375,0.6480732533851887
0.021,1.788975,1.0,2413.444952663955,0.21042533723650406,1.3317274897557423,0.9069646208280004,0.28818995000000003,0.6490971700904142
0.021500000000000002,1.78844375,1.0,2437.672165348873,0.21485422531950354,1.3312539631589877,0.91030403405285,0.2881676375,0.6500982522049236
0.022,1.787905475659837,1.0,2460.7231807290036,0.2192582721289554,1.3307896808934918,0.9134522613342263,0.28814502997771313,0.6510784024693299
0.0225,1.7873671757237648,1.0,2482.9615726635425,0.22363761716252675,1.3303341645120554,0.9164235616858014,0.2881224213803981,0.6520387109570227
0.023,1.786828875787693,1.0,2504.4127621333623,0.22799239743871152,1.3298870666659175,0.9192309285339222,0.2880998127830831,0.6529799848423359
0.0235,1.7862905758516208,1.0,2525.102081344558,0.2323227499760036,1.3294480400063173,0.9218861974279297,0.2880772041857681,0.6539030259438646
0.024,1.7857522759155489,1.0,2545.055912046986,0.23662881179289696,1.329016737184494,0.9244001651616688,0.28805459558845303,0.6548086309071095
0.0245,1.785213975979477,1.0,2564.301624713492,0.2409107199078856,1.3285928108516871,0.9267826952150563,0.288031986991138,0.6556975913794241
0.025,1.7846756760434048,1.0,2582.862164853236,0.24516860775009702,1.3281759637017376,0.9290428179811046,0.288009378393823,0.6565705894401652
0.025500000000000002,1.784137376107333,1.0,2600.771132800318,0.24940261528527974,1.3277658066707467,0.9311887942294094,0.28798676979650795,0.6574284948261311
0.026000000000000002,1.7835990761712608,1.0,2618.0512982242954,0.2536128750656472,1.3273620594378774,0.9332282163776313,0.28796416119919294,0.6582719452824988
0.0265,1.7830607762351889,1.0,2634.724470162302,0.2577995185792516,1.3269644568681724,0.9351680605499759,0.2879415526018779,0.6591015431916487
0.027,1.782522476299117,1.0,2650.813079456044,0.26196267731414513,1.3265727338266746,0.937014743116316,0.2879189440045629,0.6599178875030993
0.0275,1.7819841763630448,1.0,2666.340143409916,0.26610248275837994,1.326186625178427,0.9387741730701792,0.2878963354072479,0.6607215738351673
0.028,1.781445876426973,1.0,2681.3292320077626,0.27021906640000826,1.3258058657884717,0.9404517988706195,0.28787372680993284,0.661513194572144
0.0285,1.7809075764909008,1.0,2695.80314597278,0.2743125586556053,1.325430202317919,0.9420526516662128,0.28785111821261783,0.6622933144748672
0.029,1.780369276554829,1.0,2709.774061717735,0.2783830810735014,1.325059482695865,0.9435813923850522,0.2878285096153028,0.6630622854256907
0.029500000000000002,1.779830976618757,1.0,2723.2831756639553,0.2824307799706458,1.3246932938453118,0.9450423071512736,0.2878059010179878,0.6638209978695218
0.03,1.7792926766826849,1.0,2736.3453997296037,0.2864557797064859,1.324331466717661,0.9464393913637908,0.28778329242067274,0.6645698332167433
0.0305,1.778754376746613,1.0,2748.9759537012574,0.29045820464046895,1.3239738322643149,0.9477763501786226,0.28776068382335773,0.6653091709437933
0.031,1.778216076810541,1.0,2761.190349202436,0.2944381791320424,1.323620221436675,0.9490566232560717,0.2877380752260427,0.6660393886392775
0.0315,1.777677776874469,1.0,2773.0043742961016,0.29839582754065347,1.3232704651861433,0.9502834071076711,0.2877154666287277,0.6667608620482606
0.032,1.777139476938397,1.0,2784.4340787206534,0.3023312742257496,1.3229243944641218,0.9514596753016816,0.28769285803141265,0.667473965114733
0.0325,1.776601177002325,1.0,2795.4957597595403,0.3062446435467781,1.3225818402220124,0.9525881967554448,0.28767024943409764,0.6681790700222578
0.033,1.776062877066253,1.0,2806.205948744503,0.31013605986318626,1.3222426334112172,0.9536715523163106,0.2876476408367826,0.6688765472327931
0.0335,1.775524577130181,1.0,2816.5813981923575,0.3140056475344215,1.3219066049831376,0.9547121498095937,0.2876250322394676,0.6695667655236932
0.034,1.774986277194109,1.0,2826.6390695753466,0.3178535309199311,1.321573585889176,0.9557122377116285,0.2876024236421526,0.6702500920228851
0.0345,1.774447977258037,1.0,2836.3874310065016,0.3216798239924913,1.321243484573286,0.9566739234152143,0.28757981504483754,0.6709267334796329
0.035,1.773909677321965,1.0,2845.8476830079253,0.3254846594053339,1.320916097280594,0.9575991709778697,0.28755720644752253,0.6715971253386235
0.035500000000000004,1.773371377385893,1.0,2855.033360682809,0.3292681591926419,1.3205912901945767,0.9584898240588126,0.2875345978502075,0.6722615581995431
0.036000000000000004,1.772833077449821,1.0,2863.9539013269796,0.3330304399091774,1.3202689671286845,0.9593476128897067,0.28751198925289245,0.6729202445609874
0.0365,1.772294777513749,1.0,2872.6188519358707,0.33677161810970213,1.3199490318963676,0.9601741601569767,0.28748938065557744,0.6735733960094935
0.037,1.771756477577677,1.0,2881.0378640095314,0.34049181034897824,1.3196313883110768,0.9609709889053047,0.28746677205826243,0.6742212232344822
0.0375,1.7712181776416052,1.0,2889.22068856306,0.3441911331817676,1.3193159401862622,0.9617395297754221,0.2874441634609474,0.674863936042613
0.038,1.770679877705533,1.0,2897.1771713419303,0.34786970316283206,1.3190025913353742,0.9624811276390306,0.2874215548636324,0.6755017433715441
0.0385,1.7701415777694611,1.0,2904.91724824235,0.3515276368469336,1.3186912455718636,0.9631970476871546,0.28739894626631735,0.6761348533031064
0.039,1.769603277833389,1.0,2912.450940937448,0.3551650507888342,1.3183818067091801,0.9638884810224306,0.28737633766900234,0.6767634730758874
0.0395,1.769064977897317,1.0,2919.788352707377,0.3587820615432958,1.3180741785607746,0.9645565498006908,0.2873537290716873,0.677387809097221
0.04,1.7685266779612452,1.0,2926.938907768042,0.36237878401516005,1.317768271582246,0.965202312249281,0.2873311204743723,0.6780080534937243
0.0405,1.767988378025173,1.0,2933.9050454702265,0.3659553196933689,1.317464058083515,0.9658267697328422,0.28730851187705725,0.6786242724016154
0.041,1.7674500780891012,1.0,2940.7044425387908,0.3695118049754732,1.317161377239002,0.9664308623133081,0.28728590327974224,0.6792368009816947
0.0415,1.766911778153029,1.0,2947.3424289129302,0.3730483484629167,1.3168601771136006,0.9670154824071406,0.28726329468242723,0.6798457530597501
0.042,1.7663734782169571,1.0,2953.824376221471,0.3765650587571431,1.3165604057722047,0.9675814736257018,0.2872406860851122,0.6804512420195699
0.0425,1.7658351782808852,1.0,2960.1556961075125,0.380062044459596,1.3162620112797077,0.9681296339451965,0.28721807748779715,0.6810533808077617
0.043000000000000003,1.765296878344813,1.0,2966.3418386133208,0.38353941417171933,1.3159649417010038,0.9686607186396247,0.28719546889048214,0.681652281938397
0.043500000000000004,1.7647585784087412,1.0,2972.38829062454,0.38699727649495663,1.3156691451009863,0.9691754429966823,0.28717286029316713,0.6822480574974887
0.044,1.7642202784726693,1.0,2978.3005743746544,0.3904357400307517,1.3153745695445493,0.9696744848346988,0.2871502516958521,0.6828408191472902
0.0445,1.7636819785365971,1.0,2984.084246009082,0.39385491338054823,1.3150811630965866,0.9701584868370262,0.2871276430985371,0.6834306781304279
0.045,1.7631436786005252,1.0,2989.7448942089627,0.39725490514579004,1.3147888738219915,0.9706280587188005,0.28710503450122205,0.6840177452738594
0.0455,1.762605378664453,1.0,2995.2881388749934,0.4006358239279207,1.3144976497856582,0.9710837792396358,0.28708242590390703,0.6846021309926578
0.046,1.7620670787283812,1.0,3000.719629870929,0.40399777832838396,1.31420743905248,0.9715261980746083,0.287059817306592,0.685183945293629
0.0465,1.7615287787923093,1.0,3006.045045826501,0.4073408769486236,1.313918189687351,0.9719558375547748,0.28703720870927696,0.6857632977787509
0.047,1.7609904788562372,1.0,3011.2635618219415,0.4106652031983291,1.3136299062754535,0.9723731950402505,0.28701460011196195,0.6863401845970991
0.0475,1.7604521789201653,1.0,3016.3864779038977,0.4139708939247235,1.3133424886000913,0.9727787431721399,0.28699199151464694,0.6869148113453497
0.048,1.7599138789840931,1.0,3021.4175926960597,0.4172580535914309,1.3130559016389431,0.973172932142128,0.2869693829173319,0.6874872527073608
0.0485,1.7593755790480212,1.0,3026.359670256899,0.420526782293337,1.3127701194577228,0.973556190720474,0.2869467743200169,0.6880575649693935
0.049,1.7588372791119493,1.0,3031.215488863152,0.42377718012532745,1.3124851161221442,0.9739289274039742,0.28692416572270185,0.6886258042159759
0.0495,1.7582989791758772,1.0,3035.9878405546333,0.427009347182288,1.3122008656979207,0.9742915315593584,0.28690155712538684,0.6891920263312146
0.05,1.7577606792398053,1.0,3040.679530693435,0.4302233835591043,1.3119173422507662,0.9746443744921813,0.28687894852807183,0.6897562870000586
0.0505,1.7572223793037332,1.0,3045.2933775387714,0.433419389350662,1.3116345198463943,0.9749878104466908,0.28685633993075677,0.6903186417095257
0.051000000000000004,1.7566840793676612,1.0,3049.832211836419,0.4365974646518468,1.3113523725505187,0.9753221775417129,0.28683373133344175,0.690879145749882
0.051500000000000004,1.7561457794315893,1.0,3054.298876423006,0.4397577095575444,1.3110708744288533,0.9756477986471794,0.28681112273612674,0.69143785421578
0.052000000000000005,1.7556074794955172,1.0,3058.696225845206,0.44290022416264047,1.3107899995471113,0.9759649822055538,0.28678851413881173,0.6919948220073551
0.0525,1.7550691795594453,1.0,3063.0271259939545,0.4460251085620207,1.310509721971007,0.9762740230020757,0.2867659055414967,0.6925501038312756
0.053,1.7545308796233732,1.0,3067.2944537536446,0.44913246285057085,1.3102300157662534,0.9765752028874272,0.28674329694418166,0.6931037542017544
0.0535,1.7539925796873013,1.0,3071.5010966661316,0.4522223871231765,1.3099508549985646,0.9768687914561487,0.28672068834686665,0.6936558274415141
0.054,1.7534542797512294,1.0,3075.6499526094735,0.45529498147472336,1.3096722137336545,0.977155046683868,0.28669807974955164,0.6942063776827099
0.0545,1.7529159798151572,1.0,3079.7412248328415,0.4583503233708143,1.3093940891814635,0.9774342147175753,0.28667547115223657,0.6947554132001679
0.055,1.7523776798790853,1.0,3083.7780170904753,0.4613885212569526,1.3091164537707098,0.9777065328183051,0.28665286255492156,0.6953029910976423
0.0555,1.7518393799430134,1.0,3087.7648528353902,0.46440969470613774,1.3088392678835838,0.9779722285988819,0.28663025395760655,0.6958491920061605
0.056,1.7513010800069413,1.0,3091.703028342658,0.4674139346831692,1.3085625195787693,0.9782315191240231,0.28660764536029154,0.6963940418086785
0.0565,1.7507627800708694,1.0,3095.593844747588,0.4704013321528464,1.3082861969149502,0.9784846125250939,0.28658503676297653,0.6969375663001166
0.057,1.7502244801347973,1.0,3099.4386079313563,0.4733719780799689,1.30801028795081,0.9787317084403048,0.28656242816566146,0.6974797911876885
0.0575,1.7496861801987253,1.0,3103.2386284101026,0.4763259634293361,1.307734780745033,0.9789729984297788,0.28653981956834645,0.6980207420912196
0.058,1.7491478802626534,1.0,3106.9952212268413,0.47926337916574735,1.3074596633563025,0.9792086663671122,0.28651721097103144,0.6985604445434603
0.0585,1.7486095803265813,1.0,3110.709705846392,0.48218431625400227,1.3071849238433026,0.9794388888089393,0.2864946023737164,0.6990989239903838
0.059000000000000004,1.7480712803905094,1.0,3114.3834060545623,0.48508886565890025,1.306910550264717,0.9796638353438998,0.2864719937764014,0.6996362057914818
0.059500000000000004,1.7475329804544373,1.0,3118.0176498584556,0.4879771183452407,1.3066365306792296,0.979883668922311,0.28644938517908636,0.7001723152200443
0.06,1.7469946805183654,1.0,3121.6137693925693,0.4908491652778231,1.3063628531455238,0.9800985461677544,0.28642677658177135,0.7007072774634382
0.0605,1.7464563805822935,1.0,3125.173100825497,0.49370509742144686,1.3060895057222839,0.9803086176717016,0.28640416798445634,0.7012411176233673
0.061,1.7459180806462213,1.0,3128.69698427144,0.4965450057409116,1.3058164764681937,0.9805140282722254,0.28638155938714127,0.7017738607161312
0.0615,1.7453797807101494,1.0,3132.1867637047058,0.4993689812010166,1.3055437534419365,0.9807149173177728,0.28635895078982626,0.7023055316728735
0.062,1.7448414807740775,1.0,3135.6437868763464,0.5021771147665613,1.3052713247021963,0.9809114189169079,0.28633634219251125,0.7028361553398158
0.0625,1.7443031808380054,1.0,3139.0694052350163,0.5049694974023454,1.3049991783076573,0.9811036621748693,0.28631373359519624,0.7033657564784881
0.063,1.7437648809019335,1.0,3142.4649738509215,0.507746220073168,1.3047273023170027,0.9812917714177353,0.28629112499788123,0.7038943597659504
0.0635,1.7432265809658614,1.0,3145.8303480416103,0.5105073440047359,1.3044556975170711,0.9814758649139979,0.28626851640056616,0.7044219650809749
0.064,1.7426882810297895,1.0,3149.1661936214,0.5132529552879116,1.3041843578384673,0.9816560580766688,0.28624590780325115,0.7049485856071406
0.0645,1.7421499810937175,1.0,3152.4757813552114,0.515983191475529,1.3039132551963002,0.9818324646435923,0.28622329920593614,0.7054742771555756
0.065,1.7416116811576454,1.0,3155.759664987344,0.5186981336198858,1.303642384536326,0.9820051914523591,0.2862006906086211,0.7059990507432841
0.0655,1.7410733812215735,1.0,3159.0183998700286,0.5213978627732803,1.3033717408043015,0.9821743415494492,0.28617808201130607,0.7065229173513001
0.066,1.7405350812855014,1.0,3162.2525429375364,0.5240824599880104,1.3031013189459824,0.9823400143519729,0.28615547341399106,0.7070458879247636
0.0665,1.7399967813494295,1.0,3165.4626526811744,0.5267520063163742,1.302831113907125,0.9825023058013954,0.28613286481667605,0.7075679733729909
0.067,1.7394584814133576,1.0,3168.649289124635,0.5294065828106698,1.3025611206334857,0.9826613085096999,0.28611025621936104,0.708089184569545
0.0675,1.7389201814772854,1.0,3171.8130138000174,0.5320462705231952,1.3022913340708206,0.9828171118984126,0.28608764762204597,0.7086095323523072
0.068,1.7383818815412135,1.0,3174.954389724558,0.5346711505062485,1.3020217491648862,0.9829698023308855,0.28606503902473096,0.7091290275235413
0.0685,1.7378435816051414,1.0,3178.073981377358,0.5372813038121276,1.3017523608614385,0.9831194632382051,0.28604243042741595,0.7096476808499623
0.069,1.7373052816690695,1.0,3181.172354677249,0.5398768114931307,1.301483164106234,0.983266175239081,0.2860198218301009,0.7101655030627982
0.0695,1.7367669817329976,1.0,3184.250076961398,0.5424577546015558,1.3012141538450288,0.9834100162540379,0.28599721323278593,0.7106825048578549
0.07,1.7362286817969255,1.0,3187.3077169633784,0.5450242141897009,1.300945325023579,0.9835510616142183,0.28597460463547086,0.7111986968955754
