Time [s],Phi [rad],STIM [ ],Fsee [N],Gamma [ ],Lcerel [ ],q [ ],Lmtc [m],fisomrel [ ]
0.0,1.8,1.0,17.96744103338091,1.0095674004648227e-05,1.3793397145294162,0.005000027162145336,0.288653,0.5411396077191998
0.0005,1.79999375,1.0,18.276779017883428,0.005619248354051853,1.379302383915926,0.012940779556747179,0.2886527375,0.5412299156750495
0.001,1.799975,1.0,21.618454076248362,0.011196938122485994,1.3789382947070123,0.03560907500342784,0.28865195,0.5421102321573388
0.0015,1.79994375,1.0,31.06936646656405,0.016743341462225073,1.3780461926140477,0.07060238736201582,0.2886506375,0.5442636360013468
0.002,1.7999,1.0,53.58255663349297,0.02225863386453706,1.376368120736484,0.11471864459775641,0.2886488,0.5483005028484931
0.0025,1.79984375,1.0,97.11911522234827,0.027742989836601503,1.373935158702608,0.1645755530922773,0.28864643749999996,0.5541214830550234
0.003,1.7997750000000001,1.0,160.9584852062601,0.03319658290922842,1.3712143318388095,0.21728113457747933,0.28864354999999997,0.5605864790735531
0.0035,1.79969375,1.0,237.68373573637862,0.03861958563644849,1.3685847217829334,0.2706135648538819,0.2886401375,0.5667898688399157
0.004,1.7996,1.0,321.4672478688104,0.044012169606295636,1.3661560797747132,0.3229164562463305,0.2886362,0.5724799912117788
0.0045000000000000005,1.7994937500000001,1.0,409.2682983115537,0.049374505445991396,1.3639228013141478,0.37303512899120356,0.2886317375,0.5776791922310693
0.005,1.799375,1.0,499.41409596241266,0.05470676281303401,1.36185832977123,0.4202480425545028,0.28862675,0.5824571083392087
0.0055,1.79924375,1.0,590.7910473573132,0.06000911044267201,1.3599388227250409,0.46417423750898185,0.2886212375,0.5868751399722947
0.006,1.7991000000000001,1.0,682.5187638469683,0.06528171609104186,1.3581464028318118,0.5046804584792386,0.2886152,0.5909794455951327
0.006500000000000001,1.79894375,1.0,773.8820131800345,0.07052474659078566,1.3564672407234886,0.5418012142963662,0.2886086375,0.5948058236319593
0.007,1.798775,1.0,864.2865128576562,0.07573836783465007,1.3548903836624109,0.5756771965279983,0.28860155,0.5983827027549324
0.0075,1.79859375,1.0,953.2439975875283,0.08092274478521795,1.3534067671604584,0.6065102943565212,0.2885939375,0.6017335998890101
0.008,1.7984,1.0,1040.3458533597777,0.08607804108944259,1.3520088318729095,0.6345325199253613,0.2885858,0.6048781322814722
0.0085,1.79819375,1.0,1125.3160224704297,0.09120442082622954,1.3506892160885198,0.659984742857477,0.2885771375,0.6078350565026132
0.009000000000000001,1.797975,1.0,1207.9010279483211,0.0963020459144376,1.3494420234723166,0.683104481960103,0.28856795,0.6106194905343525
0.0095,1.79774375,1.0,1287.8922538631177,0.10137107690991679,1.3482621231663652,0.7041177469366615,0.2885582375,0.6132445585703301
0.01,1.7975,1.0,1365.1671244659074,0.10641167436851716,1.3471443843127309,0.7232344727382113,0.288548,0.6157231391585938
0.0105,1.79724375,1.0,1439.660686707683,0.11142399820716228,1.3460839315247868,0.7406468769366068,0.2885372375,0.6180673225138607
0.011,1.796975,1.0,1511.3235447440093,0.11640820717545391,1.3450765373897011,0.7565293254885137,0.28852595000000003,0.6202875744360147
0.0115,1.79669375,1.0,1580.1215541419606,0.1213644584542763,1.344118476587491,0.7710387945170158,0.2885141375,0.6223930933389811
0.012,1.7964,1.0,1646.0562602353548,0.12629290863287596,1.3432061737424712,0.7843157654130435,0.28850180000000003,0.6243926093911119
0.0125,1.79609375,1.0,1709.1736999209488,0.13119371474095734,1.342336037949862,0.7964854859262323,0.2884889375,0.6262947612270112
0.013000000000000001,1.7957750000000001,1.0,1769.5072158887913,0.13606703156533498,1.3415050652850127,0.8076596359582681,0.28847555,0.6281067933184925
0.0135,1.79544375,1.0,1827.0927011466333,0.14091301249961408,1.3407105820489928,0.8179375964086179,0.2884616375,0.6298351380096828
0.014,1.7951000000000001,1.0,1881.9936641130735,0.14573181093739992,1.3399499145428713,0.8274076511796582,0.2884472,0.6314861466909902
0.0145,1.79474375,1.0,1934.2814727155321,0.15052357938188377,1.3392205762698886,0.8361483017653583,0.2884322375,0.6330656908007803
0.015,1.794375,1.0,1984.0523110695642,0.1552884707929832,1.3385200512417303,0.8442293182535743,0.28841675,0.634579639372756
0.0155,1.79399375,1.0,2031.373388718436,0.16002663512702064,1.3378463417106516,0.8517129377812008,0.2884007375,0.6360326830125307
0.016,1.7936,1.0,2076.3150723963718,0.1647382215938194,1.3371975857613674,0.8586546243748959,0.2883842,0.6374291714180653
0.0165,1.7931937500000001,1.0,2118.9619931276484,0.1694233794032027,1.3365719214785916,0.8651038286159694,0.2883671375,0.6387734109445433
0.017,1.792775,1.0,2159.399009520249,0.1740822567376695,1.3359676178762077,0.8711047376998502,0.28834955,0.6400693869215132
0.0175,1.7923437500000001,1.0,2197.7259455462863,0.17871500257915363,1.335382908243812,0.8766968503312944,0.2883314375,0.6413211251847029
0.018000000000000002,1.7919,1.0,2234.0181955047624,0.183321762740757,1.3348163773323816,0.8819156296451932,0.2883128,0.6425318669324627
0.0185,1.79144375,1.0,2268.349381498448,0.18790268211855563,1.3342667125600127,0.8867929061691868,0.2882936375,0.6437046073798528
0.019,1.790975,1.0,2300.8006311141285,0.19245790560862552,1.3337326013448014,0.8913572719878068,0.28827395,0.6448423176008669
0.0195,1.79049375,1.0,2331.4542666879406,0.19698757734460934,1.3332127869155483,0.8956344652648086,0.2882537375,0.6459478272830784
0.02,1.79,1.0,2360.3954846155048,0.20149184168836753,1.3327060443373109,0.8996476888574534,0.288233,0.6470238777468729
0.0205,1.78949375,1.0,2387.704501998836,0.20597084204695149,1.3322112506902908,0.903417909631843,0.2882117375,0.6480729748558443
0.021,1.788975,1.0,2413.4434209509864,0.2104247186696464,1.3317275045620283,0.9069641302314926,0.28818995000000003,0.6490971387661018
0.021500000000000002,1.78844375,1.0,2437.678259853094,0.21485361180573748,1.331253904540064,0.9103035572483998,0.2881676375,0.650098376042609
0.022,1.7879,1.0,2460.478628747713,0.21925766170450986,1.330789549211938,0.9134517957361113,0.2881448,0.6510786802683766
0.0225,1.78734375,1.0,2481.9130775890044,0.22363700782706722,1.3303335785841806,0.9164230282358066,0.28812143749999997,0.6520399453436512
0.023,1.786775,1.0,2502.0479925041022,0.227991789133296,1.3298851809859333,0.9192301661048145,0.28809755,0.65298395205956
0.0235,1.78619375,1.0,2520.9580258559554,0.23232214585126754,1.3294434910596271,0.9218849632864119,0.28807313749999996,0.6539125835409612
0.024,1.7856,1.0,2538.6926407283754,0.23662821311748097,1.3290079038461518,0.9243981895592838,0.2880482,0.654827165837887
0.0245,1.78499375,1.0,2555.303148865303,0.2409101260684356,1.3285778143863964,0.926779685029413,0.2880227375,0.6557290175161314
0.025,1.784375,1.0,2570.842557155436,0.24516801984063052,1.3281526177212513,0.9290384531332204,0.28799675,0.6566194498810278
0.025500000000000002,1.78374375,1.0,2585.365422231347,0.24940202957056504,1.3277317088916052,0.9311827432062156,0.2879702375,0.6574997671778959
0.026000000000000002,1.7831000000000001,1.0,2598.9223682263273,0.25361228914421596,1.3273145327274898,0.9332201314541573,0.2879432,0.6583711628360492
0.0265,1.78244375,1.0,2611.563060573601,0.25779893249151864,1.326900554409824,0.9351575812664356,0.2879156375,0.6592347816535387
0.027,1.781775,1.0,2623.345465963075,0.26196209483793875,1.3264891723475123,0.9370014881700588,0.28788755,0.6600919015938662
0.0275,1.7810937500000001,1.0,2634.306338367856,0.2661019058576741,1.3260799910070609,0.9387577716053467,0.2878589375,0.6609433656404181
0.028,1.7804,1.0,2644.483211433157,0.2702184952249226,1.325672614854976,0.9404318898730223,0.2878298,0.6617900125431202
0.0285,1.77969375,1.0,2653.91433140586,0.2743119926138819,1.3252666483577642,0.9420288821087832,0.2878001375,0.6626326768689623
0.029,1.778975,1.0,2662.638593532293,0.2783825276987498,1.324861695981932,0.9435534059311028,0.28776995,0.6634721890425472
0.029500000000000002,1.7782437500000001,1.0,2670.695481924919,0.2824302301537243,1.3244573621939852,0.9450097712553583,0.2877392375,0.6643093753766616
0.03,1.7775,1.0,2678.118961260611,0.2864552268807853,1.3240533069926528,0.9464019771624447,0.287708,0.6651449433262933
0.0305,1.77674375,1.0,2684.9492737995047,0.2904576487203034,1.3236491369514205,0.9477337266394861,0.2876762375,0.6659797071128848
0.031,1.775975,1.0,2691.216667931882,0.2944376219140002,1.3232445540823308,0.9490084681111399,0.28764395,0.6668142801534285
0.0315,1.7751937500000001,1.0,2696.947605604438,0.2983952707102643,1.3228392981392934,0.9502294102698953,0.2876111375,0.6676491950794914
0.032,1.7744,1.0,2702.1688401038573,0.302330719357484,1.322433108876218,0.9513995379170774,0.2875778,0.6684849818253091
0.0325,1.77359375,1.0,2706.907388118768,0.30624409210404785,1.3220257260470145,0.9525216303276592,0.2875439375,0.6693221676144552
0.033,1.772775,1.0,2711.1905033026173,0.31013551319834426,1.3216168894055924,0.9535982778972769,0.28750955,0.6701612769421905
0.0335,1.7719437500000002,1.0,2715.044358197885,0.31400510679576865,1.3212063504912739,0.9546318985745451,0.2874746375,0.6710028074109595
0.034,1.7711000000000001,1.0,2718.4934594623924,0.3178529953482931,1.3207938777040504,0.9556247515956865,0.2874392,0.6718472194757612
0.0345,1.7702437500000001,1.0,2721.579244865956,0.3216793011655246,1.3203790867797565,0.9565789316376859,0.2874032375,0.6726952830171214
0.035,1.7693750000000001,1.0,2724.3022818767768,0.32548414429901396,1.3199619668982479,0.9574964380174642,0.28736675,0.6735470017174889
0.035500000000000004,1.7684976590190715,1.0,2726.8573336253203,0.3292676448003116,1.3195425072393796,0.958379142219003,0.287329901678801,0.6744023790407241
0.036000000000000004,1.767620044638768,1.0,2729.6586032267674,0.3330299227209682,1.3191206969830078,0.9592287975363041,0.28729304187482824,0.6752614182304825
0.0365,1.7667424302584644,1.0,2732.7070488457566,0.33677109699921015,1.3186966543228746,0.9600470607382068,0.2872561820708555,0.6761238600873921
0.037,1.7658648158781611,1.0,2735.9662460693435,0.3404912871781717,1.3182707136848466,0.9608355080164405,0.28721932226688274,0.6769890076866658
0.0375,1.7649872014978576,1.0,2739.4170072005536,0.3441906099754216,1.3178430525518459,0.9615956031944283,0.28718246246291,0.677856485792489
0.038,1.764109587117554,1.0,2743.0403205203556,0.3478691820432137,1.3174138465556207,0.9623287216508863,0.2871456026589373,0.6787259247919799
0.0385,1.7632319727372505,1.0,2746.817140266258,0.35152712003380143,1.3169832713279201,0.9630361568208711,0.2871087428549645,0.6795969569459508
0.039,1.7623543583569472,1.0,2750.7327176615336,0.3551645381507281,1.3165514632339204,0.9637191218539051,0.2870718830509918,0.6804692956774999
0.0395,1.7614767439766437,1.0,2754.765457196916,0.35878155559311187,1.316118620297434,0.9643787659240294,0.287035023247019,0.6813425315728532
0.04,1.7605991295963401,1.0,2758.9037970407935,0.36237828553608037,1.3156848493210076,0.9650161627445027,0.2869981634430463,0.6822164410369029
0.0405,1.7597215152160368,1.0,2763.137262226569,0.36595484047059124,1.3152502470239806,0.9656323240301667,0.2869613036390736,0.6830908219110944
0.041,1.7588439008357333,1.0,2767.4553499432895,0.3695113328876021,1.314814910125693,0.9662282046899212,0.2869244438351008,0.6839654730948721
0.0415,1.7579662864554297,1.0,2771.847527856887,0.3730478752780703,1.314378935345484,0.9668047066120846,0.286887584031128,0.6848401945505103
0.042,1.7570886720751264,1.0,2776.303232638328,0.3765645801329536,1.3139424194026934,0.9673626821599569,0.2868507242271553,0.6857147873073449
0.0425,1.7562110576948229,1.0,2780.8168039858933,0.3800615534021113,1.3135054145725984,0.9679029326679198,0.2868138644231826,0.6865891423267322
0.043000000000000003,1.7553334433145193,1.0,2785.3758865890272,0.3835389120146858,1.3130680332178095,0.9684262231247807,0.2867770046192098,0.6874630311770807
0.043500000000000004,1.754455828934216,1.0,2789.969358105418,0.3869967720935182,1.3126303762585796,0.9689332767765737,0.2867401448152371,0.6883362494911319
0.044,1.7535782145539125,1.0,2794.593226143407,0.3904352400152041,1.31219248023946,0.9694247722617703,0.2867032850112643,0.6892087222000458
0.0445,1.752700600173609,1.0,2799.243485265566,0.39385442215633926,1.3117543817050026,0.9699013529847832,0.2866664252072916,0.6900803746420012
0.045,1.7518229857933054,1.0,2803.9161168097758,0.39725442489351936,1.3113161171997587,0.9703636292930514,0.28662956540331885,0.6909511325627108
0.0455,1.750945371413002,1.0,2808.6070887397423,0.40063535460334015,1.3108777232682802,0.9708121804991448,0.2865927055993461,0.69182092211585
0.046,1.7500677570326986,1.0,2813.312355525987,0.40399731766239727,1.3104392364551185,0.9712475567603318,0.28655584579537335,0.6926896698634025
0.0465,1.749190142652395,1.0,2818.0278580547915,0.40734042044728647,1.3100006933048254,0.9716702808269316,0.2865189859914006,0.6935573027759171
0.047,1.7483125282720917,1.0,2822.749523568673,0.4106647693346034,1.3095621303619525,0.9720808496697778,0.28648212618742785,0.6944237482326836
0.0475,1.7474349138917882,1.0,2827.4732656349443,0.41397047070094384,1.3091235841710511,0.9724797359962212,0.28644526638345513,0.6952889340218211
0.048,1.7465572995114846,1.0,2832.1949841446844,0.41725763092290347,1.3086850912766732,0.9728673896632861,0.28640840657948236,0.6961527883402805
0.0485,1.7456796851311813,1.0,2836.915129890711,0.4205263401799188,1.3082466475263792,0.9732442341717474,0.28637154677550963,0.697015319798304
0.049,1.7448020707508778,1.0,2841.6273486602045,0.4237767220465912,1.3078083094039417,0.9736106812240723,0.28633468697153686,0.6978764179269366
0.0495,1.7439244563705742,1.0,2846.3296164113112,0.4270088801705764,1.3073700946629694,0.9739671181369459,0.28629782716756413,0.6987360488101952
0.05,1.743046841990271,1.0,2851.021032893424,0.43022291349105735,1.306932011004484,0.9743139130203297,0.28626096736359136,0.6995941984079825
0.0505,1.7421692276099674,1.0,2855.7006951153044,0.4334189209472172,1.3064940661295068,0.9746514170702476,0.28622410755961863,0.7004508527659488
0.051000000000000004,1.7412916132296639,1.0,2860.3676973675165,0.43659700147823877,1.3060562677390588,0.974979965497268,0.28618724775564586,0.7013059980154259
0.051500000000000004,1.7404139988493603,1.0,2865.021131247555,0.4397572540233053,1.3056186235341614,0.9752998783960704,0.28615038795167314,0.7021596203733564
0.052000000000000005,1.739536384469057,1.0,2869.660085684639,0.44289977752159976,1.3051811412158358,0.9756114615603233,0.2861135281477004,0.7030117061422196
0.0525,1.7386587700887535,1.0,2874.283646967268,0.44602467091230513,1.3047438284851038,0.975915007246764,0.28607666834372764,0.7038622417099542
0.053,1.7377811557084502,1.0,2878.8908987715863,0.44913203313460454,1.304306693042986,0.9762107948920603,0.2860398085397549,0.7047112135498783
0.0535,1.7369035413281466,1.0,2883.480922190492,0.4522219631276809,1.3038697425905044,0.9764990917857553,0.28600294873578214,0.7055586082206016
0.054,1.736025926947843,1.0,2888.0527957651743,0.4552945598307174,1.3034329848286799,0.9767801537023392,0.2859660889318094,0.706404412365938
0.0545,1.7351483125675395,1.0,2892.605595516745,0.45834992218289705,1.3029964274585337,0.9770542254952591,0.28592922912783664,0.7072486127148135
0.055,1.7342706981872362,1.0,2897.1386869765283,0.4613881430556503,1.3025600756048856,0.9773215409220036,0.2858923693238639,0.7080912010521871
0.0555,1.7333930838069327,1.0,2901.6534064807815,0.4644092852589747,1.3021239170046175,0.9775823201047172,0.28585550951989114,0.7089322027225351
0.056,1.7325154694266292,1.0,2906.1469990775627,0.46741350323833086,1.3016879754753523,0.9778367846662339,0.2858186497159184,0.7097715735127017
0.0565,1.7316378550463258,1.0,2910.6195657351673,0.4704008869041692,1.301252249625067,0.9780851396400054,0.2857817899119457,0.7106093179076415
0.057,1.7307602406660223,1.0,2915.071208218807,0.47337152616693984,1.3008167380617381,0.9783275817031584,0.2857449301079729,0.7114454403759427
0.0575,1.7298826262857188,1.0,2919.502029084212,0.476325510937093,1.3003814393933433,0.9785642995847205,0.2857080703040002,0.7122799453698445
0.058,1.7290050119054154,1.0,2923.9121316705973,0.47926293112507906,1.2999463522278587,0.9787954744507329,0.2856712105000274,0.7131128373252593
0.0585,1.728127397525112,1.0,2928.3016200945544,0.4821838766413482,1.299511475173262,0.9790212802677363,0.2856343506960547,0.7139441206617874
0.059000000000000004,1.7272497831448084,1.0,2932.670599243276,0.48508843739635066,1.2990768068375294,0.9792418841460067,0.285597490892082,0.7147737997827397
0.059500000000000004,1.726372168764505,1.0,2937.019174767953,0.4879767033005367,1.2986423458286382,0.9794574466638181,0.2855606310881092,0.7156018790751533
0.06,1.7254945543842015,1.0,2941.3474530779345,0.4908487642643566,1.2982080907545654,0.9796681221739246,0.2855237712841365,0.7164283629098114
0.0605,1.724616940003898,1.0,2945.655541333637,0.49370471019826057,1.2977740402232878,0.9798740590933636,0.2854869114801637,0.7172532556412621
0.061,1.7237393256235944,1.0,2949.943547440819,0.49654463101269886,1.2973401928427821,0.9800754001776114,0.285450051676191,0.7180765616078353
0.0615,1.7228617112432911,1.0,2954.2115800438537,0.49936861661812176,1.2969065472210257,0.9802722827800531,0.28541319187221825,0.7188982851316608
0.062,1.7219840968629876,1.0,2958.459748519574,0.5021767569249795,1.2964731019659952,0.9804648390976517,0.2853763320682455,0.7197184305186882
0.0625,1.721106482482684,1.0,2962.6881629713466,0.5049691418437223,1.2960398556856676,0.9806531964036574,0.2853394722642727,0.7205370020587025
0.063,1.7202288681023807,1.0,2966.8969342227024,0.5077458612848006,1.2956068069880198,0.9808374772681262,0.2853026124603,0.7213540040253432
0.0635,1.7193512537220772,1.0,2971.086173811012,0.5105070051586643,1.2951739544810288,0.9810177997669781,0.28526575265632725,0.722169440676121
0.064,1.7184736393417737,1.0,2975.2559939816833,0.5132526633757639,1.2947412967726715,0.9811942776802683,0.2852288928523545,0.7229833162524363
0.0645,1.7175960249614703,1.0,2979.4065076822635,0.5159829258465497,1.2943088324709247,0.9813670206803017,0.28519203304838175,0.7237956349795958
0.065,1.7167184105811668,1.0,2983.5377644834484,0.5186978251975701,1.2938765607408136,0.9815361305506162,0.285155173244409,0.7246064000228026
0.0655,1.7158407962008633,1.0,2987.6504163238533,0.521397510430533,1.2934444755184227,0.9817017132698299,0.28511831344043626,0.7254156243230798
0.066,1.71496318182056,1.0,2991.7447278502254,0.5240820743618314,1.2930125741210847,0.9818638673532908,0.28508145363646353,0.7262233144353821
0.0665,1.7140855674402564,1.0,2995.820914608421,0.5267515970110096,1.2925808543014516,0.9820226870287417,0.28504459383249076,0.7270294760721707
0.067,1.7132079530599529,1.0,2999.8791930707316,0.529406158397612,1.2921493138121751,0.9821782632612828,0.28500773402851803,0.7278341149205205
0.0675,1.7123303386796493,1.0,3003.9197806263137,0.5320458385411826,1.2917179504059075,0.9823306838894386,0.28497087422454526,0.7286372366421444
0.068,1.711452724299346,1.0,3007.942895573027,0.5346707174612657,1.2912867618353006,0.9824800337546289,0.28493401442057253,0.7294388468734212
0.0685,1.7105751099190425,1.0,3011.948757108189,0.5372808751774057,1.290855745853006,0.9826263948244148,0.2848971546165998,0.7302389512254195
0.069,1.709697495538739,1.0,3015.9375853199513,0.5398763917091468,1.2904249002116759,0.982769846309852,0.28486029481262704,0.7310375552839226
0.0695,1.7088198811584356,1.0,3019.9096011791007,0.5424573470760331,1.289994222663962,0.9829104647772791,0.2848234350086543,0.7318346646094529
0.07,1.707942266778132,1.0,3023.865026530111,0.5450238212976091,1.2895637109625167,0.9830483242548339,0.28478657520468154,0.7326302847372963
0.07050000000000001,1.7070646523978286,1.0,3027.804084083377,0.5475758943934189,1.2891333628599912,0.9831834963339874,0.2847497154007088,0.7334244211775276
0.07100000000000001,1.7061870380175252,1.0,3031.7269974066235,0.5501136463830067,1.2887031761090377,0.9833160502663534,0.2847128555967361,0.7342170794150318
