Time [s],Phi [rad],STIM [ ],Fsee [N],Gamma [ ],Lcerel [ ],q [ ],Lmtc [m],fisomrel [ ]
0.0,1.8,1.0,17.96749250981497,1.0000278728584004e-05,1.3793397087623835,0.00500002665324997,0.288653,0.5411396216711417
0.0005,1.79999375,1.0,18.27679360523292,0.005619153493867792,1.3793023822955575,0.012940514614177487,0.2886527375,0.5412299195947538
0.001,1.799975,1.0,21.618394770326223,0.011196843794392583,1.3789383007642335,0.03560857757042329,0.28865195,0.5421102175188626
0.0015,1.79994375,1.0,31.069155955289695,0.01674324766323762,1.3780462105488782,0.07060170630052223,0.2886506375,0.5442635927603101
0.002,1.7999,1.0,53.5820456670161,0.022258540591687862,1.3763681538853827,0.11471783793648198,0.2886488,0.5483004232809595
0.0025,1.79984375,1.0,97.11821941043726,0.027742897086939174,1.373935201869706,0.1645746755306716,0.28864643749999996,0.5541213801105301
0.003,1.7997750000000001,1.0,160.95729959977254,0.03319649067981837,1.3712143762172264,0.21728022929119306,0.28864354999999997,0.5605863740103811
0.0035,1.79969375,1.0,237.68238470384776,0.03861949392437259,1.368584763398333,0.27061266448977517,0.2886401375,0.5667897710159275
0.004,1.7996,1.0,321.46580302640075,0.04401207840865201,1.3661561180430848,0.3229155844799712,0.2886362,0.5724799018482736
0.0045000000000000005,1.7994937500000001,1.0,409.26679674918967,0.049374414759894236,1.3639228365615486,0.3730343014804274,0.2886317375,0.5776791104240957
0.005,1.799375,1.0,499.41255953118497,0.05470667263561291,1.3618583624202718,0.4202472683784128,0.28862675,0.5824570329927271
0.0055,1.79924375,1.0,590.7894939064195,0.06000902077107702,1.359938853075708,0.46417352076129875,0.2886212375,0.5868750703014793
0.006,1.7991000000000001,1.0,682.5172053167252,0.06528162692243444,1.358146431161746,0.5046797998164522,0.2886152,0.5909793808868138
0.006500000000000001,1.79894375,1.0,773.880459975373,0.07052465792234368,1.3564672672377114,0.5418006120907836,0.2886086375,0.5948057633548408
0.007,1.798775,1.0,864.2849797256971,0.07573827966356612,1.3548904084274056,0.575676647711529,0.28860155,0.5983826467035371
0.0075,1.79859375,1.0,953.2424914177003,0.08092265710870072,1.3534067903269067,0.6065097951922317,0.2885939375,0.6017335476748528
0.008,1.7984,1.0,1040.344071958223,0.0860779538908513,1.3520088581006284,0.6345320690055442,0.2885858,0.6048780734014402
0.0085,1.79819375,1.0,1125.3141941215847,0.09120433411345226,1.3506892419712069,0.6599843339564034,0.2885771375,0.6078349986149882
0.009000000000000001,1.797975,1.0,1207.899774650214,0.09630195970783667,1.349442040597144,0.6831041064278143,0.28856795,0.6106194523702297
0.0095,1.79774375,1.0,1287.8916068133774,0.10137099120366311,1.3482621317285646,0.7041174014068862,0.2885582375,0.6132445395531758
0.01,1.7975,1.0,1365.1664395623393,0.1064115891305902,1.3471443931155942,0.7232341585139481,0.288548,0.6157231196696613
0.0105,1.79724375,1.0,1439.6591397818272,0.1114239134345928,1.3460839508857483,0.7406465959717358,0.2885372375,0.6180672797809661
0.011,1.796975,1.0,1511.322059772073,0.11640812287833624,1.3450765555292719,0.7565290688866003,0.28852595000000003,0.6202875345154764
0.0115,1.79669375,1.0,1580.1206288392261,0.12136437463998999,1.3441184876416583,0.7710385570822994,0.2885141375,0.6223930690791386
0.012,1.7964,1.0,1646.0563728760012,0.1262928253489724,1.3432061724240318,0.7843155429085975,0.28850180000000003,0.6243926122769315
0.0125,1.79609375,1.0,1709.1734726066275,0.131193631897912,1.3423360405609475,0.7964852833845062,0.2884889375,0.6262947555263181
0.013000000000000001,1.7957750000000001,1.0,1769.506461367962,0.13606694913129647,1.3415050738029115,0.8076594521462774,0.28847555,0.6281067747667983
0.0135,1.79544375,1.0,1827.091598437522,0.14091293049054718,1.340710594299896,0.8179374287097545,0.2884616375,0.6298351113897056
0.014,1.7951000000000001,1.0,1881.9927817365938,0.14573172941708554,1.3399499242018738,0.8274074958103002,0.2884472,0.6314861257498097
0.0145,1.79474375,1.0,1934.2781032504236,0.1505234983478622,1.3392206126520663,0.8361481679925153,0.2884322375,0.6330656120916991
0.015,1.794375,1.0,1984.0491266973822,0.15528839029747155,1.3385200851913424,0.8442291942432202,0.28841675,0.6345795660779538
0.0155,1.79399375,1.0,2031.369544512416,0.16002655503034569,1.3378463822147864,0.8517128253289679,0.2884007375,0.6360325957410092
0.016,1.7936,1.0,2076.310425291765,0.1647381418688949,1.3371976341923681,0.8586545228323084,0.2883842,0.6374290672674423
0.0165,1.7931937500000001,1.0,2118.9571352595294,0.16942330013552953,1.3365719715940563,0.865103735230465,0.2883671375,0.6387733033714598
0.017,1.792775,1.0,2159.390946610945,0.17408217799177592,1.3359677002735322,0.8711046608059347,0.28834955,0.6400692103728127
0.0175,1.7923437500000001,1.0,2197.718006254082,0.1787149243988364,1.3353829886672783,0.8766967789533714,0.2883314375,0.6413209531651922
0.018000000000000002,1.7919,1.0,2234.010569859986,0.18332168489229125,1.334816453948645,0.8819155625033197,0.2883128,0.6425317033330834
0.0185,1.79144375,1.0,2268.342825431919,0.18790260455154606,1.334266777929649,0.8867928408600733,0.2882936375,0.6437044680246513
0.019,1.790975,1.0,2300.7964819942536,0.19245782845600656,1.333732642422307,0.8913572051261116,0.28827395,0.6448422301716343
0.0195,1.79049375,1.0,2331.4515115199883,0.19698750056584996,1.3332128140126058,0.895634399371053,0.2882537375,0.6459477696996192
0.02,1.79,1.0,2360.3968812978505,0.20149176597330062,1.3327060306854275,0.8996476180792637,0.288233,0.6470239067141179
0.0205,1.78949375,1.0,2387.703464506435,0.20597076668405723,1.3322112607731116,0.9034178483755161,0.2882117375,0.64807295349343
0.021,1.788975,1.0,2413.4368780829886,0.21042464332728972,1.3317275678086409,0.9069640840849745,0.28818995000000003,0.6490970049609808
0.021500000000000002,1.78844375,1.0,2437.666741748884,0.21485353653216804,1.331254015324998,0.9103035240419785,0.2881676375,0.6500981419995725
0.022,1.7879,1.0,2460.4663405324245,0.21925758692786218,1.330789666855166,0.9134517664795995,0.2881448,0.6510784320849755
0.0225,1.78734375,1.0,2481.8981524156034,0.22363693260581924,1.3303337208544432,0.9164230055698894,0.28812143749999997,0.6520396456200854
0.023,1.786775,1.0,2502.044595368732,0.22799171601042473,1.3298852132376293,0.9192301249820923,0.28809755,0.6529838842065174
0.0235,1.78619375,1.0,2520.95941824298,0.23232207358182771,1.329443477890273,0.9218849161859419,0.28807313749999996,0.6539126112103354
0.024,1.7856,1.0,2538.6942174967467,0.23662814092384246,1.3290078889850794,0.9243981443699687,0.2880482,0.6548271970203499
0.0245,1.78499375,1.0,2555.3024773591233,0.2409100536402832,1.3285778206947525,0.9267796455298458,0.2880227375,0.6557290042968338
0.025,1.784375,1.0,2570.8394105567345,0.24516794733496416,1.3281526471919973,0.9290384194209812,0.28799675,0.6566193882043512
0.025500000000000002,1.78374375,1.0,2585.3618077246856,0.2494019576116996,1.3277317426495185,0.9311827120818312,0.2879702375,0.6574996966196102
0.026000000000000002,1.7831000000000001,1.0,2598.9179247657266,0.25361221636090686,1.3273145741190926,0.9332201026299678,0.2879432,0.6583710764325161
0.0265,1.78244375,1.0,2611.568973249963,0.25779886205100455,1.3269004994657343,0.935157539496463,0.2879156375,0.6592348962023389
0.027,1.781775,1.0,2623.354790146451,0.26196202551061337,1.3264890858965057,0.9370014436152402,0.28788755,0.6600920816022453
0.0275,1.7810937500000001,1.0,2634.3141156733036,0.2661018368044752,1.3260799190483996,0.9387577309924833,0.2878589375,0.660943515285042
0.028,1.7804,1.0,2644.4864922092797,0.2702184259973321,1.325672584558408,0.9404318568179378,0.2878298,0.6617900754688985
0.0285,1.77969375,1.0,2653.9121936940614,0.27431192315392594,1.3252666680635232,0.9420288574075534,0.2878001375,0.662632635991243
0.029,1.778975,1.0,2662.6321588351107,0.2783824583389988,1.3248617552007373,0.9435533878225515,0.28776995,0.6634720663517099
0.029500000000000002,1.7782437500000001,1.0,2670.6849835310863,0.28243016003020094,1.3244574586653628,0.9450097587857967,0.2877392375,0.6643091757538725
0.03,1.7775,1.0,2678.1023902321317,0.28645515362188334,1.3240534590553126,0.9464019716823042,0.287708,0.6651446290634148
0.0305,1.77674375,1.0,2684.93464577261,0.29045757632857205,1.3236492710134153,0.9477337195817701,0.2876762375,0.6659794303969542
0.031,1.775975,1.0,2691.206648727504,0.2944375517365617,1.3232446457986646,0.9490084568596571,0.28764395,0.6668140910793874
0.0315,1.7751937500000001,1.0,2696.943610690487,0.29839520343214687,1.3228393346700535,0.9502293935964539,0.2876111375,0.6676491198654246
0.032,1.7744,1.0,2702.1710282381177,0.30233065500162215,1.3224330888865758,0.9513995158727498,0.2875778,0.6684850229306808
0.0325,1.77359375,1.0,2706.914656265738,0.3062440300312821,1.3220256597072249,0.9525216041433122,0.2875439375,0.6693223038588221
0.033,1.772775,1.0,2711.200482695003,0.31013545210742144,1.3216167983909937,0.9535982498925878,0.28750955,0.670161463624767
0.0335,1.7719437500000002,1.0,2715.054704553273,0.3140050448163347,1.3212062561968763,0.9546318707507351,0.2874746375,0.6710030005739371
0.034,1.7711000000000001,1.0,2718.5037054250015,0.31785293174431645,1.3207937843838657,0.9556247242288542,0.2874392,0.6718474103975697
0.0345,1.7702437500000001,1.0,2721.572243532273,0.32167923475815774,1.3203791505118145,0.956578921563177,0.2874032375,0.6726951527976024
0.035,1.7693750000000001,1.0,2724.279867967207,0.32548407153210673,1.3199621708268956,0.957496441858715,0.28736675,0.6735465855859072
0.035500000000000004,1.76849375,1.0,2726.65666005883,0.32926757259691697,1.3195425668400436,0.958379131090929,0.2873297375,0.6744022575806005
0.036000000000000004,1.7676,1.0,2728.717811428582,0.3330298546238152,1.31912019649593,0.9592287297825558,0.2872922,0.675262436825252
0.0365,1.76669375,1.0,2730.478594291025,0.33677103428402816,1.318694917739227,0.9600468700929694,0.2872541375,0.676127389691286
0.037,1.765775,1.0,2731.954352610488,0.3404912282487828,1.3182665885146063,0.9608350837847461,0.28721555,0.6769973808522777
0.0375,1.76484375,1.0,2733.1604937051375,0.34419055318930586,1.3178350667667398,0.9615948095190422,0.2871764375,0.6778726732569581
0.038,1.7639,1.0,2734.1124802983804,0.3478691257768241,1.3174002104402995,0.9623273995431337,0.28713679999999997,0.6787535281009361
0.0385,1.76294375,1.0,2734.825823018093,0.35152706268256434,1.3169618774799572,0.963034125826874,0.28709663750000003,0.679640204797132
0.039,1.761975,1.0,2735.3160733424625,0.35516448057775335,1.3165199258303848,0.9637161856989985,0.28705595,0.6805329609449227
0.0395,1.7609937500000001,1.0,2735.5988169943034,0.3587814961336179,1.3160742134362542,0.9643747070290009,0.2870147375,0.6814320522980013
0.04,1.76,1.0,2735.6793409636985,0.3623782118493846,1.3156246920029502,0.9650107587676979,0.286973,0.6823375439988612
0.0405,1.7589937500000001,1.0,2735.5818997710817,0.3659547590221065,1.3151711412296996,0.9656253393327192,0.2869307375,0.6832498460968393
0.041,1.757975,1.0,2735.318993981111,0.36951125286440456,1.3147134476982256,0.9662193975123035,0.28688795,0.6841691512688017
0.0415,1.75694375,1.0,2734.898785114658,0.37304780243812613,1.3142515375132076,0.9667938317694917,0.2868446375,0.685095571334774
0.042,1.7559,1.0,2734.3294462454405,0.37656451680511854,1.3137853367793249,0.9673494912794148,0.28680079999999997,0.6860292169077988
0.0425,1.75484375,1.0,2733.6191597202296,0.3800615050272292,1.3133147716012563,0.9678871791340392,0.2867564375,0.6869701973738922
0.043000000000000003,1.753775,1.0,2732.776114999633,0.3835388761663054,1.3128397680836814,0.9684076553071052,0.28671155,0.6879186208716468
0.043500000000000004,1.75269375,1.0,2731.808506620932,0.3869967392841944,1.3123602523312794,0.9689116393994439,0.28666613750000003,0.6888745942714907
0.044,1.7516,1.0,2730.724532280732,0.3904352034427437,1.311876150448729,0.9693998131829835,0.2866202,0.6898382231545973
0.0445,1.75049375,1.0,2729.532391039941,0.3938543777038006,1.3113873885407101,0.9698728229600653,0.2865737375,0.690809611791444
0.045,1.7493750000000001,1.0,2728.2402816488184,0.39725437112921236,1.3108938927119014,0.9703312817531615,0.28652675,0.691788863120028
0.0455,1.74824375,1.0,2726.8564009936244,0.40063529278082644,1.310395589066982,0.9707757713387413,0.2864792375,0.6927760787237284
0.046,1.7471,1.0,2725.3889426643364,0.40399725172049006,1.3098924037106314,0.9712068441377714,0.2864312,0.6937713588088235
0.0465,1.7459437500000001,1.0,2723.8409626520183,0.4073403423153485,1.3093843094528967,0.9716250264248631,0.28638263750000004,0.6947747100266397
0.047,1.744775,1.0,2722.222494408215,0.41066468542369694,1.3088712155993174,0.9720308173923737,0.28633355,0.6957862633105867
0.0475,1.74359375,1.0,2720.5400775692215,0.41397039072373354,1.3083530631850455,0.9724246925536217,0.28628393750000003,0.6968060855369878
0.048,1.7424,1.0,2718.797513809073,0.4172575593057288,1.3078298181305723,0.9728071050203005,0.2862338,0.6978341934620497
0.0485,1.74119375,1.0,2716.99860212286,0.42052629225995314,1.3073014463563895,0.9731784861610393,0.2861831375,0.6988706028930839
0.049,1.739975,1.0,2715.147138421636,0.42377669067667717,1.306767913782988,0.9735392468415739,0.28613195,0.699915328677402
0.0495,1.73874375,1.0,2713.2469151537844,0.4270088556461714,1.3062291863308595,0.9738897785832163,0.2860802375,0.7009683846911344
0.05,1.7375,1.0,2711.301720951948,0.4302228882587064,1.3056852299204955,0.9742304546457107,0.286028,0.7020297838279776
0.0505,1.73624375,1.0,2709.315340305608,0.43341888960455266,1.305136010472387,0.9745616310400389,0.2859752375,0.7030995379878677
0.051000000000000004,1.734975,1.0,2707.291553259414,0.4365969607739807,1.3045814939070257,0.974883647476301,0.28592195,0.7041776580655754
0.051500000000000004,1.73369375,1.0,2705.234135137488,0.43975720285726105,1.3040216461449028,0.9751968282513666,0.2858681375,0.7052641539392331
0.052000000000000005,1.7324,1.0,2703.1468562930645,0.44289971694466423,1.3034564331065095,0.9755014830806267,0.2858138,0.7063590344587836
0.0525,1.73109375,1.0,2701.033481884424,0.4460246041264607,1.3028858207123377,0.975797907877818,0.28575893750000003,0.7074623074343547
0.053,1.729775,1.0,2698.8977716760965,0.44913196549292117,1.3023097748828785,0.9760863854865903,0.28570355000000003,0.7085739796245643
0.0535,1.72844375,1.0,2696.744697484236,0.4522218994397912,1.301728250403921,0.9763671854051655,0.2856476375,0.7096940781511123
0.054,1.7271,1.0,2694.5753187409455,0.4552945016502767,1.3011412377828757,0.9766405673559065,0.2855912,0.7108225602888951
0.0545,1.7257437500000001,1.0,2692.390037243343,0.4583498688442953,1.3005487335321357,0.976906780365044,0.2855342375,0.7119593710849148
0.055,1.724375,1.0,2690.1893702852794,0.46138809770425726,1.2999507331024254,0.9771660627794109,0.28547675,0.7131044569876199
0.0555,1.72299375,1.0,2687.9467136869303,0.4644092832760746,1.2993474803599385,0.9774186574291392,0.2854187375,0.7142572895476921
0.056,1.7216,1.0,2685.739961015173,0.4674135241654457,1.2987382620233976,0.9776647412274351,0.2853602,0.7154191671021679
0.0565,1.72019375,1.0,2683.5404233308004,0.47040091421979163,1.2981233406922783,0.9779045398662269,0.28530113749999997,0.7165895208369764
0.057,1.7187789560534514,1.0,2681.5091374978347,0.47337154705904383,1.2975030260734561,0.9781382724454022,0.285241716154245,0.7177676960367873
0.0575,1.7173639009685484,1.0,2680.019917686444,0.4763255163031338,1.2968776278738074,0.9783661491468391,0.285182283840679,0.7189530423087408
0.058,1.7159488458836454,1.0,2679.051410538881,0.47926291557199313,1.296247455800208,0.9785883716780158,0.2851228515271131,0.7201449136859179
0.0585,1.7145337907987421,1.0,2678.569886761435,0.4821838384122693,1.2956128167505014,0.9788051335272726,0.28506341921354716,0.721342674020518
0.059000000000000004,1.713118735713839,1.0,2678.5410556883053,0.4850883764296397,1.2949740241593521,0.9790166207251398,0.28500398689998124,0.7225456794363455
0.059500000000000004,1.711703680628936,1.0,2678.91370648487,0.48797662405149406,1.294331547818968,0.9792230208118636,0.2849445545864153,0.7237529973166151
0.06,1.710288625544033,1.0,2679.660591865356,0.49084867133493604,1.293685638457396,0.9794245018229434,0.2848851222728494,0.724964112767448
0.0605,1.70887357045913,1.0,2680.7545316550118,0.4937046083370694,1.2930365468026832,0.9796212253312573,0.2848256899592835,0.7261785147894096
0.061,1.7074585153742268,1.0,2682.1683944030065,0.49654452511499786,1.2923845235828764,0.9798133467522556,0.2847662576457175,0.7273956963304031
0.0615,1.7060434602893237,1.0,2683.875080388871,0.4993685117258252,1.2917298195260225,0.980001015632562,0.2847068253321516,0.7286151543345483
0.062,1.7046284052044207,1.0,2685.8496097438056,0.5021766573315052,1.2910726660833742,0.9801843748441675,0.28464739301858566,0.7298364255711625
0.0625,1.7032133501195177,1.0,2688.073403088282,0.5049690490121431,1.2904132361309302,0.9803635587588685,0.28458796070501974,0.7310591590559967
0.063,1.7017982950346147,1.0,2690.511988336085,0.5077457815324309,1.2897518480922885,0.9805387048746739,0.2845285283914538,0.7322827376502021
0.0635,1.7003832399497114,1.0,2693.1517685400586,0.5105069407180199,1.289088629051037,0.9807099352525628,0.2844690960778879,0.7335069022748466
0.064,1.6989681848648084,1.0,2695.979142888236,0.5132526123945618,1.2884237060907637,0.9808773675321621,0.284409663764322,0.7347313959338927
0.0645,1.6975531297799054,1.0,2698.9805017240406,0.515982882387708,1.2877572062950562,0.9810411151275903,0.284350231450756,0.735955963728522
0.065,1.6961380746950023,1.0,2702.1422219241726,0.51869783652311,1.2870892567475025,0.9812012874132913,0.2842907991371901,0.7371803528704292
0.0655,1.694723019610099,1.0,2705.450662634567,0.5213975606264194,1.2864199845316908,0.9813579899004318,0.28423136682362415,0.738404312694088
0.066,1.693307964525196,1.0,2708.8921613647594,0.5240821405232877,1.2857495167312087,0.9815113244044112,0.28417193451005823,0.7396275946679868
0.0665,1.691892909440293,1.0,2712.4530304401237,0.5267516620393665,1.2850779804296442,0.9816613892039823,0.2841125021964923,0.7408499524048323
0.067,1.69047785435539,1.0,2716.12395299539,0.5294062072287842,1.2844054626253143,0.9818082769995653,0.2840530698829264,0.7420712143778092
0.0675,1.689062799270487,1.0,2719.8927142648804,0.5320458630636468,1.2837320765306968,0.9819520789049281,0.28399363756936047,0.7432911630981469
0.068,1.6876477441855837,1.0,2723.747035720406,0.5346707166383438,1.2830579356746858,0.9820928829651427,0.2839342052557945,0.7445095824349024
0.0685,1.6862326891006807,1.0,2727.6810927647934,0.5372808489418778,1.2823830946197723,0.9822307710754199,0.28387477294222857,0.7457263643908187
0.069,1.6848176340157777,1.0,2731.689046922319,0.5398763409632518,1.2817076079284462,0.982365822388748,0.28381534062866265,0.746941401898064
0.0695,1.6834025789308746,1.0,2735.7650450245947,0.5424572736914681,1.281031530163198,0.9824981134279765,0.2837559083150967,0.7481545888205725
0.07,1.6819875238459714,1.0,2739.903218462719,0.5450237281155299,1.280354915886518,0.9826277181925934,0.2836964760015308,0.7493658199561972
0.07050000000000001,1.6805724687610684,1.0,2744.0976825051425,0.5475757852244395,1.2796778196608964,0.9827547082604876,0.2836370436879649,0.7505749910386705
0.07100000000000001,1.6791574136761653,1.0,2748.3425356815665,0.5501135260071998,1.279000296048824,0.9828791528849605,0.28357761137439896,0.7517819987393768
0.07150000000000001,1.6777423585912623,1.0,2752.6318592330176,0.5526370314528135,1.2783223996127906,0.9830011190872407,0.283518179060833,0.7529867406689352
0.07200000000000001,1.6763273035063593,1.0,2756.959716627925,0.5551463825502833,1.2776441849152869,0.9831206717447366,0.2834587467472671,0.7541891153785906
0.0725,1.6749122484214563,1.0,2761.3256889619897,0.5576416482063972,1.276965656491095,0.9832378707196667,0.28339931443370114,0.7553891107284975
0.073,1.673497193336553,1.0,2765.720475722616,0.560122921505204,1.276286899066659,0.9833527789656108,0.2833398821201352,0.7565865733550058
0.0735,1.67208213825165,1.0,2770.1394186872285,0.5625902840740655,1.275607955217321,0.9834654549395422,0.2832804498065693,0.7577814254493853
