Time [s],Phi [rad],STIM [ ],Fsee [N],Gamma [ ],Lcerel [ ],q [ ],Lmtc [m],fisomrel [ ]
0.0,1.8,1.0,17.983746729359655,0.0001309490155346362,1.3793378881748026,0.005004478280475954,0.288653,0.5411440261322735
0.0005,1.79999375,1.0,18.332953836422973,0.005739423803939884,1.3792961487803377,0.013279702274050547,0.2886527375,0.5412449984706759
0.001,1.799975,1.0,21.764454974801357,0.011316439483124835,1.378923407981382,0.03624161574056531,0.28865195,0.5421462081753037
0.0015,1.79994375,1.0,31.408079277034325,0.016862172514762724,1.378017413729239,0.07146644263073153,0.2886506375,0.5443330195071985
0.002,1.7999,1.0,54.305364083238736,0.022376798368730428,1.3763213858684131,0.1157408154469953,0.2886488,0.5484126739096842
0.0025,1.79984375,1.0,98.32797730510502,0.02786049153143198,1.3738770867269618,0.16568687983591393,0.28864643749999996,0.5542599618002546
0.003,1.7997750000000001,1.0,162.52738415238025,0.03331342551243854,1.3711557489252668,0.21842719525051468,0.28864354999999997,0.5607251595654474
0.0035,1.79969375,1.0,239.4541640540466,0.03873577284496948,1.3685302891284943,0.2717531513496951,0.2886401375,0.5669178124836366
0.004,1.7996,1.0,323.3494599597617,0.04412770509640526,1.3661062999622222,0.32401967818212124,0.2886362,0.5725962280866435
0.0045000000000000005,1.7994937500000001,1.0,411.2164356859257,0.04948939287355472,1.363877125425272,0.3740822312505237,0.2886317375,0.5777851964038294
0.005,1.799375,1.0,501.4012183445877,0.0548210058143696,1.3618161455307716,0.4212275864300095,0.28862675,0.5825544541876772
0.0055,1.79924375,1.0,592.7950293230055,0.06012271262886366,1.3598997029438837,0.465081081118423,0.2886212375,0.5869649356533937
0.006,1.7991000000000001,1.0,684.524009004102,0.06539468105809089,1.3581099795631515,0.5055138072695085,0.2886152,0.5910626356418343
0.006500000000000001,1.79894375,1.0,775.8748014936775,0.07063707790267404,1.3564332444076,0.5425631523655503,0.2886086375,0.5948831067636229
0.007,1.798775,1.0,866.257574080615,0.07585006907875567,1.3548585628526981,0.5763715204487342,0.28860155,0.5984547205679773
0.0075,1.79859375,1.0,955.1788194387519,0.0810338194192481,1.3533770226986657,0.6071418040448326,0.2885939375,0.6018006372086312
0.008,1.7984,1.0,1042.2560440677973,0.08618849308139681,1.35198072089073,0.6351061803538333,0.2885858,0.6049412376315118
0.0085,1.79819375,1.0,1127.1729981084382,0.0913142532115254,1.3506629389979712,0.6605059266305705,0.2885771375,0.607893824022019
0.009000000000000001,1.797975,1.0,1209.6807290832994,0.09641126168278198,1.3494177149310618,0.6835783160838389,0.28856795,0.6106736622842961
0.0095,1.79774375,1.0,1289.6090402226034,0.10147967974301245,1.3482394130579243,0.7045487620491386,0.2885582375,0.6132949974268891
0.01,1.7975,1.0,1366.8490801327944,0.10651966865399481,1.347122773290732,0.7236267798820282,0.288548,0.615770982981349
0.0105,1.79724375,1.0,1441.2909112586203,0.11153138700917922,1.346063533794657,0.7410045213241289,0.2885372375,0.6181123424029157
0.011,1.796975,1.0,1512.8831132372609,0.11651499323333028,1.345057491506766,0.7568559640757618,0.28852595000000003,0.6203294883770989
0.0115,1.79669375,1.0,1581.6111448998272,0.12147064511197066,1.344100685324412,0.7713375973327478,0.2885141375,0.6224321376252233
0.012,1.7964,1.0,1647.5029900774314,0.12639850047087503,1.3431892437374902,0.7845894355251329,0.28850180000000003,0.6244296651240102
0.0125,1.79609375,1.0,1710.5671366143488,0.13129871449567546,1.3423200352584614,0.7967366210873713,0.2884889375,0.6263296985352222
0.013000000000000001,1.7957750000000001,1.0,1770.8312478392097,0.13617144173835433,1.3414901208859176,0.8078905714655723,0.28847555,0.6281393409991116
0.0135,1.79544375,1.0,1828.3530286023079,0.1410168365895348,1.340696582449565,0.8181503137533505,0.2884616375,0.6298655571019989
0.014,1.7951000000000001,1.0,1883.2053959266377,0.14583505274088202,1.3399366523627814,0.8276038762491107,0.2884472,0.6315148991721478
0.0145,1.79474375,1.0,1935.4598992634565,0.15062624320018367,1.3392078540198005,0.8363295730215698,0.2884322375,0.6330932135563831
0.015,1.794375,1.0,1985.1769992876787,0.15539055857852682,1.3385080622839438,0.8443971343261235,0.28841675,0.6346055222218419
0.0155,1.79399375,1.0,2032.4355302655986,0.16012814948699863,1.337835152018532,0.8518685913411149,0.2884007375,0.6360567922851255
0.016,1.7936,1.0,2077.3186601903108,0.16483916551826164,1.3371871278814491,0.8587992253449731,0.2883842,0.6374516606857759
0.0165,1.7931937500000001,1.0,2119.9269584720696,0.16952375749533355,1.3365619676977236,0.8652383206200792,0.2883671375,0.6387947764650397
0.017,1.792775,1.0,2160.340924126295,0.17418207353192472,1.335957993222575,0.8712299793539879,0.28834955,0.6400900088962382
0.0175,1.7923437500000001,1.0,2198.630080002182,0.17881425976037033,1.335373750489861,0.8768136951188211,0.2883314375,0.6413407126350907
0.018000000000000002,1.7919,1.0,2234.8734229680367,0.18342046231300543,1.3348077855334404,0.8820248322843035,0.2883128,0.6425502128386282
0.0185,1.79144375,1.0,2269.158629281199,0.18800082732216516,1.3342586443871705,0.886895108210943,0.2882936375,0.6437218069274591
0.019,1.790975,1.0,2301.568270372163,0.19255549944543895,1.3337250021278901,0.891453046825358,0.28827395,0.6448584915648589
0.0195,1.79049375,1.0,2332.1959493126137,0.19708462490917233,1.333205493054303,0.8957243045556141,0.2882537375,0.6459633271633893
0.02,1.79,1.0,2361.113106855141,0.20158834636573034,1.3326990304646906,0.8997320672319283,0.288233,0.647038759974027
0.0205,1.78949375,1.0,2388.385751097992,0.20606680510586076,1.3322046304758766,0.9034972859371508,0.2882117375,0.6480870009259767
0.021,1.788975,1.0,2414.084374233299,0.21052014242031147,1.331721309204684,0.9070389022744765,0.28818995000000003,0.6491102455979925
0.021500000000000002,1.78844375,1.0,2438.283576997775,0.21494849959983026,1.3312480827679354,0.9103740686713461,0.2881676375,0.6501106749444102
0.022,1.7879,1.0,2461.0524509636416,0.21935201619794487,1.3307840559587192,0.9135183592317313,0.2881448,0.6510902688887084
0.0225,1.78734375,1.0,2482.4678141827894,0.223730834026964,1.330328291007916,0.9164859140485198,0.28812143749999997,0.6520510846932066
0.023,1.786775,1.0,2502.5917426584388,0.2280850915896293,1.3298800190173157,0.9192896282769283,0.28809755,0.652994812031682
0.0235,1.78619375,1.0,2521.477778956401,0.23241492510494663,1.329438575428607,0.9219412689674424,0.28807313749999996,0.653922911414445
0.024,1.7856,1.0,2539.1815929180893,0.23672047079192185,1.3290032956834796,0.9244515724615037,0.2880482,0.654836834915207
0.0245,1.78499375,1.0,2555.7608027676197,0.24100186486956085,1.3285735152236218,0.9268303488697389,0.2880227375,0.6557380264464043
0.025,1.784375,1.0,2571.274806010644,0.2452592435568695,1.3281485694907227,0.9290865746937852,0.28799675,0.6566279220063531
0.025500000000000002,1.78374375,1.0,2585.772457683084,0.2494927396859245,1.3277279075092532,0.9312284924743267,0.2879702375,0.657507712498745
0.026000000000000002,1.7831000000000001,1.0,2599.318683572316,0.2537024920721208,1.327310841123913,0.9332636451379643,0.2879432,0.6583788688863412
0.0265,1.78244375,1.0,2611.9567783597986,0.2578886328936143,1.326896895886851,0.9351989937669485,0.2879156375,0.6592424089908843
0.027,1.781775,1.0,2623.7261306767755,0.2620512928312829,1.3264856430643663,0.9370409480074869,0.28788755,0.6600992502322933
0.0275,1.7810937500000001,1.0,2634.6670231369712,0.26619060256600463,1.3260766539227578,0.9387954111545527,0.2878589375,0.6609503053779913
0.028,1.7804,1.0,2644.820555120093,0.2703066927786573,1.3256694997283236,0.9404678268478602,0.2878298,0.6617964826106615
0.0285,1.77969375,1.0,2654.2285696307213,0.27439969415011894,1.3252637517473629,0.9420632208961641,0.2878001375,0.662638685584279
0.029,1.778975,1.0,2662.9335842325527,0.27846973736126734,1.3248589812461744,0.9435862387911005,0.28776995,0.6634778134684238
0.029500000000000002,1.7782437500000001,1.0,2670.9371588526888,0.2825169472562003,1.3244551414394434,0.9450412296014746,0.2877392375,0.6643139706425727
0.03,1.7775,1.0,2678.3595285179554,0.2865414602082489,1.3240510995002872,0.9464320802189422,0.287708,0.6651495054612722
0.0305,1.77674375,1.0,2685.2122892880125,0.2905434010189897,1.3236467265463947,0.9477625245074175,0.2876762375,0.6659846823845765
0.031,1.775975,1.0,2691.5061267783644,0.29452289436074713,1.3232419044342507,0.9490360297203403,0.28764395,0.6668197424034399
0.0315,1.7751937500000001,1.0,2697.2519693345275,0.2984800649058458,1.322836515020341,0.9502558176190893,0.2876111375,0.667654925285463
0.032,1.7744001599952437,1.0,2702.468884386815,0.30241503732661024,1.322430440161151,0.9514248848865462,0.28757780671980027,0.6684904695710663
0.0325,1.773602159965517,1.0,2707.560662121675,0.30632793629536503,1.3220235617131662,0.9525460216078105,0.2875442907185517,0.6693266125687714
0.033,1.7728041599357902,1.0,2712.758324605682,0.3102188864844347,1.3216157615328719,0.9536218280217391,0.2875107747173032,0.6701635903495884
0.0335,1.7720061599060632,1.0,2718.0762757714374,0.3140880110242983,1.3212069110666966,0.9546547281087726,0.2874772587160547,0.6710016590656609
0.034,1.7712081598763365,1.0,2723.4870722087685,0.31793543200927776,1.3207972631202303,0.9556470276484431,0.2874437427148061,0.6718402932862556
0.0345,1.7704101598466095,1.0,2728.9559001008706,0.32176127594897713,1.320387136543782,0.9566008892531179,0.2874102267135576,0.6726788352591708
0.035,1.7696121598168828,1.0,2734.474088731701,0.3255656615195795,1.3199766115171352,0.9575183073568679,0.2873767107123091,0.6735171176084578
0.035500000000000004,1.7688141597871558,1.0,2740.0329329447386,0.3293487073972679,1.3195657682200732,0.9584011488834459,0.2873431947110605,0.67435497379437
0.036000000000000004,1.768016159757429,1.0,2745.6236925064754,0.3331105322582254,1.3191546868323796,0.9592511628677073,0.287309678709812,0.6751922381151968
0.0365,1.7672181597277024,1.0,2751.237591611176,0.3368512547786351,1.318743447533838,0.9600699892467759,0.2872761627085635,0.6760287457086845
0.037,1.7664201596979754,1.0,2756.865818529481,0.34057099363468,1.3183321305042315,0.960859166901085,0.287242646707315,0.6768643325530515
0.0375,1.7656221596682486,1.0,2762.49952539856,0.34426986750254335,1.317920815923344,0.9616201410169173,0.28720913070606646,0.6776988354675868
0.038,1.7648241596385217,1.0,2768.1333866852065,0.347947989744361,1.3175095518517665,0.9623542656481516,0.2871756147048179,0.6785321571520739
0.0385,1.764026159608795,1.0,2773.759461745384,0.35160548131969604,1.317098409734617,0.9630628181750998,0.2871420987035694,0.679364153519697
0.039,1.763228159579068,1.0,2779.3700831659376,0.3552424630799942,1.3166874582667911,0.9637470006205968,0.28710858270232087,0.6801946867873707
0.0395,1.7624301595493412,1.0,2784.9628389500554,0.3588590472145012,1.3162767185760171,0.9644079391931578,0.2870750667010723,0.6810237158379684
0.04,1.7616321595196145,1.0,2790.53530794582,0.3624553459124629,1.3158662117900237,0.9650466955515046,0.2870415506998238,0.6818511997749359
0.0405,1.7608341594898875,1.0,2796.0850599500254,0.3660314713631252,1.3154559590365393,0.9656642711916504,0.2870080346985753,0.6826770979219937
0.041,1.7600361594601608,1.0,2801.6096558224617,0.3695875357557339,1.315045981443292,0.9662616114914586,0.28697451869732676,0.6835013698228091
0.0415,1.7592381594304338,1.0,2807.1066476097917,0.37312365127953473,1.3146363001380101,0.9668396094427214,0.28694100269607825,0.6843239752406378
0.042,1.758440159400707,1.0,2812.573578679294,0.37663993012377367,1.3142269362484225,0.9673991090978938,0.2869074866948297,0.6851448741579396
0.0425,1.7576421593709801,1.0,2818.007983862937,0.38013648447769643,1.3138179109022572,0.9679409087560171,0.28687397069358117,0.6859640267759661
0.043000000000000003,1.7568441593412534,1.0,2823.4073896105824,0.383613426530549,1.3134092452272426,0.9684657639100243,0.28684045469233266,0.6867813935143181
0.043500000000000004,1.7560461593115266,1.0,2828.7724110084323,0.38707085062506025,1.3130009327002037,0.9689743850046753,0.2868069386910841,0.6875969902066409
0.044,1.7552481592817997,1.0,2834.0996945387606,0.3905088846915614,1.3125930022313448,0.9694674531955193,0.2867734226898356,0.6884107619770232
0.0445,1.754450159252073,1.0,2839.387332273785,0.39392764599863755,1.3121854697473703,0.9699456115729415,0.28673990668858707,0.6892226800976204
0.045,1.753652159222346,1.0,2844.6354287520135,0.39732723865136665,1.3117783332062827,0.9704094668803214,0.2867063906873385,0.6900327517318627
0.0455,1.7528541591926192,1.0,2849.8440904049826,0.40070776675482694,1.311371590566085,0.9708595950624147,0.28667287468609,0.6908409840189615
0.046,1.7520561591628923,1.0,2855.0134255391495,0.4040693344140967,1.3109652397847797,0.9712965431269213,0.28663935868484147,0.6916473840739619
0.0465,1.7512581591331655,1.0,2860.143544318365,0.40741204573425405,1.31055927882037,0.9717208308762983,0.28660584268359296,0.6924519589877925
0.047,1.7504601591034388,1.0,2865.234558746085,0.41073600482037725,1.310153705630858,0.9721329525200174,0.28657232668234445,0.6932547158273183
0.0475,1.7496621590737118,1.0,2870.2865826476636,0.41404131577754444,1.309748518174247,0.9725333781765749,0.2865388106810959,0.6940556616353897
0.048,1.748864159043985,1.0,2875.2997316531464,0.41732808271083394,1.3093437144085396,0.9729225552737647,0.28650529467984737,0.6948548034308926
0.0485,1.748066159014258,1.0,2880.2741231795517,0.42059640972532386,1.3089392922917382,0.9733009098549902,0.28647177867859885,0.6956521482088008
0.049,1.7472681589845314,1.0,2885.209876413442,0.4238464009260924,1.308535249781846,0.9736688477987339,0.2864382626773503,0.6964477029402227
0.0495,1.7464701589548044,1.0,2890.107112294266,0.4270781604182178,1.3081315848368658,0.974026755957706,0.2864047466761018,0.6972414745724536
0.05,1.7456721589250777,1.0,2894.9659534966095,0.4302917923067782,1.3077282954147997,0.974375003223645,0.28637123067485326,0.6980334700290234
0.0505,1.744874158895351,1.0,2899.786524413422,0.43348740069685193,1.3073253794736512,0.9747139415232547,0.28633771467360475,0.6988236962097458
0.051000000000000004,1.744076158865624,1.0,2904.569183477601,0.43666505323697163,1.306922832924187,0.9750439025707827,0.28630419867235624,0.6996121639980597
0.051500000000000004,1.7432781588358972,1.0,2909.3148217931357,0.4398248845852893,1.3065206470089197,0.9753652102371597,0.28627068267110767,0.7003988933585245
0.052000000000000005,1.7424801588061702,1.0,2914.0240219775183,0.442967011545594,1.30611881572045,0.975678172067786,0.28623716666985916,0.7011838987943533
0.0525,1.7416821587764435,1.0,2918.6973599781973,0.4460915284900595,1.305717333136854,0.9759830795957508,0.28620365066861064,0.7019671945780928
0.053,1.7408841587467168,1.0,2923.3354147188725,0.44919852979085995,1.3053161933362074,0.9762802115886067,0.2861701346673621,0.7027487949192845
0.0535,1.7400861587169898,1.0,2927.938768054372,0.45228810982016915,1.3049153903965867,0.9765698347168599,0.28613661866611356,0.7035287139645956
0.054,1.739288158687263,1.0,2932.508004725627,0.4553603629501611,1.3045149183960676,0.976852204181951,0.28610310266486505,0.7043069657979474
0.0545,1.738490158657536,1.0,2937.043712316,0.4584153835530096,1.3041147714127264,0.9771275643064982,0.2860695866636165,0.7050835644406416
0.055,1.7376921586278093,1.0,2941.546481208563,0.46145326600088865,1.3037149435246387,0.9773961490893759,0.28603607066236797,0.7058585238514845
0.0555,1.7368941585980824,1.0,2946.0169045432,0.46447410466597217,1.3033154288098807,0.977658182727997,0.28600255466111946,0.7066318579269075
0.056,1.7360961585683556,1.0,2950.4555781755394,0.46747799392043404,1.3029162213465288,0.9779138801099931,0.28596903865987094,0.7074035805010865
0.0565,1.735298158538629,1.0,2954.8631006360233,0.4704650281364482,1.3025173152126586,0.9781634472763258,0.28593552265862243,0.7081737053460618
0.057,1.734500158508902,1.0,2959.2400730900536,0.4734353016861886,1.302118704486346,0.978407081857707,0.28590200665737386,0.7089422461718493
0.0575,1.7337021584791752,1.0,2963.5870992987843,0.4763889089418291,1.3017203832456676,0.9786449734860733,0.28586849065612535,0.7097092166265544
0.058,1.7329041584494482,1.0,2967.9047855808594,0.47932594427554376,1.3013223455686989,0.9788773041827279,0.28583497465487684,0.7104746302964848
0.0585,1.7321061584197215,1.0,2972.193740774283,0.4822465020595063,1.300924585533516,0.9791042487246507,0.28580145865362827,0.711238500706255
0.059000000000000004,1.7313081583899945,1.0,2976.4545762004277,0.4851506766658908,1.3005270972181953,0.9793259749903708,0.28576794265237976,0.7120008413188949
0.059500000000000004,1.7305101583602678,1.0,2980.6879056271505,0.4880385624668711,1.3001298747008125,0.9795426442866884,0.28573442665113125,0.7127616655359521
0.06,1.729712158330541,1.0,2984.8943452339163,0.4909102538346211,1.2997329120594436,0.9797544116574548,0.28570091064988273,0.7135209866975951
0.0605,1.728914158300814,1.0,2989.073535232217,0.49376579763977896,1.2993362118700555,0.979961422860229,0.2856673946486342,0.7142788018599656
0.061,1.7281161582710873,1.0,2993.2266174486726,0.49660530823983084,1.2989397636714057,0.9801638227574391,0.28563387864738565,0.7150351329594518
0.0615,1.7273181582413604,1.0,2997.355065278634,0.4994289200848015,1.298543554159023,0.9803617520781802,0.28560036264613714,0.7157900072388348
0.062,1.7265201582116336,1.0,3001.4592697750045,0.5022367167608855,1.2981475794502728,0.9805553428239399,0.28556684664488863,0.7165434338901252
0.0625,1.7257221581819069,1.0,3005.5396235869525,0.5050287818542779,1.2977518356625206,0.9807447220920749,0.28553333064364006,0.7172954220650489
0.063,1.72492415815218,1.0,3009.5965209399337,0.5078051989511734,1.297356318913132,0.9809300122947149,0.28549981464239155,0.7180459808751011
0.0635,1.7241261581224532,1.0,3013.6303576157743,0.5105660516377665,1.2969610253194728,0.9811113313663242,0.28546629864114303,0.7187951193916053
0.064,1.7233281580927262,1.0,3017.6415309331546,0.5133114235002523,1.2965659509989083,0.9812887929605907,0.28543278263989447,0.719542846645769
0.0645,1.7225301580629995,1.0,3021.6304397291888,0.5160413981248253,1.2961710920688039,0.9814625066372638,0.28539926663864595,0.7202891716287376
0.065,1.7217321580332725,1.0,3025.5974843399545,0.5187560590976805,1.2957764446465252,0.9816325780395252,0.28536575063739744,0.7210341032916487
0.0655,1.7209341580035458,1.0,3029.543066582569,0.5214554900050127,1.295382004849438,0.9817991090624361,0.28533223463614893,0.7217776505456843
0.066,1.720136157973819,1.0,3033.467589737079,0.5241397744330164,1.2949877687949076,0.9819621980129712,0.2852987186349004,0.7225198222621241
0.0665,1.719338157944092,1.0,3037.371458528651,0.5268089959678866,1.2945937326002996,0.9821219397621163,0.28526520263365185,0.7232606272723953
0.067,1.7185401579143653,1.0,3041.2550791104773,0.529463238195818,1.2941998923829796,0.9822784258894776,0.28523168663240334,0.7240000743681225
0.0675,1.7177421578846384,1.0,3045.118859046217,0.5321025847030053,1.2938062442603129,0.9824317448208215,0.2851981706311548,0.7247381723011779
0.068,1.7169441578549116,1.0,3048.9632072936747,0.5347271190756433,1.2934127843496654,0.9825819819589362,0.28516465462990626,0.7254749297837269
0.0685,1.7161461578251846,1.0,3052.788534188709,0.5373369248999269,1.2930195087684024,0.9827292198081845,0.28513113862865774,0.7262103554882785
0.069,1.715348157795458,1.0,3056.5952514284354,0.5399320857620509,1.2926264136338894,0.9828735380930942,0.28509762262740923,0.7269444580477291
0.0695,1.7145501577657312,1.0,3060.3837720560437,0.5425126852482098,1.2922334950634922,0.9830150138713094,0.2850641066261607,0.727677246055408
0.07,1.7137521577360042,1.0,3064.1545104454685,0.5450788069445986,1.291840749174576,0.983153721641209,0.2850305906249122,0.7284087280651219
0.07050000000000001,1.7129541577062775,1.0,3067.9078822860088,0.5476305344374119,1.2914481720845066,0.9832897334444749,0.28499707462366364,0.7291389125911985
0.07100000000000001,1.7121561576765505,1.0,3071.644304568081,0.5501679513128448,1.2910557599106494,0.9834231189638856,0.2849635586224151,0.7298678081085282
