Time [s],Phi [rad],STIM [ ],Fsee [N],Gamma [ ],Lcerel [ ],q [ ],Lmtc [m],fisomrel [ ]
0.0,1.8,1.0,19.647740873645073,0.0013245148849275158,1.379155672934533,0.005449463756454125,0.288653,0.5415847438825303
0.0005,1.79999375,1.0,20.329450291912003,0.006926294712639944,1.3790804382244377,0.01698842706524311,0.2886527375,0.5417666497307662
0.001,1.799975,1.0,24.653508851270963,0.012496652985772204,1.3786384862483938,0.042782358059692084,0.28865195,0.542834492128587
0.0015,1.79994375,1.0,36.385752906638366,0.018035765951381302,1.3776111323131295,0.08020684782417466,0.2886506375,0.5453119666874879
0.002,1.7999,1.0,63.31400427621272,0.023543808874077362,1.3757631196369253,0.12595585591101138,0.2886488,0.5497515239819062
0.0025,1.79984375,1.0,112.03882155264662,0.029020956031042877,1.3732418889827755,0.17671338358338362,0.28864643749999996,0.5557732535349791
0.003,1.7997750000000001,1.0,179.4834217297316,0.03446738072326053,1.3705398061173497,0.22974575270320946,0.28864354999999997,0.562181926283536
0.0035,1.79969375,1.0,258.1379064259724,0.03988325527992875,1.3679676808752461,0.28297044914665953,0.2886401375,0.5682391129824396
0.004,1.7996,1.0,342.9558714145804,0.04526875106223015,1.3655961347225782,0.334852404223596,0.2886362,0.5737865633798165
0.0045000000000000005,1.7994937500000001,1.0,431.33282375249945,0.05062403845376042,1.363411661869466,0.38434550986478033,0.2886317375,0.5788646811775284
0.005,1.799375,1.0,521.7914933833297,0.05594928696433711,1.3613880227842619,0.4308162594732983,0.28862675,0.5835417633548529
0.0055,1.79924375,1.0,613.2573295271627,0.061244664977233305,1.3595039816912424,0.473950000214699,0.2886212375,0.5878727268754556
0.006,1.7991000000000001,1.0,704.9191124432384,0.06651034017990845,1.3577425115008215,0.5136588582391424,0.2886152,0.5919014523759076
0.006500000000000001,1.79894375,1.0,796.0697815560018,0.07174647901669803,1.3560911577392072,0.5500073185922065,0.2886086375,0.5956603551656603
0.007,1.798775,1.0,886.1592745211797,0.07695324736170778,1.354539276134615,0.5831536700213246,0.28860155,0.5991769823914008
0.0075,1.79859375,1.0,974.7052238846829,0.08213080978972843,1.3530785087656674,0.6133093788470049,0.2885939375,0.6024731079330758
0.008,1.7984,1.0,1061.3309624057536,0.08727933010350783,1.3517014090883184,0.6407100771735366,0.2885858,0.6055679810117709
0.0085,1.79819375,1.0,1145.7548831276079,0.09239897152568947,1.3504011792012665,0.6655969187072385,0.2885771375,0.6084789974947766
0.009000000000000001,1.797975,1.0,1227.73305401597,0.09748989562856165,1.349172145748557,0.6882052914042686,0.28856795,0.6112207035502183
0.0095,1.79774375,1.0,1307.0960018906135,0.10255226345730432,1.348008946516055,0.7087575921663647,0.2885582375,0.6138066745688316
0.01,1.7975,1.0,1383.7464613663826,0.10758623589269906,1.3469063966072319,0.7274596690282515,0.288548,0.6162498469164093
0.0105,1.79724375,1.0,1457.593361377098,0.11259197163635837,1.3458601850321614,0.744499781257403,0.2885372375,0.6185610089589255
0.011,1.796975,1.0,1528.5892033404155,0.11756962886774776,1.344866228942443,0.760048168316878,0.28852595000000003,0.6207502682876868
0.0115,1.79669375,1.0,1596.7243916459515,0.12251936519929015,1.343920648433501,0.7742577560182802,0.2885141375,0.6228271287661999
0.012,1.7964,1.0,1662.0216460868896,0.12744133806058458,1.3430197525872063,0.7872653029650862,0.28850180000000003,0.6248005399713386
0.0125,1.79609375,1.0,1724.4940551430573,0.13233570243468779,1.3421604506272586,0.7991929219382464,0.2884889375,0.6266780166662989
0.013000000000000001,1.7957750000000001,1.0,1784.1813782839977,0.1372026129285429,1.3413397485047351,0.8101492635033606,0.28847555,0.6284667604933807
0.0135,1.79544375,1.0,1841.141591879357,0.14204222352020235,1.3405548002647922,0.8202309320203628,0.2884616375,0.6301735587264269
0.014,1.7951000000000001,1.0,1895.4547541050647,0.146854688514864,1.3398028242469797,0.8295237712740154,0.2884472,0.6318049765107661
0.0145,1.79474375,1.0,1947.1822132513553,0.15164015965409916,1.3390815106254919,0.8381042209050893,0.2884322375,0.6333664832650971
0.015,1.794375,1.0,1996.387166058311,0.15639878762035292,1.33838874921402,0.8460403029059307,0.28841675,0.634863056139576
0.0155,1.79399375,1.0,2043.1507658056526,0.1611307230960703,1.3377224298262556,0.8533925413177739,0.2884007375,0.6362996185977357
0.016,1.7936,1.0,2087.5547122550533,0.1658361157231166,1.3370806071134118,0.8602148993151129,0.2883842,0.6376806897578243
0.0165,1.7931937500000001,1.0,2129.702577190535,0.17051511595220226,1.3364612579793338,0.8665554829715069,0.2883671375,0.6390109116038399
0.017,1.792775,1.0,2169.6679577320647,0.17516787093658515,1.3358628009323221,0.872457382719711,0.28834955,0.6402939379779826
0.0175,1.7923437500000001,1.0,2207.52517297315,0.17979452711560437,1.3352837544931884,0.8779591651504566,0.2883314375,0.6415331759341563
0.018000000000000002,1.7919,1.0,2243.357936230072,0.1843952309285991,1.3347226371827439,0.8830953763743988,0.2883128,0.6427320030530268
0.0185,1.79144375,1.0,2277.2507171614493,0.1889701278848921,1.334178045532481,0.887897030098409,0.2882936375,0.643893602946719
0.019,1.790975,1.0,2309.2950730421126,0.19351936422515972,1.3336485813904588,0.8923919981889942,0.28827395,0.6450211228830816
0.0195,1.79049375,1.0,2339.5677322280026,0.19804308380435467,1.3331330603640836,0.8966054178378913,0.2882537375,0.6461172324376907
0.02,1.79,1.0,2368.1360479078057,0.20254142856274449,1.332630446052421,0.9005599837258124,0.288233,0.6471842677262993
0.0205,1.78949375,1.0,2395.0723203585526,0.20701454044059683,1.3321397020545356,0.9042761879632374,0.2882117375,0.6482245482114934
0.021,1.788975,1.0,2420.453382557683,0.21146256137817926,1.3316597919694924,0.9077725638942872,0.28818995000000003,0.6492403775215341
0.021500000000000002,1.78844375,1.0,2444.3470265392343,0.2158856312301111,1.3311898060220777,0.9110659256446535,0.2881676375,0.6502337767444469
0.022,1.7879,1.0,2466.8388669435917,0.22028389311632585,1.3307286978120942,0.9141715021832616,0.2881448,0.6512070422306009
0.0225,1.78734375,1.0,2487.988816008077,0.22465748534671567,1.3302756987048678,0.9171031846120171,0.28812143749999997,0.6521618713170005
0.023,1.786775,1.0,2507.851556616664,0.22900654488672753,1.3298301150879084,0.9198736277266433,0.28809755,0.6530997933070699
0.0235,1.78619375,1.0,2526.484108440713,0.23333120870180832,1.329391253348725,0.9224943645599513,0.28807313749999996,0.6540223284992219
0.024,1.7856,1.0,2543.94563241992,0.23763161375740496,1.3289584198748277,0.9249759213044151,0.2880482,0.6549309884995427
0.0245,1.78499375,1.0,2560.2972459100683,0.24190789701896442,1.3285309210537253,0.9273279190750183,0.2880227375,0.6558272765037976
0.025,1.784375,1.0,2575.590981250362,0.24616019182650611,1.328108164960527,0.9295591797530469,0.28799675,0.6567124747647817
0.025500000000000002,1.78374375,1.0,2589.893981898771,0.2503886377708169,1.3276894326423134,0.9316777708138596,0.2879702375,0.6575881241535674
0.026000000000000002,1.7831000000000001,1.0,2603.2480723637964,0.2545933665987901,1.32727425481659,0.9336911335520132,0.2879432,0.6584552363974674
0.0265,1.78244375,1.0,2615.6956358040675,0.25877450987970385,1.3268621672322891,0.9356061066768079,0.2879156375,0.6593148075006731
0.027,1.781775,1.0,2627.2800578287533,0.2629321991828363,1.3264527056383433,0.9374289825176388,0.28788755,0.6601678283845829
0.0275,1.7810937500000001,1.0,2638.0456389713772,0.2670665660774654,1.3260454057836852,0.9391655579450657,0.2878589375,0.6610152849724236
0.028,1.7804,1.0,2648.0375119434884,0.27117774213286927,1.3256398034172472,0.9408211799278141,0.2878298,0.6618581582601295
0.0285,1.77969375,1.0,2657.286001835575,0.2752658542845284,1.325235577648054,0.9424008050485212,0.2878001375,0.6626971270151041
0.029,1.778975,1.0,2665.8437820132367,0.2793310374494867,1.3248322073787069,0.9439089907630411,0.28776995,0.6635332814077703
0.029500000000000002,1.7782437500000001,1.0,2673.754839126815,0.28337342244360453,1.3244292573577918,0.9453499658429596,0.2877392375,0.6643675286041827
0.03,1.7775,1.0,2681.046697997908,0.28739313455556686,1.3240264482410078,0.9467276676470541,0.287708,0.6652004491081553
0.0305,1.77674375,1.0,2687.74727926168,0.2913902990740585,1.3236235006840527,0.9480457483622654,0.2876762375,0.6660326205516549
0.031,1.775975,1.0,2693.8848643957517,0.2953650412877642,1.3232201353426254,0.9493075992379467,0.28764395,0.6668646176948181
0.0315,1.7751937500000001,1.0,2699.4880624796615,0.29931748648536877,1.3228160728724243,0.9505163724767363,0.2876111375,0.6676970124210002
0.032,1.7744,1.0,2704.5857786839492,0.303247759955557,1.3224110339291482,0.9516750010339529,0.2875778,0.6685303737268421
0.0325,1.77359375,1.0,2709.207184490075,0.3071559869870137,1.3220047391684948,0.9527862165478547,0.2875439375,0.6693652677073649
0.033,1.772775,1.0,2713.381689639604,0.31104229286842366,1.3215969092461635,0.9538525655972576,0.28750955,0.6702022575360806
0.0335,1.7719437500000002,1.0,2717.1347816406674,0.3149067961695279,1.321187302481323,0.9548764269203713,0.2874746375,0.6710418262907243
0.034,1.7711000000000001,1.0,2720.4957016624808,0.31874962755776903,1.3207756446299452,0.9558600218111823,0.2874392,0.6718845210849589
0.0345,1.7702437500000001,1.0,2723.4826734807793,0.3225709060557309,1.3203617632029827,0.956805434812287,0.2874032375,0.6727306781807272
0.035,1.7693750000000001,1.0,2726.113982903683,0.3263707505999944,1.3199454862581117,0.9577146162358019,0.28736675,0.6735806308133305
0.035500000000000004,1.76849375,1.0,2728.4080250264456,0.33014928012714045,1.3195266418530087,0.9585893923239974,0.2873297375,0.6744347102874334
0.036000000000000004,1.7676,1.0,2730.3832921703483,0.33390661357374996,1.3191050580453507,0.9594314745624947,0.2872922,0.6752932459498513
0.0365,1.76669375,1.0,2732.058362478154,0.3376428698764038,1.3186805628928135,0.960242468192896,0.2872541375,0.6761565651604577
0.037,1.765775,1.0,2733.4518891637977,0.34135816797168295,1.3182529844530742,0.9610238800018766,0.28721555,0.6770249932611969
0.0375,1.76484375,1.0,2734.5825904188086,0.3450526267961683,1.3178221507838088,0.9617771254556106,0.2871764375,0.6778988535432203
0.038,1.7639,1.0,2735.4537955709943,0.3487263429111923,1.3173880301734182,0.9625035440450359,0.28713679999999997,0.6787781833630018
0.0385,1.76294375,1.0,2736.1036009040236,0.3523794650932652,1.3169502756314484,0.9632043768862867,0.28709663750000003,0.679663656814888
0.039,1.761975,1.0,2736.542906018759,0.3560121060212573,1.3165087874956527,0.963880808140269,0.28705595,0.6805554446365809
0.0395,1.7609937500000001,1.0,2736.781502892439,0.3596243767695775,1.3160634764187598,0.9645339540870033,0.2870147375,0.6814536953893116
0.04,1.76,1.0,2736.8292080440215,0.36321638841263415,1.315614253053498,0.9651648671545229,0.286973,0.6823585563440132
0.0405,1.7589937500000001,1.0,2736.695859013286,0.36678825202483606,1.3151610280525965,0.9657745402430364,0.2869307375,0.683270173459281
0.041,1.757975,1.0,2736.3913110163785,0.3703400786805918,1.3147037120687832,0.9663639107125216,0.28688795,0.6841886913588278
0.0415,1.75694375,1.0,2735.9254337786742,0.37387197945431005,1.314242215754787,0.9669338640631823,0.2868446375,0.6851142533084243
0.042,1.7559,1.0,2735.30810854424,0.3773840654203994,1.3137764497633369,0.9674852373353638,0.28680079999999997,0.6860470011923347
0.0425,1.75484375,1.0,2734.549225263178,0.38087644765326845,1.3133063247471606,0.9680188222529656,0.2867564375,0.6869870754892435
0.043000000000000003,1.753775,1.0,2733.6586799543197,0.3843492372273259,1.3128317513589876,0.9685353681321257,0.28671155,0.6879346152476677
0.043500000000000004,1.75269375,1.0,2732.646372247117,0.3878025452169803,1.3123526402515457,0.9690355845748938,0.28666613750000003,0.6888897580608688
0.044,1.7516,1.0,2731.522203098259,0.39123648269664035,1.311868902077564,0.9695201439657869,0.2866202,0.6898526400412461
0.0445,1.75049375,1.0,2730.2960726872175,0.3946511607407147,1.3113804474897712,0.9699896837874675,0.2865737375,0.6908233957942278
0.045,1.7493750000000001,1.0,2728.971211555041,0.39804667522338943,1.310887247746625,0.9704448112166573,0.28652675,0.6918020382287267
0.0455,1.74824375,1.0,2727.5589515056176,0.40142314826119996,1.3103892004650532,0.9708861007481243,0.2864792375,0.69278872523809
0.046,1.7471,1.0,2726.067093958764,0.4047806912555153,1.3098862353079856,0.9713140988035699,0.2864312,0.6937835496385324
0.0465,1.7459437500000001,1.0,2724.500073963449,0.4081194068763106,1.309378312522621,0.971729325625751,0.28638263750000004,0.6947865425403553
0.047,1.744775,1.0,2722.8623248117983,0.41143939779356103,1.3088653923561584,0.972132275804626,0.28633355,0.6957977340710342
0.0475,1.74359375,1.0,2721.1582774513267,0.4147407666772418,1.3083474350557964,0.9725234197801588,0.28628393750000003,0.6968171533626002
0.048,1.7424,1.0,2719.392359930463,0.4180236161973281,1.307824400868734,0.97290320524351,0.2862338,0.6978448285389187
0.0485,1.74119375,1.0,2717.5689968812203,0.4212880490237951,1.3072962500421703,0.973272058444378,0.2861831375,0.6988807867028697
0.049,1.739975,1.0,2715.6926090349257,0.4245341678266179,1.3067629428233043,0.9736303854115697,0.28613195,0.6999250539234252
0.0495,1.73874375,1.0,2713.7676127746354,0.4277620752757718,1.3062244394593345,0.9739785730933121,0.2860802375,0.7009776552226288
0.05,1.7375,1.0,2711.798419721435,0.43097187404123205,1.3056807001974602,0.9743169904232595,0.286028,0.7020386145624696
0.0505,1.73624375,1.0,2709.789436356336,0.43416366679297363,1.30513168528488,0.9746459893176622,0.2859752375,0.7031079548316612
0.051000000000000004,1.734975,1.0,2707.745063677175,0.4373375562009719,1.3045773549687931,0.9749659056087201,0.28592195,0.7041856978323144
0.051500000000000004,1.73369375,1.0,2705.6696968902916,0.440493644935202,1.304017669496398,0.9752770599187349,0.2858681375,0.7052718642665143
0.052000000000000005,1.7324036866530792,1.0,2703.7483640342466,0.44363203240828125,1.3034526042873966,0.975579759097965,0.28581395483942934,0.7063664443596833
0.0525,1.7311132869826036,1.0,2702.359023989754,0.4467528172085254,1.3028825333497491,0.9758743213859596,0.28575975805326936,0.707468657498846
0.053,1.729822887312128,1.0,2701.4794752437792,0.4498560970973455,1.3023078076750338,0.9761610494630949,0.2857055612671094,0.7085777723811058
0.0535,1.7285324876416526,1.0,2701.072123358793,0.4529419696320352,1.3017287685016135,0.9764402321685692,0.2856513644809494,0.7096930811814406
0.054,1.727242087971177,1.0,2701.099515704913,0.45601053236988837,1.3011457570678497,0.9767121458496854,0.28559716769478943,0.7108138807398967
0.0545,1.7259516883007013,1.0,2701.5243101158326,0.4590618828681989,1.3005591146121058,0.9769770550174253,0.28554297090862946,0.7119394726517444
0.055,1.7246612886302257,1.0,2702.315200525246,0.4620961172728364,1.2999691279779264,0.9772352095821122,0.2854887741224695,0.7130692674112322
0.0555,1.7233708889597503,1.0,2703.43751160481,0.4651133332105765,1.2993761153334682,0.9774868509460923,0.2854345773363095,0.7142026197954143
0.056,1.7220804892892747,1.0,2704.8677706309727,0.46811362507907367,1.2987802928897652,0.977732204208742,0.2853803805501495,0.7153390834843947
0.0565,1.720790089618799,1.0,2706.582611030504,0.47109708725433785,1.2981818761651729,0.9779714851513664,0.28532618376398955,0.7164782166027344
0.057,1.7194996899483235,1.0,2708.5586836555813,0.47406381411237913,1.2975810806780474,0.9782049007445262,0.2852719869778296,0.7176195804288439
0.0575,1.7182092902778479,1.0,2710.773014874586,0.47701389987141696,1.2969781185722367,0.9784326493795521,0.2852177901916696,0.7187627458204546
0.058,1.7169188906073725,1.0,2713.2055796620402,0.479947437847128,1.2963731750671597,0.9786549199038524,0.2851635934055097,0.7199073376932741
0.0585,1.7156284909368968,1.0,2715.8357841570123,0.48286452202973124,1.2957664404871638,0.9788718940030479,0.28510939661934964,0.721052974112095
0.059000000000000004,1.7143380912664212,1.0,2718.649149724778,0.4857652437176925,1.2951580493009478,0.9790837429045277,0.2850551998331897,0.7221993811634544
0.059500000000000004,1.7130476915959456,1.0,2721.6311864467484,0.48864969420947774,1.2945481359772104,0.9792906311518719,0.2850010030470297,0.7233462869654043
0.06,1.7117572919254702,1.0,2724.767388382941,0.49151796480355275,1.29393683498465,0.9794927169213412,0.28494680626086977,0.7244934216811436
0.0605,1.7104668922549946,1.0,2728.04581070403,0.49437014468470064,1.2933242573211148,0.979690150893836,0.2848926094747098,0.7256405614381902
0.061,1.709176492584519,1.0,2731.4556617374096,0.4972063225522493,1.2927105033442172,0.9798830774165552,0.2848384126885498,0.7267875039284917
0.0615,1.7078860929140434,1.0,2734.9750095282893,0.5000265972928358,1.2920957744090635,0.9800716415026461,0.28478421590238984,0.727933860243525
0.062,1.706595693243568,1.0,2738.5968710515863,0.5028310556751894,1.291480135764377,0.9802559747079477,0.28473001911622986,0.7290794976236619
0.0625,1.7053052935730924,1.0,2742.3142500345516,0.5056197844680385,1.290863652658881,0.9804362037088704,0.2846758223300699,0.730224284317391
0.063,1.7040148939026167,1.0,2746.1201356874662,0.5083928704401123,1.290246390341299,0.9806124505215271,0.2846216255439099,0.731368089584969
0.0635,1.7027244942321411,1.0,2750.0075015296457,0.5111504003601395,1.2896284140603544,0.9807848327094731,0.28456742875774993,0.7325107837017981
0.064,1.7014340945616655,1.0,2753.9693043090847,0.513892460996849,1.2890097890647707,0.9809534635807277,0.28451323197158995,0.733652237961533
0.0645,1.70014369489119,1.0,2757.9984830169524,0.5166191391189697,1.2883905806032712,0.981118452374702,0.28445903518543,0.7347923246789163
0.065,1.6988532952207145,1.0,2762.087957996189,0.5193305214952306,1.287770853924579,0.9812799044396228,0.28440483839927,0.7359309171923427
0.0655,1.6975628955502389,1.0,2766.23063014475,0.5220266948943604,1.287150674277418,0.9814379214009956,0.28435064161311,0.7370678898661487
0.066,1.6962724958797633,1.0,2770.4196218099746,0.5247077455850606,1.2865301047307642,0.9815926011807868,0.28429644482695005,0.7382031220758204
0.0665,1.6949820962092879,1.0,2774.65573471021,0.5273737462839148,1.2859091389408177,0.9817440340112156,0.28424224804079007,0.739336620759312
0.067,1.6936916965388122,1.0,2778.925378691144,0.5300248018888141,1.2852879002404078,0.9818923154051032,0.2841880512546301,0.7404681568125608
0.0675,1.6924012968683366,1.0,2783.2260872432703,0.5326609932217289,1.284666411460445,0.9820375312060821,0.2841338544684701,0.7415976855428339
0.068,1.691110897197861,1.0,2787.5553864581284,0.5352824011046299,1.2840446954318387,0.9821797643393464,0.28407965768231014,0.7427251626180931
0.0685,1.6898204975273856,1.0,2791.9107949074632,0.5378891063594876,1.2834227749854992,0.9823190949318404,0.2840254608961502,0.7438505440673441
0.069,1.68853009785691,1.0,2796.2898235337034,0.5404811898082725,1.2828006729523358,0.982455600426702,0.2839712641099902,0.7449737862809502
0.0695,1.6872396981864344,1.0,2800.689975552762,0.5430587322729553,1.282178412163259,0.9825893556922781,0.28391706732383026,0.746094846010912
0.07,1.6859492985159588,1.0,2805.1087463671684,0.5456218145755064,1.281556015449178,0.9827204331259997,0.28386287053767023,0.7472136803711167
0.07050000000000001,1.6846588988454831,1.0,2809.5436234924787,0.5481705175378965,1.2809335056410034,0.9828489027533959,0.2838086737515103,0.7483302468375521
0.07100000000000001,1.6833684991750077,1.0,2813.9920864931555,0.550704921982096,1.2803109055696444,0.9829748323225064,0.28375447696535033,0.7494445032484882
0.07150000000000001,1.6820780995045321,1.0,2818.451606931928,0.5532251087300754,1.2796882380660115,0.9830982873939298,0.28370028017919036,0.750556407804624
0.07200000000000001,1.6807876998340565,1.0,2822.9196483295136,0.5557311586038054,1.279065525961014,0.9832193314267437,0.2836460833930304,0.7516659190692049
0.0725,1.6794973001635811,1.0,2827.393666136366,0.5582231524252563,1.2784427920855619,0.9833380258605084,0.2835918866068704,0.7527729959681013
0.073,1.6782069004931055,1.0,2831.8733453541004,0.5607011565215341,1.2778200393022943,0.9834544284717242,0.2835376898207104,0.7538776331698714
