Time [s],Phi [rad],STIM [ ],Fsee [N],Gamma [ ],Lcerel [ ],q [ ],Lmtc [m],fisomrel [ ]
0.0,1.8,1.0,18.382925653090215,0.0006564998091183161,1.3792934327527542,0.005111110599109507,0.288653,0.5412515684650254
0.0005,1.79999375,1.0,18.89133304697891,0.006262026673202635,1.3792346833906777,0.014832353791264248,0.2886527375,0.5413936700050143
0.001,1.799975,1.0,22.71293705361445,0.011836110963545749,1.3788278896911839,0.039056667364477306,0.28865195,0.5423770089034574
0.0015,1.79994375,1.0,33.23140771865156,0.017378929048966273,1.377865092113004,0.07526954275711349,0.2886506375,0.5447001663342825
0.002,1.7999,1.0,57.85421022824557,0.02289065630724887,1.3760963116548894,0.1202125018133879,0.2886488,0.5489526924731769
0.0025,1.79984375,1.0,103.98061655857718,0.028371467132839025,1.373610161959354,0.17053100091160625,0.28864643749999996,0.5548961954104125
0.003,1.7997750000000001,1.0,169.67540711107998,0.033821534944988414,1.3708923513247762,0.22341125864791872,0.28864354999999997,0.5613484175024834
0.0035,1.79969375,1.0,247.41776001900016,0.03924103218576128,1.3682878968653995,0.2767009316336351,0.2886401375,0.5674873246889696
0.004,1.7996,1.0,331.7578877483666,0.04463013033206634,1.3658856672603834,0.32880374759708436,0.2886362,0.5731112196856634
0.0045000000000000005,1.7994937500000001,1.0,419.88307672322856,0.049988999899215396,1.3636752271660038,0.3786188573421189,0.2886317375,0.5782536005923328
0.005,1.799375,1.0,510.20579136643335,0.055317810413078934,1.3616302329100292,0.4254688678818074,0.28862675,0.5829833375173408
0.0055,1.79924375,1.0,601.6650230691927,0.06061673059025493,1.3597273404106518,0.4690056364864447,0.2886212375,0.5873604609728287
0.006,1.7991000000000001,1.0,693.3813719540648,0.06588592796113722,1.3579497290745837,0.5091191784235748,0.2886152,0.5914285441818627
0.006500000000000001,1.79894375,1.0,784.6622887537336,0.07112556929236497,1.3562838508883395,0.5458589115346615,0.2886086375,0.5952226326408657
0.007,1.798775,1.0,874.9293206515955,0.07633582042075301,1.3547189942903983,0.5793745355249649,0.28860155,0.5987705200561491
0.0075,1.79859375,1.0,963.689883568394,0.0815168460215334,1.3532465364706725,0.6098729087903594,0.2885939375,0.6020946571156691
0.008,1.7984,1.0,1050.5836587867502,0.08666881041427722,1.3518584689177582,0.6375876510264519,0.2885858,0.6052156181468463
0.0085,1.79819375,1.0,1135.2904567834535,0.0917918762367106,1.3505483263953326,0.6627602257446803,0.2885771375,0.6081500984101765
0.009000000000000001,1.797975,1.0,1217.5715577228186,0.09688620552866738,1.3493101506441783,0.6856270422378157,0.28856795,0.6109133247989207
0.0095,1.79774375,1.0,1297.269451378208,0.10195195995457933,1.3481382628180485,0.7064121210509546,0.2885582375,0.6135196108483144
0.01,1.7975,1.0,1374.2505636494802,0.10698929947310902,1.3470278311245234,0.7253235812058614,0.288548,0.6159811365593408
0.0105,1.79724375,1.0,1448.4274451238168,0.11199838331437928,1.3459743753919005,0.7425517520144886,0.2885372375,0.6183090930235471
0.011,1.796975,1.0,1519.7635365057213,0.11697937001817131,1.3449735828235738,0.758268882677887,0.28852595000000003,0.6205141171998305
0.0115,1.79669375,1.0,1588.2543074440084,0.12193241789471522,1.3440214430232333,0.7726298573955063,0.2885141375,0.6226060163909828
0.012,1.7964,1.0,1653.8851482233315,0.12685768282533055,1.3431146466542119,0.7857734677106871,0.28850180000000003,0.6245929185311077
0.0125,1.79609375,1.0,1716.6816115476227,0.13175532066120657,1.3422498915207193,0.7978234221190169,0.2884889375,0.6264828180932904
0.013000000000000001,1.7957750000000001,1.0,1776.6845124645092,0.13662548619919207,1.341424121709544,0.8088898708804341,0.28847555,0.6282830647795489
0.0135,1.79544375,1.0,1833.9775756406284,0.1414683350713221,1.3406341642433033,0.8190706598404867,0.2884616375,0.6300011675710022
0.014,1.7951000000000001,1.0,1888.6017327848879,0.14628401936346586,1.3398776422016452,0.8284530055175714,0.2884472,0.6316428199344721
0.0145,1.79474375,1.0,1940.6161253695032,0.15107269091347705,1.3391522330852041,0.8371144133867754,0.2884322375,0.6332135293154316
0.015,1.794375,1.0,1990.100900185693,0.15583450155920947,1.3384556143946147,0.8451237806982833,0.28841675,0.6347187407039665
0.0155,1.79399375,1.0,2037.1356209931134,0.16056960187842143,1.3377856714858152,0.8525424722097154,0.2884007375,0.6361633932999903
0.016,1.7936,1.0,2081.824791203726,0.16527814320301973,1.3371402028789718,0.8594251156329327,0.2883842,0.6375525625086917
0.0165,1.7931937500000001,1.0,2124.2356132390155,0.1699602733515403,1.3365175508100706,0.8658205879815511,0.2883671375,0.6388901084081363
0.017,1.792775,1.0,2164.4434319894867,0.1746161398843548,1.3359160975064555,0.8717725435080281,0.28834955,0.6401797686098007
0.0175,1.7923437500000001,1.0,2202.534499737104,0.17924589036183475,1.3353342251954707,0.8773200191197754,0.2883314375,0.6414252468512542
0.018000000000000002,1.7919,1.0,2238.5909722865254,0.18384967102989172,1.3347704573238797,0.8824980138837466,0.2883128,0.6426299135942617
0.0185,1.79144375,1.0,2272.7128092163803,0.18842762949560293,1.3342232263571745,0.8873379000881687,0.2882936375,0.6437973053679875
0.019,1.790975,1.0,2304.9717117161517,0.1929799096131492,1.3336913251390272,0.8918679530188444,0.28827395,0.6449301643079082
0.0195,1.79049375,1.0,2335.438665124635,0.19750665450583887,1.3331736171242297,0.8961136333409677,0.2882537375,0.6460310613914453
0.02,1.79,1.0,2364.1904029692546,0.20200800729698024,1.3326689657675745,0.900097889463356,0.288233,0.6471025485176414
0.0205,1.78949375,1.0,2391.306975470312,0.2064841107513171,1.3321762534208326,0.9038414433087354,0.2882117375,0.6481471194620498
0.021,1.788975,1.0,2416.8623449857755,0.2109351063924631,1.331694467262349,0.9073630551760801,0.28818995000000003,0.6491670292970233
0.021500000000000002,1.78844375,1.0,2440.9375916797967,0.21536113742751903,1.331222565718163,0.9106797111651249,0.2881676375,0.6501645789511388
0.022,1.7879,1.0,2463.591000323482,0.21976234217742918,1.330759761870384,0.9138068690709954,0.2881448,0.6511415176257874
0.0225,1.78734375,1.0,2484.8838702941175,0.224138858963138,1.3303052688011203,0.9167585717690414,0.28812143749999997,0.6520995835529964
0.023,1.786775,1.0,2504.8802652190498,0.22849082610558985,1.3298582995924813,0.9195475963130386,0.28809755,0.6530405044322605
0.0235,1.78619375,1.0,2523.646776348644,0.232818381925729,1.329418067326576,0.9221855855595363,0.28807313749999996,0.6539659978278807
0.024,1.7856,1.0,2541.2398942958102,0.23712166172941265,1.3289839019475669,0.9246831841717734,0.2880482,0.6548775263372248
0.0245,1.78499375,1.0,2557.728358541793,0.24140080613265363,1.328555036551219,0.9270501056002513,0.2880227375,0.6557767473113109
0.025,1.784375,1.0,2573.1613128727818,0.24565594957469417,1.3281309053757375,0.9292952708127016,0.28799675,0.6566648881929171
0.025500000000000002,1.78374375,1.0,2587.5842558567097,0.24988722498853366,1.327710990406483,0.9314268619781357,0.2879702375,0.6575430700472004
0.026000000000000002,1.7831000000000001,1.0,2601.04397557717,0.25409476530717157,1.3272947736288165,0.9334523869901517,0.2879432,0.6584124080206051
0.0265,1.78244375,1.0,2613.5884393486244,0.2582787034636072,1.326881737028099,0.9353787441307831,0.2879156375,0.6592740114715968
0.027,1.781775,1.0,2625.266689381181,0.2624391723908401,1.3264713625896918,0.9372122797444637,0.28788755,0.6601289840842794
0.0275,1.7810937500000001,1.0,2636.1240367641562,0.26657630351895584,1.3260631758407848,0.9389588456859709,0.2878589375,0.660978333420349
0.028,1.7804,1.0,2646.2007651049594,0.2706902276191818,1.3256567565491724,0.9406238466207563,0.2878298,0.6618229493427076
0.0285,1.77969375,1.0,2655.5513038181675,0.2747810798774114,1.3252515608212454,0.9422122568804433,0.2878001375,0.6626639737989277
0.029,1.778975,1.0,2664.2067575551478,0.2788489872554417,1.3248472662314195,0.943728702992293,0.28776995,0.6635020842537414
0.029500000000000002,1.7782437500000001,1.0,2672.1987534918258,0.28289407671506983,1.3244435503541099,0.9451774665144933,0.2877392375,0.664337954826595
0.03,1.7775,1.0,2679.5593956838643,0.28691647521809277,1.3240400907637322,0.9465625141697707,0.287708,0.6651722563068629
0.0305,1.77674375,1.0,2686.321221726813,0.2909163097263077,1.3236365650347022,0.9478875249891335,0.2876762375,0.666005656162433
0.031,1.775975,1.0,2692.5171617211727,0.29489370720151165,1.3232326507414351,0.9491559147948706,0.28764395,0.6668388185416627
0.0315,1.7751937500000001,1.0,2698.180499542243,0.2988487946055017,1.3228280254583467,0.9503708583124763,0.2876111375,0.6676724042687024
0.032,1.7744,1.0,2703.3380318591503,0.3027816951669243,1.3224224289092184,0.9515353156062206,0.2875778,0.6685069430366073
0.0325,1.77359375,1.0,2708.0228627189986,0.30669253764119736,1.322015545628539,0.9526520382863368,0.2875439375,0.6693430751707727
0.033,1.772775,1.0,2712.261212278642,0.31058144619469463,1.3216071252220951,0.9537235975588189,0.28750955,0.6701813042295269
0.0335,1.7719437500000002,1.0,2716.0743497407343,0.3144485417936331,1.3211969642570156,0.9547523968715016,0.2874746375,0.6710220349237164
0.034,1.7711000000000001,1.0,2719.4837120381676,0.3182939454042296,1.320784859300429,0.9557406806882244,0.2874392,0.6718656697819005
0.0345,1.7702437500000001,1.0,2722.5108866815817,0.3221177779927012,1.3203706069194643,0.9566905468796365,0.2874032375,0.672712609126448
0.035,1.7693750000000001,1.0,2725.1775955240773,0.3259201605252647,1.3199540036812503,0.95760395800996,0.28736675,0.6735632510469978
0.035500000000000004,1.76849375,1.0,2727.505679444186,0.329701213968137,1.3195348461529155,0.9584827516296227,0.2873297375,0.6744179913712776
0.036000000000000004,1.7676,1.0,2729.516884906754,0.3334610590461161,1.3191129327107716,0.9593286498023074,0.2872922,0.6752772199513093
0.0365,1.76669375,1.0,2731.2238878266226,0.33719980519976767,1.318688144978828,0.9601432734413836,0.2872541375,0.6761411551337806
0.037,1.765775,1.0,2732.65862547777,0.34091758845838116,1.3182601902288946,0.9609281324431329,0.28721555,0.6770103677151398
0.0375,1.76484375,1.0,2733.833586297223,0.34461452297729733,1.3178289530841716,0.9616846576637189,0.2871764375,0.6778850656295263
0.038,1.7639,1.0,2734.761308013554,0.348290722911857,1.3173943181678587,0.9624141941286782,0.28713679999999997,0.678765455340434
0.0385,1.76294375,1.0,2735.4543717507713,0.351946302417401,1.3169561701031556,0.9631180071198933,0.28709663750000003,0.6796517418161336
0.039,1.761975,1.0,2735.925396426271,0.35558137564927017,1.3165143935132622,0.963797287767201,0.28705595,0.680544128504247
0.0395,1.7609937500000001,1.0,2736.187033445276,0.3591960567628053,1.316068873021378,0.9644531581898668,0.2870147375,0.6814428173054718
0.04,1.76,1.0,2736.2519616891013,0.36279045991334724,1.315619493250703,0.9650866762285852,0.286973,0.6823480085464586
0.0405,1.7589937500000001,1.0,2736.132882799521,0.36636469925623677,1.3151661388244371,0.9656988398046265,0.2869307375,0.6832599009518356
0.041,1.757975,1.0,2735.842516757783,0.3699188889468148,1.3147086943657798,0.9662905909391253,0.28688795,0.6841786916153898
0.0415,1.75694375,1.0,2735.393597758727,0.373453143140422,1.3142470444979308,0.9668628194622865,0.2868446375,0.6851045759703938
0.042,1.7559,1.0,2734.7908044404767,0.37696756258805986,1.313781147089429,0.9674163703420405,0.28680079999999997,0.686037601183808
0.0425,1.75484375,1.0,2734.050065671478,0.3804622704574461,1.3133108579353252,0.9679520380125347,0.2867564375,0.6869780175377247
0.043000000000000003,1.753775,1.0,2733.185285000574,0.3839373862211934,1.3128360512521131,0.9684705751574462,0.28671155,0.6879260364699785
0.043500000000000004,1.75269375,1.0,2732.202727694148,0.3873930160070513,1.312356670654261,0.9689726979686116,0.28666613750000003,0.6888817292658975
0.044,1.7516,1.0,2731.1086624626173,0.39082926594276923,1.311872659756238,0.969459085044267,0.2866202,0.6898451661242659
0.0445,1.75049375,1.0,2729.909360157176,0.39424624215609677,1.3113839621725127,0.9699303797304311,0.2865737375,0.6908164161407755
0.045,1.7493750000000001,1.0,2728.6110925358507,0.3976440507747834,1.3108905215175537,0.970387192294264,0.28652675,0.6917955472912739
0.0455,1.74824375,1.0,2727.220131100638,0.40102279792657863,1.3103922814058295,0.9708301019429807,0.2864792375,0.6927826264148098
0.046,1.7471,1.0,2725.7427460049657,0.4043825897392319,1.3098891854518093,0.9712596587006881,0.2864312,0.6937777191964736
0.0465,1.7459437500000001,1.0,2724.18520503181,0.4077235323404928,1.3093811772699615,0.9716763851544128,0.28638263750000004,0.6947808901500404
0.047,1.744775,1.0,2722.553772641941,0.4110457318581108,1.3088682004747547,0.9720807780795987,0.28633355,0.6957922026004042
0.0475,1.74359375,1.0,2720.854709093156,0.41434929441983537,1.3083501986806578,0.9724733099544554,0.28628393750000003,0.6968117186658127
0.048,1.7424,1.0,2719.0942696294687,0.417634326153416,1.3078271155021395,0.9728544303717355,0.2862338,0.6978394992398995
0.0485,1.74119375,1.0,2717.2787037413564,0.4209009331866022,1.3072988945536683,0.9732245673557732,0.2861831375,0.6988756039735122
0.049,1.739975,1.0,2715.4095738453857,0.42414920691392227,1.3067655221052814,0.9735841297411989,0.28613195,0.6999200078044455
0.0495,1.73874375,1.0,2713.4938247165264,0.42737926203953774,1.3062269353554563,0.9739335066012313,0.2860802375,0.7009727808125166
0.05,1.7375,1.0,2711.5379775296183,0.43059120984597576,1.3056830752895092,0.9742730686877965,0.286028,0.7020339843161615
0.0505,1.73624375,1.0,2709.5447092071404,0.43378514822537495,1.3051339178881802,0.9746031703964172,0.2859752375,0.7031036101856164
0.051000000000000004,1.734975,1.0,2707.5166936418054,0.43696117506987375,1.3045794391322085,0.9749241499241519,0.28592195,0.7041816494193536
0.051500000000000004,1.73369375,1.0,2705.456601517398,0.4401193882716106,1.3040196150023344,0.975236330150287,0.2858681375,0.705268092135945
0.052000000000000005,1.7324,1.0,2703.367100143023,0.4432598857227242,1.3034544214792974,0.9755400194616669,0.2858138,0.706362927565896
0.0525,1.73109375,1.0,2701.2508532997854,0.44638276531535287,1.3028838345438372,0.9758355125265941,0.28575893750000003,0.7074661440434359
0.053,1.729775,1.0,2699.1105211002314,0.4494881249416352,1.3023078301766935,0.9761230910209252,0.28570355000000003,0.7085777289982764
0.0535,1.72844375,1.0,2696.948759860706,0.45257606249370974,1.3017263843586062,0.9764030243096964,0.2856476375,0.7096976689473298
0.054,1.7271,1.0,2694.768221986674,0.4556466758637149,1.3011394730703152,0.9766755700873618,0.2855912,0.7108259494863933
0.0545,1.7257437500000001,1.0,2692.5715558703646,0.4587000629437893,1.3005470722925598,0.9769409749794858,0.2855342375,0.7119625552817948
0.055,1.724375,1.0,2690.361405801444,0.4617363216260713,1.2999491580060805,0.9771994751085121,0.28547675,0.7131074700620006
0.0555,1.72299375,1.0,2688.1404118909336,0.46475554980269956,1.2993457061916163,0.9774512966260402,0.2854187375,0.7142606766091919
0.056,1.7216,1.0,2685.911210006873,0.46775784536581255,1.2987366928299071,0.9776966562138503,0.2853602,0.7154221567507963
0.0565,1.72019375,1.0,2683.6757899606464,0.4707432707675432,1.2981220997846703,0.9779357586608272,0.28530113749999997,0.7165918801657496
0.057,1.718775,1.0,2681.437158810467,0.47371196644450075,1.2975018995608312,0.9781688068685194,0.28524155,0.7177698334110241
0.0575,1.71734375,1.0,2679.196253177442,0.47666402350673825,1.296876083612878,0.9783959920731474,0.2851814375,0.718955966130993
0.058,1.7159,1.0,2676.9539631314283,0.4795995312976118,1.2962446438083355,0.9786174976486935,0.2851208,0.7201502264504862
0.0585,1.71444375,1.0,2674.7111772621083,0.48251857916047747,1.2956075720147269,0.978833499618255,0.2850596375,0.7213525617587948
0.059000000000000004,1.7129750000000001,1.0,2672.4687826758204,0.48542125643869155,1.2949648600995771,0.9790441670048051,0.28499795,0.7225629187067504
0.059500000000000004,1.71149375,1.0,2670.227664994177,0.48830765247561003,1.2943164999304102,0.9792496621625424,0.2849357375,0.7237812432038038
0.06,1.71,1.0,2667.9887083537556,0.4911778566145892,1.29366248337475,0.9794501410900521,0.284873,0.7250074804150977
0.0605,1.7084937500000001,1.0,2665.75279540733,0.49403195819898515,1.2930028023001212,0.979645753726408,0.2848097375,0.7262415747585335
0.061,1.7069750000000001,1.0,2663.520807326752,0.4968700465721541,1.2923374485740478,0.9798366442312652,0.28474595,0.7274834699018367
0.0615,1.7054437500000001,1.0,2661.293623806919,0.4996922110774521,1.2916664140640537,0.9800229512499297,0.2846816375,0.7287331087596174
0.062,1.7039,1.0,2659.0721230720474,0.5024985410582353,1.2909896906376634,0.9802048081643135,0.2846168,0.7299904334904239
0.0625,1.70234375,1.0,2656.8571818820155,0.50528912585786,1.2903072701624012,0.9803823433306326,0.2845514375,0.7312553854937965
0.063,1.7007750000000001,1.0,2654.64967554167,0.5080640548196823,1.2896191445057907,0.9805556803046325,0.28448555,0.7325279054073148
0.0635,1.69919375,1.0,2652.450477910655,0.5108234172870583,1.288925305535357,0.9807249380550958,0.28441913750000003,0.7338079331036373
0.064,1.6976,1.0,2650.2604614147062,0.513567302603344,1.2882257451186232,0.9808902311663134,0.2843522,0.7350954076875461
0.0645,1.69599375,1.0,2648.080497059291,0.5162958001118958,1.2875204551231143,0.9810516700301687,0.2842847375,0.7363902674929759
0.065,1.694375,1.0,2645.907464145399,0.5190089559989639,1.286809464255134,0.9812093598116246,0.28421675,0.7376923826966933
0.0655,1.69274375,1.0,2643.743764501397,0.521706888861681,1.2860927502630617,0.9813634044783737,0.2841482375,0.7390017163485887
0.066,1.6911,1.0,2641.5921607907308,0.5243897118539099,1.2853702875251787,0.9815139036950877,0.2840792,0.7403182366001175
0.0665,1.6894437500000001,1.0,2639.4526210160907,0.5270575047879342,1.284642076210668,0.9816609525394275,0.2840096375,0.7416418636813783
0.067,1.687775,1.0,2637.325113280625,0.529710347476038,1.2839081164887132,0.9818046427440056,0.28393955,0.7429725171933395
0.0675,1.68609375,1.0,2635.209605788396,0.5323483197305048,1.283168408528497,0.9819450628360585,0.2838689375,0.7443101161079027
0.068,1.6844000000000001,1.0,2633.106066843377,0.5349715013636187,1.2824229524992024,0.9820822982703329,0.2837978,0.7456545787679634
0.0685,1.68269375,1.0,2631.0144648492615,0.5375799721876634,1.2816717485700126,0.9822164315555616,0.2837261375,0.7470058228874732
0.069,1.680975,1.0,2628.934768309141,0.5401738120149229,1.2809147969101111,0.9823475423748806,0.28365395,0.7483637655515021
0.0695,1.67924375,1.0,2626.8669458249583,0.5427531006576808,1.2801520976886807,0.9824757077005164,0.28358123749999997,0.7497283232163008
0.07,1.6775,1.0,2624.81096609735,0.5453179179282212,1.2793836510749044,0.9826010019030537,0.283508,0.7510994117093626
0.07050000000000001,1.67574375,1.0,2622.766797925068,0.5478683436388276,1.2786094572379656,0.9827234968555715,0.2834342375,0.7524769462294841
0.07100000000000001,1.673975,1.0,2620.7344102045336,0.5504044576017842,1.2778295163470472,0.982843262032926,0.28335995,0.7538608413468297
0.07150000000000001,1.67219375,1.0,2618.713771929775,0.5529263396293748,1.2770438285713326,0.982960364606434,0.2832851375,0.7552510110029913
0.07200000000000001,1.6704,1.0,2616.7048521918528,0.555434069533883,1.2762523940800046,0.9830748695341971,0.2832098,0.7566473685110519
0.0725,1.66859375,1.0,2614.7076201782884,0.5579277271275926,1.2754552130422465,0.9831868396472994,0.2831339375,0.758049826555646
0.073,1.6667750000000001,1.0,2612.722045173065,0.5604073922227878,1.2746522856272413,0.9832963357320886,0.28305755,0.7594582971930238
0.0735,1.66494375,1.0,2610.7480965560567,0.5628731446317522,1.2738436120041723,0.983403416608746,0.2829806375,0.7608726918511108
0.074,1.6631,1.0,2608.7857438024585,0.5653250641667698,1.2730291923422223,0.9835081392063314,0.2829032,0.7622929213295719
0.0745,1.6612437500000001,1.0,2606.834956482724,0.5677632306401241,1.2722090268105748,0.9836105586344863,0.2828252375,0.7637188957998717
0.075,1.659375,1.0,2604.8957042621923,0.5701877238640993,1.2713831155784125,0.9837107282519644,0.28274675,0.765150524805338
