Time [s],Phi [rad],STIM [ ],Fsee [N],Gamma [ ],Lcerel [ ],q [ ],Lmtc [m],fisomrel [ ]
0.0,1.8,1.0,18.010135860831223,0.000210743835440435,1.379334934156689,0.0050115552536471805,0.288653,0.5411511726031264
0.0005,1.79999375,1.0,18.384967897682433,0.005818771038019622,1.3792903839808823,0.013507208960830037,0.2886527375,0.5412589433024071
0.001,1.799975,1.0,21.875679307950957,0.011395341641967753,1.3789121006661464,0.03666231419556943,0.28865195,0.5421735330636739
0.0015,1.79994375,1.0,31.648315712782725,0.016940632094904436,1.3779970958922916,0.07203911883986279,0.2886506375,0.5443820009470464
0.002,1.7999,1.0,54.80176712062805,0.022454817852607337,1.3762894696549268,0.11641698990480623,0.2886488,0.5484892698559117
0.0025,1.79984375,1.0,99.14472390919305,0.02793807338774094,1.3738380532616723,0.1664211979142585,0.28864643749999996,0.5543530291247547
0.003,1.7997750000000001,1.0,163.57876544205934,0.03339057219586003,1.3711166483011188,0.2191839159636226,0.28864354999999997,0.5608177083984175
0.0035,1.79969375,1.0,240.63585136676144,0.03881248679645691,1.3684940695042433,0.2725052090913843,0.2886401375,0.567002936033807
0.004,1.7996,1.0,324.60299783881663,0.04420398874326108,1.3660732273521783,0.324747460279211,0.2886362,0.5726734445662003
0.0045000000000000005,1.7994937500000001,1.0,412.51205026915903,0.049565248629582274,1.3638468084202655,0.37477279872559927,0.2886317375,0.5778555484769982
0.005,1.799375,1.0,502.72128454928503,0.05489643608017753,1.3617881682930868,0.42187347000069586,0.28862675,0.5826190091936643
0.0055,1.79924375,1.0,594.1253801594016,0.060197719789613274,1.3598737696410073,0.4656789411316817,0.2886212375,0.5870244576670002
0.006,1.7991000000000001,1.0,685.8543877587592,0.06546926748838021,1.3580858439978045,0.5060631597984638,0.2886152,0.591117756149171
0.006500000000000001,1.79894375,1.0,777.1951214350801,0.07071124595794931,1.3564107442223783,0.5430654102860796,0.2886086375,0.5949342519223548
0.007,1.798775,1.0,867.5586222828324,0.07592382111399312,1.3548375785633702,0.5768292346636599,0.28860155,0.5985022093089417
0.0075,1.79859375,1.0,956.4552339962182,0.08110715774581927,1.3533574165735567,0.6075581049403226,0.2885939375,0.6018448219147383
0.008,1.7984,1.0,1043.5073187178332,0.08626142011912354,1.3519623206915485,0.6354844190686061,0.2885858,0.6049825408591185
0.0085,1.79819375,1.0,1128.3932894317406,0.09138677106077163,1.3506456830780114,0.6608495328320545,0.2885771375,0.6079324137077642
0.009000000000000001,1.797975,1.0,1210.8681772018706,0.09648337269606796,1.3494015057862678,0.6838905718727031,0.28856795,0.6107097823797469
0.0095,1.79774375,1.0,1290.7737800489813,0.10155138674275402,1.348224014174125,0.7048326710405031,0.2885582375,0.6133291962769731
0.01,1.7975,1.0,1367.9686075832126,0.10659097309532534,1.3471083961361674,0.7238853372689082,0.288548,0.6158028103691884
0.0105,1.79724375,1.0,1442.3643564962556,0.11160229111217837,1.34605010890865,0.7412403103199652,0.2885372375,0.6181419710596665
0.011,1.796975,1.0,1513.9272670230448,0.11658549985624209,1.3450447454971304,0.7570712179574193,0.28852595000000003,0.6203575370051675
0.0115,1.79669375,1.0,1582.6346372287353,0.12154075693803039,1.344088465868505,0.7715343742251743,0.2885141375,0.6224589529855187
0.012,1.7964,1.0,1648.4796884349396,0.1264682186320623,1.3431778183647407,0.7847697541665031,0.28850180000000003,0.6244546715000543
0.0125,1.79609375,1.0,1711.4888969676235,0.13136804073985553,1.3423094530370037,0.7969021873125564,0.2884889375,0.6263528008976639
0.013000000000000001,1.7957750000000001,1.0,1771.7204749707637,0.13624037929934193,1.341480087281271,0.8080427658465478,0.28847555,0.6281611925713504
0.0135,1.79544375,1.0,1829.22259947692,0.14108538835715587,1.340686926150527,0.8182904104958224,0.2884616375,0.6298865381062033
0.014,1.7951000000000001,1.0,1884.041567645833,0.14590322033461728,1.339927503106188,0.8277331172810545,0.2884472,0.6315347341581397
0.0145,1.79474375,1.0,1936.247653858009,0.15069402765304604,1.339199351609671,0.8364490642996752,0.2884322375,0.6331116067205957
0.015,1.794375,1.0,1985.920386813287,0.15545796190180106,1.338500139781568,0.8445077897323512,0.28841675,0.6346226255352647
0.0155,1.79399375,1.0,2033.1544674336815,0.16019517520465087,1.3378275796537913,0.8519711729687169,0.2884007375,0.6360731072234098
0.016,1.7936,1.0,2078.023534581207,0.16490581692874096,1.33717978425271,0.8588944464584763,0.2883842,0.6374674524594897
0.0165,1.7931937500000001,1.0,2120.599152091254,0.1695900352118868,1.3365550352453917,0.8653269067122015,0.2883671375,0.6388096564125421
0.017,1.792775,1.0,2160.965309254715,0.174247978191904,1.3359516142989039,0.8713125668536679,0.28834955,0.6401036761797212
0.0175,1.7923437500000001,1.0,2199.2108498194343,0.17887979331677248,1.3353678690094308,0.8768907988765626,0.2883314375,0.6413532922068663
0.018000000000000002,1.7919,1.0,2235.42863807498,0.1834856281946643,1.3348022086031464,0.8820968780628541,0.2883128,0.6425621209006864
0.0185,1.79144375,1.0,2269.703326595603,0.18806562907853297,1.3342532145835408,0.8869624876591691,0.2882936375,0.6437333818257953
0.019,1.790975,1.0,2302.103322279919,0.1926199395628982,1.3337197061504562,0.8915161475870209,0.28827395,0.6448697631596083
0.0195,1.79049375,1.0,2332.7034857502204,0.19714870324227943,1.3332005025037332,0.8957835185492747,0.2882537375,0.6459739321787618
0.02,1.79,1.0,2361.584593603714,0.2016520637111963,1.3326944228432136,0.8997877265896863,0.288233,0.6470485363808067
0.0205,1.78949375,1.0,2388.8216067232634,0.20613016298082315,1.3322003954313035,0.9035496712221217,0.2882117375,0.6480959734543545
0.021,1.788975,1.0,2414.502589768637,0.21058314511076326,1.331717267240053,0.9070882321313308,0.28818995000000003,0.6491187966032885
0.021500000000000002,1.78844375,1.0,2438.6956073389856,0.21501115070851218,1.3312441203879324,0.9104205548141415,0.2881676375,0.6501190456263551
0.022,1.7879,1.0,2461.459466038448,0.2194143184573783,1.3307801599539228,0.9135622139976424,0.2881448,0.6510984878216111
0.0225,1.78734375,1.0,2482.8560289668926,0.22379278704067013,1.330324591017006,0.916527357074593,0.28812143749999997,0.6520588793668612
0.023,1.786775,1.0,2502.9499613240255,0.22814669514169605,1.3298766186561635,0.9193288546687692,0.28809755,0.65300196576523
0.0235,1.78619375,1.0,2521.806361719397,0.23247618106184006,1.3294354680767362,0.9219784371103238,0.28807313749999996,0.6539294399651203
0.024,1.7856,1.0,2539.480634906686,0.2367813809964028,1.3290004775608761,0.9244868274686576,0.2880482,0.6548427479742203
0.0245,1.78499375,1.0,2556.0514961961267,0.24106243489910392,1.328570784673575,0.926863790224151,0.2880227375,0.6557437482748444
0.025,1.784375,1.0,2571.5632458416326,0.24531947619417524,1.328145868294186,0.9291183167440877,0.28799675,0.6566335750046388
0.025500000000000002,1.78374375,1.0,2586.0616035603275,0.24955263830584853,1.327725207302063,0.9312586453943985,0.2879702375,0.6575133561824614
0.026000000000000002,1.7831000000000001,1.0,2599.5935911306537,0.25376205465835555,1.3273082805765588,0.9332923348229869,0.2879432,0.6583842138584715
0.0265,1.78244375,1.0,2612.207421011422,0.2579478586759281,1.3268945669970278,0.9352263292176858,0.2879156375,0.6592472642468932
0.027,1.781775,1.0,2623.9523909825525,0.26211018378279805,1.3264835454428228,0.9370670165030409,0.28788755,0.6601036178414678
0.0275,1.7810937500000001,1.0,2634.8726231784217,0.2662491595794742,1.3260747517969604,0.9388202873013356,0.2878589375,0.6609542609711436
0.028,1.7804,1.0,2645.0191441022175,0.2703649222252699,1.3256676659946085,0.9404915682750936,0.2878298,0.6618002912169136
0.0285,1.77969375,1.0,2654.426535800739,0.27445759995484015,1.3252619270069035,0.942085889502239,0.2878001375,0.6626424707900376
0.029,1.778975,1.0,2663.1295405892624,0.27852732074269543,1.3248571779852263,0.9436079008450251,0.28776995,0.6634815494626116
0.029500000000000002,1.7782437500000001,1.0,2671.163458055864,0.2825742125633464,1.3244530620809583,0.9450619051490748,0.2877392375,0.6643182732981182
0.03,1.7775,1.0,2678.564093976939,0.28659840339130377,1.3240492224454805,0.9464518885839943,0.287708,0.6651533846698964
0.0305,1.77674375,1.0,2685.3677120560656,0.29060002120107814,1.3236453022301742,0.9477815479705142,0.2876762375,0.6659876222714899
0.031,1.775975,1.0,2691.602626890185,0.2945791891162581,1.323241021123298,0.9490543236116155,0.28764395,0.6668215633391827
0.0315,1.7751937500000001,1.0,2697.301960521603,0.2985360355440244,1.3228360579131475,0.9502734092749977,0.2876111375,0.667655866425698
0.032,1.7744,1.0,2702.5073567425566,0.3024706943255178,1.3224300164627494,0.9514417685371774,0.2875778,0.6684913408285433
0.0325,1.77359375,1.0,2707.2401357330004,0.30638328664462616,1.3220226889946232,0.9525621798729308,0.2875439375,0.6693284048873476
0.033,1.772775,1.0,2711.5218278080256,0.31027393368523726,1.321613867731289,0.9536372329723394,0.28750955,0.6701674747542123
0.0335,1.7719437500000002,1.0,2715.3741538150007,0.31414275663123903,1.321203344895266,0.9546693438362953,0.2874746375,0.6710089643752959
0.034,1.7711000000000001,1.0,2718.8190064877035,0.3179898766665193,1.3207909127090747,0.9556607684939407,0.2874392,0.6718532854696392
0.0345,1.7702437500000001,1.0,2721.8784327582425,0.3218154149749659,1.3203763633952341,0.9566136154824016,0.2874032375,0.6727008475052452
0.035,1.7693750000000001,1.0,2724.5746170251487,0.3256194927404667,1.3199594891762645,0.9575298572135122,0.28736675,0.6735520576723977
0.035500000000000004,1.76849375,1.0,2726.92986537988,0.3294022311469096,1.3195400822746854,0.9584113403384324,0.2873297375,0.6744073208542323
0.036000000000000004,1.7676,1.0,2728.966590789299,0.3331637513781823,1.3191179349130167,0.9592597952089332,0.2872922,0.6752670395945526
0.0365,1.76669375,1.0,2730.7045249669086,0.33690417153803826,1.3186928645252693,0.9600768463848761,0.2872541375,0.6761315628210406
0.037,1.765775,1.0,2732.159502257704,0.3406236085385839,1.3182647246546395,0.9608640219094833,0.28721555,0.6770011640322273
0.0375,1.76484375,1.0,2733.3544750596966,0.34432218897760647,1.3178333047619168,0.9616227527913904,0.2871764375,0.6778762448473166
0.038,1.7639,1.0,2734.3018887185412,0.34800002682580017,1.3173984902719613,0.9623543906823817,0.28713679999999997,0.6787570101182387
0.0385,1.76294375,1.0,2735.0142321858507,0.3516572360538593,1.3169601666096322,0.9630602070255879,0.28709663750000003,0.6796436632104407
0.039,1.761975,1.0,2735.5040324473835,0.35529393063247805,1.31651821919979,0.9637413986845803,0.28705595,0.6805364059776586
0.0395,1.7609937500000001,1.0,2735.783849242966,0.3589102245323507,1.3160725334672938,0.9643990931189365,0.2870147375,0.6814354387358623
0.04,1.76,1.0,2735.8662700766226,0.36250623172417157,1.315622994837004,0.9650343531472849,0.286973,0.6823409602363539
0.0405,1.7589937500000001,1.0,2735.76390551832,0.36608206617863487,1.31516948873378,0.965648181334745,0.2869307375,0.683253167638035
0.041,1.757975,1.0,2735.4893847965986,0.3696378418664349,1.3147119005824817,0.9662415240380249,0.28688795,0.6841722564788335
0.0415,1.75694375,1.0,2735.055351682101,0.3731736727582658,1.314250115807969,0.9668152751382018,0.2868446375,0.6850984206462951
0.042,1.7559,1.0,2734.467609662319,0.3766896620319209,1.3137840820514755,0.9673702829053826,0.28680079999999997,0.6860317278415591
0.0425,1.75484375,1.0,2733.739545879447,0.3801859283042954,1.3133136781733572,0.967907346456024,0.2867564375,0.6869723822368685
0.043000000000000003,1.753775,1.0,2732.886970408103,0.3836625936737651,1.3128387610642895,0.9684272207436662,0.28671155,0.687920630024746
0.043500000000000004,1.75269375,1.0,2731.9161525080417,0.38711976434079126,1.3123592742939876,0.9689306250592792,0.28666613750000003,0.6888765426101194
0.044,1.7516,1.0,2730.8333649947945,0.390557546505835,1.3118751614321662,0.9694182409058696,0.2866202,0.6898401903114166
0.0445,1.75049375,1.0,2729.6448829299247,0.3939760463693577,1.3113863660485405,0.9698907143539068,0.2865737375,0.6908116423440189
0.045,1.7493750000000001,1.0,2728.3569823808325,0.39737537013182045,1.3108928317128254,0.9703486582275797,0.28652675,0.6917909668035103
0.0455,1.74824375,1.0,2726.975939251851,0.4007556239936845,1.310394501994736,0.9707926541355709,0.2864792375,0.6927782306487238
0.046,1.7471,1.0,2725.5080281858814,0.40411691415541096,1.3098913204639873,0.971223254358806,0.2864312,0.6937734996845866
0.0465,1.7459437500000001,1.0,2723.9595215362338,0.4074593468174612,1.3093832306902942,0.9716409836065304,0.28638263750000004,0.6947768385447584
0.047,1.744775,1.0,2722.3366884094025,0.41078302818029633,1.3088701762433719,0.9720463406510705,0.28633355,0.6957883106740701
0.0475,1.74359375,1.0,2720.645793778765,0.4140880644443776,1.3083521006929353,0.9724397998507265,0.28628393750000003,0.6968079783107586
0.048,1.7424,1.0,2718.893097667747,0.41737456181016624,1.3078289476086993,0.9728218125694337,0.2862338,0.697835902468497
0.0485,1.74119375,1.0,2717.0848544051178,0.42064262647812345,1.3073006605603792,0.9731928085010888,0.2861831375,0.6988721429182226
0.049,1.739975,1.0,2715.2227268935158,0.42389234762575034,1.3067672249035274,0.9735531977184199,0.28613195,0.699916676418969
0.0495,1.73874375,1.0,2713.315267078865,0.4271238458712475,1.3062285631835353,0.9739033705019515,0.2860802375,0.700969601691797
0.05,1.7375,1.0,2711.367349064455,0.43033722780009515,1.3056846313907498,0.9742436994753056,0.286028,0.7020309506744307
0.0505,1.73624375,1.0,2709.381692135165,0.4335325914931444,1.3051354051205797,0.9745745403594929,0.2859752375,0.7031007160137108
0.051000000000000004,1.734975,1.0,2707.361012513106,0.43671003503124634,1.3045808599684336,0.9748962326039253,0.28592195,0.7041788894798771
0.051500000000000004,1.73369375,1.0,2705.308023174277,0.43986965649525206,1.3040209715297204,0.9752091002717564,0.2858681375,0.7052654619583065
0.052000000000000005,1.7324,1.0,2703.225433678688,0.4430115539660127,1.3034557153998487,0.9755134528695265,0.2858138,0.7063604234412182
0.0525,1.73109375,1.0,2701.1159500136228,0.44613582552437936,1.3028850671742271,0.975809586125069,0.28575893750000003,0.7074637630193364
0.053,1.729775,1.0,2698.9822744500384,0.4492425692512032,1.3023090024482646,0.9760977827173308,0.28570355000000003,0.7085754688735176
0.0535,1.72844375,1.0,2696.8271054124357,0.4523318832273353,1.3017274968173695,0.976378312961461,0.2856476375,0.7096955282663402
0.054,1.7271,1.0,2694.653137361539,0.4554038655336268,1.301140525876951,0.9766514354522715,0.2855912,0.7108239275336523
0.0545,1.7257437500000001,1.0,2692.463060690509,0.45845861425092865,1.3005480652224175,0.9769173976689289,0.2855342375,0.7119606520760888
0.055,1.724375,1.0,2690.2595616340027,0.46149622746009217,1.2999500904491779,0.9771764365435207,0.28547675,0.7131056863505422
0.0555,1.72299375,1.0,2688.045322190958,0.46451680324196837,1.299346577152641,0.9774287789959369,0.2854187375,0.7142590138616008
0.056,1.7216,1.0,2685.8218394508494,0.4675204257136467,1.2987375117464133,0.9776746417724832,0.2853602,0.7154205965419693
0.0565,1.72019375,1.0,2683.5905758271565,0.47050718498124255,1.2981228809400602,0.9779142332111308,0.28530113749999997,0.7165903949617305
0.057,1.718775,1.0,2681.35561798412,0.47347720832410894,1.2975026473548312,0.978147755041405,0.28524155,0.7177684145946013
0.0575,1.71734375,1.0,2679.117901770754,0.4764305851503217,1.2968768024575992,0.9783753989697951,0.2851814375,0.7189546051101774
0.058,1.7159,1.0,2676.8783614919207,0.47936740486795665,1.296245337715237,0.9785973489506365,0.2851208,0.7201489154400038
0.0585,1.71444375,1.0,2674.6379299026603,0.4822877568850896,1.2956082445946173,0.9788137815592571,0.2850596375,0.7213512937745182
0.059000000000000004,1.7129750000000001,1.0,2672.3975382039853,0.4851917306097964,1.2949655145626138,0.9790248663442994,0.28499795,0.7225616875599887
0.059500000000000004,1.71149375,1.0,2670.1581160409355,0.4880794154501529,1.2943171390860988,0.9792307661605382,0.2849357375,0.7237800434954528
0.06,1.71,1.0,2667.9205915012367,0.49095090081423476,1.2936631096319458,0.9794316374834132,0.284873,0.7250063075296422
0.0605,1.7084937500000001,1.0,2665.6858911167183,0.49380627611011796,1.2930034176670273,0.9796276307064192,0.2848097375,0.7262404248579131
0.061,1.7069750000000001,1.0,2663.45493986562,0.4966456307458783,1.2923380546582164,0.9798188904224059,0.28474595,0.7274823399191636
0.0615,1.7054437500000001,1.0,2661.2286611762,0.4994690541295915,1.2916670120723863,0.9800055556897819,0.2846816375,0.7287319963927502
0.062,1.7039,1.0,2659.007976933442,0.5022766356693336,1.2909902813764098,0.9801877602845346,0.2846168,0.7299893371954014
0.0625,1.70234375,1.0,2656.7938074853682,0.5050684647731802,1.2903078540371598,0.9803656329389264,0.2845514375,0.7312543044781223
0.063,1.7007750000000001,1.0,2654.587071652524,0.5078446308492072,1.2896197215215093,0.9805392975676636,0.28448555,0.7325268396230976
0.0635,1.69919375,1.0,2652.388686738493,0.5106052233054904,1.2889258752963313,0.980708873482285,0.28441913750000003,0.7338068832405894
0.064,1.6976,1.0,2650.1995685416373,0.5133503315501057,1.288226306828499,0.9808744755944653,0.2843522,0.7350943751658291
0.0645,1.69599375,1.0,2648.0206313696813,0.5160800449911288,1.2875210075848849,0.9810362146088837,0.2842847375,0.7363892544559074
0.065,1.694375,1.0,2645.849622159772,0.5187944231334903,1.2868099982604975,0.9811941965463996,0.28421675,0.73769140592415
0.0655,1.69274375,1.0,2643.686550029451,0.5214935603935188,1.2860932786912078,0.9813485250527885,0.2841482375,0.7390007521929685
0.066,1.6911,1.0,2641.5354386549625,0.52417758019337,1.285370811619436,0.981499300233337,0.2840792,0.740317282766787
0.0665,1.6894437500000001,1.0,2639.3962716730184,0.5268465624898987,1.2846425970714015,0.9816466174430836,0.2840096375,0.7416409181519381
0.067,1.687775,1.0,2637.2690327941195,0.5295005872399592,1.2839086350733235,0.9817905686801927,0.28393955,0.742971578223222
0.0675,1.68609375,1.0,2635.1537058032673,0.5321397344004062,1.2831689256514216,0.9819312427262086,0.2838689375,0.7443091822239147
0.068,1.6844000000000001,1.0,2633.0502745596477,0.534764083928094,1.2824234688319145,0.9820687252794902,0.2837978,0.7456536487657801
0.0685,1.68269375,1.0,2630.9587229961844,0.5373737157798774,1.281672264641022,0.982203099082207,0.2837261375,0.7470048958290756
0.069,1.680975,1.0,2628.879035120124,0.5399687099126107,1.2809153131049629,0.9823344440412463,0.28365395,0.748362840762566
0.0695,1.67924375,1.0,2626.8111950123966,0.5425491462831487,1.2801526142499566,0.9824628373433645,0.28358123749999997,0.7497274002835299
0.07,1.6775,1.0,2624.7551868280084,0.5451151048483456,1.2793841681022227,0.9825883535648922,0.283508,0.7510984904777711
0.07050000000000001,1.67574375,1.0,2622.7109947957233,0.5476666655650562,1.27860997468798,0.9827110647762867,0.2834342375,0.7524760267996274
0.07100000000000001,1.673975,1.0,2620.6786032180034,0.5502039083901349,1.277830034033448,0.9828310406418054,0.28335995,0.7538599240719805
0.07150000000000001,1.67219375,1.0,2618.6579964710804,0.5527269132804362,1.277044346164846,0.9829483485145617,0.2832851375,0.755250096486266
0.07200000000000001,1.6704,1.0,2616.6491590048613,0.5552357601928148,1.2762529111083931,0.9830630535272005,0.2832098,0.7566464576024817
0.0725,1.66859375,1.0,2614.652075342775,0.557730529084125,1.2754557288903086,0.9831752186784296,0.2831339375,0.7580489203491991
0.073,1.6667750000000001,1.0,2612.666730081744,0.5602112999112216,1.274652799536812,0.9832849049156167,0.28305755,0.7594573970235707
0.0735,1.66494375,1.0,2610.69310789235,0.562678152630959,1.273844123074122,0.9833921712136567,0.2829806375,0.760871799291343
0.074,1.6631,1.0,2608.7311935182934,0.5651311672001917,1.2730296995284585,0.9834970746503037,0.2829032,0.7622920381868613
0.0745,1.6612437500000001,1.0,2606.780971776879,0.5675704235757743,1.2722095289260402,0.9835996704781408,0.2828252375,0.7637180241130844
0.075,1.659375,1.0,2604.8424275584766,0.5699960017145612,1.271383611293087,0.9837000121933667,0.28274675,0.7651496668415901
0.0755,1.65749375,1.0,2602.915020381581,0.5724079674580336,1.2705519515466746,0.983798151031672,0.2826677375,0.7665868670736157
