Time [s],Phi [rad],STIM [ ],Fsee [N],Gamma [ ],Lcerel [ ],q [ ],Lmtc [m],fisomrel [ ]
0.0,1.8,1.0,17.9718532740841,7.126286439928666e-05,1.3793392202451338,0.00500133266617143,0.288653,0.5411408035198146
0.0005,1.79999375,1.0,18.30155619069392,0.005680072444899346,1.3792996325890983,0.013111466771241097,0.2886527375,0.5412365711663747
0.001,1.799975,1.0,21.68873755450664,0.011257421038276101,1.3789311221211775,0.035928524419710776,0.28865195,0.5421275659693408
0.0015,1.79994375,1.0,31.236790337902665,0.01680348511670474,1.3780319478694836,0.07103921492213336,0.2886506375,0.544297979559962
0.002,1.7999,1.0,53.943789554932465,0.022318440160618673,1.3763447252075773,0.11523570491485263,0.2886488,0.5483566575524015
0.0025,1.79984375,1.0,97.72647932772824,0.027802460666687897,1.3739059369183604,0.16513790294242972,0.28864643749999996,0.5541911681671017
0.003,1.7997750000000001,1.0,161.748790715126,0.03325572015497205,1.3711847862035584,0.21786118521068792,0.28864354999999997,0.5606564237596258
0.0035,1.79969375,1.0,238.57669194460564,0.03867839116896489,1.3685572421783643,0.271190427049121,0.2886401375,0.56685446185548
0.004,1.7996,1.0,322.41725078063746,0.044070645286250286,1.3661309364070677,0.3234749736314554,0.2886362,0.5725387034620018
0.0045000000000000005,1.7994937500000001,1.0,410.25202058521836,0.04943265312372378,1.363899723477438,0.37356527912160764,0.2886317375,0.5777327527201666
0.005,1.799375,1.0,500.417835064772,0.05476458432901237,1.3618370111176492,0.4207440173788789,0.28862675,0.5825063054382851
0.0055,1.79924375,1.0,591.8035942079202,0.060066607624542766,1.3599190484946677,0.46463342078799963,0.2886212375,0.5869205310289957
0.006,1.7991000000000001,1.0,683.532468621132,0.06533889075885459,1.3581279832229436,0.5051024359324912,0.2886152,0.5910215166858005
0.006500000000000001,1.79894375,1.0,774.8902562301337,0.07058160055816141,1.3564500349637567,0.542187031921565,0.2886086375,0.5948449380559204
0.007,1.798775,1.0,865.2801840386408,0.07579490288048348,1.3548743373061185,0.5760288181585232,0.28860155,0.5984190201579822
0.0075,1.79859375,1.0,954.2209153225575,0.08097896273269828,1.3533917450100847,0.606830094199563,0.2885939375,0.6017674571387986
0.008,1.7984,1.0,1041.316811837053,0.08613394408347629,1.3519945397129258,0.6348229697548871,0.2885858,0.6049102168759104
0.0085,1.79819375,1.0,1126.2551226236187,0.09126001007124278,1.350675924666135,0.660248662116099,0.2885771375,0.6078647827154056
0.009000000000000001,1.797975,1.0,1208.7750831654741,0.09635732208004115,1.3494300827107104,0.6833446176566537,0.28856795,0.6106461010739352
0.0095,1.79774375,1.0,1288.7432210272532,0.10142604304382086,1.348250864454794,0.7043361242727193,0.2885582375,0.6132695644339565
0.01,1.7975,1.0,1366.0289028227044,0.10646633338197646,1.3471333098790166,0.7234330537794593,0.288548,0.6157476567998682
0.0105,1.79724375,1.0,1440.51044115853,0.1114783512939396,1.3460732977689944,0.7408278226150795,0.2885372375,0.6180907926380514
0.011,1.796975,1.0,1512.1284112442715,0.11646225497914191,1.3450667069103432,0.7566946319071791,0.28852595000000003,0.620309208488684
0.0115,1.79669375,1.0,1580.8800654992579,0.12141820263701508,1.3441094160886788,0.7711900695412002,0.2885141375,0.6224129775481777
0.012,1.7964,1.0,1646.790211849484,0.1263463516569346,1.3431975839223904,0.7844543291405318,0.28850180000000003,0.624411410681868
0.0125,1.79609375,1.0,1709.880906305064,0.13124685806501216,1.3423279153411574,0.79661263728674,0.2884889375,0.6263124948283718
0.013000000000000001,1.7957750000000001,1.0,1770.1764931605067,0.1361198762953934,1.3414975104283982,0.8077765711802176,0.28847555,0.6281232473571623
0.0135,1.79544375,1.0,1827.7271814199842,0.14096556041294087,1.340703533698175,0.8180453165102342,0.2884616375,0.6298504532065579
0.014,1.7951000000000001,1.0,1882.6056165449609,0.14578406417429027,1.3399432163034808,0.8275070106545342,0.2884472,0.6315006686519289
0.0145,1.79474375,1.0,1934.8853999715304,0.15057554070533785,1.3392140558092565,0.8362400556347073,0.2884322375,0.6330797970071258
0.015,1.794375,1.0,1984.626394998996,0.15534014055385192,1.3385139311941836,0.8443142697807349,0.28841675,0.6345928520008276
0.0155,1.79399375,1.0,2031.9068384205007,0.16007801426760077,1.337840721436943,0.8517917619395333,0.2884007375,0.6360447925349677
0.016,1.7936,1.0,2076.8132262859954,0.1647893116637249,1.337192394436247,0.858727869298074,0.2883842,0.6374403352498421
0.0165,1.7931937500000001,1.0,2119.4403385229166,0.1694741829470691,1.336566986981648,0.865171953805628,0.2883671375,0.6387840027872931
0.017,1.792775,1.0,2159.876245901103,0.17413277701783353,1.335962741126356,0.8711681468036098,0.28834955,0.6400798360167894
0.0175,1.7923437500000001,1.0,2198.1886253898865,0.1787652398756126,1.335378221638994,0.8767559948788857,0.2883314375,0.6413311493949803
0.018000000000000002,1.7919,1.0,2234.454562710303,0.1833717175200006,1.3348119932881868,0.8819709090979109,0.2883128,0.6425412281581351
0.0185,1.79144375,1.0,2268.759767817161,0.18795235595059184,1.3342626208425579,0.8868446479808298,0.2882936375,0.6437133300620677
0.019,1.790975,1.0,2301.1885838697503,0.19250730004592964,1.3337287606621917,0.891405762627346,0.28827395,0.6448504920499922
0.0195,1.79049375,1.0,2331.83210311696,0.19703669553632758,1.3332090710485474,0.8956799434035428,0.2882537375,0.645955723759452
0.02,1.79,1.0,2360.7670148163297,0.20154068581471693,1.3327024129545786,0.8996903892192931,0.288233,0.6470315829534473
0.0205,1.78949375,1.0,2388.05791754074,0.20601941203015722,1.3322078161654363,0.903458077332532,0.2882117375,0.6480802515261215
0.021,1.788975,1.0,2413.7738619904744,0.21047301533170792,1.3317243104662708,0.9070019725923022,0.28818995000000003,0.6491038961915726
0.021500000000000002,1.78844375,1.0,2437.9879805419296,0.21490163686842859,1.331250925642233,0.9103392480961792,0.2881676375,0.65010466920014
0.022,1.7879,1.0,2460.771524263397,0.2193054165903909,1.3307867452160138,0.913485489490574,0.2881448,0.6510845956294515
0.0225,1.78734375,1.0,2482.196770219648,0.2236844952611865,1.3303308744406526,0.9164548591783072,0.28812143749999997,0.652045642191562
0.023,1.786775,1.0,2502.3307936620135,0.2280390126154087,1.3298824962073659,0.9192602559020816,0.28809755,0.6529896004336647
0.0235,1.78619375,1.0,2521.2270386075725,0.23236910471936967,1.3294409467740742,0.9219134584276347,0.28807313749999996,0.6539179291728368
0.024,1.7856,1.0,2538.941075696583,0.23667490763938148,1.3290055623986976,0.9244252136251959,0.2880482,0.6548320787969282
0.0245,1.78499375,1.0,2555.530423507187,0.24095655744175626,1.3285756793391563,0.9268053410818514,0.2880227375,0.6557334915395789
0.025,1.784375,1.0,2571.0543796381016,0.24521419019280616,1.3281506338533706,0.9290628258410188,0.28799675,0.6566236017271401
0.025500000000000002,1.78374375,1.0,2585.5627290257867,0.2494479392057233,1.3277298661681445,0.9312059168617244,0.2879702375,0.657503618690721
0.026000000000000002,1.7831000000000001,1.0,2599.1153880708453,0.2536579420524701,1.3273127347484583,0.9332421711095249,0.2879432,0.6583749160442773
0.0265,1.78244375,1.0,2611.7619906350187,0.25784433260127076,1.3268987058680637,0.9351785468012274,0.2879156375,0.6592386355286517
0.027,1.781775,1.0,2623.5413586367677,0.2620072412994742,1.3264873561222104,0.9370214602105456,0.28788755,0.6600956833301307
0.0275,1.7810937500000001,1.0,2634.4932014748256,0.2661467985944296,1.326078262106147,0.9387768206469449,0.2878589375,0.6609469610390142
0.028,1.7804,1.0,2644.658039870693,0.27026313493348586,1.3256710004151238,0.9404500772149592,0.2878298,0.6617933657162387
0.0285,1.77969375,1.0,2654.0771336867224,0.27435638076399194,1.3252651476443895,0.9420462606946917,0.2878001375,0.6626357899485762
0.029,1.778975,1.0,2662.792413718058,0.278426666533297,1.3248602803891936,0.9435700211055895,0.28776995,0.6634751218923933
0.029500000000000002,1.7782437500000001,1.0,2670.837910310692,0.282474119152098,1.3244560534160812,0.9450256708643603,0.2877392375,0.6643120835512152
0.03,1.7775,1.0,2678.2564518879776,0.2864988709325704,1.3240520453395341,0.9464171966073766,0.287708,0.6651475507374507
0.0305,1.77674375,1.0,2685.0825024367864,0.2905010499747859,1.3236479159630319,0.9477483047312464,0.2876762375,0.6659822273366909
0.031,1.775975,1.0,2691.3430886868987,0.2944807807602356,1.3232433968346327,0.9490224440892685,0.28764395,0.6668166658252812
0.0315,1.7751937500000001,1.0,2697.0655640113396,0.2984381877704107,1.3228382195023938,0.9502428196932903,0.2876111375,0.6676514159072839
0.032,1.7744,1.0,2702.277577945009,0.30237339548680237,1.3224321155143732,0.9514124129673401,0.2875778,0.6684870245055035
0.0325,1.77359375,1.0,2707.0070473016604,0.30628652839090176,1.322024816418629,0.9525340000842967,0.2875439375,0.6693240357479219
0.033,1.772775,1.0,2711.282128888109,0.3101777109642,1.3216160537632184,0.9536101685876099,0.28750955,0.6701629909495364
0.0335,1.7719437500000002,1.0,2715.130985946809,0.3140470674445325,1.3212055609906488,0.9546433326267773,0.2874746375,0.6710044247088094
0.034,1.7711000000000001,1.0,2718.574105236199,0.3178947131006723,1.320793143187435,0.9556357521569077,0.2874392,0.6718487222063964
0.0345,1.7702437500000001,1.0,2721.645347109053,0.32172078367907775,1.3203784850653,0.9565895314542737,0.2874032375,0.6726965124593858
0.035,1.7693750000000001,1.0,2724.3615521272677,0.3255253970183601,1.3199614276433087,0.9575066512157899,0.28736675,0.673548102106045
0.035500000000000004,1.76849375,1.0,2726.7396681262003,0.3293086709571304,1.3195418119405262,0.9583889657853614,0.2873297375,0.6744037959877722
0.036000000000000004,1.7676,1.0,2728.7967390532735,0.33307072333399995,1.3191194789760177,0.9592382126634956,0.2872922,0.6752638971239637
0.0365,1.76669375,1.0,2730.5498943679054,0.3368116719875798,1.3186942697688484,0.9600560211974998,0.2872541375,0.6761287066852695
0.037,1.765775,1.0,2732.016339000845,0.3405316347564812,1.3182660253380831,0.9608439205312767,0.28721555,0.6769985239652381
0.0375,1.76484375,1.0,2733.2133438747437,0.3442307294793153,1.317834586702787,0.9616033468853591,0.2871764375,0.6778736463503463
0.038,1.7639,1.0,2734.1582369842868,0.3479090739946934,1.3173997948820253,0.9623356502303878,0.28713679999999997,0.6787543692884193
0.0385,1.76294375,1.0,2734.868395037631,0.3515667861412265,1.3169614908948628,0.9630421004106893,0.28709663750000003,0.6796409862554394
0.039,1.761975,1.0,2735.352139827216,0.35520397277597265,1.3165195983494637,0.9637238982743783,0.28705595,0.6805336220047645
0.0395,1.7609937500000001,1.0,2735.627756270317,0.35882075657915086,1.3160739506832515,0.9643821698473387,0.2870147375,0.6814325819498772
0.04,1.76,1.0,2735.7166821467813,0.36241726370872024,1.3156243529704172,0.965017974645485,0.286973,0.682338226441344
0.0405,1.7589937500000001,1.0,2735.627666760029,0.3659936040486588,1.3151707256895024,0.9656323192890138,0.2869307375,0.6832506813404094
0.041,1.757975,1.0,2735.3694767882835,0.3695498874829445,1.3147129893190492,0.9662261539550472,0.28688795,0.6841700712814669
0.0415,1.75694375,1.0,2734.9508935063654,0.37308622389555524,1.314251064337599,0.9668003761266807,0.2868446375,0.6850965196514227
0.042,1.7559,1.0,2734.3807101476004,0.3766027231704691,1.3137848712236937,0.9673558340556527,0.28680079999999997,0.6860301485686543
0.0425,1.75484375,1.0,2733.66772940589,0.38009949519166397,1.3133143304558748,0.9678933299632273,0.2867564375,0.6869710788615655
0.043000000000000003,1.753775,1.0,2732.8207610776035,0.3835766498431178,1.3128393625126837,0.9684136230015515,0.28671155,0.6879194300467399
0.043500000000000004,1.75269375,1.0,2731.848619844619,0.38703429700880854,1.3123598878726628,0.9689174319956547,0.28666613750000003,0.6888753203066886
0.044,1.7516,1.0,2730.7601231962612,0.3904725465727142,1.3118758270143531,0.9694054379843733,0.2866202,0.6898388664671979
0.0445,1.75049375,1.0,2729.564089492919,0.3938915084188128,1.3113871004162967,0.9698782865768047,0.2865737375,0.6908101839742703
0.045,1.7493750000000001,1.0,2728.2693361686242,0.3972912924310822,1.3108936285570352,0.9703365901393719,0.28652675,0.691789386870664
0.0455,1.74824375,1.0,2726.8846780743884,0.40067200849350043,1.3103953319151103,0.9707809298272156,0.2864792375,0.6927765877720298
0.046,1.7471,1.0,2725.389903656975,0.4040337630206504,1.3098923949689867,0.9712118766587512,0.2864312,0.6937713760854132
0.0465,1.7459437500000001,1.0,2723.852631128122,0.4073766626507464,1.3093842032808523,0.9716299143858387,0.28638263750000004,0.6947749195161744
0.047,1.744775013880713,1.0,2722.2574803377893,0.41070081216913096,1.3088709034353763,0.9720355579459626,0.2863335505829899,0.6957868782238982
0.0475,1.743600602962898,1.0,2720.9095904474884,0.4140063156232673,1.3083527939269748,0.9724293077656133,0.2862842253244417,0.6968066150428209
0.048,1.7424261920450832,1.0,2720.057451367744,0.41729327706061853,1.3078301732500641,0.972811639911572,0.28623490006589347,0.6978334962909296
0.0485,1.7412517811272683,1.0,2719.6680503646908,0.4205618005286479,1.3073033398990606,0.9731830075109121,0.2861855748073453,0.6988668918586813
0.049,1.7400773702094536,1.0,2719.7085079051603,0.42381199007481846,1.3067725923683802,0.9735438420758383,0.286136249548797,0.6999061752920397
0.0495,1.7389029592916387,1.0,2720.1498172386946,0.42704394776942567,1.3062381948578148,0.9738945521776076,0.28608692429024885,0.7009507908489383
0.05,1.7377285483738238,1.0,2720.947883440604,0.430257778443718,1.3057005496894667,0.9742355368817041,0.2860375990317006,0.701999916835325
0.0505,1.7365541374560092,1.0,2722.0760954845264,0.433453582948449,1.3051599005051695,0.9745671657946807,0.2859882737731524,0.7030530456749842
0.051000000000000004,1.7353797265381943,1.0,2723.510841783889,0.4366314613127556,1.304616464028002,0.974889789748926,0.28593894851460416,0.7041097252649138
0.051500000000000004,1.7342053156203794,1.0,2725.228540113528,0.43979151356577456,1.304070456981043,0.9752037436775755,0.28588962325605594,0.705169506349935
0.052000000000000005,1.7330309047025645,1.0,2727.205624736984,0.44293383973664274,1.303522096087372,0.9755093474805199,0.2858402979975077,0.70623194255972
0.0525,1.7318564937847498,1.0,2729.4185345754686,0.44605853985449695,1.3029715980700673,0.9758069068360494,0.2857909727389595,0.7072965904428239
0.053,1.730682082866935,1.0,2731.8481602104816,0.4491657120518817,1.302419139149963,0.9760967112357455,0.28574164748041125,0.7083630876141431
0.0535,1.72950767194912,1.0,2734.4719497972833,0.45225545710734627,1.301864926743209,0.9763790397478793,0.285692322221863,0.7094310140380009
0.054,1.7283332610313054,1.0,2737.2749686484963,0.4553278719839821,1.3013090989304281,0.9766541547636016,0.28564299696331485,0.7105000857835889
0.0545,1.7271588501134905,1.0,2740.24387026882,0.458383052847788,1.3007517792686043,0.9769223064973231,0.28559367170476657,0.7115700486822982
0.055,1.7259844391956756,1.0,2743.3652942974772,0.4614210958647629,1.300193091314722,0.9771837345631271,0.2855443464462184,0.7126406502771397
0.0555,1.7248100282778607,1.0,2746.6258625893674,0.46444209720090546,1.2996331586257648,0.9774386685153915,0.2854950211876701,0.7137116398340155
0.056,1.723635617360046,1.0,2750.012175637194,0.4674461530222145,1.299072104758717,0.9776873283575604,0.28544569592912195,0.714782768352012
0.0565,1.722461206442231,1.0,2753.5189020904104,0.4704333518921513,1.298509980031907,0.9779299200835849,0.2853963706705737,0.7158539280017552
0.057,1.7212867955244162,1.0,2757.124861240046,0.4734037992507393,1.297946978047671,0.9781666510181981,0.2853470454120255,0.7169247393885865
0.0575,1.7201123846066015,1.0,2760.8206466556203,0.47635758943019235,1.2973831855408748,0.9783977130185348,0.28529772015347726,0.7179950285636532
0.058,1.7189379736887866,1.0,2764.6001688586493,0.4792948135133826,1.2968186590968478,0.9786232882634994,0.28524839489492904,0.7190646798850423
0.0585,1.7177635627709718,1.0,2768.4573250084886,0.482215562583182,1.2962534553009177,0.9788435516879476,0.2851990696363808,0.7201335785148825
0.059000000000000004,1.7165891518531569,1.0,2772.3859980170787,0.48511992772246265,1.2956876307384138,0.9790586713295684,0.2851497443778326,0.7212016104218861
0.059500000000000004,1.7154147409353422,1.0,2776.3800557348104,0.48800800001409655,1.295121241994664,0.9792688086565378,0.28510041911928435,0.7222686623836956
0.06,1.7142403300175273,1.0,2780.4333502069567,0.4908798705409557,1.2945543456549973,0.9794741188771546,0.2850510938607361,0.7233346219890191
0.0605,1.7130659190997124,1.0,2784.5397170015176,0.4937356303859122,1.2939869983047423,0.9796747512325805,0.2850017686021879,0.7243993776395646
0.061,1.7118915081818977,1.0,2788.692974607964,0.49657537063183815,1.293419256529227,0.9798708492737285,0.28495244334363967,0.7254628185517719
0.0615,1.7107170972640828,1.0,2792.8869239067035,0.49939918236160546,1.2928511769137807,0.9800625511232733,0.2849031180850915,0.726524834758334
0.062,1.709542686346268,1.0,2797.117998940924,0.5022071501428488,1.2922827922381008,0.9802499879813057,0.2848537928265432,0.7275853614843724
0.0625,1.708368275428453,1.0,2801.3826320335093,0.5049993625806256,1.291714135204166,0.9804332864766457,0.28480446756799505,0.7286443345729772
0.063,1.7071938645106384,1.0,2805.6720325646575,0.5077759221334988,1.2911452852448901,0.9806125719955331,0.2847551423094468,0.7297016035703812
0.0635,1.7060194535928235,1.0,2809.984150926733,0.510536913464696,1.290576261163941,0.9807879609294659,0.2847058170508986,0.7307571315305648
0.064,1.7048450426750086,1.0,2814.316931284643,0.513282421237445,1.2900070817649862,0.9809595654484058,0.28465649179235036,0.7318108817798361
0.0645,1.703670631757194,1.0,2818.668311506964,0.5160125301149735,1.2894377658516931,0.9811274936854626,0.28460716653380214,0.7328628179170296
0.065,1.702496220839379,1.0,2823.036223105143,0.5187273247605093,1.2888683322277295,0.9812918499122044,0.2845578412752539,0.7339129038136802
0.0655,1.7013218099215641,1.0,2827.418591180738,0.52142688983728,1.2882987996967628,0.9814527347051357,0.2845085160167057,0.7349611036141769
0.066,1.7001473990037492,1.0,2831.8133343799927,0.5241113100085134,1.287729187062461,0.9816102451038478,0.28445919075815745,0.7360073817358908
0.0665,1.6989729880859346,1.0,2836.218364856559,0.5267806699374372,1.2871595131284914,0.9817644747613165,0.2844098654996092,0.737051702869285
0.067,1.6977985771681197,1.0,2840.631588242319,0.5294350542872791,1.2865897966985216,0.9819155140867866,0.28436054024106105,0.7380940319779976
0.0675,1.6966241662503048,1.0,2845.0509036251146,0.5320745477212668,1.2860200565762194,0.9820634503816614,0.28431121498251277,0.7391343342989039
0.068,1.69544975533249,1.0,2849.4742035358195,0.5346992349026282,1.2854503115652525,0.9822083679687867,0.2842618897239646,0.7401725753421566
0.0685,1.6942753444146752,1.0,2853.8993739415787,0.5373092004945909,1.2848805804692882,0.9823503483154911,0.2842125644654164,0.7412087208912035
0.069,1.6931009334968603,1.0,2858.325627836567,0.5399045177976326,1.2843108702464945,0.9824894688774285,0.28416323920686815,0.7422427584811255
0.0695,1.6919265225790454,1.0,2862.752910910821,0.542485261446113,1.2837411813304362,0.9826258043169483,0.2841139139483199,0.7432746875548741
0.07,1.6907521116612307,1.0,2867.1768082964895,0.5450515449675277,1.2831715528258454,0.9827594310139647,0.2840645886897717,0.7443044377238504
0.07050000000000001,1.6895777007434158,1.0,2871.5968532537945,0.547603445521533,1.2826019887291478,0.9828904189868631,0.28401526343122346,0.7453320024436564
0.07100000000000001,1.688403289825601,1.0,2876.012577680658,0.550141040267785,1.2820324930367692,0.9830188359727566,0.28396593817267524,0.7463573752278849
0.07150000000000001,1.6872288789077863,1.0,2880.4235121185834,0.55266440636594,1.281463069745135,0.9831447475173664,0.283916612914127,0.7473805496481035
0.07200000000000001,1.6860544679899714,1.0,2884.829185758795,0.5551736209756543,1.2808937228506712,0.983268217060788,0.2838672876555788,0.748401519333834
0.0725,1.6848800570721565,1.0,2889.2291264488963,0.5576687612565838,1.280324456349803,0.9833893060193566,0.28381796239703055,0.7494202779725363
