Time [s],Phi [rad],STIM [ ],Fsee [N],Gamma [ ],Lcerel [ ],q [ ],Lmtc [m],fisomrel [ ]
0.0,1.8,1.0,17.96881348861935,4.557260543546404e-05,1.3793395607726773,0.005000546934618273,0.288653,0.541139979696404
0.0005,1.79999375,1.0,18.290030801079066,0.0056545262879651075,1.3793009121688944,0.013039565907963232,0.2886527375,0.5412334758540965
0.001,1.799975,1.0,21.65812346317592,0.011232018175082587,1.3789342449267796,0.03579418273773999,0.28865195,0.5421200192020772
0.0015,1.79994375,1.0,31.165280746616126,0.016778224743478606,1.3780380273607804,0.07085562587467525,0.2886506375,0.5442833222868937
0.002,1.7999,1.0,53.7907281285621,0.022293321478134252,1.3763546287554624,0.1150184701720329,0.2886488,0.5483328871630678
0.0025,1.79984375,1.0,97.47007564609237,0.027777482880135356,1.3739182620240502,0.16490168792177293,0.28864643749999996,0.5541617771840361
0.003,1.7997750000000001,1.0,161.41574448693126,0.033230882474056415,1.3711972283441953,0.21761756577752184,0.28864354999999997,0.5606269696096535
0.0035,1.79969375,1.0,238.2007137374428,0.03865369280781571,1.368568806156163,0.2709481684503697,0.2886401375,0.5668272803846327
0.004,1.7996,1.0,322.01744838958916,0.044046085463386994,1.3661415133052963,0.32324043457772456,0.2886362,0.5725140058498327
0.0045000000000000005,1.7994937500000001,1.0,409.8381599951245,0.049408231062004364,1.363909429150467,0.3733426631372492,0.2886317375,0.5777102276000678
0.005,1.799375,1.0,499.99564391634703,0.054740299255414335,1.3618459755282817,0.42053575935448123,0.28862675,0.5824856186032723
0.0055,1.79924375,1.0,591.3778262490137,0.060042458771476716,1.3599273613397647,0.46444061549664883,0.2886212375,0.5869014494865896
0.006,1.7991000000000001,1.0,683.1063599214584,0.06531487736187769,1.3581357242022138,0.5049252548612487,0.2886152,0.5910038362568745
0.006500000000000001,1.79894375,1.0,774.4678323037488,0.07055772184636155,1.3564572423033752,0.5420250208042061,0.2886086375,0.5948285536016356
0.007,1.798775,1.0,864.8692597710287,0.07577115814838982,1.3548809720224613,0.5758811130916837,0.28860155,0.5984040041339065
0.0075,1.79859375,1.0,953.8099013578063,0.08095535107572266,1.3533980642706602,0.6066958225085705,0.2885939375,0.6017532148270099
0.008,1.7984,1.0,1040.9183907546212,0.08611046499191703,1.3520004035216686,0.6347009339833966,0.2885858,0.6048970533181839
0.0085,1.79819375,1.0,1125.8672240908882,0.09123666266863387,1.3506814140616659,0.6601377946314299,0.2885771375,0.6078525058409134
0.009000000000000001,1.797975,1.0,1208.4105005382162,0.0963341062867676,1.3494350628713283,0.683243771023908,0.28856795,0.6106350026661698
0.0095,1.79774375,1.0,1288.3886996124263,0.10140295759240843,1.3482555544945665,0.7042444124257112,0.2885582375,0.613259147843374
0.01,1.7975,1.0,1365.6604089603306,0.10644337652523628,1.3471380448463137,0.7233497163914694,0.288548,0.6157371741718071
0.0105,1.79724375,1.0,1440.1351684528636,0.11145552246294865,1.3460779935132832,0.7407519590984387,0.2885372375,0.618080428589987
0.011,1.796975,1.0,1511.7774965086223,0.11643955444132721,1.3450709925913802,0.7566252956977928,0.28852595000000003,0.6202997770153049
0.0115,1.79669375,1.0,1580.5646127368452,0.12139563015020864,1.3441131839413947,0.7711265339186638,0.2885141375,0.6224047086661859
0.012,1.7964,1.0,1646.4893427048382,0.12632390589214923,1.343201104919988,0.7843961101985899,0.28850180000000003,0.6244037040232764
0.0125,1.79609375,1.0,1709.5769104510816,0.13122453744881823,1.3423314066752687,0.7965592800127288,0.2884889375,0.6263048724608794
0.013000000000000001,1.7957750000000001,1.0,1769.8863415974101,0.1360976809732054,1.3415007855075878,0.8077275107324907,0.28847555,0.6281161144697083
0.0135,1.79544375,1.0,1827.4646562898904,0.14094349048113555,1.3407064499039856,0.8180000683939306,0.2884616375,0.6298441166894866
0.014,1.7951000000000001,1.0,1882.3577427933892,0.14576211840750894,1.3399459293206302,0.8274652534453968,0.2884472,0.6314947867931542
0.0145,1.79474375,1.0,1934.6355540339919,0.1505537171872258,1.3392167532136903,0.8362015136946153,0.2884322375,0.6330739615406963
0.015,1.794375,1.0,1984.3786856858842,0.15531843847691293,1.3385165718018737,0.8442786210575249,0.28841675,0.6345871511974073
0.0155,1.79399375,1.0,2031.6801425375113,0.16005643434639813,1.337843109749868,0.8517586712605674,0.2884007375,0.6360396466662586
0.016,1.7936,1.0,2076.614400746425,0.16476785429839857,1.3371944663478479,0.8586970793954409,0.2883842,0.6374358796696112
0.0165,1.7931937500000001,1.0,2119.2528324269783,0.16945284646495354,1.3365689211834226,0.8651433064803637,0.2883671375,0.6387798510632241
0.017,1.792775,1.0,2159.6792759162186,0.17411155897810232,1.3359647538442014,0.8711415106870034,0.28834955,0.6400755235153226
0.0175,1.7923437500000001,1.0,2197.9828813787362,0.17874413932340563,1.3353803056128435,0.8767311908461669,0.2883314375,0.6413266919867211
0.018000000000000002,1.7919,1.0,2234.255812606181,0.18335073502151816,1.3348139900149394,0.8819477370285523,0.2883128,0.6425369645735844
0.0185,1.79144375,1.0,2268.5845679011545,0.18793149255917718,1.3342643676112533,0.8868229276543051,0.2882936375,0.6437096063311509
0.019,1.790975,1.0,2301.0369868268044,0.1924865555002534,1.3337302614149678,0.8913853730307663,0.28827395,0.6448472978823255
0.0195,1.79049375,1.0,2331.687366422247,0.1970160674086174,1.3332104944392655,0.8956608139160602,0.2882537375,0.6459526989653706
0.02,1.79,1.0,2360.6159243419193,0.2015201718481398,1.3327038896973291,0.8996724473555043,0.288233,0.6470284495544243
0.0205,1.78949375,1.0,2387.8987500024145,0.20599901101049917,1.3322093629388068,0.9034412323881278,0.2882117375,0.6480769744126026
0.021,1.788975,1.0,2413.6217399284287,0.21045272859816685,1.3317257808752105,0.906986108397495,0.28818995000000003,0.6491007854041193
0.021500000000000002,1.78844375,1.0,2437.8558131899126,0.2148814656901991,1.3312521968064908,0.9103242642877092,0.2881676375,0.6501019837719194
0.022,1.7879,1.0,2460.6593081210735,0.2192853609245912,1.3307878194824767,0.9134713199938006,0.2881448,0.6510823293432029
0.0225,1.78734375,1.0,2482.093619197576,0.22366455293933846,1.330331857652997,0.9164414633082549,0.28812143749999997,0.6520435708530616
0.023,1.786775,1.0,2502.2229434266233,0.22801918037243618,1.3298835200678807,0.9192476010128521,0.28809755,0.6529874463891077
0.0235,1.78619375,1.0,2521.114001400766,0.23234938185282925,1.3294420158478715,0.9219014923422477,0.28807313749999996,0.6539156830168712
0.024,1.7856,1.0,2538.821950510478,0.23665529267116325,1.3290066851142883,0.9244138889349526,0.2880482,0.6548297230551898
0.0245,1.78499375,1.0,2555.4244869205586,0.24093705368493246,1.3285766745092735,0.9267945832845054,0.2880227375,0.6557314061493206
0.025,1.784375,1.0,2570.9661429955904,0.24519479827283497,1.3281514602422178,0.9290525894273006,0.28799675,0.6566218722605236
0.025500000000000002,1.78374375,1.0,2585.492878319476,0.24942865981356885,1.3277305185225114,0.931196166184669,0.2879702375,0.6575022551944062
0.026000000000000002,1.7831000000000001,1.0,2599.0519614770924,0.2536387716858321,1.3273133255595448,0.9332328906898835,0.2879432,0.658373682752396
0.0265,1.78244375,1.0,2611.691857919128,0.2578252672683228,1.3268993575627084,0.9351697238603329,0.2879156375,0.659237276865716
0.027,1.781775,1.0,2623.4621239100397,0.26198827993973894,1.3264880907413923,0.9370130687828894,0.28788755,0.6600941537118635
0.0275,1.7810937500000001,1.0,2634.40368616944,0.2661279389426687,1.3260790903149149,0.938768834559886,0.2878589375,0.6609452387098138
0.028,1.7804,1.0,2644.5733408036444,0.2702443811579093,1.3256717825555246,0.9404424527975859,0.2878298,0.6617917412216425
0.0285,1.77969375,1.0,2654.005968388484,0.2743377352559587,1.325265803641298,0.9420389653454737,0.2878001375,0.662634429150448
0.029,1.778975,1.0,2662.7347420982805,0.278408128954306,1.3248608111309086,0.9435630349337556,0.28776995,0.6634740222939035
0.029500000000000002,1.7782437500000001,1.0,2670.7933821123925,0.28245568997044035,1.3244564625830297,0.945018976135832,0.2877392375,0.6643112368880963
0.03,1.7775,1.0,2678.2161065655887,0.2864805460218507,1.3240524155563351,0.9464107858223592,0.287708,0.6651467856253326
0.0305,1.77674375,1.0,2685.037585098363,0.2904828248260263,1.323648327609498,0.9477421705894956,0.2876762375,0.6659813776644614
0.031,1.775975,1.0,2691.292895006885,0.29446265410045613,1.3232438563011921,0.9490165714948534,0.28764395,0.6668157186337189
0.0315,1.7751937500000001,1.0,2697.003929878192,0.29842015417481593,1.3228387830951458,0.9502371995377433,0.2876111375,0.6676502555154509
0.032,1.7744,1.0,2702.2165473871846,0.3023554604771095,1.3224326730494436,0.9514070198420735,0.2875778,0.6684858780299446
0.0325,1.77359375,1.0,2706.957397392283,0.3062686972726239,1.3220252695907,0.9525288115528725,0.2875439375,0.6693231050543271
0.033,1.772775,1.0,2711.2479543170957,0.3101599857129193,1.3216163654400086,0.9536051698320956,0.28750955,0.6701623516618586
0.0335,1.7719437500000002,1.0,2715.1098827006567,0.3140294469495558,1.321205753318462,0.954638515719122,0.2874746375,0.6710040307242326
0.034,1.7711000000000001,1.0,2718.565018626973,0.3178772021340934,1.3207932259471535,0.9556311098873692,0.2874392,0.671848552890365
0.0345,1.7702437500000001,1.0,2721.6353521072306,0.3217033724180922,1.320378576047176,0.9565850651592496,0.2874032375,0.6726963265624486
0.035,1.7693750000000001,1.0,2724.343010414582,0.3255080789531124,1.3199615963396227,0.9575023579046067,0.28736675,0.6735477578692612
0.035500000000000004,1.76849375,1.0,2726.7102423715305,0.32929144289071394,1.3195420795455863,0.9583848384339142,0.2873297375,0.6744032506367417
0.036000000000000004,1.7676,1.0,2728.7594035898987,0.33305358538245694,1.31911981838616,0.959234240485354,0.2872922,0.675263206355817
0.0365,1.76669375,1.0,2730.5038204495745,0.336794621811559,1.318694688484601,0.9600521970068139,0.2872541375,0.6761278556495638
0.037,1.765775,1.0,2731.965951394151,0.34051467563377186,1.3182664831335262,0.9608402340705122,0.28721555,0.6769975947506915
0.0375,1.76484375,1.0,2733.168295725814,0.34421386836016077,1.3178349958968762,0.9615997846081121,0.2871764375,0.6778728169108185
0.038,1.7639,1.0,2734.1231728903826,0.3478923142082504,1.31740011333079,0.962332202929928,0.28713679999999997,0.6787537246734747
0.0385,1.76294375,1.0,2734.842945887909,0.3515501273955652,1.316961721991406,0.9630387629475688,0.28709663750000003,0.6796405191079166
0.039,1.761975,1.0,2735.3400157557385,0.3551874221396297,1.3165197084348637,0.9637206638186125,0.28705595,0.6805333997841483
0.0395,1.7609937500000001,1.0,2735.626816338634,0.35880431265796847,1.3160739592173016,0.9643790351363256,0.2870147375,0.6814325647471287
0.04,1.76,1.0,2735.7158093426083,0.362400913168106,1.3156243608948588,0.96501494170558,0.286973,0.682338210490153
0.0405,1.7589937500000001,1.0,2735.619479675034,0.3659773378875669,1.3151708000236744,0.9656293879420099,0.2869307375,0.6832505319274141
0.041,1.757975,1.0,2735.3503310698684,0.3695337010338756,1.3147131631598872,0.966223321927791,0.28688795,0.684169722365747
0.0415,1.75694375,1.0,2734.9208819979776,0.37307011682455676,1.314251336859636,0.9667976391541587,0.2868446375,0.6850959734755471
0.042,1.7559,1.0,2734.34138991851,0.3765866906349853,1.3137852283118845,0.9673531862324124,0.28680079999999997,0.6860294339708499
0.0425,1.75484375,1.0,2733.6240224337043,0.3800835448990045,1.3133147274343624,0.9678907652251538,0.2867564375,0.6869702856273316
0.043000000000000003,1.753775,1.0,2732.776644451058,0.383560788675524,1.3128397632740536,0.9684111361168447,0.28671155,0.6879186304675833
0.043500000000000004,1.75269375,1.0,2731.8067725967458,0.38701852955330157,1.3123602680862456,0.9689150185495333,0.28666613750000003,0.6888745628861249
0.044,1.7516,1.0,2730.721926803772,0.39045687512109484,1.3118761741262253,0.9694030943440253,0.2866202,0.6898381760599122
0.0445,1.75049375,1.0,2729.529628690501,0.39387593296766177,1.31138741364928,0.9698760098581419,0.2865737375,0.6908095619286103
0.045,1.7493750000000001,1.0,2728.2374000391947,0.39727581068176004,1.3108939189106972,0.9703343781755194,0.28652675,0.6917888111745818
0.0455,1.74824375,1.0,2726.852761377228,0.40065661585214735,1.3103956221657633,0.9707787811386691,0.2864792375,0.6927760132025789
0.046,1.7471,1.0,2725.383230659726,0.4040184560675816,1.3098924556697662,0.9712097712387822,0.2864312,0.693771256119139
0.0465,1.7459437500000001,1.0,2723.836322053952,0.4073614389168204,1.3093843516779926,0.9716278733736577,0.28638263750000004,0.694774626711697
0.047,1.744775,1.0,2722.2156077502295,0.410685657391961,1.3088712782800926,0.9720335871566075,0.28633355,0.6957861398393546
0.0475,1.74359375,1.0,2720.522753389384,0.4139912042522447,1.308353220914641,0.9724273890061621,0.28628393750000003,0.696805775355761
0.048,1.7424,1.0,2718.774591247349,0.41727823141668396,1.3078300268981307,0.9728097300121868,0.2862338,0.6978337836093628
0.0485,1.74119375,1.0,2716.9741666237655,0.42054683751777266,1.3073016689767392,0.9731810415663794,0.2861831375,0.6988701665947405
0.049,1.739975,1.0,2715.1245224541826,0.42379712118800483,1.3067681198966448,0.9735417345686612,0.28613195,0.6999149254307327
0.0495,1.73874375,1.0,2713.2286990280777,0.4270291810598744,1.3062293524040247,0.9738922005843852,0.2860802375,0.7009680603514402
0.05,1.7375,1.0,2711.289733722721,0.43024311576587526,1.3056853392450571,0.9742328129260622,0.286028,0.7020295706971758
0.0505,1.73624375,1.0,2709.3106607533496,0.43343902393850137,1.3051360531659195,0.9745639276651641,0.2859752375,0.7030994549053735
0.051000000000000004,1.734975,1.0,2707.294510940166,0.43661700421024663,1.30458146691279,0.9748858845791081,0.28592195,0.7041777105014446
0.051500000000000004,1.73369375,1.0,2705.2443114915436,0.43977715521360505,1.3040215532318458,0.9751990080381145,0.2858681375,0.7052643340895918
0.052000000000000005,1.7324,1.0,2703.1630858038006,0.4429195755810706,1.303456284869265,0.975503607836249,0.2858138,0.7063593213435698
0.0525,1.73109375,1.0,2701.053853277538,0.4460443639451371,1.3028856345712254,0.9757999799706212,0.28575893750000003,0.7074626669974047
0.053,1.729775,1.0,2698.919629150186,0.4491516189382985,1.3023095750839047,0.9760884073723929,0.28570355000000003,0.7085743648360618
0.0535,1.72844375,1.0,2696.76342434538,0.45224143919304893,1.3017280791534804,0.9763691605929677,0.2856476375,0.7096944076860684
0.054,1.7271,1.0,2694.5882453384716,0.45531392334188214,1.3011411195261307,0.9766424984484692,0.2855912,0.7108227874060864
0.0545,1.7257437500000001,1.0,2692.3970940387117,0.45836917001729216,1.3005486689480332,0.9769086686253702,0.2855342375,0.711959494877441
0.055,1.724375,1.0,2690.1929676877016,0.4614072778517729,1.2999507001653654,0.9771679082499317,0.28547675,0.7131045199946016
0.0555,1.72299375,1.0,2687.9788587746743,0.46442834547781825,1.2993471859243055,0.9774204444238873,0.2854187375,0.71425785165561
0.056,1.7216,1.0,2685.75775496775,0.4674324715279222,1.2987380989710309,0.9776664947286456,0.2853602,0.71541947775247
0.0565,1.72019375,1.0,2683.5303253422585,0.4704197530561085,1.2981234332619214,0.977906268786037,0.28530113749999997,0.7165893448345814
0.057,1.718775,1.0,2681.295677120394,0.4733902796443774,1.2975031970673072,0.9781399677301796,0.28524155,0.7177673716030962
0.0575,1.71734375,1.0,2679.057171851313,0.47634414394289837,1.296877359639026,0.9783677825460954,0.2851814375,0.71895355017143
0.058,1.7159,1.0,2676.817216171223,0.47928143917501337,1.2962458989425087,0.9785898970245167,0.2851208,0.7201478551012274
0.0585,1.71444375,1.0,2674.572609202532,0.4822022583739313,1.295608844397241,0.9788064904258011,0.2850596375,0.7213501629914787
0.059000000000000004,1.7129750000000001,1.0,2672.3367954782534,0.4851066943754759,1.2949660725618326,0.9790177264078449,0.28499795,0.7225606378745144
0.059500000000000004,1.7114937501282328,1.0,2670.1052206292948,0.4879948388697362,1.2943176252590303,0.9792237710964357,0.28493573750538576,0.7237791309371333
0.06,1.7100063067481737,1.0,2668.1626619286385,0.49086678294023156,1.2936637323140696,0.9794247942628739,0.2848732648834233,0.7250051413372783
0.0605,1.7085188633681148,1.0,2666.788007062014,0.49372261753899976,1.293004623218617,0.9796209590882592,0.28481079226146083,0.7262381721062383
0.061,1.7070314199880556,1.0,2665.9373453487606,0.4965624333755917,1.292340697799364,0.9798124315644628,0.2847483196394983,0.7274774120222609
0.0615,1.7055439766079967,1.0,2665.565627185938,0.49938632024460433,1.2916723681149391,0.979999371989116,0.28468584701753585,0.7287220334127023
0.062,1.7040565332279376,1.0,2665.635980908283,0.5021943671388512,1.2909999723834866,0.9801819307383055,0.2846233743955734,0.7299713522729911
0.0625,1.7025690898478787,1.0,2666.114187829628,0.5049866623376701,1.290323825475529,0.9803602513444047,0.28456090177361093,0.7312247332948171
0.063,1.7010816464678196,1.0,2666.969983751432,0.5077632931627952,1.289644206695735,0.9805344701602999,0.2844984291516484,0.7324816120140254
0.0635,1.6995942030877607,1.0,2668.155846909739,0.5105243524179264,1.2889615546052686,0.9807047271134943,0.28443595652968595,0.7337411350768698
0.064,1.6981067597077015,1.0,2669.650621613715,0.5132699256717554,1.2882760656664183,0.9808711443031317,0.28437348390772343,0.7350029016705705
0.0645,1.6966193163276426,1.0,2671.4331843183186,0.5160000984929745,1.2875879363414717,0.9810338394473761,0.284311011285761,0.7362665142565485
0.065,1.6951318729475835,1.0,2673.48243169476,0.5187149564502755,1.2868973630927176,0.9811929260777219,0.2842485386637985,0.7375315786047365
0.0655,1.6936444295675246,1.0,2675.7772695574495,0.5214145851123507,1.2862045423824442,0.9813485137233886,0.28418606604183605,0.7387977038254327
0.066,1.6921569861874655,1.0,2678.2966026465365,0.5240990700478919,1.2855096706729392,0.9815007080863638,0.28412359341987353,0.740064502398692
0.0665,1.6906695428074063,1.0,2681.0193252661547,0.5267684968255911,1.2848129444264913,0.9816496112076375,0.28406112079791107,0.7413315902012512
0.067,1.6891820994273474,1.0,2683.9266661987176,0.5294229498013083,1.284114538532829,0.9817953204988884,0.2839986481759486,0.7425986256195078
0.0675,1.6876946560472883,1.0,2687.003274976096,0.5320625129233783,1.28341459634912,0.9819379285101598,0.2839361755539861,0.7438653270926832
0.068,1.6862072126672294,1.0,2690.2294859511135,0.5346872729575142,1.2827133005660158,0.9820775267205013,0.28387370293202363,0.7451313446526454
0.0685,1.6847197692871703,1.0,2693.595174880294,0.5372973112982713,1.2820107462544066,0.9822141990446576,0.28381123031006117,0.7463964891487013
0.069,1.6832323259071114,1.0,2697.0902026324916,0.539892709340205,1.2813070284851815,0.982348026594458,0.2837487576880987,0.7476605731021597
0.0695,1.6817448825270522,1.0,2700.704412635957,0.5424735484778703,1.2806022423292303,0.982479087794096,0.2836862850661362,0.7489234107136733
0.07,1.6802574391469933,1.0,2704.4276285263513,0.545039910105823,1.2798964828574426,0.9826074584899392,0.28362381244417373,0.7501848178700042
0.07050000000000001,1.6787699957669342,1.0,2708.2496519945375,0.5475918756186181,1.279189845140708,0.9827332120551572,0.2835613398222112,0.7514446121502152
0.07100000000000001,1.6772825523868753,1.0,2712.1602608357493,0.5501295264108109,1.2784824242499162,0.982856419489451,0.28349886720024875,0.7527026128312809
0.07150000000000001,1.6757951090068162,1.0,2716.1528398778846,0.5526529396354454,1.2777742821552285,0.9829771477514946,0.2834363945782863,0.7539586995317205
0.07200000000000001,1.6743076656267573,1.0,2720.21869079464,0.5551621967219925,1.2770654996454303,0.9830954627685009,0.2833739219563238,0.7552127197264926
0.0725,1.6728202222466981,1.0,2724.345013668117,0.5576573847335246,1.276356194612091,0.9832114303809801,0.2833114493343613,0.7564644569500132
0.073,1.6713327788666392,1.0,2728.527671457409,0.5601385802157959,1.275646405852704,0.9833251102223287,0.28324897671239885,0.7577138359071633
0.0735,1.66984533548658,1.0,2732.7625156753825,0.5626058597145608,1.274936172164763,0.9834365600594298,0.28318650409043633,0.7589607820005989
