Time [s],Phi [rad],STIM [ ],Fsee [N],Gamma [ ],Lcerel [ ],q [ ],Lmtc [m],fisomrel [ ]
0.0,1.8,1.0,18.01376250207855,0.00022015307340273545,1.379334528357085,0.0050126057481765,0.288653,0.5411521543243236
0.0005,1.79999375,1.0,18.391607276574632,0.005828127497598919,1.3792896487153805,0.013534231829908903,0.2886527375,0.541260721866592
0.001,1.799975,1.0,21.889313355903116,0.011404645619207742,1.3789107165779395,0.03671208374082164,0.28865195,0.5421768777499758
0.0015,1.79994375,1.0,31.67725905911875,0.016949883884191202,1.3779946532405154,0.07210676436852337,0.2886506375,0.5443878894183116
0.002,1.7999,1.0,54.86104563275987,0.02246401774666502,1.376285668023617,0.1164967934743945,0.2886488,0.5484983929847584
0.0025,1.79984375,1.0,99.24174776930997,0.02794722167767268,1.3738334270562718,0.16650781994278743,0.28864643749999996,0.554364058722459
0.003,1.7997750000000001,1.0,163.70331377400433,0.03339966917111658,1.3711120247124955,0.21927315150533602,0.28864354999999997,0.5608286515108168
0.0035,1.79969375,1.0,240.77564582331792,0.03882153274487093,1.3684897905848863,0.27259387398237084,0.2886401375,0.5670129918198554
0.004,1.7996,1.0,324.7511867447293,0.04421298395105485,1.3660693218467248,0.3248332482937212,0.2886362,0.5726825625085428
0.0045000000000000005,1.7994937500000001,1.0,412.6651463391841,0.049574193381385454,1.3638432291638563,0.3748541896562491,0.2886317375,0.5778638539273521
0.005,1.799375,1.0,502.87720917901777,0.054905330659042226,1.361784866082301,0.4219495875740285,0.28862675,0.5826266284241437
0.0055,1.79924375,1.0,594.2824892485743,0.06020656447687482,1.3598707089398467,0.46574939440520696,0.2886212375,0.5870314822931509
0.006,1.7991000000000001,1.0,686.0115569671898,0.06547806256399688,1.3580829942002803,0.5061278928892493,0.2886152,0.591124264236486
0.006500000000000001,1.79894375,1.0,777.3512137333079,0.07071999169935322,1.3564080854447502,0.54312459071387,0.2886086375,0.5949402953750245
0.007,1.798775,1.0,867.7131022445858,0.07593251780003549,1.3548350880390645,0.5768831586172924,0.28860155,0.5985078453326191
0.0075,1.79859375,1.0,956.6070061513485,0.08111580564765002,1.353355086176477,0.6076071472281784,0.2885939375,0.6018500735753016
0.008,1.7984,1.0,1043.6559871289421,0.08627001951444215,1.3519601352315556,0.6355289781237411,0.2885858,0.6049874464533964
0.0085,1.79819375,1.0,1128.53845781207,0.09139532222385183,1.3506436308992216,0.6608900105539578,0.2885771375,0.6079370029011814
0.009000000000000001,1.797975,1.0,1211.0086059443872,0.09649187588631991,1.3493995894030408,0.6839273629642191,0.28856795,0.6107140526944722
0.0095,1.79774375,1.0,1290.90918887201,0.1015598422351885,1.3482222244014046,0.7048661388385882,0.2885582375,0.6133331710233987
0.01,1.7975,1.0,1368.0997633904888,0.10659938117250892,1.347106712196885,0.7239158101911148,0.288548,0.6158065380990718
0.0105,1.79724375,1.0,1442.491097253348,0.11161065205153663,1.34604852417367,0.7412680941450057,0.2885372375,0.618145468486049
0.011,1.796975,1.0,1514.0488652060715,0.11659381385678912,1.3450432614310543,0.7570965919789322,0.28852595000000003,0.6203608027456029
0.0115,1.79669375,1.0,1582.752127626931,0.12154902430270102,1.3440870634056723,0.7715575796122967,0.2885141375,0.6224620306022348
0.012,1.7964,1.0,1648.5932267992473,0.12647643963364882,1.3431764904177674,0.784791011463802,0.28850180000000003,0.6244575778843877
0.0125,1.79609375,1.0,1711.5980007105436,0.13137621561388138,1.3423082006658273,0.7969216962655129,0.2884889375,0.62635553493917
0.013000000000000001,1.7957750000000001,1.0,1771.8246861427237,0.13624850828643886,1.3414789115781534,0.8080607040681898,0.28847555,0.6281637530210451
0.0135,1.79544375,1.0,1829.3224740198268,0.14109347178265058,1.3406858172234808,0.8183069316859521,0.2884616375,0.629888947521585
0.014,1.7951000000000001,1.0,1884.137111023006,0.14591125846498054,1.339926457815166,0.8277483603704991,0.2884472,0.6315370002462826
0.0145,1.79474375,1.0,1936.3382805551016,0.15070202069589267,1.3391983735665642,0.8364631550492363,0.2884322375,0.6331137224802218
0.015,1.794375,1.0,1986.0079390199346,0.15546591011194844,1.3384992068092225,0.8445208311966377,0.28841675,0.634624639634972
0.0155,1.79399375,1.0,2033.2372547452335,0.16020307869461103,1.3378267077640875,0.8519832692806334,0.2884007375,0.6360749857183604
0.016,1.7936,1.0,2078.101954450121,0.16491367612218355,1.3371789673239949,0.8589056838369048,0.2883842,0.6374692091655753
0.0165,1.7931937500000001,1.0,2120.6729331520855,0.1695978504171491,1.336554274395113,0.8653373641098686,0.2883671375,0.6388112894973818
0.017,1.792775,1.0,2161.0334816014715,0.17425574960199075,1.3359509178836104,0.871322316775183,0.28834955,0.6401051682817591
0.0175,1.7923437500000001,1.0,2199.274484167003,0.1788875212921644,1.335367224628919,0.8768999005220188,0.2883314375,0.6413546704231384
0.018000000000000002,1.7919,1.0,2235.4836172668442,0.18349331235450148,1.3348016563951968,0.882105397956799,0.2883128,0.6425632999841602
0.0185,1.79144375,1.0,2269.754833129999,0.18807327012460895,1.3342527011754641,0.8869704621016057,0.2882936375,0.6437344762656438
0.019,1.790975,1.0,2302.1540973622496,0.19262753796863377,1.3337192036074725,0.8915236154284453,0.28827395,0.6448708327282981
0.0195,1.79049375,1.0,2332.7537460748777,0.1971562592527229,1.333200008328974,0.8957905207961806,0.2882537375,0.6459749823009302
0.02,1.79,1.0,2361.6319601106666,0.20165957734302328,1.3326939599777199,0.8997943060549751,0.288233,0.6470495184768601
0.0205,1.78949375,1.0,2388.8685831743755,0.20613763494020781,1.3321999390019277,0.9035558562381061,0.2882117375,0.6480969404563633
0.021,1.788975,1.0,2414.540593742087,0.21059057423010544,1.3317168999570443,0.9070940706328583,0.28818995000000003,0.6491195736061488
0.021500000000000002,1.78844375,1.0,2438.726535464643,0.2150185379334607,1.3312438229743455,0.9104260700373603,0.2881676375,0.6501196739200907
0.022,1.7879,1.0,2461.484995108192,0.21942166444773498,1.3307799155968592,0.913567427298472,0.2881448,0.6510990033091031
0.0225,1.78734375,1.0,2482.8776072439737,0.22380009217038957,1.3303243853676132,0.9165322881465328,0.28812143749999997,0.6520593126004737
0.023,1.786775,1.0,2502.968800914901,0.22815395949888584,1.3298764398296357,0.919333521731762,0.28809755,0.6530023419812652
0.0235,1.78619375,1.0,2521.825560225642,0.2324834048306851,1.3294352865259547,0.9219828535037825,0.28807313749999996,0.6539298214016651
0.024,1.7856,1.0,2539.50487257996,0.23678856363946235,1.3290002491562922,0.9244910022794425,0.2880482,0.6548432272165103
0.0245,1.78499375,1.0,2556.075279900604,0.2410695763879096,1.3285705612746552,0.9268677491994424,0.2880227375,0.6557442164019708
0.025,1.784375,1.0,2571.586660350123,0.24532657773888672,1.3281456490274106,0.9291220750003862,0.28799675,0.6566340338787611
0.025500000000000002,1.78374375,1.0,2586.0845133103703,0.24955970066992017,1.3277249933643573,0.9312622168890744,0.2879702375,0.6575138033301402
0.026000000000000002,1.7831000000000001,1.0,2599.615637775421,0.25376907815853633,1.327308075235294,0.9332957324816286,0.2879432,0.6583846424928801
0.0265,1.78244375,1.0,2612.2280213872405,0.2579548431822616,1.326894375590019,0.9352295650457015,0.2879156375,0.6592476632895776
0.027,1.781775,1.0,2623.9707354454404,0.2621171287186224,1.3264833753783316,0.9370701016836555,0.28788755,0.6601039719437864
0.0275,1.7810937500000001,1.0,2634.8894930838005,0.2662560663465879,1.3260745957269293,0.9388232307764842,0.2878589375,0.660954585527805
0.028,1.7804,1.0,2645.024575951929,0.27037178675510576,1.325667615838886,0.9404943906620411,0.2878298,0.661800395388443
0.0285,1.77969375,1.0,2654.4304896651706,0.27446442519392367,1.3252618905631053,0.9420885862354048,0.2878001375,0.6626425463881203
0.029,1.778975,1.0,2663.1384971962702,0.27853410870005857,1.3248570955648895,0.9436104718302155,0.28776995,0.6634817202204855
0.029500000000000002,1.7782437500000001,1.0,2671.180389474532,0.28258096431052737,1.3244529065095416,0.9450643543654119,0.2877392375,0.6643185952088988
0.03,1.7775,1.0,2678.588439268215,0.2866051190623471,1.3240489990623645,0.9464542237232336,0.287708,0.6651538463223206
0.0305,1.77674375,1.0,2685.3953573990498,0.29060669999253474,1.3236450488886604,0.9477837801102501,0.2876762375,0.6659881451844918
0.031,1.775975,1.0,2691.6342512890133,0.2945858341381071,1.3232407316537325,0.9490564587338154,0.28764395,0.6668221600764022
0.0315,1.7751937500000001,1.0,2697.3385858394877,0.29854264853608126,1.3228357230228829,0.9502754520864649,0.2876111375,0.6676565559320551
0.032,1.7744,1.0,2702.5352817091652,0.3024772662967666,1.3224297613715494,0.9514437365553959,0.2875778,0.6684918653759111
0.0325,1.77359375,1.0,2707.258261367692,0.3063898166399256,1.3220225235637797,0.952564078157305,0.2875439375,0.6693287446352518
0.033,1.772775,1.0,2711.532880053633,0.3102804232869576,1.321613766938164,0.9536390628955915,0.28750955,0.6701676814918505
0.0335,1.7719437500000002,1.0,2715.3805609793726,0.3141492073201103,1.3212032865053103,0.9546711069419395,0.2874746375,0.6710090839865674
0.034,1.7711000000000001,1.0,2718.8228970635855,0.31799628982163125,1.3207908772758266,0.9556624664849913,0.2874392,0.6718533579611148
0.0345,1.7702437500000001,1.0,2721.8816335752,0.3218217918737681,1.3203763342603207,0.9566152502108267,0.2874032375,0.6727009070341813
0.035,1.7693750000000001,1.0,2724.578651708112,0.3256258345587684,1.319959452469401,0.9575314306704019,0.28736675,0.6735521325748761
0.035500000000000004,1.76849375,1.0,2726.9359530884403,0.3294085389588799,1.3195400269136754,0.9584128546448468,0.2873297375,0.6744074336734935
0.036000000000000004,1.7676,1.0,2728.97378076847,0.3331700240283214,1.3191178695524792,0.9592612538640021,0.2872922,0.6752671726157107
0.0365,1.76669375,1.0,2730.7074500418125,0.3369104035548716,1.3186928379433154,0.9600782557816623,0.2872541375,0.6761316168483282
0.037,1.765775,1.0,2732.1668850826186,0.34062981077718296,1.3182646575802652,0.9608653789460786,0.28721555,0.6770013001763919
0.0375,1.76484375,1.0,2733.3647352791236,0.3443283599362528,1.3178332115662672,0.9616240609662411,0.2871764375,0.6778764337546952
0.038,1.7639,1.0,2734.3137002252492,0.3480061652730784,1.3173983830042588,0.962355653137903,0.28713679999999997,0.6787572272521742
0.0385,1.76294375,1.0,2735.026523704975,0.3516633410286572,1.3169600549971785,0.9630614265701155,0.28709663750000003,0.6796438888271223
0.039,1.761975,1.0,2735.5159879794865,0.35530000144398655,1.3165181106479638,0.963742577812758,0.28705595,0.6805366251015414
0.0395,1.7609937500000001,1.0,2735.7949083776625,0.35891626076006367,1.316072433059553,0.9644002340306547,0.2870147375,0.6814356411346122
0.04,1.76,1.0,2735.8761281890993,0.36251223321788606,1.3156229053348838,0.9650354577652791,0.286973,0.6823411403953029
0.0405,1.7589937500000001,1.0,2735.772513860372,0.366088033058451,1.3151694105768945,0.965649251320949,0.2869307375,0.6832533247340973
0.041,1.757975,1.0,2735.496950494303,0.3696437745227558,1.3147118318885227,0.966242560808776,0.28688795,0.6841723943538591
0.0415,1.75694375,1.0,2735.062337651839,0.3731795718517979,1.3142500523727065,0.9668162798783742,0.2868446375,0.6850985477798189
0.042,1.7559,1.0,2734.4754896688996,0.37669553145234486,1.3137840104903349,0.9673712565000077,0.28680079999999997,0.6860318710478361
0.0425,1.75484375,1.0,2733.7497538045795,0.3801917717289627,1.3133135854592373,0.9679082897166668,0.2867564375,0.6869725674957821
0.043000000000000003,1.753775,1.0,2732.8969667123956,0.3836684071338159,1.312838670258066,0.968428136140008,0.28671155,0.6879208111963169
0.043500000000000004,1.75269375,1.0,2731.923888023792,0.38712554471586685,1.312359204012222,0.9689315147341795,0.28666613750000003,0.6888766826175097
0.044,1.7516,1.0,2730.837280863319,0.3905632915240779,1.3118751258471046,0.9694191066895412,0.2866202,0.6898402610900913
0.0445,1.75049375,1.0,2729.6439104134615,0.3939817546074115,1.3113863748881138,0.9698915577773624,0.2865737375,0.6908116247896653
0.045,1.7493750000000001,1.0,2728.3505425608782,0.39738104101483007,1.31089289026065,0.9703494805353795,0.28652675,0.6917908507186844
0.0455,1.74824375,1.0,2726.9639426251606,0.4007612577952959,1.3103946110901132,0.9707934562978985,0.2864792375,0.6927780146881931
0.046,1.7471,1.0,2725.4908741697877,0.40412251199777144,1.3098914765019032,0.9712240370829004,0.2864312,0.6937731912993317
0.0465,1.7459437500000001,1.0,2723.9380978951745,0.40746491067121904,1.3093834256214198,0.9716417473475037,0.28638263750000004,0.6947764539246026
0.047,1.744775,1.0,2722.3123706133915,0.4107885608646011,1.3088703975740636,0.9720470856221358,0.28633355,0.6957878746889026
0.0475,1.74359375,1.0,2720.6203600836484,0.41409356919684087,1.3083523322520347,0.9724405260322303,0.28628393750000003,0.6968075229423814
0.048,1.7424,1.0,2718.864943240452,0.4173800199226176,1.307829204021164,0.9728225193295774,0.2862338,0.6978353990806649
0.0485,1.74119375,1.0,2717.0577962380426,0.42064804968316216,1.3073009070707713,0.9731934956061502,0.2861831375,0.6988716598006416
0.049,1.739975,1.0,2715.201988925501,0.4238977577338188,1.3067674138991203,0.9735538652379785,0.28613195,0.6999163066634113
0.0495,1.73874375,1.0,2713.3005884247145,0.42712924332993185,1.3062286970044747,0.9739040192936761,0.2860802375,0.7009693403410128
0.05,1.7375,1.0,2711.356658864855,0.4303426057268454,1.3056847288850977,0.9742443306145344,0.286028,0.7020307606072842
0.0505,1.73624375,1.0,2709.3732611336277,0.4335379441799038,1.3051354820392533,0.9745751548248042,0.2859752375,0.7031005663286751
0.051000000000000004,1.734975,1.0,2707.3534526458075,0.43671535794445127,1.3045809289652048,0.9748968312772638,0.28592195,0.7041787554550154
0.051500000000000004,1.73369375,1.0,2705.300287127734,0.43987494627583207,1.3040210421612162,0.9752096839387538,0.2858681375,0.7052653250102296
0.052000000000000005,1.7324,1.0,2703.2168144192883,0.44301680842939045,1.3034557941255507,0.9755140222199858,0.2858138,0.7063602710830084
0.0525,1.73109375,1.0,2701.1060802924826,0.4461410436604706,1.3028851573564721,0.9758101417535877,0.28575893750000003,0.707463588817427
0.053,1.729775,1.0,2698.9711262864516,0.4492477512244168,1.302309104352244,0.9760983251240374,0.28570355000000003,0.7085752724035208
0.0535,1.72844375,1.0,2696.8149895596453,0.4523370303765733,1.30172760761113,0.9763788425528457,0.2856476375,0.7096953150678063
0.054,1.7271,1.0,2694.640702758657,0.45540898037228433,1.3011406396313934,0.9766519525420901,0.2855912,0.7108237090637605
0.0545,1.7257437500000001,1.0,2692.4512939036576,0.45846370046689416,1.3005481729112982,0.9769179024791681,0.2855342375,0.7119604456622461
0.055,1.724375,1.0,2690.2480238084054,0.4615012742620578,1.2999501960858526,0.9771769286636833,0.28547675,0.7131054842731459
0.0555,1.72299375,1.0,2688.032279003137,0.46452179060091614,1.2993466966211267,0.9774292578744161,0.2854187375,0.7142587857844999
0.056,1.7216,1.0,2685.8100334621117,0.4675253837958733,1.2987376199275695,0.9776751091746809,0.2853602,0.7154203904337086
0.0565,1.72019375,1.0,2683.582310994083,0.47051214401503705,1.2981229567041954,0.9779146910248732,0.28530113749999997,0.7165902509118254
0.057,1.718775,1.0,2681.3501337493726,0.4734821614265153,1.2975026976500184,0.9781482033147031,0.28524155,0.7177683191676076
0.0575,1.71734375,1.0,2679.1145222081545,0.47643552619841584,1.2968768334640528,0.9783758377826651,0.2851814375,0.7189545464041998
0.058,1.7159,1.0,2676.876495171759,0.4793723284988466,1.2962453548453128,0.978597778411714,0.2851208,0.7201488830758123
0.0585,1.71444375,1.0,2674.6370697551524,0.48229265849591535,1.2956082524928123,0.9788142018026814,0.2850596375,0.7213512788843932
0.059000000000000004,1.7129750000000001,1.0,2672.3972613815254,0.4851966063577301,1.2949655171055658,0.9790252775268451,0.28499795,0.7225616827762951
0.059500000000000004,1.71149375,1.0,2670.1580837790925,0.4880842622523986,1.2943171393825874,0.9792311684589736,0.2849357375,0.7237800429389369
0.06,1.71,1.0,2667.920548979097,0.49095571634802865,1.293663110022891,0.9794320310920687,0.284873,0.7250063067974599
0.0605,1.7084937500000001,1.0,2665.6856673165767,0.49381105881272824,1.2930034197254914,0.979628015834947,0.2848097375,0.7262404210113761
0.061,1.7069750000000001,1.0,2663.454447432624,0.4966503798146052,1.292338059189402,0.9798192672937188,0.28474595,0.7274823314712171
0.0615,1.7054437500000001,1.0,2661.2278962781797,0.4994737695217673,1.2916670191136377,0.9800059245381533,0.2846816375,0.7287319832951688
0.062,1.7039,1.0,2659.0070191209716,0.5022813181023225,1.2909902901972121,0.9801881213538491,0.2846168,0.7299893208257089
0.0625,1.70234375,1.0,2656.792819552624,0.5050731157243786,1.2903078631391398,0.9803659864810684,0.2845514375,0.7312542876262325
0.063,1.7007750000000001,1.0,2654.5862994992713,0.5078492525560435,1.2896197286384348,0.9805396438410338,0.28448555,0.7325268264776768
0.0635,1.69919375,1.0,2652.388459233379,0.510609818765425,1.2889258773941112,0.9807092127504331,0.28441913750000003,0.7338068793751371
0.064,1.6976,1.0,2650.2002973870585,0.513354904520631,1.2882263001051835,0.9808748081248316,0.2843522,0.7350943875244793
0.0645,1.69599375,1.0,2648.020808062291,0.5160845616402306,1.2875210059542939,0.981036538847581,0.2842847375,0.7363892574458895
0.065,1.694375,1.0,2645.8511499389597,0.51879890642715,1.2868099841557497,0.9811945134673539,0.28421675,0.7376914317237839
0.0655,1.69274375,1.0,2643.6925601612957,0.5214980465858154,1.2860932231818567,0.9813488359435987,0.2841482375,0.7390008534739041
0.066,1.6911,1.0,2641.545084365601,0.524182062732523,1.2853707224957807,0.9814996051596138,0.2840792,0.7403174449688652
0.0665,1.6894437500000001,1.0,2639.40876815316,0.5268510354835683,1.2846424815606876,0.9816469164924089,0.2840096375,0.7416411278411148
0.067,1.687775,1.0,2637.283657090728,0.5295050454552472,1.2839084998397432,0.9817908619603075,0.28393955,0.7429718230827377
0.0675,1.68609375,1.0,2635.1697967125633,0.5321441732638555,1.2831687767961135,0.9819315303633227,0.2838689375,0.7443094510452578
0.068,1.6844000000000001,1.0,2633.0672325209575,0.5347684995256888,1.2824233118929642,0.982069007416707,0.2837978,0.7456539314394435
0.0685,1.68269375,1.0,2630.9760099874197,0.5373781048570432,1.2816721045934614,0.982203375878054,0.2837261375,0.7470051833351089
0.069,1.680975,1.0,2628.8961745540814,0.5399730698742141,1.280915154360771,0.9823347156683049,0.28365395,0.7483631251609189
0.0695,1.67924375,1.0,2626.8277716347347,0.5425534751934975,1.2801524606580588,0.9824631039869914,0.28358123749999997,0.7497276747041928
0.07,1.6775,1.0,2624.7708466159643,0.5451194014311891,1.2793840229484905,0.982588615422027,0.283508,0.7510987491107057
0.07050000000000001,1.67574375,1.0,2622.7254448584463,0.5476709292035846,1.2786098406952322,0.9827113220543386,0.2834342375,0.752476264884494
0.07100000000000001,1.673975,1.0,2620.6916116978127,0.5502081391269799,1.27782991336145,0.9828312935576164,0.28335995,0.753860137887657
0.07150000000000001,1.67219375,1.0,2618.6693924462184,0.5527311118176707,1.2770442404103093,0.9829485972934353,0.2832851375,0.7552502833401619
0.07200000000000001,1.6704,1.0,2616.6588323934398,0.5552399278919528,1.2762528213049762,0.9830632984019985,0.2832098,0.7566466158196458
0.0725,1.66859375,1.0,2614.6599768077826,0.5577346679661219,1.2754556555086167,0.9831754598887271,0.2831339375,0.758049049261219
0.073,1.6667750000000001,1.0,2612.672870937803,0.5602154126564738,1.2746527424843968,0.9832851427069137,0.28305755,0.7594574969572693
0.0735,1.66494375,1.0,2610.6975600130677,0.5626822425793044,1.273844081695482,0.9833924058366421,0.2829806375,0.7608718715572648
0.074,1.6631,1.0,2608.73408924547,0.5651352383509094,1.2730296726050383,0.9834973063601671,0.2829032,0.7622920850675561
0.0745,1.6612437500000001,1.0,2606.782503830517,0.5675744805875845,1.2722095146762318,0.9835998995339309,0.2828252375,0.763718048851181
0.075,1.659375,1.0,2604.8446832213995,0.5699999916567637,1.2713835903051014,0.9837002348459645,0.28274675,0.765149703166814
