Time [s],Phi [rad],STIM [ ],Fsee [N],Gamma [ ],Lcerel [ ],q [ ],Lmtc [m],fisomrel [ ]
0.0,1.8,1.0,19.268903419454674,0.0011645591238834312,1.3791964572086848,0.005347884082031224,0.288653,0.5414861187512185
0.0005,1.79999375,1.0,19.91161614406041,0.006767236176944445,1.3791246743842476,0.016453746764666297,0.2886527375,0.5416596979369843
0.001,1.799975,1.0,24.11472789341635,0.012338486641818278,1.3786903009156253,0.04187547257140939,0.28865195,0.542709362220769
0.0015,1.79994375,1.0,35.54571161032753,0.017878486796497634,1.3776776521177996,0.07901435746377644,0.2886506375,0.5451517573048035
0.002,1.7999,1.0,61.91196192395903,0.023387411930875318,1.375847263630128,0.1245747488113984,0.2886488,0.5495498546611769
0.0025,1.79984375,1.0,110.02062086752534,0.028865436351007134,1.3733328460789607,0.17523063476993284,0.28864643749999996,0.5555567156842574
0.003,1.7997750000000001,1.0,177.06442375416557,0.034312733385678265,1.3706258423670623,0.22822912013385083,0.28864354999999997,0.5619785872758467
0.0035,1.79969375,1.0,255.5138291787841,0.03972947539127741,1.3680454390447467,0.28147124789352324,0.2886401375,0.5680566160661977
0.004,1.7996,1.0,340.2258215182779,0.045115833757102666,1.365666281175862,0.3334073628159123,0.2886362,0.5736229936575747
0.0045000000000000005,1.7994937500000001,1.0,428.55364246001614,0.05047197891461055,1.3634753119949095,0.38297826234544247,0.2886317375,0.5787171478641685
0.005,1.799375,1.0,518.9674938058942,0.0557980802587443,1.3614468112759848,0.4295404142469663,0.28862675,0.5834062583495621
0.0055,1.79924375,1.0,610.4574293422182,0.061094306549646336,1.3595577349886323,0.4727704647607593,0.2886212375,0.5877494745211878
0.006,1.7991000000000001,1.0,702.1364691478592,0.0663608251055803,1.35779233158989,0.5125761135731568,0.2886152,0.5917877788758614
0.006500000000000001,1.79894375,1.0,793.3225450842617,0.07159780262146383,1.3561374366389802,0.5490180339133696,0.2886086375,0.5955552494394655
0.007,1.798775,1.0,883.4550477822148,0.07680540488470325,1.3545824485446414,0.5822525484236858,0.28860155,0.5990793596431339
0.0075,1.79859375,1.0,972.0521271727498,0.08198379653033377,1.3531188918649277,0.612490021866662,0.2885939375,0.6023821690308848
0.008,1.7984,1.0,1058.7504589972336,0.08713314167587,1.3517390474423734,0.6399655470635477,0.2885858,0.6054835539041193
0.0085,1.79819375,1.0,1143.2365521003976,0.092253602919539,1.3504365295069838,0.6649205632342914,0.2885771375,0.608399996132337
0.009000000000000001,1.797975,1.0,1225.2845640306737,0.09734534229979726,1.3492053466922636,0.6875905629994896,0.28856795,0.6111467660763266
0.0095,1.79774375,1.0,1304.7432386473736,0.10240852142481824,1.348039864233606,0.7081982357220488,0.2885582375,0.6137380513528479
0.01,1.7975,1.0,1381.4730471576986,0.10744329992585071,1.3469354312292412,0.7269502172899841,0.288548,0.6161856076459836
0.0105,1.79724375,1.0,1455.3937030978918,0.11244983703988214,1.3458875558860595,0.7440351826797879,0.2885372375,0.6185006335560208
0.011,1.796975,1.0,1526.4782588483201,0.11742829165040024,1.3448918778464962,0.7596237443139622,0.28852595000000003,0.6206938539397882
0.0115,1.79669375,1.0,1594.7129224537132,0.12237882142291774,1.3439445608035838,0.7738693381608294,0.2885141375,0.6227746782322381
0.012,1.7964,1.0,1660.0877005729137,0.1273015823038467,1.3430422866586587,0.7869093318660818,0.28850180000000003,0.6247512422321386
0.0125,1.79609375,1.0,1722.6318195890613,0.13219673013829394,1.3421817520413295,0.7988661417514076,0.2884889375,0.6266315324296113
0.013000000000000001,1.7957750000000001,1.0,1782.3980249766987,0.13706441996364604,1.3413598030968028,0.8098487165826649,0.28847555,0.6284231021355613
0.0135,1.79544375,1.0,1839.449884590965,0.14190480678594625,1.3405735272902004,0.8199539675283247,0.2884616375,0.6301328842765024
0.014,1.7951000000000001,1.0,1893.8322105984687,0.14671804262998484,1.3398205261512837,0.8292681717549866,0.2884472,0.631766613540385
0.0145,1.79474375,1.0,1945.6130321466997,0.15150427952055207,1.3390984012098144,0.8378679844420811,0.2884322375,0.6333299563040427
0.015,1.794375,1.0,1994.8744185876571,0.15626366891834514,1.338404830238872,0.8458215778233404,0.28841675,0.6348283509917099
0.0155,1.79399375,1.0,2041.7066434670262,0.16099636227431224,1.3377376044495306,0.8531896480355863,0.2884007375,0.6362669341221059
0.016,1.7936,1.0,2086.197627953941,0.16570251013357892,1.3370947144773533,0.8600263221159185,0.2883842,0.6376503618349224
0.0165,1.7931937500000001,1.0,2128.4128601433063,0.17038226003571966,1.3364745315603737,0.8663799847709456,0.2883671375,0.6389824286072294
0.017,1.792775,1.0,2168.429693824047,0.17503575952030884,1.3358754269366253,0.8722938446207615,0.28834955,0.6402668927938128
0.0175,1.7923437500000001,1.0,2206.3363540299547,0.17966315612692094,1.3352957718441418,0.8778065455294535,0.2883314375,0.6415074789012793
0.018000000000000002,1.7919,1.0,2242.203052760998,0.1842645961102876,1.3347342178120833,0.8829527771741891,0.2883128,0.642707281332056
0.0185,1.79144375,1.0,2276.1630929929165,0.18884022695239147,1.3341888701527087,0.8877635185708066,0.2882936375,0.643870532736148
0.019,1.790975,1.0,2308.2858271329133,0.19339019288228654,1.3336585559130827,0.8922667903297388,0.28827395,0.644999898169631
0.0195,1.7904953190955124,1.0,2338.682969686927,0.19791463669457227,1.333142456338673,0.896487895594477,0.2882538034020115,0.646097269721414
0.02,1.7900140822726462,1.0,2367.8340767186946,0.20241370118384822,1.3326397526749476,0.9004496413946105,0.28823359145545113,0.6471645246822375
0.0205,1.7895328454497799,1.0,2395.8692025160162,0.20688752914471384,1.3321496261673746,0.9041726184483112,0.28821337950889075,0.6482035262655399
0.021,1.7890516086269137,1.0,2422.842111754459,0.2113362626162688,1.3316713379333986,0.9076754636681091,0.2881931675623304,0.6492159553363179
0.021500000000000002,1.7885703718040475,1.0,2448.7846882967096,0.215760042889281,1.3312043848080846,0.9109751063806729,0.28817295561577,0.650202983048145
0.022,1.7880891349811812,1.0,2473.732078821287,0.22015900921625053,1.3307482515153215,0.9140868984783197,0.2881527436692096,0.6511657975751199
0.0225,1.787607898158315,1.0,2497.721128030672,0.22453330043938088,1.3303024246530804,0.9170247870219224,0.28813253172264924,0.6521055748351281
0.023,1.7871266613354488,1.0,2520.7837959832445,0.2288830526690825,1.329866453770854,0.9198014726001292,0.28811231977608887,0.6530233503719421
0.0235,1.7866454245125825,1.0,2542.9615736788187,0.2332084053153885,1.329439813163621,0.9224285162783865,0.28809210782952843,0.653920310914281
0.024,1.7861641876897163,1.0,2564.304154903472,0.23750950116861444,1.3290219149931168,0.9249164592629942,0.2880718958829681,0.6547977661169075
0.0245,1.7856829508668501,1.0,2584.838728340335,0.24178647344974524,1.328612396364701,0.9272749700603848,0.2880516839364077,0.6556565464140582
0.025,1.785201714043984,1.0,2604.593582017723,0.24603945537976574,1.3282108943837323,0.9295128969254939,0.28803147198984735,0.6564974770657861
0.025500000000000002,1.7847204772211176,1.0,2623.598037346473,0.25026858017966086,1.32781704615557,0.9316383486423765,0.2880112600432869,0.6573213783476941
0.026000000000000002,1.7842392403982514,1.0,2641.8823860796224,0.25447398107041547,1.3274304887855737,0.9336587663666339,0.28799104809672654,0.6581290657322714
0.0265,1.7837580035753853,1.0,2659.4778301902793,0.2586557912730145,1.327050859379102,0.9355809876128174,0.28797083615016617,0.6589213500618332
0.027,1.783276766752519,1.0,2676.4164246699233,0.26281414400844283,1.326677795041514,0.9374113033294077,0.2879506242036058,0.6596990377130565
0.0275,1.7827955299296527,1.0,2692.7310232466593,0.2669491724976854,1.3263109328781695,0.9391555088824562,0.2879304122570454,0.6604629307531211
0.028,1.7823142931067866,1.0,2708.440321282466,0.27106100228146573,1.3259500460075142,0.9408189664813145,0.28791020031048503,0.6612135443485312
0.0285,1.7818330562839202,1.0,2723.5867349778428,0.2751497735500934,1.3255946965452488,0.9424066032904457,0.28788998836392465,0.6619518290229828
0.029,1.781351819461054,1.0,2738.190539984392,0.27921561307376797,1.3252446543526795,0.9439229986496173,0.2878697764173643,0.662678299792749
0.029500000000000002,1.7808705826381879,1.0,2752.2717526724364,0.28325864720969973,1.324899695835921,0.9453723917404857,0.2878495644708039,0.663393455502953
0.03,1.7803893458153215,1.0,2765.850819539608,0.28727900231509906,1.3245595974010869,0.9467587105317139,0.2878293525242435,0.6640977925218253
0.0305,1.7799081089924553,1.0,2778.948592563055,0.2912768047471762,1.3242241354542914,0.9480855985839657,0.28780914057768314,0.6647918048115986
0.031,1.7794268721695892,1.0,2791.586305660262,0.2952521808631415,1.3238930864016487,0.9493564392298783,0.2877889286311227,0.6654759839962185
0.0315,1.778945635346723,1.0,2803.785552258582,0.2992052570202052,1.3235662266492731,0.9505743774145955,0.2877687166845624,0.6661508194258648
0.032,1.7784643985238566,1.0,2815.568263972219,0.3031361595755776,1.3232433326032782,0.9517423394485399,0.28774850473800195,0.666816798238286
0.0325,1.7779831617009905,1.0,2826.950002958229,0.3070450091252951,1.322924240399071,0.9528630563013204,0.28772829279144163,0.6674742824065145
0.033,1.7775019248781243,1.0,2837.9540689571722,0.31093193488804494,1.3226087193977036,0.9539390687072602,0.2877080808448812,0.6681237696701968
0.0335,1.777020688055258,1.0,2848.601037929539,0.3147970635358888,1.322296565770555,0.9549727499246438,0.2876878688983208,0.668765700550084
0.034,1.7765394512323918,1.0,2858.9037210254473,0.3186405144743342,1.3219876468723748,0.955966322612745,0.28766765695176044,0.6694003675433382
0.0345,1.7760582144095256,1.0,2868.8751086739408,0.32246240710888846,1.321681830057913,0.9569218646142006,0.28764744500520006,0.6700280618960205
0.035,1.7755769775866592,1.0,2878.5283612649478,0.32626286084505896,1.321378982681919,0.9578413200897744,0.2876272330586397,0.6706490736298945
0.035500000000000004,1.775095740763793,1.0,2887.8768002210027,0.3300419950883531,1.3210789720991423,0.9587265096737342,0.2876070211120793,0.6712636915681066
0.036000000000000004,1.774614503940927,1.0,2896.9338994594787,0.3337999292442783,1.3207816656643332,0.9595791397461777,0.28758680916551893,0.6718722033597448
0.0365,1.7741332671180605,1.0,2905.713277244883,0.3375367827183419,1.3204869307322413,0.9604008109082348,0.28756659721895855,0.6724748955032767
0.037,1.7736520302951944,1.0,2914.2286884309915,0.34125267491605143,1.320194634657616,0.9611930257368682,0.2875463852723982,0.6730720533688641
0.0375,1.7731707934723282,1.0,2922.4935511836766,0.34494772454020467,1.3199046488879294,0.9619571961357657,0.2875261733258378,0.6736639528695493
0.038,1.7726895566494618,1.0,2930.512518463506,0.3486220383897457,1.3196169228119066,0.9626946545548695,0.2875059613792774,0.674250709988035
0.0385,1.7722083198265957,1.0,2938.307920654562,0.3522757514401015,1.3193312515303097,0.9634066459573908,0.287485749432717,0.6748327544518051
0.039,1.7717270830037295,1.0,2945.887301200322,0.35590897570193186,1.3190475608702978,0.9640943500435535,0.28746553748615666,0.6754102484142653
0.0395,1.7712458461808631,1.0,2953.2582739509035,0.3595218231858967,1.3187657766590308,0.9647588784111952,0.28744532553959623,0.6759833534150665
0.04,1.770764609357997,1.0,2960.428519968004,0.36311440590265587,1.3184858247236677,0.9654012792165041,0.28742511359303585,0.6765522303893023
0.0405,1.7702833725351308,1.0,2967.4057844498006,0.36668683586286915,1.318207630891368,0.9660225414682176,0.2874049016464755,0.6771170396763486
0.041,1.7698021357122646,1.0,2974.197873779233,0.3702392250771965,1.317931120989291,0.9666235989876762,0.2873846896999151,0.6776779410283572
0.0415,1.7693208988893983,1.0,2980.8126526934734,0.37377168555629764,1.3176562208445963,0.9672053340639547,0.2873644777533547,0.6782350936183963
0.042,1.768839662066532,1.0,2987.2580415758275,0.3772843293108325,1.3173828562844432,0.9677685808304792,0.28734426580679434,0.6787886560482413
0.0425,1.768358425243666,1.0,2993.5420138693,0.3807772683514609,1.3171109531359912,0.9683141283869959,0.28732405386023396,0.6793387863558137
0.043000000000000003,1.7678771884207996,1.0,2999.672593612452,0.38425061468884275,1.3168404372263998,0.9688427236885138,0.2873038419136736,0.6798856420222699
0.043500000000000004,1.7673959515979334,1.0,3005.6571653153255,0.3877044784425433,1.3165712403403842,0.969355074401593,0.2872836299671132,0.6804293679507356
0.044,1.7669147147750672,1.0,3011.4968761488954,0.3911389546545131,1.3163033486131928,0.9698518531731611,0.28726341802055283,0.6809699989033198
0.0445,1.7664334779522008,1.0,3017.2067182052047,0.3945541783074897,1.3160366286375227,0.9703336945902118,0.28724320607399245,0.6815078104573615
0.045,1.7659522411293347,1.0,3022.790774969231,0.39795025343361123,1.3157710418179613,0.9708012033825595,0.2872229941274321,0.6820428863175999
0.0455,1.7654710043064685,1.0,3028.2531551807633,0.40132728406501583,1.3155065495590963,0.9712549536607397,0.2872027821808717,0.6825753099021477
0.046,1.7649897674836021,1.0,3033.5979918810112,0.4046853742338417,1.315243113265515,0.9716954907615027,0.28718257023431126,0.6831051643452352
0.0465,1.764508530660736,1.0,3038.829441492966,0.408024627972227,1.314980694341805,0.9721233329650113,0.28716235828775094,0.6836325324998547
0.047,1.7640272938378698,1.0,3043.9516829335444,0.4113451493123099,1.3147192541925539,0.9725389730937943,0.2871421463411905,0.6841574969403146
0.0475,1.7635460570150037,1.0,3048.9689167604533,0.4146470422862285,1.3144587542223491,0.9729428800026428,0.2871219343946302,0.6846801399646946
0.048,1.7630648201921373,1.0,3053.8853643502143,0.41793041092612104,1.3141991558357784,0.9733354999678483,0.28710172244806975,0.6852005435972075
0.0485,1.7625835833692711,1.0,3058.7052671109786,0.42119535926412566,1.313940420437429,0.9737172579834535,0.2870815105015094,0.6857187895904666
0.049,1.762102346546405,1.0,3063.432885726916,0.42444199133238053,1.3136825094318887,0.974088558971549,0.287061298554949,0.6862349594276564
0.0495,1.7616211097235386,1.0,3068.072499436598,0.4276704111630238,1.3134253842237447,0.9744497889130466,0.2870410866083886,0.686749134324611
0.05,1.7611398729006724,1.0,3072.6284053439254,0.4308807227881936,1.3131690062175847,0.9748013159048399,0.28702087466182824,0.6872613952317934
0.0505,1.7606586360778063,1.0,3077.103917753174,0.434073024756096,1.3129133453789115,0.9751434910905378,0.28700066271526786,0.6877718057518434
0.051000000000000004,1.7601773992549399,1.0,3081.4989788030944,0.43724740057562916,1.3126584006386273,0.975476649869068,0.2869804507687075,0.6882803715245397
0.051500000000000004,1.7596961624320737,1.0,3085.8228202523187,0.4404039867436021,1.3124040915453061,0.9758011132661765,0.2869602388221471,0.6887872563321173
0.052000000000000005,1.7592149256092076,1.0,3090.0774526097553,0.44354287864270514,1.312150399587925,0.9761171874083678,0.28694002687558673,0.6892925001182999
0.0525,1.7587336887863412,1.0,3094.2648949379586,0.4466641716556284,1.3118973062554609,0.9764251649065356,0.2869198149290263,0.6897961426995767
0.053,1.758252451963475,1.0,3098.387174603922,0.4497679611650621,1.3116447930368913,0.9767253255689948,0.286899602982466,0.6902982237659222
0.0535,1.7577712151406089,1.0,3102.4463270363185,0.4528543425536966,1.3113928414211937,0.9770179370709899,0.28687939103590554,0.6907987828814901
0.054,1.7572899783177425,1.0,3106.4443954924327,0.4559234112042221,1.311141432897345,0.9773032555836885,0.28685917908934516,0.6912978594852901
0.0545,1.7568087414948763,1.0,3110.383430830418,0.4589752624993287,1.3108905489543223,0.9775815263654288,0.2868389671427848,0.6917954928918371
0.055,1.7563275046720102,1.0,3114.265491290799,0.46200999182170677,1.3106401710811033,0.9778529843177904,0.2868187551962244,0.6922917222917822
0.0555,1.7558462678491438,1.0,3118.092642284759,0.4650276945540464,1.310390280766665,0.9781178545088548,0.28679854324966403,0.692786586752522
0.056,1.7553650310262776,1.0,3121.8669561902766,0.4680284660790379,1.3101408594999846,0.978376352665847,0.28677833130310365,0.6932801252187846
0.0565,1.7548837942034115,1.0,3125.5905121558208,0.47101240177937154,1.3098918887700395,0.9786286856391905,0.2867581193565433,0.6937723765131936
0.057,1.7544025573805453,1.0,3129.2653959116096,0.47397959703773745,1.3096433500658067,0.9788750518398495,0.2867379074099829,0.6942633793368123
0.0575,1.753921320557679,1.0,3132.8936995886047,0.4769301472368259,1.3093952248762637,0.9791156416517064,0.2867176954634225,0.6947531722696627
0.058,1.7534400837348127,1.0,3136.4775215449317,0.4798641477593272,1.3091474946903876,0.9793506378205835,0.28669748351686214,0.695241793771227
0.0585,1.7529588469119466,1.0,3140.0189661998916,0.4827816939879314,1.3089001409971555,0.9795802158214121,0.28667727157030176,0.6957292821809231
0.059000000000000004,1.7524776100890802,1.0,3143.5165026901386,0.4856828375167771,1.3086531761261004,0.9798045422785362,0.2866570596237414,0.6962156150104286
0.059500000000000004,1.751996373266214,1.0,3146.974570761223,0.48856771156283263,1.3084065618448284,0.9800237812607382,0.286636847677181,0.6967008692954466
0.06,1.7515151364433479,1.0,3150.395888897792,0.49143642526248454,1.308160274575414,0.9802380892545776,0.28661663573062063,0.6971850930280787
0.0605,1.7510338996204815,1.0,3153.7813383516727,0.4942890643461492,1.3079143063333185,0.980447615682393,0.28659642378406025,0.6976683034287987
0.061,1.7505526627976153,1.0,3157.131803090691,0.49712571454424315,1.307668649134004,0.9806525042769971,0.2865762118374998,0.6981505176659987
0.0615,1.7500714259747492,1.0,3160.448169743322,0.49994646158718264,1.3074232949929319,0.9808528933415797,0.2865559998909395,0.6986317528561505
0.062,1.7495901891518828,1.0,3163.731327543628,0.5027513912053843,1.3071782359255641,0.9810489159958381,0.28653578794437906,0.6991120260639619
0.0625,1.7491089523290166,1.0,3166.9821682792353,0.5055405891292644,1.3069334639473622,0.9812407004091654,0.2865155759978187,0.6995913543025296
0.063,1.7486277155061505,1.0,3170.201586238847,0.5083141410892392,1.3066889710737881,0.981428370021664,0.2864953640512583,0.7000697545334859
0.0635,1.748146478683284,1.0,3173.390478162871,0.5110721328157255,1.3064447493203033,0.9816120437537088,0.2864751521046979,0.7005472436671444
0.064,1.747665241860418,1.0,3176.5497431943986,0.5138146500391395,1.3062007907023694,0.9817918362047338,0.28645494015813755,0.7010238385626396
0.0645,1.7471840050375518,1.0,3179.6802828318087,0.5165417784898977,1.3059570872354485,0.9819678578418684,0.28643472821157717,0.7014995560280618
0.065,1.7467027682146856,1.0,3182.7830008832448,0.5192536038984163,1.3057136309350017,0.9821402151790146,0.2864145162650168,0.7019744128205918
0.0655,1.7462215313918192,1.0,3185.8588034217655,0.5219502119951122,1.3054704138164912,0.9823090109469129,0.2863943043184564,0.702448425646625
0.066,1.745740294568953,1.0,3188.908598742541,0.5246316885104012,1.3052274278953786,0.982474344254713,0.28637409237189604,0.7029216111618988
0.0665,1.745259057746087,1.0,3191.933297321076,0.5272981191747002,1.3049846651871257,0.9826363107435317,0.28635388042533566,0.7033939859716097
0.067,1.7447778209232205,1.0,3194.933811773275,0.5299495897184254,1.3047421177071938,0.9827950027324462,0.2863336684787753,0.703865566630532
0.0675,1.7442965841003544,1.0,3197.911056816061,0.5325861858719934,1.304499777471045,0.9829505093573518,0.28631345653221485,0.7043363696431253
0.068,1.7438153472774882,1.0,3200.8659492307993,0.5352079933658203,1.304257636494141,0.9831029167030739,0.2862932445856545,0.7048064114636454
0.0685,1.7433341104546218,1.0,3203.799407826359,0.5378150979303228,1.304015686791943,0.9832523079291116,0.2862730326390941,0.7052757084962475
0.069,1.7428528736317557,1.0,3206.7123510002534,0.5404075852244089,1.3037739204000833,0.9833987633859357,0.2862528206925337,0.7057442770560072
0.0695,1.7423716368088895,1.0,3209.6033065331685,0.5429854774628544,1.3035323494093811,0.9835423578337688,0.28623260874597334,0.7062120945855274
0.07,1.7418903999860231,1.0,3212.475280753831,0.5455489343994031,1.3032909483672912,0.9836831700664118,0.28621239679941296,0.7066792112196081
