Time [s],Phi [rad],STIM [ ],Fsee [N],Gamma [ ],Lcerel [ ],q [ ],Lmtc [m],fisomrel [ ]
0.0,1.8,1.0,17.967427186902526,1.5346270851016157e-05,1.3793397160806729,0.005000062555281181,0.288653,0.5411396039663091
0.0005,1.79999375,1.0,18.27853611614754,0.005624469499204165,1.3793021887413883,0.012955363028980354,0.2886527375,0.5412303878060978
0.001,1.799975,1.0,21.624125857496637,0.011202129981141907,1.3789377154570013,0.035636440962481856,0.28865195,0.5421116320287906
0.0015,1.79994375,1.0,31.083345933525955,0.016748504198661387,1.3780450017479067,0.07063984571436505,0.2886506375,0.5442665071856674
0.002,1.7999,1.0,53.61312351913977,0.022263767642099485,1.3763661380003085,0.11476300695851231,0.2886488,0.5483052620112652
0.0025,1.79984375,1.0,97.17082055259024,0.027748094817734253,1.3739326674799588,0.1646238164435672,0.28864643749999996,0.5541274240794725
0.003,1.7997750000000001,1.0,161.02595697628723,0.03320165925545279,1.3712118065733538,0.21733092699767087,0.28864354999999997,0.5605924574634789
0.0035,1.79969375,1.0,237.76007834294327,0.038624633508380954,1.3685823704194968,0.27066309055107096,0.2886401375,0.5667953960967629
0.004,1.7996,1.0,321.5485318590606,0.04401718916365592,1.3661539270099485,0.32296441194966125,0.2886362,0.5724850182882439
0.0045000000000000005,1.7994937500000001,1.0,409.3525110012911,0.04937949684761339,1.3639208246243297,0.37308065247135763,0.2886317375,0.5776837799896297
0.005,1.799375,1.0,499.5000495027721,0.05471172621688704,1.3618565033452994,0.4202906338367684,0.28862675,0.5824613232994686
0.0055,1.79924375,1.0,590.8777999795042,0.0600140460056726,1.3599371278523045,0.46421367063683133,0.2886212375,0.586879030591307
0.006,1.7991000000000001,1.0,682.6056521693126,0.06528662396940402,1.358144823484408,0.50471669725214,0.2886152,0.5909830529697775
0.006500000000000001,1.79894375,1.0,773.9707662323465,0.0705296269406788,1.3564657256948296,0.5418343230283742,0.2886086375,0.5948092678726355
0.007,1.798775,1.0,864.3752769935356,0.07574322080804183,1.3548889498745822,0.5757073578249501,0.28860155,0.598385947885575
0.0075,1.79859375,1.0,953.3308896828163,0.0809275705417621,1.353405430701238,0.606537729613894,0.2885939375,0.6017366120882414
0.008,1.7984,1.0,1040.4424303878566,0.08608284015904673,1.352007409995134,0.6345573486355933,0.2885858,0.6048813243256302
0.0085,1.79819375,1.0,1125.4028664901812,0.09120919280637116,1.3506879867211958,0.6600073577050579,0.2885771375,0.607837806024982
0.009000000000000001,1.797975,1.0,1207.9672350913356,0.09630679064413407,1.3494411188431226,0.6831251712490795,0.28856795,0.6106215065741922
0.0095,1.79774375,1.0,1287.9559949274476,0.10137579504791493,1.348261279712078,0.704136566651936,0.2885582375,0.613246431930184
0.01,1.7975,1.0,1365.229868423767,0.10641636589288297,1.3471435778925498,0.7232515998601893,0.288548,0.6157249245151761
0.0105,1.79724375,1.0,1439.7263998809888,0.11142866355001846,1.3460831090837166,0.7406624600382513,0.2885372375,0.6180691377772586
0.011,1.796975,1.0,1511.3957429767993,0.11641284673620016,1.345075655467989,0.7565435035513453,0.28852595000000003,0.6202895153167658
0.0115,1.79669375,1.0,1580.1944858723539,0.12136907220088577,1.3441176053157342,0.7710517434842216,0.2885141375,0.622395005458433
0.012,1.7964,1.0,1646.1269023680916,0.12629749669353296,1.3432053468973206,0.7843276265782576,0.28850180000000003,0.6243944191999038
0.0125,1.79609375,1.0,1709.22721047228,0.13119827640479592,1.3423354232964402,0.7964964394657091,0.2884889375,0.6262961031774462
0.013000000000000001,1.7957750000000001,1.0,1769.5520079537184,0.13607156733482376,1.341504559623913,0.8076697344973722,0.28847555,0.6281078946303483
0.0135,1.79544375,1.0,1827.1432902425802,0.14091752318774947,1.34071002001705,0.8179468633046755,0.2884616375,0.6298363592473895
0.014,1.7951000000000001,1.0,1882.0487211534212,0.14573629661830934,1.3399493118611985,0.8274161735951597,0.2884472,0.6314874533325817
0.0145,1.79474375,1.0,1934.3401646973105,0.1505280402812397,1.339219942541705,0.8361561553183693,0.2884322375,0.6330670618048544
0.015,1.794375,1.0,1984.0933270842618,0.15529290572719645,1.3385196139592934,0.8442366426868847,0.28841675,0.634580583433836
0.0155,1.79399375,1.0,2031.4101624151688,0.16003104511661867,1.337845954249805,0.8517197371466191,0.2884007375,0.6360335178477001
0.016,1.7936,1.0,2076.3554421978174,0.16474260726327886,1.3371971650393384,0.858660921918595,0.2883842,0.6374300761780396
0.0165,1.7931937500000001,1.0,2119.0037445140365,0.16942774072821642,1.3365714907590693,0.865109676738407,0.2883671375,0.6387743354853881
0.017,1.792775,1.0,2159.4422647796086,0.17408659407247082,1.3359671758401728,0.8711101765032749,0.28834955,0.6400703340496761
0.0175,1.7923437500000001,1.0,2197.7451812930713,0.17871931440107264,1.3353827133900875,0.8767019869690634,0.2883314375,0.6413215419614235
0.018000000000000002,1.7919016962648597,1.0,2234.1082503677985,0.18332605024497017,1.3348162385995077,0.8819204404242635,0.2883128712431241,0.6425321631698901
0.0185,1.7914582083015218,1.0,2268.989504053357,0.18790694607762018,1.3342668599965297,0.8867974801630644,0.28829424474866394,0.6437042930741723
0.019,1.791014720338184,1.0,2302.4973688288446,0.19246214610841839,1.333733744463693,0.8913618099799268,0.2882756182542037,0.6448398845862324
0.0195,1.7905712323748464,1.0,2334.6806087507593,0.1969917945467604,1.3332160588835371,0.8956392512000921,0.28825699175974356,0.6459408740501376
0.02,1.7901277444115087,1.0,2365.589595781887,0.20149603506473746,1.3327129933703106,0.899653075230568,0.28823836526528335,0.6470091327888
0.0205,1.7896842564481708,1.0,2395.2747016502017,0.2059750110300488,1.3322237734608702,0.9034242928822569,0.2882197387708232,0.6480464424343764
0.021,1.789240768484833,1.0,2423.7812272291126,0.21042886393305363,1.331747705517932,0.9069719138790795,0.28820111227636297,0.6490544001389904
0.021500000000000002,1.7887972805214953,1.0,2451.1517091087785,0.21485773385919124,1.3312841501253458,0.91031316042398,0.2881824857819028,0.6500344766445387
0.022,1.7883537925581574,1.0,2477.4312545762873,0.21926176089390093,1.3308324678669607,0.9134636502518858,0.2881638592874426,0.6509881320314299
0.0225,1.7879103045948197,1.0,2502.6579296513187,0.22364108218986406,1.3303921089285269,0.916437584320993,0.28814523279298243,0.6519166274163279
0.023,1.787466816631482,1.0,2526.887623890793,0.22799584017902239,1.32996237449914,0.9192478546437105,0.28812660629852227,0.6528215287464583
0.0235,1.7870233286681443,1.0,2550.168670435405,0.23232617487469678,1.3295426575793339,0.9219062223597027,0.28810797980406205,0.6537041990929525
0.024,1.7865798407048064,1.0,2572.5335430857176,0.23663222089069383,1.329132517227013,0.9244234453349157,0.28808935330960184,0.6545656444636799
0.0245,1.7861363527414686,1.0,2594.0161654554836,0.24091411284082004,1.3287315125000814,0.9268093524481311,0.2880707268151417,0.655406864443268
0.025,1.785692864778131,1.0,2614.6518195029694,0.24517198533888196,1.3283392024564438,0.9290729365704454,0.2880521003206815,0.6562288524562068
0.025500000000000002,1.7852493768147932,1.0,2634.4770583736513,0.24940597299868617,1.3279551461540042,0.9312224371092486,0.2880334738262213,0.6570325960175565
0.026000000000000002,1.7848058888514553,1.0,2653.529623553151,0.25361621043403915,1.3275789026506672,0.9332654133962301,0.28801484733176114,0.6578190769712522
0.0265,1.7843624008881176,1.0,2671.848366330964,0.2578028322587474,1.3272100310043375,0.9352088100315096,0.2879962208373009,0.6585892717160091
0.027,1.7839189129247799,1.0,2689.4583390328858,0.2619659671061576,1.3268482261131886,0.9370590335724146,0.28797759434284076,0.6593438682610393
0.0275,1.783475424961442,1.0,2706.406888907629,0.2661057546371289,1.326492986470594,0.9388219594202023,0.28795896784838054,0.660083959775231
0.028,1.7830319369981042,1.0,2722.7187150325008,0.2702223236101472,1.3261440257083636,0.9405030329916406,0.2879403413539204,0.6608101865266015
0.0285,1.7825884490347665,1.0,2738.417939189772,0.2743158022318306,1.3258010685773882,0.9421072830271726,0.28792171485946016,0.6615231623527806
0.029,1.7821449610714288,1.0,2753.529278673442,0.2783863187087972,1.3254638398285592,0.9436393576417941,0.287903088365,0.6622234979720981
0.029500000000000002,1.781701473108091,1.0,2768.0780104904047,0.2824340012476651,1.3251320642127675,0.9451035580661783,0.28788446187053984,0.6629118010865587
0.03,1.7812579851447532,1.0,2782.0899372420945,0.2864589780550523,1.3248054664809048,0.9465038689935132,0.2878658353760796,0.6635886764799803
0.0305,1.7808144971814155,1.0,2795.591354685728,0.29046137733757704,1.3244837713838615,0.9478439859105512,0.28784720888161947,0.664254726111307
0.031,1.7803710092180776,1.0,2808.6065553074086,0.2944413255771638,1.3241667257666285,0.9491273419972444,0.28782858238715925,0.6649105035259677
0.0315,1.7799275212547399,1.0,2821.154867628567,0.29839894672518713,1.3238541245330107,0.9503571331448604,0.2878099558926991,0.6655564605323891
0.032,1.7794840332914021,1.0,2833.268383021385,0.3023343744104196,1.3235456517531141,0.9515363219315208,0.28779132939823887,0.6661932756111372
0.0325,1.7790405453280644,1.0,2844.9628161841115,0.30624773024747964,1.323241141064249,0.9526676815071793,0.2877727029037787,0.6668213160825327
0.033,1.7785970573647265,1.0,2856.2541429898783,0.3101391358509858,1.322940426103726,0.9537537967485298,0.2877540764093185,0.6674409476656372
0.0335,1.7781535694013888,1.0,2867.1585861797016,0.3140087128355566,1.3226433405088553,0.9547970793157365,0.28773544991485833,0.6680525345194095
0.034,1.777710081438051,1.0,2877.692601668137,0.3178565828158106,1.3223497179169479,0.955799781334268,0.28771682342039817,0.6686564392820923
0.0345,1.7772665934747134,1.0,2887.872865463704,0.3216828674063662,1.3220593919653136,0.9567640078419531,0.28769819692593795,0.6692530231088408
0.035,1.7768231055113755,1.0,2897.7162612020434,0.32548768822184204,1.3217721962912634,0.957691728125726,0.28767957043147774,0.6698426457075786
0.035500000000000004,1.7763796175480377,1.0,2907.2398682933012,0.32927116687685654,1.3214879645321076,0.958584786058747,0.2876609439370176,0.6704256653730942
0.036000000000000004,1.7759361295847,1.0,2916.456599562708,0.3330334200084855,1.3212065685865249,0.9594449123146847,0.2876423174425574,0.6710023606405298
0.0365,1.775492641621362,1.0,2925.381767101189,0.3367745688997319,1.320927860580735,0.960273729101426,0.2876236909480972,0.6715730494358172
0.037,1.7750491536580244,1.0,2934.034595695698,0.3404947397342573,1.3206516596769056,0.9610727568429959,0.28760506445363704,0.6721381159006568
0.0375,1.7746056656946867,1.0,2942.4247040190544,0.344194047066688,1.3203778705846456,0.9618434295591675,0.2875864379591768,0.6726977679835717
0.038,1.774162177731349,1.0,2950.5618125915134,0.34787260545165016,1.3201063980135648,0.9625870953251316,0.28756781146471666,0.6732522128532565
0.0385,1.773718689768011,1.0,2958.4557387859845,0.35153052944377017,1.3198371466732728,0.9633050223698518,0.28754918497025644,0.6738016569129446
0.039,1.7732752018046734,1.0,2966.1163920346085,0.3551679335976742,1.3195700212733787,0.963998404677789,0.2875305584757963,0.6743463058141973
0.0395,1.7728317138413356,1.0,2973.553769236247,0.3587849324679886,1.3193049265234924,0.9646683671393828,0.28751193198133607,0.674886364470112
0.04,1.772388225877998,1.0,2980.7779503661486,0.36238164060933964,1.319041767133223,0.9653159702910974,0.2874933054868759,0.6754220370679537
0.0405,1.77194473791466,1.0,2987.7990942856386,0.3659581725763535,1.3187804478121805,0.9659422146817642,0.28747467899241574,0.6759535270812043
0.041,1.7715012499513223,1.0,2994.627434754537,0.36951464292365654,1.318520873269974,0.9665480448983315,0.2874560524979555,0.6764810372810368
0.0415,1.7710577619879846,1.0,3001.2715128464224,0.3730511625586163,1.3182629635053662,0.9671343539494534,0.28743742600349537,0.6770047387142282
0.042,1.7706142740246467,1.0,3007.7362412211705,0.3765678369347666,1.3180066704544062,0.9677019877505981,0.28741879950903515,0.677524737074307
0.0425,1.770170786061309,1.0,3014.0375877434844,0.38006479569929896,1.317751850786127,0.9682517426081872,0.287400173014575,0.6780413307461444
0.043000000000000003,1.7697272980979712,1.0,3020.1809302257648,0.3835421457716728,1.3174984534118477,0.9687843759540007,0.2873815465201148,0.678554630360602
0.043500000000000004,1.7692838101346335,1.0,3026.171684328425,0.38699999407134733,1.3172464272428877,0.9693006051278774,0.2873629200256546,0.6790647461786454
0.044,1.7688403221712956,1.0,3032.015301977428,0.3904384475177819,1.3169957211905663,0.9698011099004334,0.2873442935311944,0.6795717880958954
0.0445,1.768396834207958,1.0,3037.7172698404206,0.393857613030436,1.3167462841662028,0.9702865348129011,0.28732566703673423,0.6800758656470125
0.045,1.7679533462446202,1.0,3043.2831078599374,0.39725759752876877,1.3164980650811164,0.9707574913490197,0.2873070405422741,0.6805770880099151
0.0455,1.7675098582812825,1.0,3048.7183678452047,0.40063850793223965,1.3162510128466267,0.9712145599525629,0.28728841404781386,0.6810755640098303
0.046,1.7670663703179446,1.0,3054.0286321213925,0.40400045116030786,1.316005076374053,0.9716582919028758,0.28726978755335364,0.6815714021231791
0.0465,1.7666228823546068,1.0,3059.219512236913,0.40734353413243285,1.3157602045747143,0.972089211059681,0.2872511610588935,0.6820647104812965
0.047,1.7661793943912691,1.0,3064.296647728272,0.4106678637680738,1.3155163463599302,0.9725078154874395,0.2872325345644333,0.6825555968739814
0.0475,1.7657359064279312,1.0,3069.2657049432805,0.4139735469866902,1.3152734506410197,0.9729145789686444,0.2872139080699731,0.6830441687528843
0.048,1.7652924184645935,1.0,3074.1308976826313,0.4172606847962047,1.315031478990387,0.9733099525548377,0.28719528157551294,0.6835305077969687
0.0485,1.7648489305012558,1.0,3078.893753010582,0.4205293705343507,1.3147904161460287,0.9736943664028443,0.2871766550810527,0.6840146489241394
0.049,1.764405442537918,1.0,3083.564849922485,0.4237797353658344,1.3145501695297084,0.97406822965338,0.28715802858659256,0.6844967820434685
0.0495,1.7639619545745802,1.0,3088.1469364292866,0.4270118779109824,1.3143107138042376,0.9744319328405415,0.28713940209213235,0.6849769616960162
0.05,1.7635184666112425,1.0,3092.642773594901,0.4302258967901213,1.3140720236324273,0.9747858483857674,0.2871207755976722,0.685455242255842
0.0505,1.7630749786479047,1.0,3097.055135098545,0.4334218906235778,1.3138340736770893,0.9751303316002381,0.28710214910321197,0.6859316779312605
0.051000000000000004,1.7626314906845668,1.0,3101.3868068123165,0.4365999580316784,1.3135968386010344,0.9754657216231548,0.2870835226087518,0.6864063227660613
0.051500000000000004,1.762188002721229,1.0,3105.6405863919626,0.4397601976347498,1.3133602930670745,0.9757923423005379,0.28706489611429165,0.6868792306406799
0.052000000000000005,1.7617445147578914,1.0,3109.819282882681,0.4429027080531187,1.3131244117380207,0.9761105030088038,0.28704626961983143,0.6873504552733369
0.0525,1.7613010267945537,1.0,3113.9257163390175,0.44602758790711156,1.3128891692766846,0.9764204994270441,0.28702764312537127,0.6878200502211295
0.053,1.7608575388312158,1.0,3117.9627174584375,0.44913493581705505,1.3126545403458774,0.9767226142616245,0.28700901663091105,0.6882880688810846
0.0535,1.760414050867878,1.0,3121.933127230109,0.45222485040327587,1.3124204996084103,0.9770171179264279,0.2869903901364509,0.6887545644911712
0.054,1.7599705629045403,1.0,3125.8397965966255,0.4552974302861006,1.312187021727095,0.977304269181817,0.2869717636419907,0.6892195901312701
0.0545,1.7595270749412026,1.0,3129.6855861315735,0.4583527740858558,1.3119540813647426,0.977584315735152,0.2869531371475305,0.6896831987241059
0.055,1.7590835869778647,1.0,3133.473365729578,0.46139098042286814,1.3117216531841647,0.9778574948054783,0.2869345106530703,0.6901454430361331
0.0555,1.758640099014527,1.0,3137.206014312271,0.4644121479174642,1.3114897118481723,0.9781240336548077,0.28691588415861013,0.6906063756783883
0.056,1.7581966110511893,1.0,3140.880860610408,0.4674163286583614,1.3112582791230767,0.9783841485462295,0.28689725766415,0.6910659556037656
0.0565,1.7577531230878514,1.0,3144.5059691944857,0.470403674568606,1.31102728582092,0.9786380507102317,0.28687863116968976,0.6915243223050758
0.057,1.7573096351245137,1.0,3148.0833807540985,0.4733742820507363,1.3107967139100927,0.9788859405909482,0.28686000467522954,0.6919815134652041
0.0575,1.756866147161176,1.0,3151.6143382995547,0.47632824035913623,1.310566552157835,0.9791280102659352,0.2868413781807694,0.6924375531913101
0.058,1.7564226591978382,1.0,3155.1000889570078,0.4792656387481899,1.3103367893313866,0.9793644441073288,0.2868227516863092,0.692892465521322
0.0585,1.7559791712345003,1.0,3158.541883867807,0.4821865664722811,1.3101074141979887,0.9795954191521347,0.286804125191849,0.6933462744242254
0.059000000000000004,1.7555356832711626,1.0,3161.9409780908336,0.48509111278579375,1.3098784155248808,0.9798211054518948,0.28678549869738884,0.6937990038003485
0.059500000000000004,1.755092195307825,1.0,3165.2986305067025,0.48797936694311195,1.3096497820793036,0.9800416664030308,0.2867668722029286,0.6942506774816319
0.06,1.7546487073444872,1.0,3168.616103726224,0.4908514181986195,1.3094215026284972,0.9802572590590763,0.28674824570846846,0.6947013192318969
0.0605,1.7542052193811493,1.0,3171.8946640000972,0.4937073558067004,1.309193565939702,0.9804680344259223,0.28672961921400825,0.6951509527471018
0.061,1.7537617314178116,1.0,3175.1355811326803,0.4965472690217386,1.308965960780158,0.9806741377411254,0.2867109927195481,0.6955996016555926
0.0615,1.7533182434544738,1.0,3178.3401283975627,0.49937124709811803,1.3087386759171058,0.9808757087382527,0.28669236622508787,0.6960472895183429
0.062,1.752874755491136,1.0,3181.509582457001,0.5021793792902226,1.3085117001177853,0.981072881897174,0.2866737397306277,0.6964940398291892
0.0625,1.7524312675277982,1.0,3184.6452232828774,0.5049717548524364,1.308285022149437,0.9812657866811477,0.28665511323616755,0.6969398760150545
0.063,1.7519877795644605,1.0,3187.748334081512,0.5077484630391431,1.3080586307793014,0.9814545477614929,0.28663648674170733,0.6973848214361673
0.0635,1.7515442916011228,1.0,3190.8202012209626,0.510509593104727,1.3078325147746181,0.9816392852305815,0.28661786024724717,0.6978288993862707
0.064,1.7511008036377849,1.0,3193.8621141606914,0.5132552343035717,1.3076066629026282,0.9818201148038447,0.28659923375278695,0.6982721330928217
0.0645,1.7506573156744472,1.0,3196.8753653849158,0.5159854758900613,1.3073810639305712,0.9819971480114319,0.2865806072583268,0.6987145457171879
0.065,1.7502138277111094,1.0,3199.8612503374106,0.5187004071185798,1.307155706625688,0.982170492380127,0.2865619807638666,0.6991561603548286
0.0655,1.7497703397477715,1.0,3202.8195359174138,0.521400086832085,1.3069305926057797,0.9823402501856706,0.2865433542694064,0.6995969748809467
0.066,1.7493268517844338,1.0,3205.7513336438446,0.524084611921673,1.3067057122112062,0.9825065220990764,0.2865247277749462,0.700037009237936
0.0665,1.748883363821096,1.0,3208.658955608322,0.5267541004095245,1.306481045738116,0.9826694061502724,0.28650610128048604,0.7004763029441036
0.067,1.7484398758577584,1.0,3211.542934393705,0.5294086319269679,1.3062565884328905,0.9828289951503671,0.2864874747860259,0.7009148662035942
0.0675,1.7479963878944205,1.0,3214.4038038973104,0.5320482861053313,1.3060323355419114,0.9829853787138205,0.28646884829156566,0.7013527091924838
0.068,1.7475528999310828,1.0,3217.242099309471,0.5346731425759431,1.3058082823115598,0.9831386433909048,0.28645022179710544,0.7017898420588436
0.0685,1.747109411967745,1.0,3220.0583570918193,0.5372832809701316,1.3055844239882173,0.9832888727937908,0.2864315953026453,0.7022262749227981
0.069,1.7466659240044073,1.0,3222.8531149565615,0.5398787809192249,1.3053607558182654,0.9834361477166059,0.2864129688081851,0.702662017876587
0.0695,1.7462224360410694,1.0,3225.6269118462947,0.5424597220545514,1.3051372730480855,0.983580546249793,0.2863943423137249,0.7030970809846242
