Time [s],Phi [rad],STIM [ ],Fsee [N],Gamma [ ],Lcerel [ ],q [ ],Lmtc [m],fisomrel [ ]
0.0,1.8,1.0,17.965151680253644,1.0001664282499955e-05,1.3793399710196808,0.005000026660624811,0.288653,0.5411389872027671
0.0005,1.79999375,1.0,18.274669694446114,0.005619154871650702,1.3793026182272385,0.012940523187793648,0.2886527375,0.5412293488710515
0.001,1.799975,1.0,21.61639944521016,0.011196845164446531,1.3789385045619658,0.03560860018063694,0.28865195,0.5421097250010876
0.0015,1.79994375,1.0,31.067177630224293,0.016743249025607483,1.3780463790982806,0.07060174251974023,0.2886506375,0.5442631863860941
0.002,1.7999,1.0,53.580033417396415,0.022258541946415116,1.3763682844314111,0.11471788224486605,0.2886488,0.5483001099303457
0.0025,1.79984375,1.0,97.11624866324686,0.027742898434067912,1.3739352968361427,0.1645747209668361,0.28864643749999996,0.554121153635414
0.003,1.7997750000000001,1.0,160.955482780095,0.03319649201939058,1.371214444222891,0.2172802717545781,0.28864354999999997,0.5605862130111292
0.0035,1.79969375,1.0,237.6807625703353,0.0386194952564302,1.368584813364521,0.2706127027909892,0.2886401375,0.5667896535619935
0.004,1.7996,1.0,321.4643653711317,0.04401207973323748,1.3661561561211815,0.32291561858812545,0.2886362,0.5724798129290848
0.0045000000000000005,1.7994937500000001,1.0,409.2655196869348,0.049374416077051175,1.3639228665391259,0.37303433167027034,0.2886317375,0.5776790408480408
0.005,1.799375,1.0,499.411430657247,0.054706673945398854,1.3618583864087852,0.42024729485493667,0.28862675,0.5824569776327497
0.0055,1.79924375,1.0,590.7884788430455,0.06000902207348888,1.3599388729076087,0.46417354408910705,0.2886212375,0.5868750247767867
0.006,1.7991000000000001,1.0,682.5163088603209,0.06528162821752997,1.3581464474569531,0.504679820104687,0.2886152,0.5909793436669768
0.006500000000000001,1.79894375,1.0,773.862358830201,0.07052465896265299,1.356467576238102,0.5418008166508335,0.2886086375,0.5948050608766995
0.007,1.798775,1.0,864.2909866974339,0.0757382810110882,1.3548903113956856,0.5756765952773113,0.28860155,0.5983828663184736
0.0075,1.79859375,1.0,953.2560622102463,0.08092265856365334,1.3534065815947562,0.6065096751960771,0.2885939375,0.6017340181298116
0.008,1.7984,1.0,1040.3581756825631,0.08607795557279903,1.352008650450971,0.6345319536118016,0.2885858,0.6048785395653258
0.0085,1.79819375,1.0,1125.3183301015445,0.09120433560325084,1.3506891834209904,0.6599843072578186,0.2885771375,0.6078351295647926
0.009000000000000001,1.797975,1.0,1207.8837196142229,0.09630196070099335,1.3494422599708915,0.6831042338217397,0.28856795,0.6106189634771553
0.0095,1.79774375,1.0,1287.8735501979495,0.10137099209206123,1.348262370666767,0.7041175340562139,0.2885582375,0.6132440088570263
0.01,1.7975,1.0,1365.1613737193222,0.1064115903247792,1.347144458225446,0.7232341967909561,0.288548,0.6157229755209236
0.0105,1.79724375,1.0,1439.6581596659155,0.11142391486103417,1.3460839631526547,0.7406466069802936,0.2885372375,0.6180672527058417
0.011,1.796975,1.0,1511.3096500705353,0.11640812402904545,1.3450767071194611,0.7565291450678611,0.28852595000000003,0.6202872009043037
0.0115,1.79669375,1.0,1580.0944135135724,0.12136437523878495,1.344118800825477,0.7710387026036811,0.2885141375,0.6223923817552159
0.012,1.7964,1.0,1646.0503988433575,0.12629282688350563,1.3432062423491182,0.7843155777829973,0.28850180000000003,0.6243924592238468
0.0125,1.79609375,1.0,1709.1743982820751,0.13119363373702475,1.3423360299280167,0.7964852834166554,0.2884889375,0.6262947787408293
0.013000000000000001,1.7957750000000001,1.0,1769.494115600041,0.13606695038157385,1.3415052131763991,0.8076595114096584,0.28847555,0.6281064712160147
0.0135,1.79544375,1.0,1827.0693291539926,0.14091293139938443,1.3407108417084928,0.8179375266935164,0.2884616375,0.6298345737955688
0.014,1.7951000000000001,1.0,1881.9697169010249,0.1457317301021933,1.3399501766836837,0.8274075912198356,0.2884472,0.6314855783569269
0.0145,1.79474375,1.0,1934.2772198662863,0.15052350014046323,1.3392206221905112,0.836148174651163,0.2884322375,0.633065591456258
0.015,1.794375,1.0,1984.0482015255866,0.15528839197484307,1.3385200950549,0.8442292004583697,0.28841675,0.6345795447832315
0.0155,1.79399375,1.0,2031.3566160251721,0.16002655602099278,1.337846518434923,0.8517128718446547,0.2884007375,0.636032302236611
0.016,1.7936,1.0,2076.288901973933,0.16473814231629516,1.3371978585038888,0.8586545946662276,0.2883842,0.637428584886452
0.0165,1.7931937500000001,1.0,2118.9351293867685,0.16942330032538022,1.3365721986150487,0.8651038047898949,0.2883671375,0.638772816069618
0.017,1.792775,1.0,2159.3920327120736,0.1740821796960002,1.335967689174325,0.8711046597327836,0.28834955,0.6400692341545411
0.0175,1.7923437500000001,1.0,2197.726361234642,0.17871492637040307,1.3353829040329748,0.8766967573753163,0.2883314375,0.6413211341913535
0.018000000000000002,1.7919,1.0,2234.014243164906,0.1833216862908368,1.3348164170422547,0.8819155540185739,0.2883128,0.6425317821396268
0.0185,1.79144375,1.0,2268.3404060073694,0.18790260539954934,1.3342668020534219,0.8867928481075523,0.2882936375,0.643704416597508
0.019,1.790975,1.0,2300.7888010951483,0.19245782857710564,1.3337327184655623,0.8913572245495731,0.28827395,0.6448420683213831
0.0195,1.79049375,1.0,2331.450396617738,0.19698750148810856,1.333212824977666,0.8956344029298724,0.2882537375,0.6459477463979697
0.02,1.79,1.0,2360.403243878126,0.20149176770695576,1.3327059684943838,0.8996476048979654,0.288233,0.647024038674152
0.0205,1.78949375,1.0,2387.711595756685,0.20597076835365602,1.3322111817499973,0.9034178316909441,0.2882117375,0.6480731209192292
0.021,1.788975,1.0,2413.4441537135253,0.21042464454821824,1.3317274974787872,0.9069640694823559,0.28818995000000003,0.6490971537514709
0.021500000000000002,1.78844375,1.0,2437.673698250448,0.21485353741065122,1.331253948415035,0.9103035103612759,0.2881676375,0.6500982833528359
0.022,1.7879,1.0,2460.47166448665,0.21925758703879633,1.330789615885388,0.9134517559749783,0.2881448,0.6510785396122367
0.0225,1.78734375,1.0,2481.9094552245206,0.2236369338180669,1.3303336131133714,0.9164229847141541,0.28812143749999997,0.6520398726003364
0.023,1.786775,1.0,2502.0570393923326,0.22799171790043055,1.3298850950967658,0.9192301031532162,0.28809755,0.6529841327582838
0.0235,1.78619375,1.0,2520.9672745049807,0.23232207531535698,1.3294434035849252,0.9218849031874531,0.28807313749999996,0.6539127673290182
0.024,1.7856,1.0,2538.695136102697,0.23662814209231597,1.329007880327203,0.9243981434658659,0.2880482,0.6548272151868652
0.0245,1.78499375,1.0,2555.297540537203,0.2409100542607772,1.328577867072953,0.9267796541573168,0.2880227375,0.6557289071102963
0.025,1.784375,1.0,2570.833177365714,0.24516794785021037,1.3281527055715283,0.9290384298248971,0.28799675,0.6566192660270596
0.025500000000000002,1.78374375,1.0,2585.352595606501,0.24940195652623545,1.3277318286867845,0.9311827260392926,0.2879702375,0.6574995167908677
0.026000000000000002,1.7831000000000001,1.0,2598.914376536673,0.25361221719355814,1.3273146071714848,0.9332201084610783,0.2879432,0.6583710074367877
0.0265,1.78244375,1.0,2611.569920522539,0.25779886409564146,1.3269004906631223,0.9351575390483369,0.2879156375,0.6592349145542407
0.027,1.781775,1.0,2623.35802016281,0.26196202771068855,1.326489055948807,0.9370014399451331,0.28788755,0.6600921439593648
0.0275,1.7810937500000001,1.0,2634.318355961093,0.26610183851690244,1.3260798798156488,0.938757725785207,0.2878589375,0.6609435968731252
0.028,1.7804,1.0,2644.4914201777196,0.2702184269924861,1.3256725390507575,0.940431850508675,0.2878298,0.6617901699879873
0.0285,1.77969375,1.0,2653.918444652241,0.27431192361564266,1.325266610441243,0.9420288492932726,0.2878001375,0.6626327555231655
0.029,1.778975,1.0,2662.6413325974286,0.2783824588645751,1.324861670774215,0.9435533761630417,0.28776995,0.6634722412684491
0.029500000000000002,1.7782437500000001,1.0,2670.6939406836273,0.28243015936472937,1.3244573763566798,0.9450097472574935,0.2877392375,0.664309346070599
0.03,1.7775,1.0,2678.1210538400433,0.2864551581795152,1.324053287790306,0.9464019503637326,0.287708,0.6651449830111389
0.0305,1.77674375,1.0,2684.955018700694,0.29045758253542625,1.3236490843010216,0.9477336972761672,0.2876762375,0.665979815787979
0.031,1.775975,1.0,2691.223060962778,0.2944375570292496,1.3232444955602727,0.9490084393955903,0.28764395,0.6668144007971456
0.0315,1.7751937500000001,1.0,2696.9527344540697,0.29839520625777255,1.3228392512395049,0.9502293840671575,0.2876111375,0.6676492916425889
0.032,1.7744,1.0,2702.1718904171876,0.30233065481778215,1.3224330810101643,0.951399514854602,0.2875778,0.6684850391272092
0.0325,1.77359375,1.0,2706.908648414527,0.3062440273060657,1.3220257145436969,0.9525216098952787,0.2875439375,0.6693221912392266
0.033,1.772775,1.0,2711.191368852711,0.3101354483194103,1.3216168815115485,0.9535982585382982,0.28750955,0.6701612931338856
0.0335,1.7719437500000002,1.0,2715.0453791854975,0.31400503976137706,1.3212063411862105,0.9546318790946107,0.2874746375,0.6710028264724737
0.034,1.7711000000000001,1.0,2718.4935495905406,0.31785292252368547,1.3207938768831629,0.9556247321531336,0.2874392,0.6718472211551982
0.0345,1.7702437500000001,1.0,2721.5695274791024,0.32167922842694896,1.3203791752356484,0.956578922651773,0.2874032375,0.672695102281013
0.035,1.7693750000000001,1.0,2724.2901583803655,0.32548407539368474,1.3199620772014455,0.9574964327372817,0.28736675,0.6735467766356384
0.035500000000000004,1.76849375,1.0,2726.6723952963243,0.32926758134640993,1.3195424237383329,0.9583791180924005,0.2873297375,0.6744025492073716
0.036000000000000004,1.7676,1.0,2728.7332875263064,0.33302986420764175,1.3191200558040885,0.9592287174551852,0.2872922,0.6752627231619752
0.0365,1.76669375,1.0,2730.4899700526794,0.33677104189989726,1.318694814356491,0.9600468613179695,0.2872541375,0.6761275998159495
0.037,1.765775,1.0,2731.9596534864495,0.3404912323456938,1.3182665403533185,0.9608350798850822,0.28721555,0.6769974786081936
0.0375,1.76484375,1.0,2733.159614574857,0.3441905534675484,1.3178350747523497,0.9615948103600361,0.2871764375,0.677872657070052
0.038,1.7639,1.0,2734.107187268742,0.34786912318797825,1.3174002585113627,0.9623274036254935,0.28713679999999997,0.6787534307937505
0.0385,1.76294375,1.0,2734.8197543515394,0.3515270594295006,1.316961932588136,0.963034130372712,0.28709663750000003,0.6796400933992152
0.039,1.761975,1.0,2735.3067756992677,0.3551644742053879,1.3165200102526236,0.9637161922793547,0.28705595,0.6805327905283134
0.0395,1.7609937500000001,1.0,2735.5865324128226,0.3587814878123838,1.316074324974042,0.9643747156089848,0.2870147375,0.6814318274623841
0.04,1.76,1.0,2735.6767671131583,0.3623782181737688,1.3156247153718468,0.9650107620355278,0.286973,0.6823374969593134
0.0405,1.7589937500000001,1.0,2735.5868886440776,0.3659547763331788,1.3151710959331868,0.9656253384685317,0.2869307375,0.6832499371437308
0.041,1.757975,1.0,2735.326323654715,0.3695112733342496,1.3147133811452112,0.9662193953450221,0.28688795,0.684169284847414
0.0415,1.75694375,1.0,2734.9045135799815,0.37304782022061717,1.3142514854950686,0.9667938303813931,0.2868446375,0.6850956755871896
0.042,1.7559,1.0,2734.3309117835256,0.3765645280359172,1.3137853234699084,0.9673494920386091,0.28680079999999997,0.6860292435423627
0.0425,1.75484375,1.0,2733.614980862526,0.38006150782378567,1.3133148095568792,0.9678871827253509,0.2867564375,0.6869701215316855
0.043000000000000003,1.753775,1.0,2732.7661901142233,0.3835388706278584,1.31283985824313,0.9684076617613947,0.28671155,0.6879184409898544
0.043500000000000004,1.75269375,1.0,2731.794013165757,0.3869967274917713,1.3123603840158098,0.9689116481214176,0.28666613750000003,0.6888743319435454
0.044,1.7516,1.0,2730.7079257644928,0.3904351894591601,1.3118763013620678,0.9693998229775405,0.2866202,0.6898379229869792
0.0445,1.75049375,1.0,2729.514745424901,0.3938543591764443,1.3113875489319904,0.9698728326954634,0.2865737375,0.6908092932720896
0.045,1.7493750000000001,1.0,2728.2249036547937,0.39725435523938957,1.31089403252452,0.9703312901755035,0.28652675,0.6917885859076618
0.0455,1.74824375,1.0,2726.844578075878,0.400635284169807,1.3103956965850332,0.9707757782478472,0.2864792375,0.6927758658848597
0.046,1.7471,1.0,2725.379352074739,0.40399725053372304,1.309892490951267,0.9712068504735402,0.2864312,0.6937711863903664
0.0465,1.7459437500000001,1.0,2723.834807287271,0.4073403588971644,1.3093843654609583,0.9716250327754059,0.28638263750000004,0.6947745995163273
0.047,1.744775,1.0,2722.216522763889,0.4106647138261576,1.3088712699518443,0.9720308250769634,0.28633355,0.6957861562446904
0.0475,1.74359375,1.0,2720.5300741913493,0.4139704198867292,1.308353154261662,0.9724247028291932,0.28628393750000003,0.6968059064313894
0.048,1.7424,1.0,2718.7810331690152,0.4172575816449059,1.307829968228148,0.9728071184338122,0.2862338,0.6978338987903616
0.0485,1.74119375,1.0,2716.9749665424524,0.4205263036667141,1.30730166168904,0.9731785025709678,0.2861831375,0.6988701808774069
0.049,1.739975,1.0,2715.1174357913687,0.4237766905181805,1.3067681844820744,0.9735392654385983,0.28613195,0.6999147990738901
0.0495,1.73874375,1.0,2713.2123091082867,0.4270088387586519,1.3062295018284729,0.9738897980050508,0.2860802375,0.7009677685264202
0.05,1.7375,1.0,2711.259614147367,0.4302228296400596,1.305685613939241,0.9742304735883542,0.286028,0.7020290351740731
0.0505,1.73624375,1.0,2709.272715546319,0.4334188123844843,1.305136399357437,0.9745616480075124,0.2859752375,0.7030987812091158
0.051000000000000004,1.734975,1.0,2707.253772013217,0.43659688308214867,1.3045818387311627,0.9748836613700724,0.28592195,0.7041769882498214
0.051500000000000004,1.73369375,1.0,2705.204939715672,0.4397571378232755,1.304021912708521,0.9751968383702467,0.2858681375,0.7052636370951926
0.052000000000000005,1.7324,1.0,2703.1283721568084,0.44289967269808744,1.303456601937614,0.9755014891199186,0.2858138,0.7063587077183564
0.0525,1.73109375,1.0,2701.0262200595735,0.4460245837968072,1.3028858870665436,0.9757979099278403,0.28575893750000003,0.7074621792599266
0.053,1.729775,1.0,2698.900631258798,0.4491319672096576,1.3023097487434128,0.9760863840306764,0.28570355000000003,0.7085740300213477
0.0535,1.72844375,1.0,2696.753750602244,0.4522219190268612,1.3017281676163237,0.976367182279254,0.2856476375,0.7096942374582133
0.054,1.7271,1.0,2694.587719859532,0.45529453533864084,1.3011411243333786,0.9766405637831269,0.2855912,0.7108227781735608
0.0545,1.7257437500000001,1.0,2692.404677639338,0.4583499122352192,1.3005485995426798,0.9769067765163135,0.2855342375,0.7119596279111413
0.055,1.724375,1.0,2690.2067593151555,0.461388145806819,1.2999505738923296,0.9771660578868566,0.28547675,0.7131047615486675
0.0555,1.72299375,1.0,2687.9960969592294,0.4644093321436629,1.2993470280304305,0.9774186352726469,0.2854187375,0.7142581530910354
0.056,1.7216,1.0,2685.774819284663,0.4674135673359737,1.2987379426050847,0.9776647265257744,0.2853602,0.7154197756635241
0.0565,1.72019375,1.0,2683.545051596155,0.4704009474739741,1.2981232982643947,0.9779045404474964,0.28530113749999997,0.7165896015049706
0.057,1.718775,1.0,2681.3089157487766,0.47337156864788676,1.2975030756564627,0.9781382772357631,0.28524155,0.7177676019609216
0.0575,1.71734375,1.0,2679.068530114989,0.47632552694793445,1.296877255429391,0.9783661289070927,0.2851814375,0.7189537474767607
0.058,1.7159,1.0,2676.8260095602222,0.4792629184643398,1.2962458182312822,0.9785882796944615,0.2851208,0.7201480075908104
0.0585,1.71444375,1.0,2674.5837665646673,0.4821838390681382,1.2956087419450482,0.9788049062496997,0.2850596375,0.7213503561405163
0.059000000000000004,1.7129750000000001,1.0,2672.3444298313398,0.4850883782903839,1.2949660024302376,0.9790161775312793,0.28499795,0.7225607698033325
0.059500000000000004,1.71149375,1.0,2670.1067269520368,0.4879766255293846,1.2943176113577701,0.9792222577725596,0.2849357375,0.7237791570301549
0.06,1.71,1.0,2667.870608964595,0.49084867179409897,1.2936635691697613,0.9794233042970957,0.284873,0.7250054468828979
0.0605,1.7084937500000001,1.0,2665.6363954370286,0.4937046079247237,1.2930038729193813,0.9796194681146958,0.2848097375,0.7262395741525607
0.061,1.7069750000000001,1.0,2663.407689248847,0.49654452452669984,1.292338489442772,0.9798108927784529,0.28474595,0.7274815293058619
0.0615,1.7054437500000001,1.0,2661.184207827342,0.49936851207327354,1.2916674212883612,0.9799977182158602,0.2846816375,0.7287312352008852
0.062,1.7039,1.0,2658.966376068234,0.5021766591630975,1.2909906644935831,0.9801800785526386,0.2846168,0.7299886262040273
0.0625,1.70234375,1.0,2656.754618161134,0.5049690543948242,1.2903082150958725,0.9803581028587282,0.2845514375,0.7312536359944153
0.063,1.7007750000000001,1.0,2654.5493575939927,0.5077457863671063,1.2896200691326636,0.9805319153750861,0.28448555,0.732526197562472
0.0635,1.69919375,1.0,2652.3448394778093,0.510506942860047,1.2889262796050025,0.9807016385801032,0.28441913750000003,0.7338061382449359
0.064,1.697603777450786,1.0,2650.3347596336457,0.513252612192685,1.2882267657046056,0.9808673837061965,0.284352358652933,0.7350935316692041
0.0645,1.6960134952833448,1.0,2648.8899477338596,0.5159828805272115,1.2875219030635245,0.9810292807055376,0.2842855668019005,0.7363876124321722
0.065,1.6944232131159038,1.0,2647.9815781343545,0.5186978338723525,1.2868120932634775,0.9811874562000679,0.28421877495086795,0.7376875738450966
0.0655,1.6928329309484629,1.0,2647.565862745383,0.5213975582368334,1.2860977378861824,0.9813420323663108,0.28415198309983547,0.738992615996203
0.066,1.691242648781022,1.0,2647.6020425350384,0.524082139078566,1.2853792120302725,0.9814931257947939,0.28408519124880294,0.740301994072005
0.0665,1.6896523666135808,1.0,2648.049283242693,0.5267516621490057,1.2846568926128732,0.9816408491689191,0.2840183993977704,0.7416149664795382
0.067,1.6880620844461398,1.0,2648.8756785468127,0.5294062115232943,1.2839310749910136,0.9817853072650519,0.28395160754673787,0.7429309459644371
0.0675,1.6864718022786989,1.0,2650.052254653599,0.5320458706959397,1.2832020280801941,0.9819265999941145,0.28388481569570534,0.7442493982502071
0.068,1.684881520111258,1.0,2651.5500852556956,0.5346707231614499,1.282470020795915,0.982064823903611,0.2838180238446728,0.7455697938506229
0.0685,1.6832912379438167,1.0,2653.345434354936,0.5372808506246072,1.2817352744711286,0.9822000699481167,0.2837512319936403,0.746891693618233
0.069,1.6817009557763758,1.0,2655.4094927319743,0.5398763369917023,1.2809980573775162,0.9823324284193898,0.2836844401426078,0.748214578284637
0.0695,1.6801106736089348,1.0,2657.710748872317,0.5424572677478557,1.2802586626647467,0.9824619879182066,0.28361764829157526,0.7495378890349735
0.07,1.678520391441494,1.0,2660.2337726306496,0.545023722829493,1.2795172352286113,0.9825888269392407,0.28355085644054273,0.7508613367670701
0.07050000000000001,1.676930109274053,1.0,2662.9631328396094,0.5475757821730391,1.2787739199649004,0.9827130214265405,0.28348406458951025,0.7521846350363626
0.07100000000000001,1.6753398271066118,1.0,2665.883391012253,0.5501135257149201,1.278028861769405,0.9828346448772709,0.2834172727384777,0.7535075000740088
0.07150000000000001,1.6737495449391708,1.0,2668.9790955101407,0.5526370333915613,1.2772822055379156,0.9829537684406057,0.2833504808874452,0.7548296508036644
0.07200000000000001,1.6721592627717299,1.0,2672.2347761769392,0.5551463851393881,1.2765340961662233,0.9830704610120282,0.28328368903641266,0.7561508088569195
0.0725,1.670568980604289,1.0,2675.6349394371855,0.5576416608948259,1.2757846785501186,0.9831847893232797,0.2832168971853801,0.7574706985873972
0.073,1.668978698436848,1.0,2679.1640638607355,0.5601229405943006,1.2750340975853924,0.9832968180281834,0.2831501053343476,0.7587890470835104
0.0735,1.6673884162694068,1.0,2682.815852943768,0.5625902983875452,1.2742824132984816,0.9834066056740847,0.28308331348331506,0.7601057326376306
0.074,1.6657981341019659,1.0,2686.5700116095045,0.56504382027112,1.2735298138835855,0.9835142153400392,0.2830165216322826,0.7614204110867699
