Time [s],Phi [rad],STIM [ ],Fsee [N],Gamma [ ],Lcerel [ ],q [ ],Lmtc [m],fisomrel [ ]
0.0,1.8,1.0,17.965700438555366,1.0160490027511938e-05,1.3793399095374352,0.005000027510660814,0.288653,0.5411391359442936
0.0005,1.79999375,1.0,18.27522120138363,0.005619312806508748,1.3793025569625383,0.012940963018073612,0.2886527375,0.5412294970716849
0.001,1.799975,1.0,21.61703940631339,0.01119700221341505,1.3789384391968456,0.03560942419895922,0.28865195,0.5421098829689369
0.0015,1.79994375,1.0,31.06806532688676,0.016743405193655338,1.378046303467608,0.07060286929797105,0.2886506375,0.5442633687323891
0.002,1.7999,1.0,53.58143173109831,0.02225869723848375,1.3763681937146226,0.11471921643773263,0.2886488,0.548300327678547
0.0025,1.79984375,1.0,97.11827797647376,0.027743052855070827,1.3739351990475386,0.16457617317618964,0.28864643749999996,0.554121386840809
0.003,1.7997750000000001,1.0,160.95795398811768,0.03319664557421379,1.3712143517228066,0.21728177103814023,0.28864354999999997,0.5605864319994147
0.0035,1.79969375,1.0,237.6834570693719,0.03861964794993233,1.3685847303666094,0.27061419498827793,0.2886401375,0.5667898486625441
0.004,1.7996,1.0,321.46716640806073,0.04401223157024982,1.366156081932296,0.3229170641964368,0.2886362,0.5724799861734367
0.0045000000000000005,1.7994937500000001,1.0,409.26837183676395,0.04937456706237791,1.3639227995882321,0.37303570448448414,0.2886317375,0.5776791962368094
0.005,1.799375,1.0,499.41430082545804,0.054706824083814706,1.3618583254179102,0.42024857966765505,0.28862675,0.582457118385669
0.0055,1.79924375,1.0,590.7913465486481,0.06000917136975079,1.3599388168795716,0.4641747339156265,0.2886212375,0.5868751533907341
0.006,1.7991000000000001,1.0,682.5191528963131,0.06528177667635947,1.3581463957599347,0.5046809138196012,0.2886152,0.5909794617479855
0.006500000000000001,1.79894375,1.0,773.8630051449363,0.07052480655200977,1.3564675652049532,0.541801840160709,0.2886086375,0.594805085959351
0.007,1.798775,1.0,864.2920429426249,0.07573842779847224,1.3548902943339975,0.5756775241553748,0.28860155,0.5983829049347213
0.0075,1.79859375,1.0,953.2585128153297,0.08092280456976549,1.3534065439021956,0.6065105069905184,0.2885939375,0.6017341030838823
0.008,1.7984,1.0,1040.359555530869,0.08607810074818355,1.3520086301354888,0.6345327183282524,0.2885858,0.6048785851726297
0.0085,1.79819375,1.0,1125.3198600381118,0.09120447994417977,1.3506891617627605,0.6599850003440048,0.2885771375,0.6078351780042486
0.009000000000000001,1.797975,1.0,1207.8839235900637,0.0963021042165315,1.3494422571837854,0.6831048734191225,0.28856795,0.6106189696884604
0.0095,1.79774375,1.0,1287.8717177884582,0.101371134895565,1.348262394914629,0.7041181305729662,0.2885582375,0.6132439550010427
0.01,1.7975,1.0,1365.1536351951852,0.10641173214089643,1.3471445576867476,0.7232347788411,0.288548,0.6157227553203839
0.0105,1.79724375,1.0,1439.6526332118203,0.11142405589116296,1.3460840323205674,0.740647124965298,0.2885372375,0.6180671000406137
0.011,1.796975,1.0,1511.3107582421592,0.11640826447997661,1.345076693582612,0.7565295805896775,0.28852595000000003,0.620287230695447
0.0115,1.79669375,1.0,1580.1040715889578,0.12136451536319663,1.3441186854440816,0.7710390550682441,0.2885141375,0.6223926349752462
0.012,1.7964,1.0,1646.038326241032,0.12629296527871833,1.3432063836573638,0.7843160087727226,0.28850180000000003,0.6243921499261302
0.0125,1.79609375,1.0,1709.15904805363,0.13119377131731316,1.3423362062514388,0.7964856960507768,0.2884889375,0.6262943937798864
0.013000000000000001,1.7957750000000001,1.0,1769.486808495473,0.13606708761623654,1.3415052956677826,0.8076598565522853,0.28847555,0.6281062915524884
0.0135,1.79544375,1.0,1827.0665952922282,0.14091306800016812,1.340710872081415,0.8179378257439955,0.2884616375,0.6298345077982198
0.014,1.7951000000000001,1.0,1881.9671779450011,0.1457318659368384,1.339950204476745,0.8274078664587813,0.2884472,0.6314855181001888
0.0145,1.79474375,1.0,1934.2683791970655,0.15052363460546703,1.3392207176488027,0.8361484523629851,0.2884322375,0.6330653849420641
0.015,1.794375,1.0,1984.043553399533,0.15528852592477568,1.3385201446101216,0.8442294432465521,0.28841675,0.6345794377970102
0.0155,1.79399375,1.0,2031.3577863331898,0.1600266896407896,1.3378465061040337,0.8517130776726509,0.2884007375,0.6360323288051568
0.016,1.7936,1.0,2076.2923207663694,0.16473827549953393,1.337197822873871,0.8586547786631987,0.2883842,0.6374286615086784
0.0165,1.7931937500000001,1.0,2118.9350652859157,0.16942343250737316,1.3365721992763393,0.8651039862255927,0.2883671375,0.6387728146501536
0.017,1.792775,1.0,2159.3810925057046,0.17408231005695285,1.3359678009758418,0.8711048599581546,0.28834955,0.6400689946028609
0.0175,1.7923437500000001,1.0,2197.717808926579,0.1787150561730407,1.3353829906661692,0.8766969381906023,0.2883314375,0.6413209488897202
0.018000000000000002,1.7919,1.0,2234.0135570905272,0.18332181605457387,1.3348164239353715,0.8819157026491857,0.2883128,0.6425317674206938
0.0185,1.79144375,1.0,2268.3449875458527,0.1879027349004894,1.3342667563714983,0.8867929738346122,0.2882936375,0.6437045139823898
0.019,1.790975,1.0,2300.796366816728,0.19245795790972448,1.333732643562599,0.8913573350971212,0.28827395,0.6448422277446406
0.0195,1.79049375,1.0,2331.449476890102,0.19698762907192885,1.3332128340231868,0.8956345256792041,0.2882537375,0.645947727175498
0.02,1.79,1.0,2360.3939064635642,0.2014918934499385,1.3327060597629752,0.8996477386868174,0.288233,0.6470238450159298
0.0205,1.78949375,1.0,2387.704415496026,0.20597089364020338,1.3322112515309639,0.9034179533406227,0.2882117375,0.6480729730747151
0.021,1.788975,1.0,2413.443695564608,0.21042476996421744,1.3317275019074784,0.9069641705982737,0.28818995000000003,0.6490971443820917
0.021500000000000002,1.78844375,1.0,2437.6783708101825,0.21485366274347462,1.3312539034728434,0.9103035955635439,0.2881676375,0.650098378297207
0.022,1.7879,1.0,2460.4786710046683,0.21925771229946886,1.3307895488073846,0.9134518319768212,0.2881448,0.6510786811218332
0.0225,1.78734375,1.0,2481.913327607861,0.2236370580361759,1.3303335762009458,0.9164230619963135,0.28812143749999997,0.6520399503644576
0.023,1.786775,1.0,2502.050119467334,0.2279918392236046,1.329885160792998,0.9192301946452704,0.28809755,0.652983994542659
0.0235,1.78619375,1.0,2520.96045891238,0.23232219570230125,1.3294434680475062,0.9218849896991281,0.28807313749999996,0.6539126318904074
0.024,1.7856,1.0,2538.694373682867,0.23662826265378722,1.3290078875130225,0.9243982156901371,0.2880482,0.6548272001091147
0.0245,1.78499375,1.0,2555.3037501102986,0.24091017525958391,1.3285778087380982,0.9267797116129092,0.2880227375,0.6557290293522633
0.025,1.784375,1.0,2570.8421781173197,0.2451680687012127,1.3281526212712853,0.9290384799127176,0.28799675,0.6566194424514809
0.025500000000000002,1.78374375,1.0,2585.3648044795736,0.24940207816019494,1.3277317146611354,0.9311827690409353,0.2879702375,0.6574997551188525
0.026000000000000002,1.7831000000000001,1.0,2598.9214871813647,0.253612337193158,1.3273145409345732,0.9332201563134397,0.2879432,0.6583711457040484
0.0265,1.78244375,1.0,2611.5640958764275,0.2577989804493496,1.3269005447891726,0.9351576021937783,0.2879156375,0.6592348017109124
0.027,1.781775,1.0,2623.347665785379,0.2619621426583563,1.3264891519514117,0.9370015064572287,0.28788755,0.6600919440626531
0.0275,1.7810937500000001,1.0,2634.309102777783,0.2661019534972838,1.3260799654296507,0.9387577882274144,0.2878589375,0.660943418830988
0.028,1.7804,1.0,2644.4860943736085,0.27021854264323786,1.32567258823225,0.9404319055186791,0.2878298,0.6617900678383526
0.0285,1.77969375,1.0,2653.91704238274,0.274312039773324,1.3252666233675698,0.9420288972075933,0.2878001375,0.6626327287087356
0.029,1.778975,1.0,2662.6409990383327,0.27838257456464804,1.324861673843971,0.9435534206780036,0.28776995,0.6634722349084614
0.029500000000000002,1.7782437500000001,1.0,2670.6976066244038,0.28243027669431564,1.3244573426698136,0.9450097856326996,0.2877392375,0.6643094157769234
0.03,1.7775,1.0,2678.119175060256,0.2864552730977901,1.3240533050307415,0.9464019931987384,0.287708,0.6651449473809095
0.0305,1.77674375,1.0,2684.9487550083627,0.29045769449719516,1.323649141705998,0.947733742808794,0.2876762375,0.6659796972990144
0.031,1.775975,1.0,2691.217850308131,0.29443766744199273,1.3232445432588065,0.9490084816303361,0.28764395,0.6668143024662169
0.0315,1.7751937500000001,1.0,2696.9515373566164,0.29839531610390413,1.3228392621861302,0.9502294201076049,0.2876111375,0.667649269104321
0.032,1.7744,1.0,2702.175177083455,0.3023307646546507,1.3224330509849327,0.951399544642595,0.2875778,0.6684851008690937
0.0325,1.77359375,1.0,2706.914388398182,0.3062441372659537,1.3220256621521764,0.952521635974114,0.2875439375,0.6693222988375394
0.033,1.772775,1.0,2711.195022995246,0.3101355581095345,1.3216168481848245,0.9535982858376695,0.28750955,0.6701613614912614
0.0335,1.7719452678811451,1.0,2715.1183571490537,0.31400515135711454,1.3212063615798402,0.9546319120853545,0.2874747012510081,0.6710027846959215
0.034,1.7711139279971042,1.0,2719.1712149987607,0.3178530338595623,1.320793995151554,0.9556247750010469,0.28743978497587835,0.6718469791922985
0.0345,1.7702825881130633,1.0,2723.381537093309,0.3216793382524656,1.3203802233110595,0.9565790660619329,0.28740486870074866,0.672692960813634
0.035,1.7694512482290223,1.0,2727.733749306326,0.3254841835952619,1.3199651909246815,0.9574967950159563,0.2873699524256189,0.6735404228205745
0.035500000000000004,1.7686199083449814,1.0,2732.2145791068583,0.32926768791726396,1.3195490215902201,0.9583798404414218,0.2873350361504892,0.674389103318664
0.036000000000000004,1.7677885684609405,1.0,2736.810718577799,0.33302996924778466,1.319131838905476,0.9592299621658389,0.2873001198753595,0.6752387416990093
0.0365,1.7669572285768995,1.0,2741.508821469897,0.33677114561613664,1.3187137664682498,0.9600488101288117,0.2872652036002298,0.6760890786467537
0.037,1.7661258886928586,1.0,2746.295500594337,0.34049133505163287,1.318294927876342,0.9608379324883218,0.28723028732510003,0.6769398561485784
0.0375,1.7652945488088176,1.0,2751.1573255537633,0.34419065558358597,1.3178754467275529,0.9615987830426647,0.28719537104997034,0.6777908174992306
0.038,1.7644632089247765,1.0,2756.0808208116655,0.3478692252413088,1.3174554466196833,0.9623327280327084,0.2871604547748406,0.678641707307071
0.0385,1.7636318690407355,1.0,2761.0525238310515,0.35152716198690087,1.317035050610727,0.9630410523179114,0.2871255384997109,0.6794922725900951
0.039,1.7628005291566946,1.0,2766.068668760308,0.3551645752065234,1.31661429377265,0.9637249553373056,0.28709062222458115,0.6803424393458104
0.0395,1.7619691892726537,1.0,2771.112216944981,0.3587815916379941,1.3161933307939846,0.9643855811717243,0.28705570594945146,0.6811918927340748
0.04,1.7611378493886127,1.0,2776.1786163296283,0.3623783228182466,1.315772203264371,0.9650239950682417,0.28702078967432176,0.6820405473391733
0.0405,1.7603065095045718,1.0,2781.263298222853,0.3659548802842146,1.3153509527734502,0.9656412018694787,0.286985873399192,0.6828883181915728
0.041,1.7594751696205309,1.0,2786.3616771652064,0.36951137557283165,1.3149296209108619,0.9662381500767425,0.28695095712406227,0.6837351207683062
0.0415,1.75864382973649,1.0,2791.4691508345536,0.3730479202210315,1.314508249266247,0.9668157355991389,0.2869160408489326,0.6845808709932406
0.042,1.757812489852449,1.0,2796.581099990244,0.3765646257657478,1.314086879429246,0.9673748052159271,0.2868811245738029,0.6854254852372396
0.0425,1.756981149968408,1.0,2801.6928884558392,0.3800616037439142,1.313665552989499,0.9679161597767826,0.28684620829867313,0.6862688803182138
0.043000000000000003,1.756149810084367,1.0,2806.799863139718,0.3835389656924643,1.3132443115366468,0.9684405571622736,0.2868112920235434,0.6871109735010592
0.043500000000000004,1.755318470200326,1.0,2811.897354094538,0.38699682314833184,1.3128231966603296,0.9689487150247706,0.2867763757484137,0.6879516824974896
0.044,1.754487130316285,1.0,2816.9863233396145,0.39043527032339814,1.3124021994089736,0.9694413067274765,0.286741459473284,0.6887910261621042
0.0445,1.753655790432244,1.0,2822.0581448953335,0.3938544391251657,1.3119813965743001,0.9699189830026336,0.28670654319815425,0.689628852651624
0.045,1.7528244505482031,1.0,2827.1107319355824,0.39725443782364434,1.3115608062705542,0.9703823530752185,0.2866716269230245,0.6904651275384
0.0455,1.7519931106641622,1.0,2832.1432017100606,0.40063537049751036,1.3111404358053613,0.9708319937946622,0.2866367106478948,0.6912998380320466
0.046,1.7511617707801213,1.0,2837.154668870995,0.40399734122544023,1.310720292486348,0.9712684530147516,0.2866017943727651,0.6921329714196378
0.0465,1.7503304308960803,1.0,2842.1442455097836,0.4073404540861105,1.3103003836211398,0.9716922513298235,0.28656687809763537,0.6929645150656043
0.047,1.7494990910120394,1.0,2847.1110411943887,0.41066481315819753,1.3098807165173627,0.9721038836910533,0.2865319618225056,0.693794456411626
0.0475,1.7486677511279984,1.0,2852.0541630076514,0.41397052252037775,1.3094612984826428,0.9725038209121799,0.28649704554737593,0.6946227829765199
0.048,1.7478364112439575,1.0,2856.972715587217,0.4172576862513277,1.309042136824606,0.9728925110731971,0.28646212927224624,0.6954494823561275
0.0485,1.7470050713599166,1.0,2861.8658011662824,0.4205264084297237,1.3086232388508783,0.9732703808298204,0.2864272129971165,0.6962745422231944
0.049,1.7461737314758756,1.0,2866.7325196161974,0.4237767931342423,1.3082046118690853,0.9736378366358661,0.28639229672198674,0.6970979503272527
0.0495,1.7453423915918345,1.0,2871.5719684893415,0.4270089444435599,1.3077862631868535,0.9739952658850844,0.28635738044685705,0.6979196944944928
0.05,1.7445110517077935,1.0,2876.3832430636885,0.430222966436353,1.3073682001118085,0.9743430379784399,0.28632246417172735,0.6987397626276378
0.0505,1.7436797118237526,1.0,2881.1656417219983,0.4334189593191819,1.3069504281349615,0.9746815047635426,0.2862875478965976,0.699558146262002
0.051000000000000004,1.7428483719397116,1.0,2885.9204411496025,0.4365969987538988,1.306532935246109,0.9750109982016684,0.28625263162146786,0.700374871203459
0.051500000000000004,1.7420170320556707,1.0,2890.6456130446772,0.4397572298532888,1.3061157386710334,0.9753318448231841,0.28621771534633816,0.7011899060519375
0.052000000000000005,1.7411856921716298,1.0,2895.3414187662606,0.44289974785864605,1.3056988353768613,0.9756443497839117,0.28618279907120847,0.702003259085557
0.0525,1.7403543522875888,1.0,2900.0081213645535,0.4460246480112645,1.3052822223307197,0.9759488047487418,0.2861478827960787,0.7028149385485238
0.053,1.739523012403548,1.0,2904.645985561672,0.44913202555243825,1.3048658964997348,0.9762454886048106,0.286112966520949,0.7036249526511893
0.0535,1.738691672519507,1.0,2909.2552777317615,0.4522219757234614,1.3044498548510342,0.9765346681310575,0.2860780502458193,0.7044333095701028
0.054,1.737860332635466,1.0,2913.8362658819146,0.455294593765628,1.304034094351744,0.9768165986271802,0.2860431339706896,0.70524001744807
0.0545,1.737028992751425,1.0,2918.3892196331362,0.458349974920232,1.3036186119689914,0.9770915245047745,0.28600821769555984,0.7060450843942061
0.055,1.736197652867384,1.0,2922.914410201808,0.46138821442856753,1.303203404669903,0.9773596798432327,0.2859733014204301,0.7068485184839892
0.0555,1.735366312983343,1.0,2927.4121103807834,0.46440940753192866,1.3027884694216056,0.9776212889127768,0.2859383851453004,0.7076503277593157
0.056,1.734534973099302,1.0,2931.882594521062,0.4674136494716094,1.3023738031912262,0.977876566666832,0.2859034688701707,0.708450520228551
0.0565,1.733703633215261,1.0,2936.3261385136298,0.4704010354889039,1.3019594029458912,0.9781257192057691,0.28586855259504096,0.7092491038665846
0.057,1.7328722933312202,1.0,2940.7430197715735,0.47337166082510607,1.3015452656527273,0.9783689442139086,0.2858336363199112,0.7100460866148792
0.0575,1.7320409534471792,1.0,2945.1335172121294,0.47632562072150997,1.3011313882788618,0.9786064313715268,0.2857987200447815,0.7108414763815223
0.058,1.7312096135631383,1.0,2949.497911239168,0.4792630104194098,1.300717767791421,0.97883836274349,0.2857638037696518,0.7116352810412787
0.0585,1.7303782736790974,1.0,2953.8364837256836,0.4821839251600995,1.300304401157532,0.9790649131460158,0.2857288874945221,0.7124275084356381
0.059000000000000004,1.7295469337950564,1.0,2958.149517997067,0.48508846018487317,1.2998912853443214,0.9792862504929573,0.2856939712193924,0.7132181663728661
0.059500000000000004,1.7287155939110155,1.0,2962.4367731109014,0.48797663369369293,1.299478421905644,0.9795025300560313,0.28565905494426264,0.7140072538676818
0.06,1.7278842540269745,1.0,2966.699689217965,0.49084863212638014,1.2990657977376283,0.979713914019729,0.28562413866913294,0.7147947979067475
0.0605,1.7270529141429334,1.0,2970.9386631448488,0.4937045464789183,1.2986534088674018,0.9799205510426205,0.2855892223940032,0.7155808079460477
0.061,1.7262215742588924,1.0,2975.15403635023,0.4965444616057724,1.2982412518187192,0.9801225836576396,0.28555430611887345,0.7163652924540923
0.0615,1.7253902343748515,1.0,2979.346151785417,0.49936846236140736,1.2978293231153364,0.9803201490144838,0.28551938984374375,0.7171482598618002
0.062,1.7245588944908106,1.0,2983.515353876822,0.5021766336002881,1.2974176192810083,0.9805133791238018,0.28548447356861406,0.7179297185625548
0.0625,1.7237275546067696,1.0,2987.6619885087002,0.5049690601768796,1.2970061368394905,0.9807024010885278,0.2854495572934843,0.7187096769122507
0.063,1.7228962147227287,1.0,2991.7864030058186,0.5077458269456467,1.2965948723145382,0.9808873373231334,0.2854146410183546,0.7194881432293456
0.0635,1.7220648748386878,1.0,2995.888946116418,0.5105070187610546,1.2961838222299067,0.9810683057615079,0.28537972474322487,0.7202651257949076
0.064,1.7212335349546468,1.0,2999.9699679958317,0.5132527204775681,1.2957729831093514,0.9812454200541415,0.2853448084680952,0.7210406328526637
0.0645,1.7204021950706059,1.0,3004.02982018971,0.5159830169496521,1.2953623514766273,0.9814187897552338,0.28530989219296543,0.7218146726090475
0.065,1.719570855186565,1.0,3008.068855618342,0.5186979930317718,1.29495192385549,0.9815885205003124,0.28527497591783574,0.7225872532332436
0.0655,1.718739515302524,1.0,3012.087428560283,0.5213977335783918,1.2945416967696945,0.9817547141749091,0.285240059642706,0.7233583828572363
0.066,1.7179081754184828,1.0,3016.0858946372814,0.5240823234439773,1.2941316667429967,0.9819174690748037,0.2852051433675763,0.7241280695758505
0.0665,1.717076835534442,1.0,3020.064610798505,0.5267518474829933,1.2937218302991513,0.9820768800583155,0.28517022709244655,0.7248963214468003
0.067,1.716245495650401,1.0,3024.023935305939,0.5294063905499046,1.2933121839619137,0.9822330386910905,0.28513531081731686,0.7256631464907286
0.0675,1.71541415576636,1.0,3027.964227719048,0.5320460374991761,1.2929027242550395,0.9823860333838023,0.2851003945421871,0.726428552691251
0.068,1.714582815882319,1.0,3031.885848880944,0.534670873185273,1.2924934477022838,0.9825359495231659,0.2850654782670574,0.7271925479949981
0.0685,1.7137514759982782,1.0,3035.7891609033472,0.5372809824626601,1.292084350827402,0.9826828695966274,0.28503056199192767,0.7279551403116554
0.069,1.7129201361142372,1.0,3039.6745271534282,0.5398764501858023,1.2916754301541493,0.9828268733110809,0.284995645716798,0.728716337514005
0.0695,1.7120887962301963,1.0,3043.542312239336,0.5424573612091648,1.2912666822062808,0.9829680377059355,0.2849607294416682,0.7294761474379637
0.07,1.7112574563461553,1.0,3047.392881997269,0.5450238003872122,1.2908581035075524,0.9831064372608409,0.28492581316653853,0.7302345778826211
0.07050000000000001,1.7104261164621144,1.0,3051.2265083600705,0.547575845096028,1.2904496913994545,0.9832421435864623,0.2848908968914088,0.7309916350955409
0.07100000000000001,1.7095947765780735,1.0,3055.042798262065,0.5501135218539694,1.2900414489452225,0.983375223197214,0.2848559806162791,0.7317473147122318
