Time [s],Phi [rad],STIM [ ],Fsee [N],Gamma [ ],Lcerel [ ],q [ ],Lmtc [m],fisomrel [ ]
0.0,1.8,1.0,17.967418923727323,1.0019175685460674e-05,1.379339717006418,0.00500002675367739,0.288653,0.5411396017266921
0.0005,1.79999375,1.0,18.276733188269425,0.005619172284827718,1.3793023890067024,0.012940567224609602,0.2886527375,0.5412299033603578
0.001,1.799975,1.0,21.61835244534657,0.011196862479950057,1.378938305087108,0.0356086765239467,0.28865195,0.5421102070717789
0.0015,1.79994375,1.0,31.06914398448396,0.01674326624398393,1.378046211568751,0.07060184192567272,0.2886506375,0.5442635903013875
0.002,1.7999,1.0,53.58209217623037,0.02225855906821083,1.3763681508680954,0.11471799861161718,0.2886488,0.5483004305233756
0.0025,1.79984375,1.0,97.11834312625733,0.02774291545982348,1.3739351959081159,0.16457485025326787,0.28864643749999996,0.5541213943276755
0.003,1.7997750000000001,1.0,160.95748477737695,0.03319650894964532,1.3712143692858356,0.2172804094144155,0.28864354999999997,0.5605863904200232
0.0035,1.79969375,1.0,237.68260786018314,0.03861951209172022,1.3685847565245155,0.2706128435271786,0.2886401375,0.5667897871739912
0.004,1.7996,1.0,321.4660497260386,0.044012096474095166,1.366156111508945,0.322915757750111,0.2886362,0.5724799171066617
0.0045000000000000005,1.7994937500000001,1.0,409.2670590120045,0.04937443272400462,1.3639228304052347,0.3730344658952244,0.2886317375,0.577679124712509
0.005,1.799375,1.0,499.41283270224517,0.05470669049895956,1.3618583566154046,0.4202474221484822,0.28862675,0.5824570463890265
0.0055,1.79924375,1.0,590.7897735252776,0.060009038534223264,1.35993884761263,0.46417366309261426,0.2886212375,0.5868750828421301
0.006,1.7991000000000001,1.0,682.5174891559379,0.06528164458594303,1.3581464260023017,0.5046799305821442,0.2886152,0.5909793926714855
0.006500000000000001,1.79894375,1.0,773.8807459065199,0.07052467548677392,1.3564672623566771,0.5418007316194368,0.2886086375,0.5948057744513262
0.007,1.798775,1.0,864.2852625864728,0.0757382971294748,1.3548904038582958,0.5756767566390895,0.28860155,0.598382657044948
0.0075,1.79859375,1.0,953.2427698344414,0.08092267447664131,1.3534067860445682,0.6065098942611665,0.2885939375,0.6017335573266862
0.008,1.7984,1.0,1040.34451811808,0.0860779711691796,1.3520088515317785,0.6345321575331676,0.2885858,0.604878088148209
0.0085,1.79819375,1.0,1125.3146822441806,0.0912043512967586,1.3506892350611863,0.6599844139520322,0.2885771375,0.6078350140695155
0.009000000000000001,1.797975,1.0,1207.899958084715,0.09630197678364996,1.349442038090729,0.6831041813097501,0.28856795,0.6106194579559869
0.0095,1.79774375,1.0,1287.8914714086468,0.10137100817418321,1.3482621335203318,0.7041174717075345,0.2885582375,0.6132445355735543
0.01,1.7975,1.0,1365.1663513066528,0.1064116060126879,1.3471443942499186,0.7232342222431837,0.288548,0.6157231171583453
0.0105,1.79724375,1.0,1439.6595577655237,0.11142393022926195,1.3460839456543612,0.7406466509388313,0.2885372375,0.6180672913275165
0.011,1.796975,1.0,1511.3224798239135,0.11640813957899243,1.3450765503981572,0.7565291189878491,0.28852595000000003,0.6202875458077426
0.0115,1.79669375,1.0,1580.1207585916409,0.12136439124134472,1.3441184860915656,0.7710386044053348,0.2885141375,0.6223930724810236
0.012,1.7964,1.0,1646.0559601607224,0.1262928418251044,1.3432061772547934,0.7843155889388521,0.28850180000000003,0.6243926017032887
0.0125,1.79609375,1.0,1709.1732623591324,0.13119364829626667,1.342336042975992,0.7964853247143345,0.2884889375,0.6262947502536342
0.013000000000000001,1.7957750000000001,1.0,1769.5065458953923,0.13606696546724553,1.3415050728486686,0.807659488869357,0.28847555,0.628106776845107
0.0135,1.79544375,1.0,1827.0918977747008,0.14091294675414445,1.3407105909743127,0.8179374616189596,0.2884616375,0.629835118615863
0.014,1.7951000000000001,1.0,1881.993032724692,0.14573174557306695,1.3399499214544128,0.8274075262915112,0.2884472,0.6314861317064367
0.0145,1.79474375,1.0,1934.2796479405808,0.15052351439634895,1.339220595973097,0.836148191097408,0.2884322375,0.6330656481749264
0.015,1.794375,1.0,1984.0505446220234,0.15528840621398124,1.33852007007439,0.8442292158773178,0.28841675,0.6345795987143816
0.0155,1.79399375,1.0,2031.3713765678947,0.1600265708868315,1.3378463629114923,0.8517128438662327,0.2884007375,0.6360326373325136
0.016,1.7936,1.0,2076.3128033915095,0.16473815767719238,1.3371976094083806,0.858654538149609,0.2883842,0.6374291205652844
0.0165,1.7931937500000001,1.0,2118.959762644148,0.16942331584735648,1.3365719444890316,0.8651037484989457,0.2883671375,0.6387733615525263
0.017,1.792775,1.0,2159.3954567126716,0.1740821935765647,1.335967654183411,0.8711046672731985,0.28834955,0.6400693091278572
0.0175,1.7923437500000001,1.0,2197.722546748756,0.17871493983734132,1.3353829426729438,0.8766967845264589,0.2883314375,0.6413210515434851
0.018000000000000002,1.7919,1.0,2234.015082940913,0.18332170029773862,1.3348164086048704,0.8819155675577335,0.2883128,0.6425318001560474
0.0185,1.79144375,1.0,2268.346999382822,0.1879026199454065,1.3342667363117486,0.8867928462865623,0.2882936375,0.6437045567458288
0.019,1.790975,1.0,2300.7997441366274,0.19245784376799502,1.3337326101261362,0.8913572122672873,0.28827395,0.6448422989107028
0.0195,1.79049375,1.0,2331.4542812904674,0.1969875157801381,1.3332127867719323,0.8956344070677794,0.2882537375,0.6459478275882742
0.02,1.79,1.0,2360.398628427813,0.2014917808382831,1.3327060136080966,0.8996476272960782,0.288233,0.6470239429496463
0.0205,1.78949375,1.0,2387.7074399997,0.2059707815249718,1.3322112221374793,0.9034178520472442,0.2882117375,0.6480730353505177
0.021,1.788975,1.0,2413.4445954720686,0.21042465828352655,1.3317274932085332,0.9069640795031245,0.28818995000000003,0.6490971627856587
0.021500000000000002,1.78844375,1.0,2437.677934469053,0.21485355155726957,1.3312539076697119,0.9103035123300937,0.2881676375,0.6500983694309503
0.022,1.7879,1.0,2460.478925653236,0.21925760178952317,1.3307895463694683,0.9134517521297769,0.2881448,0.6510786862649278
0.0225,1.78734375,1.0,2481.914560313555,0.22363694765821185,1.330333564450525,0.9164229843592655,0.28812143749999997,0.6520399751192949
0.023,1.786775,1.0,2502.057749959444,0.22799173027210476,1.3298850883508044,0.9192301098591851,0.28809755,0.6529841469508353
0.0235,1.78619375,1.0,2520.9688157742576,0.23232208762206905,1.3294433890074528,0.9218849080235623,0.28807313749999996,0.6539127979569008
0.024,1.7856,1.0,2538.699816182231,0.23662815508499205,1.329007836217398,0.9243981429997403,0.2880482,0.6548273077408986
0.0245,1.78499375,1.0,2555.304703932944,0.240910068037761,1.328577799777568,0.9267796498714166,0.2880227375,0.6557290481292487
0.025,1.784375,1.0,2570.839165744023,0.2451679618572632,1.3281526494848905,0.9290384275950998,0.28799675,0.6566193834057608
0.025500000000000002,1.78374375,1.0,2585.360470748972,0.24940197192038596,1.3277317551362935,0.9311827215093433,0.2879702375,0.6574996705206778
0.026000000000000002,1.7831000000000001,1.0,2598.9157162279866,0.253612230497886,1.3273145946920164,0.9332201129237147,0.2879432,0.6583710334872481
0.0265,1.78244375,1.0,2611.5631934509543,0.25779887491027337,1.3269005531750484,0.9351575540976894,0.2879156375,0.6592347842278297
0.027,1.781775,1.0,2623.3499337933927,0.261962038199346,1.3264891309231224,0.93700145631164,0.28788755,0.6600919878477814
0.0275,1.7810937500000001,1.0,2634.3130875385486,0.26610185001441566,1.326079928561097,0.938757738117393,0.2878589375,0.660943495502519
0.028,1.7804,1.0,2644.4905903525296,0.2702184400047941,1.32567254671383,0.9404318570125241,0.2878298,0.6617901540718376
0.0285,1.77969375,1.0,2653.9210954096566,0.27431193781979313,1.3252665860061796,0.9420288514062548,0.2878001375,0.6626328062113666
0.029,1.778975,1.0,2662.6439090537615,0.27838247310872444,1.3248616470630044,0.9435533782594953,0.28776995,0.6634722903938521
0.029500000000000002,1.7782437500000001,1.0,2670.698929996209,0.28243017552089983,1.324457330509162,0.9450097468920232,0.2877392375,0.6643094409402691
0.03,1.7775,1.0,2678.1181426531202,0.2864551720136005,1.3240533145045252,0.9464019588184928,0.287708,0.6651449278017578
0.0305,1.77674375,1.0,2684.938580274669,0.290457592140686,1.3236492349547093,0.9477337202373076,0.2876762375,0.6659795048253552
0.031,1.775975,1.0,2691.2018069310457,0.29443756551330896,1.32324469012079,0.9490084670322285,0.28764395,0.6668139997089111
0.0315,1.7751937500000001,1.0,2696.9328014472567,0.29839521570130784,1.3228394335133387,0.950229409815629,0.2876111375,0.6676489163545491
0.032,1.7744,1.0,2702.156824682011,0.30233066627452104,1.3224332186429266,0.9513995351569355,0.2875778,0.6684847561082994
0.0325,1.77359375,1.0,2706.899393240374,0.3062440408027871,1.3220257990201254,0.9525216239605049,0.2875439375,0.6693220177469701
0.033,1.772775,1.0,2711.186254532782,0.3101354628559444,1.321616928155506,0.9535982681245765,0.28750955,0.6701611974611486
0.0335,1.7719437500000002,1.0,2715.043363181852,0.3140050560038315,1.32120635955964,0.9546318856604362,0.2874746375,0.6710027888343217
0.034,1.7711000000000001,1.0,2718.496858775805,0.3178529438162868,1.3207938467430986,0.9556247344304872,0.2874392,0.6718472828181293
0.0345,1.7702437500000001,1.0,2721.567816501225,0.321679245995973,1.3203791908104359,0.9565789288813416,0.2874032375,0.6726950704580688
0.035,1.7693750000000001,1.0,2724.281320802016,0.32548408803068124,1.3199621576085319,0.9574964445437651,0.28736675,0.6735466125589701
0.035500000000000004,1.76849375,1.0,2726.6579180990007,0.3292675908357813,1.3195425553989744,0.9583791342835457,0.2873297375,0.6744022808963438
0.036000000000000004,1.7676,1.0,2728.7145167985936,0.333029872029165,1.3191202264471724,0.9592287369550249,0.2872922,0.6752623758683208
0.0365,1.76669375,1.0,2730.468110214338,0.33677104922872425,1.3186950130185355,0.9600468831625095,0.2872541375,0.6761271960367203
0.037,1.765775,1.0,2731.935766636219,0.3404912400523511,1.318266757378473,0.9608351032180144,0.28721555,0.6769970380988273
0.0375,1.76484375,1.0,2733.1346199519744,0.3441905621179374,1.3178353017923936,0.9615948344285087,0.2871764375,0.6778721968575832
0.038,1.7639,1.0,2734.0818608195414,0.3478691330433751,1.3174004885257071,0.9623274277759649,0.28713679999999997,0.6787529651901865
0.0385,1.76294375,1.0,2734.794728391794,0.35152707044655607,1.3169621598438226,0.9630341540469077,0.28709663750000003,0.6796396340151118
0.039,1.761975,1.0,2735.2772336653634,0.35516447840000637,1.3165202784940946,0.963716217980556,0.28705595,0.6805322490498112
0.0395,1.7609937500000001,1.0,2735.5584396082277,0.3587814909187281,1.3160745800434435,0.9643747394518687,0.2870147375,0.6814313132983445
0.04,1.76,1.0,2735.6506367739426,0.3623782220075149,1.3156249526190338,0.9650107840071644,0.286973,0.6823370194012521
0.0405,1.7589937500000001,1.0,2735.5630627359537,0.3659547822131369,1.3151713122610846,0.9656253585937241,0.2869307375,0.6832495023202356
0.041,1.757975,1.0,2735.3049728194824,0.3695112820823641,1.3147135750098151,0.9662194136878,0.28688795,0.6841688957415226
0.0415,1.75694375,1.0,2734.8856371412867,0.3730478321619665,1.314251656905444,0.9667938470461481,0.2868446375,0.6850953320541551
0.042,1.7559,1.0,2734.314337805718,0.37656454299871417,1.3137854739881905,0.9673495071709238,0.28680079999999997,0.6860289423278274
0.0425,1.75484375,1.0,2733.6003662572643,0.3800615251393772,1.3133149422982735,0.9678871965125695,0.2867564375,0.6869698562902729
0.043000000000000003,1.753775,1.0,2732.753020788531,0.38353888913072554,1.312839977875912,0.968407674432974,0.28671155,0.6879182023042059
0.043500000000000004,1.75269375,1.0,2731.781604205934,0.38699674551952923,1.3123604967613247,0.9689116599490939,0.28666613750000003,0.6888741073438089
0.044,1.7516,1.0,2730.6954216501626,0.3904352048525583,1.311876414994731,0.9693998342753427,0.2866202,0.6898376969707727
0.0445,1.75049375,1.0,2729.503778574194,0.3938543776765828,1.3113876486163498,0.9698728431813652,0.2865737375,0.6908090953098873
0.045,1.7493750000000001,1.0,2728.2139601707777,0.3972543692565404,1.3108941320199965,0.9703312998246059,0.28652675,0.6917883886337148
0.0455,1.74824375,1.0,2726.832101014018,0.4006352860212919,1.3103958100521476,0.9707757870821311,0.2864792375,0.6927756412693595
0.046,1.7471,1.0,2725.368572999154,0.4039972470491781,1.309892589003129,0.9712068572979433,0.2864312,0.6937709926050313
0.0465,1.7459437500000001,1.0,2723.828067559617,0.4073403553561553,1.3093844267862487,0.971625036803843,0.28638263750000004,0.6947744785144909
0.047,1.744775,1.0,2722.215274329313,0.4106647139581797,1.3088712813148151,0.972030825917937,0.28633355,0.6957861338614297
0.0475,1.74359375,1.0,2720.534880505804,0.41397042587120747,1.3083531105021364,0.9724247004720387,0.28628393750000003,0.6968059924861519
0.048,1.7424,1.0,2718.7915702517407,0.4172575941111948,1.3078298722615211,0.9728071132355687,0.2862338,0.6978340871921416
0.0485,1.74119375,1.0,2716.9900241365945,0.42052632169409787,1.3073015245062776,0.973178495243857,0.2861831375,0.6988704497325182
0.049,1.739975,1.0,2715.1349186167954,0.42377671163587294,1.3067680251497138,0.9735392570381021,0.28613195,0.6999151107963794
0.0495,1.73874375,1.0,2713.2309255559403,0.42700886695247614,1.306229332105138,0.9738897898236091,0.2860802375,0.7009680999950292
0.05,1.7375,1.0,2711.2827117834822,0.4302228906598637,1.305685403285859,0.9742304665523944,0.286028,0.7020294458480925
0.0505,1.73624375,1.0,2709.294938693476,0.4334188857739918,1.3051361966051844,0.9745616429357259,0.2859752375,0.7030991757695224
0.051000000000000004,1.734975,1.0,2707.27226188188,0.4365969553108167,1.304581669976423,0.974883658391731,0.28592195,0.7041773160534865
0.051500000000000004,1.73369375,1.0,2705.213553134048,0.4397571777946294,1.3040218340650833,0.9751968376620218,0.2858681375,0.7052637895781344
0.052000000000000005,1.7324,1.0,2703.1276363146103,0.44289968137097496,1.3034566086586892,0.9755014904818016,0.2858138,0.7063586947109923
0.0525,1.73109375,1.0,2701.0185561111634,0.4460245708013316,1.3028859570952103,0.9757979129836245,0.28575893750000003,0.7074620439876227
0.053,1.729775,1.0,2698.8881871105755,0.4491319409034493,1.3023098624955611,0.9760863884166151,0.28570355000000003,0.7085738107076369
0.0535,1.72844375,1.0,2696.7384012724947,0.452221886495078,1.3017283079806565,0.9763671876480277,0.2856476375,0.7096939673569199
0.054,1.7271,1.0,2694.5710678574173,0.4552945023939675,1.3011412766714114,0.9766405698073823,0.2855912,0.7108224856017615
0.0545,1.7257437500000001,1.0,2692.3880533598376,0.45834988341786786,1.3005487516887406,0.9769067828918193,0.2855342375,0.711959336282971
0.055,1.724375,1.0,2690.1912214488193,0.461388124384529,1.2999507161535586,0.9771660643353127,0.28547675,0.7131044894099723
0.0555,1.72299375,1.0,2687.982432914497,0.4644093201117007,1.2993471531867802,0.9774186415441838,0.2854187375,0.7142579141548799
0.056,1.7216,1.0,2685.7635456204666,0.467413565417133,1.2987380459093205,0.9776647324011721,0.2853602,0.7154195788465585
0.0565,1.72019375,1.0,2683.536414463374,0.4704009551185759,1.298123377442094,0.9779045457401532,0.28530113749999997,0.7165894509646645
0.057,1.718775,1.0,2681.3028913381368,0.47337158403377916,1.2975031309060152,0.9781382817934378,0.28524155,0.7177674971336683
0.0575,1.71734375,1.0,2679.0648251093503,0.4763255469804928,1.2968772894219995,0.9783661326134445,0.2851814375,0.7189536831168569
0.058,1.7159,1.0,2676.824061589894,0.4792629387764667,1.296245836110961,0.9785882824704103,0.2851208,0.720147973810324
0.0585,1.71444375,1.0,2674.582443525002,0.48218385423945087,1.295608754093815,0.9788049082276777,0.2850596375,0.7213503332369338
0.059000000000000004,1.7129750000000001,1.0,2672.3418105828523,0.48508838818719513,1.294966026491476,0.9790161796959935,0.28499795,0.7225607245402739
0.059500000000000004,1.71149375,1.0,2670.100894514908,0.4879766110266697,1.2943176649588293,0.9792222595033532,0.2849357375,0.7237790564195865
0.06,1.71,1.0,2667.8618784546193,0.49084862817211194,1.2936636494382279,0.9794233050853645,0.284873,0.7250052965517271
0.0605,1.7084937500000001,1.0,2665.628370992989,0.49370455302877175,1.2930039467271712,0.9796194676622985,0.2848097375,0.7262394362318272
0.061,1.7069750000000001,1.0,2663.4007455015944,0.4965444714557039,1.292338553337164,0.9798108919733041,0.28474595,0.7274814101809123
0.0615,1.7054437500000001,1.0,2661.1793747307906,0.4993684693119632,1.2916674657797107,0.9799977172237369,0.2846816375,0.7287311524414581
0.062,1.7039,1.0,2658.964630814046,0.5021766324566045,1.2909906805663156,0.9801800773369127,0.2846168,0.729988596376124
0.0625,1.70234375,1.0,2656.75688527115,0.5049690467486826,1.2903081942084833,0.9803581011925662,0.2845514375,0.7312536746664845
0.063,1.7007750000000001,1.0,2654.556509012771,0.5077457980472523,1.2896200032177183,0.9805319128528122,0.28448555,0.7325263193117629
0.0635,1.69919375,1.0,2652.363872345242,0.5105069722113684,1.288926104105525,0.9807016317763508,0.28441913750000003,0.7338064616275615
0.064,1.6976,1.0,2650.179344974355,0.5132526551000859,1.288226493383408,0.9808673730216124,0.2843522,0.7350940322445927
0.0645,1.69599375,1.0,2648.003296011469,0.5159829325724593,1.2875211675628717,0.981029247439487,0.2842847375,0.7363889611074077
0.065,1.694375,1.0,2645.8360939780055,0.5186978904875437,1.2868101231554205,0.9811873618562464,0.28421675,0.7376911774731266
0.0655,1.69274375,1.0,2643.678106811253,0.5213976147043937,1.2860933566725592,0.9813418192472226,0.2841482375,0.7390006099101654
0.066,1.6911,1.0,2641.529701870246,0.5240821910820642,1.2853708646257918,0.9814927189017764,0.2840792,0.7403171862969644
0.0665,1.6894437500000001,1.0,2639.391245941911,0.5267517054796101,1.284642643526623,0.9816401565800458,0.2840096375,0.7416408338207139
0.067,1.687775,1.0,2637.263105246906,0.5294062437560862,1.2839086898865575,0.9817842246619454,0.28393955,0.7429714789760795
0.0675,1.68609375,1.0,2635.1456454470817,0.5320458917705472,1.2831690002170992,0.981925012288847,0.2838689375,0.74430904756393
0.068,1.6844000000000001,1.0,2633.0392316516673,0.534670735382048,1.2824235710297531,0.9820626054983512,0.2837978,0.7456534646900574
0.0685,1.68269375,1.0,2630.9442284246875,0.5372808604496434,1.2816723988360237,0.9821970873525319,0.2837261375,0.7470046547639031
0.069,1.680975,1.0,2628.829212493489,0.5398763473696003,1.280915774561448,0.9823285515859751,0.28365395,0.7483620140387175
0.0695,1.67924375,1.0,2626.770848770315,0.5424572775732057,1.2801529880830171,0.9824570420430023,0.28358123749999997,0.749726732360194
0.07,1.6775000774509463,1.0,2624.7404414174985,0.5450237315891996,1.2793843397586484,0.98258264777407,0.28350800325293973,0.7510981846225259
0.07050000000000001,1.6757514689514525,1.0,2623.063565064665,0.5475757896754635,1.278610191452795,0.9827054577672258,0.283434561695961,0.7524756416410616
0.07100000000000001,1.6740028604519588,1.0,2621.941218648218,0.5501135320898789,1.2778309050299104,0.9828255581729242,0.2833611201389823,0.7538583807725158
0.07150000000000001,1.6722542519524648,1.0,2621.3340323959637,0.5526370390903275,1.277046842354448,0.9829430324237998,0.28328767858200354,0.7552456860377219
0.07200000000000001,1.670505643452971,1.0,2621.202814300072,0.5551463909346906,1.2762583652908617,0.9830579613487034,0.2832142370250248,0.7566368482360358
0.0725,1.6687570349534773,1.0,2621.51305482186,0.5576416668059613,1.2754657935807354,0.9831704213188069,0.28314079546804605,0.7580312390527285
0.073,1.6670084264539833,1.0,2622.2206779780677,0.5601229467406804,1.2746695366963137,0.9832804904324378,0.2830673539110673,0.7594280791168125
0.0735,1.6652598179544895,1.0,2623.2880387090845,0.5625903100328393,1.2738699451655644,0.9833882417749061,0.28299391235408855,0.7608267000478659
0.074,1.6635112094549958,1.0,2624.6899886140604,0.5650438336232223,1.2730672541316204,0.9834937410003264,0.2829204707971098,0.7622266413297738
0.0745,1.6617626009555018,1.0,2626.4014194429838,0.5674835944526138,1.2722616987376136,0.983597051787379,0.28284702924013105,0.7636274470679494
