Time [s],Phi [rad],STIM [ ],Fsee [N],Gamma [ ],Lcerel [ ],q [ ],Lmtc [m],fisomrel [ ]
0.0,1.8,1.0,18.12513832350818,0.0004039609033562605,1.3793220858945423,0.005042236787426793,0.288653,0.541182254950936
0.0005,1.79999375,1.0,18.55979770520159,0.006010904310993559,1.379271066850405,0.014070339456083814,0.2886527375,0.5413056691650373
0.001,1.799975,1.0,22.19378033629075,0.01158639719921223,1.378879919526883,0.037691002726654786,0.28865195,0.5422512964901232
0.0015,1.79994375,1.0,32.28484250886528,0.017130615981572946,1.3779436319020353,0.07343289672920739,0.2886506375,0.5445108772471265
0.002,1.7999,1.0,56.06691966130883,0.02264373607978448,1.3762087744208744,0.11805843105700461,0.2886488,0.5486829019411468
0.0025,1.79984375,1.0,101.18329021638328,0.0281259319331244,1.3737413230814668,0.16820106815015418,0.28864643749999996,0.5545836206036819
0.003,1.7997750000000001,1.0,166.17514496486297,0.033577377003303786,1.3710206244898346,0.22101629741507006,0.28864354999999997,0.5610449496274653
0.0035,1.79969375,1.0,243.53865253887628,0.03899824377658363,1.3684054721691754,0.27432503074442566,0.2886401375,0.5672111226907108
0.004,1.7996,1.0,327.6734543497304,0.0443887037735798,1.3659924869926057,0.3265076326750358,0.2886362,0.5728619243143093
0.0045000000000000005,1.7994937500000001,1.0,415.6798194771924,0.04974892755484786,1.363772883439243,0.3764423326530247,0.2886317375,0.5780270703899837
0.005,1.799375,1.0,505.94358232171317,0.05507908471165479,1.361720029387482,0.42343456026096904,0.28862675,0.5827762128186197
0.0055,1.79924375,1.0,597.3707288190469,0.06037934390676219,1.3598106277148625,0.4671236640031427,0.2886212375,0.5871693628298362
0.006,1.7991000000000001,1.0,689.0967664101165,0.06564987283769531,1.3580271190317963,0.5073904929450733,0.2886152,0.591251855987857
0.006500000000000001,1.79894375,1.0,780.4138360118433,0.0708908382579193,1.3563559725683128,0.5442788172974743,0.2886086375,0.5950587398434055
0.007,1.798775,1.0,870.7353680557749,0.07610240603659307,1.3547864076223564,0.5779349031029991,0.28860155,0.5986180005306863
0.0075,1.79859375,1.0,959.5758951133748,0.08128474095395498,1.3533095372672737,0.6085636573643499,0.2885939375,0.6019527132525031
0.008,1.7984,1.0,1046.5601254448213,0.08643800722833937,1.3519174749043843,0.6363980737967013,0.2885858,0.6050831978855933
0.0085,1.79819375,1.0,1131.3685402745234,0.09156236764228418,1.3506036496584668,0.6616795488568801,0.2885771375,0.6080264057594487
0.009000000000000001,1.797975,1.0,1213.762832695873,0.09665798434920587,1.3493620258439545,0.6846448725057027,0.28856795,0.6107977515886738
0.0095,1.79774375,1.0,1293.5815312252078,0.10172501895777789,1.3481869217730997,0.7055187298007671,0.2885582375,0.6134115673028486
0.01,1.7975,1.0,1370.6835071823818,0.10676363132920488,1.347073555364247,0.724510046833546,0.288548,0.615879933567669
0.0105,1.79724375,1.0,1444.9838867910241,0.11177398079494977,1.3460173690905388,0.7418099288293785,0.2885372375,0.6182142228560645
0.011,1.796975,1.0,1516.4533491010693,0.11675622662412408,1.345013927722023,0.757591373868869,0.28852595000000003,0.620425349737955
0.0115,1.79669375,1.0,1585.0647846228287,0.12171052607567681,1.344059468202687,0.7720101460978844,0.2885141375,0.6225225839926156
0.012,1.7964,1.0,1650.8140930987274,0.12663703546772148,1.3431505243104522,0.7852056690326334,0.28850180000000003,0.6245144058209877
0.0125,1.79609375,1.0,1713.73052587565,0.1315359106958922,1.342283730019174,0.7973022695794223,0.2884889375,0.6264089546051061
0.013000000000000001,1.7957750000000001,1.0,1773.871308597245,0.13640730766895806,1.3414558287307643,0.8084106039562364,0.28847555,0.6282140211281473
0.0135,1.79544375,1.0,1831.283648404985,0.14125138030170334,1.3406640480418501,0.8186292010811228,0.2884616375,0.6299362448078445
0.014,1.7951000000000001,1.0,1886.015110172803,0.14606828110604134,1.3399059169686254,0.8280456985154672,0.2884472,0.6315815293677232
0.0145,1.79474375,1.0,1938.1371850582022,0.15085816259388524,1.339178964527284,0.8367379569184982,0.2884322375,0.6331557079789523
0.015,1.794375,1.0,1987.7161828295946,0.15562117623105123,1.3384810075636508,0.8447752860930148,0.28841675,0.6346639270366574
0.0155,1.79399375,1.0,2034.8787889851794,0.160357474244457,1.3378094233101228,0.8522192032173334,0.2884007375,0.6361122242438849
0.016,1.7936,1.0,2079.6817904550912,0.16506720548525694,1.3371625128712585,0.859124789661914,0.2883842,0.6375045915635792
0.0165,1.7931944509571076,1.0,2122.2116891806645,0.1697505183109629,1.3365387259029429,0.86554120185165,0.2883671669401985,0.6388446618865558
0.017,1.7927861371161689,1.0,2162.9364623494175,0.1744075610790867,1.3359365120610607,0.8715123277784822,0.2883500177588791,0.6401360327303853
0.0175,1.79237782327523,1.0,2202.0567012886577,0.17903848146735135,1.3353544481020594,0.8770774447666105,0.2883328685775597,0.6413819966140407
0.018000000000000002,1.7919695094342916,1.0,2239.6207432302067,0.18364342676439713,1.3347915141519904,0.8822718349175652,0.28831571939624023,0.6425849555223777
0.0185,1.7915611955933528,1.0,2275.6761201643203,0.1882225419536038,1.3342467575515733,0.8871271547149092,0.28829857021492084,0.643747146257206
0.019,1.7911528817524143,1.0,2310.2743315738567,0.19277597151677547,1.3337192390152615,0.8916718425276017,0.2882814210336014,0.6448707573694987
0.0195,1.7907445679114755,1.0,2343.467116209633,0.19730385895781935,1.3332080650611908,0.8959314951924917,0.288264271852282,0.645957861537555
0.02,1.790336254070537,1.0,2375.3118489976537,0.20180634822192794,1.3327123304817798,0.8999291778414122,0.28824712267096253,0.6470105393666548
0.0205,1.7899279402295982,1.0,2405.8744528161665,0.2062835846709033,1.3322310874772414,0.9036857020185238,0.28822997348964313,0.6480309455155917
0.021,1.7895196263886597,1.0,2435.1964636484495,0.21073570792396068,1.3317636609863341,0.9072199400548745,0.28821282430832373,0.6490206417377065
0.021500000000000002,1.789111312547721,1.0,2463.322424021309,0.21516285760031534,1.3313093759478163,0.9105489812882066,0.2881956751270043,0.649981177962591
0.022,1.7887029987067824,1.0,2490.299681263751,0.21956517331918254,1.3308675573004463,0.9136883250990147,0.2881785259456848,0.65091409287639
0.0225,1.7882946848658436,1.0,2516.17819586873,0.22394279469977757,1.3304375299829823,0.9166520508456653,0.28816137676436543,0.6518209144730411
0.023,1.7878863710249049,1.0,2541.0097629598995,0.22829586118834475,1.330018624558345,0.9194529686414671,0.28814422758304603,0.6527031487392161
0.0235,1.7874780571839664,1.0,2564.8329797871056,0.23262450838473495,1.3296103164327646,0.9221027754694031,0.2881270784017266,0.6535619875672602
0.024,1.7870697433430276,1.0,2587.7095712007426,0.23692887892489595,1.329211882042152,0.9246121119749108,0.2881099292204071,0.6543990329153835
0.0245,1.786661429502089,1.0,2609.6729260706675,0.24120910663828146,1.3288228803327229,0.9269907473906193,0.2880927800390877,0.6552152849798846
0.025,1.7862531156611503,1.0,2630.7578442690465,0.24546532535434512,1.3284428702506932,0.9292476210045114,0.28807563085776833,0.6560117378236171
0.025500000000000002,1.7858448018202118,1.0,2651.000446586186,0.24969766890254072,1.3280714107422782,0.931390924016742,0.2880584816764489,0.6567893796351129
0.026000000000000002,1.785436487979273,1.0,2670.438088959775,0.2539062711123219,1.3277080607536942,0.9334281723255355,0.2880413324951295,0.6575491929752968
0.0265,1.7850281741383345,1.0,2689.1092810163723,0.2580912658131424,1.3273523792311566,0.935366271343002,0.2880241833138101,0.6582921550118018
0.027,1.7846198602973957,1.0,2707.0491325640683,0.26225278493182463,1.3270039659776833,0.9372115792804337,0.2880070341324906,0.6590191525346496
0.0275,1.784211546456457,1.0,2724.29219902413,0.2663909608768419,1.3266624344540856,0.9389699550431259,0.28798988495117117,0.65973103927465
0.028,1.7838032326155184,1.0,2740.8787942045305,0.27050592878989743,1.3263273537416638,0.940646796536804,0.2879727357698518,0.6604287570151883
0.0285,1.7833949187745797,1.0,2756.8332010238046,0.27459781642841163,1.325998445738882,0.9422471069810419,0.2879555865885324,0.6611129253055905
0.029,1.7829866049336411,1.0,2772.1803200311247,0.27866675154980486,1.3256754323442046,0.9437755113198735,0.2879384374072129,0.6617841606103808
0.029500000000000002,1.7825782910927024,1.0,2786.9456322030446,0.2827128619114976,1.3253580354560959,0.9452362897197593,0.28792128822589347,0.6624430764162943
0.03,1.7821699772517638,1.0,2801.1551634553,0.2867362752709101,1.32504597697302,0.9466334077010397,0.28790413904457407,0.6630902833343588
0.0305,1.781761663410825,1.0,2814.8354508687994,0.290737119385463,1.324738978793442,0.9479705432779211,0.28788698986325467,0.6637263891970422
0.031,1.7813533495698866,1.0,2828.013510631226,0.2947155220125765,1.3244367628158256,0.9492511114365833,0.2878698406819352,0.6643519991504712
0.0315,1.7809450357289478,1.0,2840.707789019526,0.2986716051030424,1.324139131294282,0.9504782943998867,0.2878526915006158,0.6649675496294266
0.032,1.7805367218880093,1.0,2852.9500213615916,0.3026055011591662,1.3238457713775598,0.9516550420407377,0.28783554231929637,0.6655737128854378
0.0325,1.7801284080470705,1.0,2864.7613712831067,0.30651733513169294,1.3235564678247236,0.9527841109874228,0.28781839313797697,0.6661709570433311
0.033,1.7797200942061318,1.0,2876.15798490651,0.31040722829555073,1.3232710526015075,0.9538680753786489,0.2878012439566575,0.6667596509882443
0.0335,1.7793117803651932,1.0,2887.156262414531,0.31427530192566766,1.3229893576736456,0.9549093370243026,0.2877840947753381,0.6673401620840749
0.034,1.7789034665242545,1.0,2897.772843876272,0.31812167729697166,1.3227112150068725,0.955910139004286,0.28776694559401866,0.6679128562142478
0.0345,1.778495152683316,1.0,2908.0245957008647,0.32194647568439094,1.3224364565669222,0.9568725780411986,0.28774979641269927,0.6684780978206866
0.035,1.7780868388423772,1.0,2917.9285977153613,0.32574981836285355,1.3221649143195293,0.9577986157703494,0.2877326472313798,0.6690362499409769
0.035500000000000004,1.7776785250014386,1.0,2927.502130870477,0.3295318266072874,1.3218964202304275,0.9586900890169276,0.2877154980500604,0.6695876742437373
0.036000000000000004,1.7772702111604999,1.0,2936.762665570454,0.33329262169262075,1.3216308062653517,0.9595487191781541,0.287698348868741,0.6701327310621805
0.0365,1.7768618973195613,1.0,2945.717008369597,0.3370323136048008,1.3213679992561973,0.960376127803375,0.28768119968742156,0.6706715849938418
0.037,1.7764535834786226,1.0,2954.3917940801966,0.34075103653756916,1.321107753709119,0.9611738252814516,0.28766405050610216,0.6712047528950378
0.0375,1.776045269637684,1.0,2962.7970609153895,0.3444489051148313,1.3208499707726156,0.9619432404917185,0.2876469013247827,0.6717324497934047
0.038,1.7756369557967453,1.0,2970.9426578547864,0.34812603362390293,1.3205945541654058,0.9626857169245809,0.2876297521434633,0.6722548846922343
0.0385,1.7752286419558065,1.0,2978.8385327934006,0.3517825363520999,1.3203414076062083,0.9634025185628144,0.28761260296214386,0.6727722658573759
0.039,1.774820328114868,1.0,2986.4947275934855,0.355418527586738,1.3200904348137412,0.9640948354548529,0.28759545378082446,0.6732848008314736
0.0395,1.7744120142739293,1.0,2993.921373340844,0.3590341216151329,1.3198415395067236,0.9647637888394983,0.287578304599505,0.6737926964476052
0.04,1.7740037004329907,1.0,3001.128685807837,0.36262943272460046,1.3195946254038737,0.9654104358625851,0.2875611554181856,0.6742961588423394
0.0405,1.773595386592052,1.0,3008.126961120784,0.3662045752024565,1.3193495962239103,0.9660357739220911,0.28754400623686616,0.6747953934681934
0.041,1.7731870727511134,1.0,3014.926571634042,0.36975966333601673,1.3191063556855518,0.9666407446745828,0.28752685705554676,0.6752906051055042
0.0415,1.7727787589101747,1.0,3021.537962008498,0.37329481141259696,1.3188648075075167,0.9672262377326677,0.28750970787422736,0.6757819978737065
0.042,1.7723704450692361,1.0,3027.963655542588,0.37681011853045004,1.3186249243619774,0.9677930972706011,0.2874925586929079,0.676269635125396
0.0425,1.7719621312282974,1.0,3034.2205819488195,0.3803057156419377,1.3183865549981595,0.968342116924996,0.28747540951158845,0.6767538316211861
0.043000000000000003,1.7715538173873586,1.0,3040.315768257149,0.38378171267945527,1.3181496342157786,0.9688740513881906,0.28745826033026906,0.6772347265572904
0.043500000000000004,1.77114550354642,1.0,3046.254715205912,0.3872382163527352,1.3179141103319527,0.9693896159930905,0.28744111114894966,0.6777124312877647
0.044,1.7707371897054813,1.0,3052.0429602715963,0.3906753333715099,1.3176799316638004,0.9698894886353077,0.2874239619676302,0.6781870568178672
0.0445,1.7703288758645428,1.0,3057.6860760980453,0.3940931704455119,1.31744704652844,0.9703743121030706,0.2874068127863108,0.6786587138085792
0.045,1.769920562023604,1.0,3063.1896689840464,0.3974918342844736,1.3172154032429901,0.9708446962400255,0.28738966360499135,0.6791275125809539
0.0455,1.7695122481826655,1.0,3068.5593774313616,0.40087143159812755,1.3169849501245687,0.9713012199544333,0.28737251442367195,0.6795935631202955
0.046,1.7691039343417267,1.0,3073.8008707506206,0.40423206909620607,1.3167556354902945,0.9717444330870622,0.2873553652423525,0.6800569750801648
0.0465,1.7686956205007882,1.0,3078.919847727796,0.4075738534884417,1.316527407657286,0.9721748581489802,0.2873382160610331,0.6805178577862192
0.047,1.7682873066598495,1.0,3083.92203534872,0.4108968914845669,1.316300214942661,0.9725929919394678,0.2873210668797137,0.6809763202398802
0.0475,1.7678789928189107,1.0,3088.813187583552,0.41420128979431403,1.3160740056635383,0.972999307053384,0.28730391769839425,0.681432471121829
0.048,1.7674706789779722,1.0,3093.599084230328,0.4174871551274157,1.3158487281370361,0.9733942532865066,0.2872867685170748,0.6818864187953337
0.0485,1.7670623651370334,1.0,3098.2786406455193,0.42075456894156565,1.3156243894554498,0.9737782598774558,0.2872696193357554,0.6823381530002377
0.049,1.7666540512960949,1.0,3102.863939936944,0.42400366769505915,1.315400884481182,0.9741517348482713,0.287252470154436,0.6827878892490055
0.0495,1.7662457374551561,1.0,3107.3583551014594,0.4272345521315398,1.3151781826320794,0.9745150677722804,0.28723532097311655,0.683235692578889
0.05,1.7658374236142176,1.0,3111.7646977052846,0.4304473207125235,1.3149562582313692,0.9748686302180813,0.28721817179179715,0.6836816179875481
0.0505,1.7654291097732788,1.0,3116.0857919695063,0.4336420718995259,1.314735085602278,0.9752127766932404,0.2872010226104777,0.6841257203154554
0.051000000000000004,1.7650207959323403,1.0,3120.3244743355585,0.4368189041540628,1.314514639068033,0.975547845579288,0.2871838734291583,0.6845680542471461
0.051500000000000004,1.7646124820914015,1.0,3124.483593043961,0.43997791593765007,1.3142948929518605,0.9758741600074758,0.28716672424783884,0.6850086743124315
0.052000000000000005,1.764204168250463,1.0,3128.5660077287566,0.44311920571180335,1.3140758215769877,0.9761920286795426,0.28714957506651945,0.6854476348875644
0.0525,1.7637958544095242,1.0,3132.5745890256217,0.44624287193803847,1.3138573992666414,0.9765017466373875,0.28713242588520005,0.6858849901963651
0.053,1.7633875405685855,1.0,3136.5122181952597,0.4493490130778712,1.3136396003440483,0.9768035959852536,0.2871152767038806,0.6863207943113064
0.0535,1.762979226727647,1.0,3140.3817867613766,0.4524377275928173,1.3134223991324352,0.9770978465677305,0.28709812752256114,0.6867551011545552
0.054,1.7625709128867082,1.0,3144.186196162823,0.45550911394439253,1.3132057699550292,0.9773847566066397,0.28708097834124174,0.687187964498971
0.0545,1.7621625990457697,1.0,3147.9283574207293,0.4585632705941127,1.312989687135057,0.9776645732996195,0.28706382915992235,0.6876194379690661
0.055,1.761754285204831,1.0,3151.6111908200946,0.4616002960034936,1.3127741249957454,0.9779375333830199,0.2870466799786029,0.6880495750419191
0.0555,1.7613459713638924,1.0,3155.2376256063376,0.46462028863405097,1.312559057860321,0.978203863661514,0.2870295307972835,0.6884784290480501
0.056,1.7609376575229536,1.0,3158.806132481503,0.46762330979931305,1.312344497797279,0.9784637802879107,0.28701238161596404,0.6889059779839466
0.0565,1.760529343682015,1.0,3162.322638461827,0.47060949108049616,1.3121303938956896,0.9787174932975975,0.28699523243464464,0.689332325275898
0.057,1.7601210298410763,1.0,3165.7906429014124,0.47357894123208866,1.3119167158600609,0.9789652032077408,0.2869780832533252,0.6897575330582719
0.0575,1.7597127160001378,1.0,3169.2114144092648,0.4765317493970144,1.3117034522894244,0.979207101735699,0.2869609340720058,0.6901816257361433
0.058,1.759304402159199,1.0,3172.586225676377,0.47946800471819734,1.3114905917828115,0.9794433729114196,0.28694378489068634,0.6906046276492153
0.0585,1.7588960883182603,1.0,3175.9163533729725,0.4823877963385612,1.3112781229392538,0.9796741934466711,0.28692663570936694,0.6910265630721135
0.059000000000000004,1.7584877744773217,1.0,3179.2030780474206,0.48529121340102993,1.3110660343577831,0.9798997330837207,0.2869094865280475,0.6914474562146763
0.059500000000000004,1.758079460636383,1.0,3182.4476840293837,0.48817834504852736,1.3108543146374307,0.9801201549247545,0.2868923373467281,0.6918673312222361
0.06,1.7576711467954445,1.0,3185.6514593345705,0.49104928042397733,1.3106429523772283,0.9803356157432471,0.2868751881654087,0.6922862121758899
0.0605,1.7572628329545057,1.0,3188.815695573149,0.4939041086703038,1.3104319361762073,0.9805462662783997,0.28685803898408924,0.6927041230927651
0.061,1.7568545191135672,1.0,3191.941687860973,0.4967429189304306,1.3102212546333996,0.9807522515136926,0.28684088980276984,0.6931210879262739
0.0615,1.7564462052726284,1.0,3195.0307347331914,0.4995658003472816,1.3100108963478363,0.9809537109405234,0.2868237406214504,0.693537130566362
0.062,1.7560378914316899,1.0,3198.084138061629,0.5023728420637805,1.3098008499185494,0.9811507788078371,0.286806591440131,0.6939522748397463
0.0625,1.7556295775907511,1.0,3201.1032029737667,0.5051641332228515,1.3095911039445702,0.9813435843585903,0.28678944225881153,0.6943665445101477
0.063,1.7552212637498124,1.0,3204.0892377762475,0.5079397629674182,1.3093816470249304,0.9815322520538418,0.28677229307749214,0.694779963278512
0.0635,1.7548129499088738,1.0,3207.0435538795077,0.5106998204404045,1.3091724677586614,0.9817169017851994,0.2867551438961727,0.6951925547832254
0.064,1.754404636067935,1.0,3209.967465726762,0.5134443947847342,1.308963554744795,0.9818976490763119,0.2867379947148533,0.6956043426003189
0.0645,1.7539963222269965,1.0,3212.8622907249737,0.5161735751433315,1.3087548965823625,0.9820746052740484,0.28672084553353383,0.696015350243669
0.065,1.7535880083860578,1.0,3215.7293491791365,0.5188874506591199,1.3085464818703958,0.9822478777299621,0.28670369635221443,0.6964256011651835
0.0655,1.7531796945451192,1.0,3218.568812883596,0.5215860878334114,1.3083383088453646,0.9824175689229879,0.28668654717089503,0.6968350998035094
0.066,1.7527713807041805,1.0,3221.3810444612677,0.5242695668360086,1.3081303741534667,0.9825837785583804,0.2866693979895756,0.697243853711877
0.0665,1.752363066863242,1.0,3224.168869448091,0.5269380156261817,1.3079226538518218,0.9827466049865432,0.2866522488082561,0.6976519108573058
0.067,1.7519547530223032,1.0,3226.9328316064057,0.5295915137569074,1.3077151431167173,0.9829061408770629,0.28663509962693673,0.6980592815582212
0.0675,1.7515464391813644,1.0,3229.6734759839555,0.5322301407811627,1.3075078371244397,0.9830624757088094,0.28661795044561733,0.6984659761066615
0.068,1.751138125340426,1.0,3232.391348891516,0.5348539762519244,1.3073007310512754,0.9832156959020976,0.2866008012642979,0.6988720047683409
0.0685,1.7507298114994871,1.0,3235.086997881684,0.5374630997221693,1.3070938200735114,0.9833658849444857,0.2865836520829784,0.6992773777827099
0.069,1.7503214976585486,1.0,3237.7609717273626,0.5400575907448744,1.306887099367434,0.9835131235105693,0.286566502901659,0.6996821053630189
0.0695,1.7499131838176099,1.0,3240.4138204011174,0.5426375288730163,1.3066805641093302,0.9836574895760842,0.28654935372033963,0.7000861976963744
