Time [s],Phi [rad],STIM [ ],Fsee [N],Gamma [ ],Lcerel [ ],q [ ],Lmtc [m],fisomrel [ ]
0.0,1.8,1.0,18.018765688257403,0.00022835558330927633,1.3793339685973265,0.005013558635634308,0.288653,0.5411535085082989
0.0005,1.79999375,1.0,18.399077795737625,0.00583628399791198,1.3792888215654742,0.013557818888206036,0.2886527375,0.5412627226896489
0.001,1.799975,1.0,21.902791153005932,0.011412756368004083,1.3789093487754591,0.03675548623252685,0.28865195,0.5421801830693798
0.0015,1.79994375,1.0,31.70408950991926,0.01695794913810148,1.37799238990146,0.07216573437749707,0.2886506375,0.544393345588593
0.002,1.7999,1.0,54.9143715102952,0.02247203776087321,1.3762822498993181,0.11656634976827425,0.2886488,0.5485065956974079
0.0025,1.79984375,1.0,99.32794422810024,0.02795519670594655,1.3738293190099773,0.1665833137930939,0.28864643749999996,0.5543738528333438
0.003,1.7997750000000001,1.0,163.81336416609133,0.03340759946578607,1.3711079407921192,0.21935092145075535,0.28864354999999997,0.5608383172226816
0.0035,1.79969375,1.0,240.8988195645015,0.0388294185568549,1.3684860214324677,0.27267114599682424,0.2886401375,0.5670218495180834
0.004,1.7996,1.0,324.88152786208036,0.04422082552986734,1.3660658874546434,0.32490801275272535,0.2886362,0.5726905804912128
0.0045000000000000005,1.7994937500000001,1.0,412.7996384863333,0.04958199097515088,1.363840085399185,0.3749251218629302,0.2886317375,0.5778711487777863
0.005,1.799375,1.0,503.0140402264271,0.054913084514483804,1.3617819686619033,0.42201592427830725,0.28862675,0.5826333136196353
0.0055,1.79924375,1.0,594.4202851437774,0.06021427483930217,1.3598680248192847,0.4658107944549102,0.2886212375,0.5870376425786565
0.006,1.7991000000000001,1.0,686.1492721124389,0.06548572967740562,1.358080497412833,0.5061843086045017,0.2886152,0.5911299661115371
0.006500000000000001,1.79894375,1.0,777.4879113557255,0.07072761580604221,1.3564057572430233,0.54317616756394,0.2886086375,0.5949455873852907
0.007,1.798775,1.0,867.8481313478269,0.0759400991419924,1.3548329112828692,0.5769301566687985,0.28860155,0.5985127712708019
0.0075,1.79859375,1.0,956.7396489015816,0.08112334446338103,1.3533530496546766,0.6076498906748379,0.2885939375,0.6018546629455984
0.008,1.7984,1.0,1043.7858095469292,0.08627751604370158,1.3519582269393242,0.6355678150422512,0.2885858,0.6049917298779566
0.0085,1.79819375,1.0,1128.6650992339262,0.09140277670492164,1.3506418407353384,0.6609252912632042,0.2885771375,0.607941006140732
0.009000000000000001,1.797975,1.0,1211.1314529802733,0.09649928855093025,1.3493979130424911,0.6839594278256904,0.28856795,0.6107177881427035
0.0095,1.79774375,1.0,1291.0279717735252,0.10156721331973999,1.3482206544598982,0.7048953050645728,0.2885582375,0.6133366575494903
0.01,1.7975,1.0,1368.2147015803928,0.10660671091627509,1.347105236545648,0.7239423672819817,0.288548,0.615809804727646
0.0105,1.79724375,1.0,1442.602066440618,0.1116179406912785,1.346047136699648,0.7412923083592996,0.2885372375,0.6181485305547676
0.011,1.796975,1.0,1514.1555605229032,0.11660106159693265,1.3450419592986749,0.7571187048191221,0.28852595000000003,0.6203636681228686
0.0115,1.79669375,1.0,1582.8549922940113,0.12155623138866647,1.3440858355704326,0.7715778038650128,0.2885141375,0.6224647249993533
0.012,1.7964,1.0,1648.6923432936046,0.12648360629769992,1.3431753311866566,0.7848095394294095,0.28850180000000003,0.6244601150029612
0.0125,1.79609375,1.0,1711.6932185148094,0.1313833420739214,1.3423071077200532,0.7969387005722777,0.2884889375,0.6263579209321808
0.013000000000000001,1.7957750000000001,1.0,1771.915798438658,0.1362555947563986,1.341477883683963,0.8080763386308891,0.28847555,0.6281659915648019
0.0135,1.79544375,1.0,1829.409761161599,0.14110051851752456,1.340684848081659,0.8183213313635731,0.2884616375,0.6298910532129365
0.014,1.7951000000000001,1.0,1884.2206108391756,0.14591826569386065,1.3399255443082618,0.8277616460929784,0.2884472,0.6315389806337115
0.0145,1.79474375,1.0,1936.41776783246,0.1507089886219681,1.3391975157588907,0.8364754353668858,0.2884322375,0.6331155781345572
0.015,1.794375,1.0,1986.0838196026364,0.15547283896167435,1.3384983982284742,0.8445322004292912,0.28841675,0.6346263851937415
0.0155,1.79399375,1.0,2033.3093647359385,0.16020996861221493,1.3378259483390038,0.8519938133676844,0.2884007375,0.6360766219032294
0.016,1.7936,1.0,2078.1713403497324,0.16492052740390467,1.3371782445183245,0.858915475635005,0.2883842,0.6374707634679242
0.0165,1.7931937500000001,1.0,2120.7398288709323,0.16960466330964818,1.3365535845597856,0.865346471271618,0.2883671375,0.6388127701529314
0.017,1.792775,1.0,2161.097270567276,0.17426252430235012,1.335950266256737,0.8713308022962212,0.28834955,0.6401065644197305
0.0175,1.7923437500000001,1.0,2199.335239408287,0.17889425811501836,1.335366609411801,0.876907818922402,0.2883314375,0.6413559862615832
0.018000000000000002,1.7919,1.0,2235.538675272535,0.18350001119030665,1.3348011034024503,0.8821128051318697,0.2883128,0.642564480741396
0.0185,1.79144375,1.0,2269.8060238525736,0.18807993134208273,1.3342521909211158,0.8869773968297942,0.2882936375,0.6437355639809756
0.019,1.790975,1.0,2302.2025359610443,0.1926341618686403,1.3337187241948436,0.891530114422537,0.28827395,0.6448718530668556
0.0195,1.79049375,1.0,2332.799806794621,0.19716284606827297,1.3331995554506795,0.8957966189097559,0.2882537375,0.645975944666676
0.02,1.79,1.0,2361.6752538193996,0.2016661272392744,1.3326935369156694,0.8998000364618798,0.288233,0.6470504161178001
0.0205,1.78949375,1.0,2388.909362112566,0.2061441482940073,1.3321995427920408,0.9035612476605885,0.2882117375,0.6480977798748695
0.021,1.788975,1.0,2414.576027591021,0.21059705075668858,1.331716557515176,0.907099155135849,0.28818995000000003,0.649120298055743
0.021500000000000002,1.78844375,1.0,2438.75928125114,0.21502497804199336,1.3312435080836749,0.9104308658403136,0.2881676375,0.6501203391339938
0.022,1.7879,1.0,2461.5168714591514,0.21942806847061636,1.3307796104871872,0.9135719526296117,0.2881448,0.6510996469577319
0.0225,1.78734375,1.0,2482.909573816008,0.22380646036325236,1.3303240807153625,0.9165365612227848,0.28812143749999997,0.6520599543990775
0.023,1.786775,1.0,2503.0009407598595,0.22816029204059612,1.3298761347578505,0.9193375607399609,0.28809755,0.6530029837921572
0.0235,1.78619375,1.0,2521.857064796608,0.23248970182334242,1.3294349886043009,0.9219866765834644,0.28807313749999996,0.653930447331901
0.024,1.7856,1.0,2539.5370148023067,0.23679482730286064,1.3289999462645872,0.9244946236293806,0.2880482,0.6548438627484017
0.0245,1.78499375,1.0,2556.1051121089104,0.24107580512778265,1.3285702810639692,0.926871186701185,0.2880227375,0.6557448035763529
0.025,1.784375,1.0,2571.611240273768,0.24533277008057275,1.3281454188480986,0.9291253450956554,0.28799675,0.6566345155899425
0.025500000000000002,1.78374375,1.0,2586.0995266080536,0.2495658564432764,1.3277248531664643,0.9312653374874641,0.2879702375,0.6575140963552917
0.026000000000000002,1.783105149840919,1.0,2599.8648034736652,0.2537751983275223,1.3273080803145016,0.9332987231021195,0.2879434162933186,0.6583846318904201
0.0265,1.7824664964713868,1.0,2613.282785942696,0.25796092935818454,1.3268948489243733,0.9352324866182116,0.28791659285179827,0.6592466764882372
0.027,1.7818278431018546,1.0,2626.3577634688118,0.26212318218847425,1.3264851158513093,0.9370730840783398,0.2878897694102779,0.6601003479832817
0.0275,1.7811891897323224,1.0,2639.096282815763,0.2662620877855273,1.3260787944837142,0.9388264528525496,0.28786294596875756,0.6609458539159683
0.028,1.7805505363627903,1.0,2651.505060054798,0.2703777771164794,1.3256757982099925,0.9404980669719781,0.28783612252723717,0.661783400702437
0.0285,1.779911882993258,1.0,2663.5883254969135,0.27447036363650745,1.3252760647893655,0.9420929759299832,0.28780929908571684,0.6626131430967617
0.029,1.779273229623726,1.0,2675.3578827681135,0.27854000100250415,1.3248794636719585,0.9436158524258896,0.28778247564419646,0.6634353765440708
0.029500000000000002,1.7786345762541937,1.0,2686.8226005263227,0.2825868218353558,1.3244858929589682,0.9450710153644243,0.2877556522026761,0.6642503356843783
0.03,1.7779959228846616,1.0,2697.990071253325,0.2866109499300367,1.3240952638590031,0.9464624637816611,0.2877288287611558,0.6650582268627652
0.0305,1.7773572695151294,1.0,2708.868026644045,0.29061250908152136,1.3237074875806716,0.9477939060362609,0.2877020053196354,0.6658592553705656
0.031,1.776718616145597,1.0,2719.4643319032075,0.294591623084784,1.3233224753325823,0.9490687845985386,0.2876751818781151,0.6666536254617721
0.0315,1.7760799627760648,1.0,2729.7869802161963,0.29854841573479896,1.3229401383233435,0.9502902984356733,0.28764835843659475,0.6674415403689407
0.032,1.7754413094065327,1.0,2739.8440873951427,0.30248301082654067,1.322560387761564,0.9514614232520975,0.28762153499507437,0.668223202318589
0.0325,1.7748026560370005,1.0,2749.643886700073,0.3063955321549834,1.3221831348558517,0.9525849298136515,0.287594711553554,0.6689988125460973
0.033,1.7741640026674683,1.0,2759.194723834294,0.3102861035151015,1.3218082908148157,0.9536634005574592,0.28756788811203365,0.6697685713100989
0.0335,1.7735253492979361,1.0,2768.5050521146145,0.31415484870186927,1.3214357668470642,0.9546992446662227,0.2875410646705133,0.6705326779063769
0.034,1.772886695928404,1.0,2777.583427816787,0.3180018915102612,1.3210654741612058,0.9556947117652239,0.28751424122899294,0.6712913306812504
0.0345,1.7722480425588718,1.0,2786.43850569572,0.3218273557352515,1.3206973239658488,0.9566519043824623,0.2874874177874726,0.6720447270444625
0.035,1.7716093891893396,1.0,2795.0790346797885,0.3256313651718146,1.320331227469602,0.9575727892966479,0.2874605943459523,0.6727930634815629
0.035500000000000004,1.7709707358198075,1.0,2803.497703840397,0.3294139926764843,1.3199672407270706,0.9584592108830396,0.2874337709044319,0.6735362399920435
0.036000000000000004,1.7703320824502753,1.0,2811.7237077573095,0.33317542514119625,1.31960509278237,0.9593128907025159,0.28740694746291157,0.674274823557311
0.0365,1.7696934290807431,1.0,2819.762841204497,0.33691577804426787,1.3192447237492604,0.9601354478348286,0.28738012402139124,0.6750089488464873
0.037,1.769054775711211,1.0,2827.620121201333,0.3406351642791468,1.3188860812207608,0.9609284021156212,0.28735330057987085,0.6757387347055688
0.0375,1.7684161223416788,1.0,2835.30061763733,0.3443336967392805,1.3185291127898908,0.9616931811924865,0.2873264771383505,0.6764642994428731
0.038,1.7677774689721466,1.0,2842.8094512961193,0.34801148831811646,1.3181737660496695,0.9624311271418261,0.28729965369683014,0.6771857608347264
0.0385,1.7671388156026144,1.0,2850.1517919410944,0.35166865190910224,1.3178199885931163,0.963143502540982,0.2872728302553098,0.6779032361309676
0.039,1.7665001622330823,1.0,2857.3328564610806,0.3553053004056853,1.3174677280132505,0.9638314960459352,0.2872460068137894,0.6786168420602832
0.0395,1.7658615088635499,1.0,2864.357907077969,0.3589215467013133,1.3171169319030913,0.9644962275197426,0.2872191833722691,0.679326694835364
0.04,1.7652228554940177,1.0,2871.2322496140355,0.3625175036894337,1.316767547855658,0.9651387527523364,0.28719235993074876,0.6800329101578872
0.0405,1.7645842021244855,1.0,2877.961231821095,0.36609328426349397,1.3164195234639697,0.9657600678082557,0.2871655364892284,0.6807356032233237
0.041,1.7639455487549534,1.0,2884.550241770284,0.3696490013169417,1.316072806321046,0.9663611130352603,0.28713871304770805,0.6814348887255692
0.0415,1.7633068953854212,1.0,2891.0047063023594,0.3731847677432244,1.315727344019906,0.9669427767635622,0.2871118896061877,0.6821308808614028
0.042,1.762668242015889,1.0,2897.330089539301,0.3767006964357896,1.315383084153569,0.9675058987225198,0.28708506616466734,0.6828236933347667
0.0425,1.7620295886463568,1.0,2903.5318914571117,0.3801969002880848,1.315039974315054,0.9680512731990734,0.28705824272314695,0.683513439360874
0.043000000000000003,1.7613909352768247,1.0,2909.615646518462,0.38367349219355756,1.3146979620973809,0.9685796519598837,0.2870314192816266,0.6842002316701385
0.043500000000000004,1.7607522819072925,1.0,2915.586922367312,0.3871305850456554,1.3143569950935683,0.9690917469570777,0.2870045958401063,0.6848841825119333
0.044,1.7601136285377603,1.0,2921.4513185837136,0.39056829173782576,1.314017020896636,0.9695882328356457,0.2869777723985859,0.6855654036581686
0.0445,1.7594749751682282,1.0,2927.2086867433018,0.3939867002461403,1.3136780378214123,0.9700697495150012,0.2869509489570656,0.6862439049378464
0.045,1.758836321798696,1.0,2932.866966536432,0.39738594298927177,1.3133399733234332,0.9705369051863019,0.28692412551554525,0.6869198377476727
0.0455,1.7581976684291638,1.0,2938.430373126721,0.4007661304191317,1.313002787818641,0.9709902764361018,0.28689730207402486,0.6875932870464248
0.046,1.7575590150596316,1.0,2943.901606866001,0.4041273654449153,1.3126664551773568,0.9714304108349483,0.28687047863250453,0.6882643106085011
0.0465,1.7569203616900995,1.0,2949.2833841463,0.4074697509758177,1.3123309492699022,0.9718578287471348,0.2868436551909842,0.6889329659699036
0.047,1.756281708320567,1.0,2954.578436913687,0.4107933899210342,1.311996243966598,0.9722730249409921,0.2868168317494638,0.68959931042964
0.0475,1.755643054951035,1.0,2959.789512196823,0.4140983851897599,1.3116623131377654,0.9726764700891898,0.28679000830794343,0.6902634010510762
0.048,1.7550044015815027,1.0,2964.919371650676,0.41738483969119006,1.3113291306537258,0.97306861216752,0.2867631848664231,0.6909252946632505
0.0485,1.7543657482119706,1.0,2969.9707911154105,0.4206528563345199,1.3109966703848002,0.973449877759923,0.2867363614249028,0.6915850478621428
0.049,1.7537270948424384,1.0,2974.9465601902084,0.4239025380289445,1.3106649062013098,0.9738206732768467,0.2867095379833824,0.6922427170118985
0.0495,1.7530884414729062,1.0,2979.8494818230165,0.4271339876836592,1.3103338119735761,0.9741813860934414,0.28668271454186206,0.6928983582460111
0.05,1.752449788103374,1.0,2984.6823719141994,0.4303473082078591,1.31000336157192,0.9745323856135494,0.28665589110034173,0.6935520274684612
0.0505,1.7518111347338419,1.0,2989.448058936251,0.43354260251073945,1.3096735288666626,0.9748740242649527,0.28662906765882135,0.6942037803548098
0.051000000000000004,1.7511724813643097,1.0,2994.149383568549,0.43671997350149544,1.3093442877281252,0.9752066384309038,0.286602244217301,0.6948536723532491
0.051500000000000004,1.7505338279947775,1.0,2998.789198346826,0.4398795240893223,1.309015612026629,0.9755305493225441,0.2865754207757807,0.695501758685612
0.052000000000000005,1.7498951746252454,1.0,3003.36757383928,0.44302133239635894,1.3086874998388804,0.9758460626909181,0.2865485973342603,0.6961480466939451
0.0525,1.7492565212557132,1.0,3007.8878156785945,0.44614551117411533,1.3083599212540702,0.9761534726894296,0.2865217738927399,0.6967925987378305
0.053,1.748617867886181,1.0,3012.3545493509537,0.4492521844577077,1.3080328350484296,0.9764530609855244,0.2864949504512196,0.6974354991454942
0.0535,1.7479792145166488,1.0,3016.769105585074,0.45234144568781676,1.3077062286216887,0.9767450956061339,0.28646812700969926,0.6980767757251819
0.054,1.7473405611471167,1.0,3021.1328209347016,0.45541338830512323,1.3073800893735774,0.9770298330538286,0.2864413035681789,0.6987164561756747
0.0545,1.7467019077775845,1.0,3025.4470376465088,0.4584681057503079,1.3070544047038257,0.9773075188995064,0.28641448012665854,0.6993545680866684
0.055,1.7460632544080523,1.0,3029.713103530962,0.4615056914640514,1.3067291620121637,0.9775783883397915,0.2863876566851382,0.6999911389391449
0.0555,1.74542460103852,1.0,3033.9323718372243,0.46452623888703454,1.306404348698321,0.9778426667215245,0.28636083324361783,0.7006261961057325
0.056,1.7447859476689878,1.0,3038.1062011316503,0.46752984145993803,1.306079952162028,0.9781005700355426,0.2863340098020975,0.7012597668510542
0.0565,1.7441472942994556,1.0,3042.23595517921,0.47051659262344264,1.3057559598030146,0.9783523053817862,0.2863071863605771,0.7018918783320705
0.057,1.7435086409299234,1.0,3046.3230028293024,0.4734865858182291,1.3054323590210104,0.9785980714076173,0.2862803629190568,0.7025225575984075
0.0575,1.7428699875603912,1.0,3050.368717903939,0.4764399144849782,1.305109137215746,0.9788380587211006,0.2862535394775364,0.7031518315926757
0.058,1.742231334190859,1.0,3054.3744790908777,0.47937667206437057,1.3047862817869507,0.9790724502808632,0.28622671603601607,0.7037797271507829
0.0585,1.741592680821327,1.0,3058.3416698389155,0.48229695199708705,1.3044637801343548,0.9793014217640417,0.28619989259449574,0.7044062710022297
0.059000000000000004,1.7409540274517947,1.0,3062.271678257472,0.48520084772380834,1.3041416196576885,0.9795251419137098,0.28617306915297536,0.7050314897704016
0.059500000000000004,1.7403153740822626,1.0,3066.1658970197213,0.48808845268521517,1.3038197877566813,0.9797437728670834,0.286146245711455,0.705655409972848
0.06,1.7396767207127304,1.0,3070.025723268729,0.49095986032198824,1.3034982718310635,0.9799574704657131,0.2861194222699347,0.7062780580215494
0.0605,1.7390380673431982,1.0,3073.852558527486,0.49381516407480835,1.303177059280565,0.9801663845487795,0.2860925988284143,0.7068994602231786
0.061,1.738399413973666,1.0,3077.6476442268263,0.4966544543658614,1.302856138912073,0.9803706590700481,0.286065775386894,0.7075196400614514
0.0615,1.7377607606041339,1.0,3081.41008265038,0.49947778808874377,1.3025355178651423,0.9805704309201795,0.28603895194537365,0.7081385855550706
0.062,1.7371221072346017,1.0,3085.1432807871993,0.5022853039768597,1.30221516646306,0.9807658361704222,0.28601212850385327,0.7087563557388552
0.0625,1.7364834538650695,1.0,3088.8478730494962,0.5050770862683147,1.3018950787957775,0.9809570029086621,0.2859853050623329,0.7093729636444238
0.063,1.7358448004955371,1.0,3092.5244959785937,0.5078532192012146,1.3015752489532473,0.9811440544972271,0.28595848162081255,0.7099884222537849
0.0635,1.735206147126005,1.0,3096.1737882108896,0.510613787013665,1.3012556710254215,0.9813271097823161,0.2859316581792922,0.7106027444994356
0.064,1.7345674937564728,1.0,3099.796390444393,0.5133588739437714,1.3009363391022521,0.9815062832926578,0.28590483473777184,0.7112159432644589
0.0645,1.7339288403869406,1.0,3103.39294540631,0.5160885642296397,1.3006172472736917,0.9816816854280228,0.2858780112962515,0.7118280313826152
0.065,1.7332901870174084,1.0,3106.96409782102,0.5188029421093753,1.3002983896296916,0.9818534226381818,0.2858511878547312,0.7124390216384373
0.0655,1.7326515336478763,1.0,3110.5104943789006,0.5215020918210839,1.2999797602602046,0.982021597592856,0.2858243644132108,0.7130489267673157
0.066,1.732012880278344,1.0,3114.0327837063405,0.5241860976028712,1.2996613532551826,0.9821863093431787,0.28579754097169047,0.7136577594555888
0.0665,1.731374226908812,1.0,3117.5316163359353,0.5268550436928428,1.2993431627045777,0.9823476534751444,0.2857707175301701,0.7142655323406273
0.067,1.7307355735392798,1.0,3121.0076446779485,0.5295090143291044,1.2990251826983423,0.9825057222555019,0.28574389408864975,0.7148722580109153
0.0675,1.7300969201697476,1.0,3124.4615229920896,0.5321480937497616,1.2987074073264282,0.9826606047705113,0.28571707064712937,0.7154779490061329
0.068,1.7294582668002154,1.0,3127.8939073606275,0.53477236619292,1.2983898306787875,0.9828123870579635,0.28569024720560904,0.7160826178172337
0.0685,1.7288196134306832,1.0,3131.3054556616157,0.5373819158966853,1.2980724468453726,0.9829611522328293,0.2856634237640887,0.7166862768865196
0.069,1.728180960061151,1.0,3134.69682754348,0.5399768270991632,1.2977552499161353,0.9831069806068962,0.2856366003225683,0.7172889386077161
0.0695,1.727542306691619,1.0,3138.068684400077,0.5425571840384591,1.2974382339810282,0.9832499498027092,0.285609776881048,0.7178906153260431
0.07,1.7269036533220867,1.0,3141.4216893466546,0.545123070952679,1.297121393130003,0.9833901348621324,0.28558295343952766,0.7184913193382851
0.07050000000000001,1.7262649999525546,1.0,3144.7553809695646,0.5476745291102884,1.2968047309901864,0.9835276062330497,0.2855561299980073,0.7190910448400608
