Time [s],Phi [rad],STIM [ ],Fsee [N],Gamma [ ],Lcerel [ ],q [ ],Lmtc [m],fisomrel [ ]
0.0,1.8,1.0,18.816205993807248,0.000939819094444333,1.3792457224333197,0.005227008435452083,0.288653,0.5413669707143797
0.0005,1.79999375,1.0,19.40173455323254,0.006543756761355265,1.3791792892424042,0.015722043991562216,0.2886527375,0.5415276358725294
0.001,1.799975,1.0,23.43448994918766,0.012116260769274271,1.3787565534737816,0.0406169396996598,0.28865195,0.542549340563337
0.0015,1.79994375,1.0,34.454167551124726,0.01765750743515797,1.3777652731172196,0.07734974352744108,0.2886506375,0.5449406837585219
0.002,1.7999,1.0,60.04197765407626,0.023167672089127574,1.3759609884288784,0.12264046099717014,0.2886488,0.5492772167716224
0.0025,1.79984375,1.0,107.27596319503711,0.028646929075935804,1.3734578929336945,0.1731498879307758,0.28864643749999996,0.5552589356043534
0.003,1.7997750000000001,1.0,173.73840378349334,0.03409545176366205,1.370745103949075,0.2260980574595542,0.28864354999999997,0.5616966450822372
0.0035,1.79969375,1.0,251.88687857262872,0.03951341254684677,1.3681535752827307,0.27936267357217326,0.2886401375,0.5678027583116796
0.004,1.7996,1.0,336.44064639392167,0.04490098285235517,1.3657640055109304,0.33137354254620827,0.2886362,0.5733950646447707
0.0045000000000000005,1.7994937500000001,1.0,424.6823458224244,0.0502583331550554,1.3635643192404294,0.38105308880263095,0.2886317375,0.5785107964771783
0.005,1.799375,1.0,515.0721714609275,0.05558563295019346,1.3615281650957998,0.42774269996195813,0.28862675,0.5832187048547963
0.0055,1.79924375,1.0,606.539630092294,0.06088305081061565,1.3596331573894893,0.47110864882945663,0.2886212375,0.5875765054402642
0.006,1.7991000000000001,1.0,698.2374730470273,0.06615075434810168,1.3578623050882368,0.5110504143963324,0.2886152,0.5916280950157325
0.006500000000000001,1.79894375,1.0,789.4667239408409,0.07138891020095856,1.3562025257035244,0.5476239079272003,0.2886086375,0.5954074001353
0.007,1.798775,1.0,879.6585857054081,0.07659768421354225,1.354643169911874,0.5809825657771353,0.28860155,0.598942034549929
0.0075,1.79859375,1.0,968.3319566032925,0.08177724105324466,1.3531756099521743,0.6113351768516183,0.2885939375,0.6022544277261148
0.008,1.7984,1.0,1055.1122813477627,0.08692774471304693,1.3517921906845365,0.6389163182881856,0.2885858,0.6053643321855062
0.0085,1.79819375,1.0,1139.6984086163695,0.09204935809818193,1.3504862609633907,0.6639673141351289,0.2885771375,0.608288842078769
0.009000000000000001,1.797975,1.0,1221.8591641663777,0.0971422432953227,1.3492518500187098,0.686724078947105,0.28856795,0.6110431927886117
0.0095,1.79774375,1.0,1301.417753197452,0.10220656132991622,1.3480836121019248,0.7074100637072414,0.2885582375,0.6136409406443774
0.01,1.7975,1.0,1378.2645644413,0.10724247282253714,1.346976448641446,0.7262323628829032,0.288548,0.6160948472199299
0.0105,1.79724375,1.0,1452.305385503772,0.1122501366155963,1.345926019462412,0.7433804638821113,0.2885372375,0.6184157814377899
0.011,1.796975,1.0,1523.4931054626568,0.11722971096454884,1.3449281790646062,0.7590257936322135,0.28852595000000003,0.6206140028290019
0.0115,1.79669375,1.0,1591.837943993366,0.12218135450937205,1.3439787647791575,0.7733223054230077,0.2885141375,0.622699647260858
0.012,1.7964,1.0,1657.3372148851843,0.12710522347346553,1.3430743575663355,0.7864079540718082,0.28850180000000003,0.6246810751927492
0.0125,1.79609375,1.0,1720.0007281135172,0.13200147297738699,1.3422118677453314,0.7984058225902713,0.2884889375,0.6265658085913641
0.013000000000000001,1.7957750000000001,1.0,1779.8738568063904,0.13687025814169412,1.341388205635336,0.809425396181418,0.28847555,0.6283612661131557
0.0135,1.79544375,1.0,1837.0159263739,0.14171173306500687,1.3406004860713063,0.8195640474039698,0.2884616375,0.6300743268111921
0.014,1.7951000000000001,1.0,1891.5074393263467,0.1465260520574806,1.339845902562292,0.8289083083518036,0.2884472,0.6317116151518531
0.0145,1.79474375,1.0,1943.4007596537383,0.15131336640757598,1.3391222255713682,0.8375352654042445,0.2884322375,0.6332784315163331
0.015,1.794375,1.0,1992.7655421401953,0.15607382721922647,1.338427258497624,0.8455134554962243,0.28841675,0.6347799448526225
0.0155,1.79399375,1.0,2039.6859912397392,0.16080758524417824,1.3377588461741796,0.8529038708660772,0.2884007375,0.6362211793083128
0.016,1.7936,1.0,2084.252561012115,0.16551479077763523,1.3371149421292523,0.8597608711874285,0.2883842,0.6376068743405321
0.0165,1.7931937500000001,1.0,2126.5561468926835,0.17019559370410622,1.3364936476484357,0.8661329796261628,0.2883671375,0.6389414065441659
0.017,1.792775,1.0,2166.6646187860993,0.1748501408372633,1.3358934308238084,0.8720636321189721,0.28834955,0.6402283263055212
0.0175,1.7923437500000001,1.0,2204.6563683988147,0.17947857899077851,1.3353127597474492,0.8775916724569311,0.2883314375,0.6414711516280274
0.018000000000000002,1.7919,1.0,2240.6194276217684,0.184081054978324,1.3347501025114366,0.882751891791975,0.2883128,0.642673370116654
0.0185,1.79144375,1.0,2274.634479102081,0.18865771390548458,1.3342040881122434,0.8875755416097352,0.2882936375,0.6438380978605351
0.019,1.790975,1.0,2306.801448952216,0.1932087030997902,1.333673230199253,0.8920906750822277,0.28827395,0.6449686717104472
0.0195,1.79049375,1.0,2337.1894291400295,0.19773416540476582,1.3331564162948775,0.8963226276168339,0.2882537375,0.6460676093161808
0.02,1.79,1.0,2365.8669274208564,0.202234242924675,1.3326525946219265,0.9002942500735185,0.288233,0.6471372809033809
0.0205,1.78949375,1.0,2392.9074709211714,0.20670907776378147,1.3321607134032092,0.9040261733961809,0.2882117375,0.6481800397687217
0.021,1.788975,1.0,2418.389183787476,0.21115881202634887,1.3316797208615354,0.9075370545359629,0.28818995000000003,0.649198223116116
0.021500000000000002,1.78844375,1.0,2442.3804574278633,0.21558358573243935,1.331208699092261,0.9108438194452874,0.2881676375,0.6501938700434062
0.022,1.7879,1.0,2464.965619679137,0.21998354189608751,1.3307466118943945,0.9139618004801316,0.2881448,0.6511692561236568
0.0225,1.78734375,1.0,2486.204357206271,0.2243588188166366,1.3302926908255968,0.9169049793269848,0.28812143749999997,0.6521260790407741
0.023,1.786775,1.0,2506.1516931176525,0.22870955356036665,1.3298462372812496,0.9196860909878133,0.28809755,0.6530658793093163
0.0235,1.78619375,1.0,2524.865010578736,0.23303588319355756,1.3294065526567356,0.9223167404343142,0.28807313749999996,0.6539901883507823
0.024,1.7856,1.0,2542.403855118741,0.23733794478248937,1.3289729383474365,0.92480751848345,0.2880482,0.6549005288107582
0.0245,1.78499375,1.0,2558.828543596484,0.24161587509532179,1.3285447070532341,0.9271681062361555,0.2880227375,0.6557983911584968
0.025,1.784375,1.0,2574.190372794423,0.24586980823163274,1.3281212726072777,0.9294073800542161,0.28799675,0.6566850461179226
0.025500000000000002,1.78374375,1.0,2588.559699427794,0.2500998831931083,1.3277018849577076,0.9315334496190651,0.2879702375,0.6575621001121346
0.026000000000000002,1.7831000000000001,1.0,2601.9776642792785,0.2543062316927702,1.3272860804889877,0.9335538007918861,0.2879432,0.6584305533104461
0.0265,1.78244375,1.0,2614.486508308808,0.2584889854436403,1.3268733955855823,0.9354753118841562,0.2879156375,0.6592914006962738
0.027,1.781775,1.0,2626.129480178288,0.26264827615874037,1.3264633666319556,0.9373043111046333,0.28788755,0.6601456321662287
0.0275,1.7810937500000001,1.0,2636.9507485406743,0.2667842355510922,1.3260555300125716,0.9390466278755882,0.2878589375,0.6609942326155007
0.028,1.7804,1.0,2646.995319095346,0.2708969953337176,1.3256494221118946,0.9407076387387491,0.2878298,0.6618381820095315
0.0285,1.77969375,1.0,2656.299065139346,0.2749866827212401,1.3252446704526055,0.942292319776267,0.2878001375,0.662678266397245
0.029,1.778975,1.0,2664.911724957205,0.27905343330205556,1.3248407807275264,0.9438052573360791,0.28776995,0.6635155203326886
0.029500000000000002,1.7782437500000001,1.0,2672.868317912081,0.28309737566715226,1.3244373997444656,0.9452507130110259,0.2877392375,0.6643506812724803
0.03,1.7775,1.0,2680.198501057631,0.2871186355454013,1.3240342280017967,0.9466326414426055,0.287708,0.6651843720767845
0.0305,1.77674375,1.0,2686.9323461128115,0.2911173386656741,1.3236309659978927,0.9479547106263114,0.2876762375,0.6660172125231851
0.031,1.775975,1.0,2693.100301580082,0.2950936107568418,1.3232273142311266,0.9492203262903289,0.28764395,0.6668498193078206
0.0315,1.7751937500000001,1.0,2698.733156853262,0.2990475775477758,1.3228229731998717,0.9504326539149306,0.2876111375,0.6676828060408
0.032,1.7744,1.0,2703.862008313843,0.30297936476734716,1.3224176434025017,0.9515946386463809,0.2875778,0.6685167832358969
0.0325,1.77359375,1.0,2708.518227416569,0.30688909814442733,1.322011025337389,0.9527090233293684,0.2875439375,0.6693523582945264
0.033,1.772775,1.0,2712.7259721027726,0.3107769014547347,1.3216028875085484,0.9537783722290138,0.28750955,0.6701899960017985
0.0335,1.7719437500000002,1.0,2716.5126623066963,0.31464289852219646,1.321192970487917,0.9548050747355912,0.2874746375,0.6710302159092731
0.034,1.7711000000000001,1.0,2719.90028423956,0.31848721063794494,1.320781065995093,0.9557913673853133,0.2874392,0.6718734301627929
0.0345,1.7702437500000001,1.0,2722.9096809232465,0.3223099587188042,1.3203669775135611,0.9567393419260182,0.2874032375,0.6727200246136015
0.035,1.7693750000000001,1.0,2725.5618259084185,0.3261112636815983,1.3199505085268064,0.9576509552671074,0.28736675,0.673570382951014
0.035500000000000004,1.76849375,1.0,2727.875947876809,0.3298912454625284,1.3195314794368185,0.9585280412760443,0.2873297375,0.674424852196805
0.036000000000000004,1.7676001401620147,1.0,2729.8803244607802,0.33365002355211665,1.3191096926017145,0.9593723165188678,0.2872922058868046,0.6752838140549722
0.0365,1.7667020120729016,1.0,2731.9659934540255,0.33738772101800724,1.318685133364959,0.9601854102772733,0.28725448450706187,0.6761472760591783
0.037,1.7658038839837886,1.0,2734.3346129771917,0.34110445404450995,1.3182580116563312,0.9609688723703058,0.28721676312731914,0.6770147895936179
0.0375,1.7649057558946755,1.0,2736.963422595009,0.3448003388159343,1.317828537405611,0.9617241581793889,0.28717904174757636,0.6778859081970988
0.038,1.7640076278055623,1.0,2739.8296565352784,0.3484754915165899,1.317396920542578,0.962452635452681,0.28714132036783363,0.6787601875959454
0.0385,1.7631094997164491,1.0,2742.9105332269246,0.35213002833078644,1.3169633709970117,0.9631555905482156,0.28710359898809085,0.6796371857340904
0.039,1.762211371627336,1.0,2746.1832458164695,0.35576406544283345,1.316528098698692,0.963834234167674,0.2870658776083481,0.6805164628003542
0.0395,1.7613132435382228,1.0,2749.6258874430814,0.3593777184875548,1.3160913051207876,0.9644897057545848,0.28702815622860534,0.6813975983005011
0.04,1.76041511544911,1.0,2753.222969484133,0.3629711005216484,1.315653133297055,0.9651230735834939,0.2869904348488626,0.6822802915808408
0.0405,1.7595169873599967,1.0,2756.9521193731434,0.3665443297222228,1.3152137882703219,0.9657353516841719,0.2869527134691199,0.6831641188911757
0.041,1.7586188592708836,1.0,2760.8023718927775,0.3700975171099895,1.3147733715230396,0.9663274868988416,0.2869149920893771,0.6840488666454672
0.0415,1.7577207311817704,1.0,2764.7627386409395,0.3736307737056603,1.314331984537659,0.9669003735927089,0.28687727070963437,0.684934322374416
0.042,1.7568226030926573,1.0,2768.8222057332905,0.3771442105299466,1.3138897287966311,0.9674548571073842,0.2868395493298916,0.6858202747320707
0.0425,1.7559244750035443,1.0,2772.969731734791,0.38063793860356016,1.3134467057824064,0.9679917369531325,0.28680182795014886,0.686706513501778
0.043000000000000003,1.7550263469144312,1.0,2777.1942458185213,0.3841120689472125,1.313003016977436,0.9685117697621495,0.2867641065704061,0.687592829601476
0.043500000000000004,1.754128218825318,1.0,2781.484899824693,0.3875667122439554,1.3125587615800507,0.969015671788505,0.28672638519066335,0.6884790196414063
0.044,1.7532300907362048,1.0,2785.8395652610607,0.3910019687526406,1.3121139600513008,0.969504113929575,0.2866886638109206,0.6893650380774714
0.0445,1.7523319626470917,1.0,2790.2383646928374,0.3944179643372612,1.3116687923719086,0.9699777484777057,0.28665094243117784,0.6902505225173347
0.045,1.7514338345579785,1.0,2794.6770865378753,0.39781480381660345,1.3112232972400226,0.9704371802516858,0.2866132210514351,0.6911353930326802
0.0455,1.7505357064688656,1.0,2799.15150629673,0.4011925920094538,1.3107775133537913,0.9708829833757436,0.2865754996716924,0.6920195701327616
0.046,1.7496375783797524,1.0,2803.657386288575,0.40455143373459873,1.3103314794113634,0.9713157031349594,0.2865377782919496,0.6929029747651612
0.0465,1.7487394502906393,1.0,2808.1904754200173,0.40789143381082466,1.3098852341108869,0.9717358577013964,0.2865000569122068,0.6937855283164568
0.047,1.747841322201526,1.0,2812.7465089872226,0.411212697056918,1.3094388161505106,0.9721439397411122,0.2864623355324641,0.6946671526127886
0.0475,1.746943194112413,1.0,2817.3212085108685,0.4145153282916651,1.3089922642283827,0.9725404179113131,0.28642461415272136,0.695547769920336
0.048,1.7460450660232998,1.0,2821.9102816048394,0.41779943233385247,1.3085456170426517,0.9729257382561299,0.2863868927729786,0.696427302945693
0.0485,1.7451469379341868,1.0,2826.509421877988,0.42106511400226654,1.3080989132914662,0.97330032550876,0.28634917139323585,0.697305674836153
0.049,1.7442488098450737,1.0,2831.1143088688036,0.4243124781156937,1.3076521916729746,0.9736645843070638,0.2863114500134931,0.6981828091798956
0.0495,1.7433506817559605,1.0,2835.7230440380904,0.4275416200507263,1.3072054691614525,0.9740188977487138,0.28627372863375034,0.6990586725678949
0.05,1.7424525536668474,1.0,2840.333167688246,0.4307526434906104,1.3067587676762418,0.9743636324866729,0.2862360072540076,0.6999332221101835
0.0505,1.7415544255777342,1.0,2844.9385693100517,0.4339456672374269,1.3063121415698282,0.9746991421744943,0.2861982858742648,0.7008063518077344
0.051000000000000004,1.740656297488621,1.0,2849.5382571059763,0.43712078847324815,1.3058655994823904,0.9750257589317872,0.2861605644945221,0.7016780454505036
0.051500000000000004,1.7397581693995081,1.0,2854.1312361853875,0.4402781043801464,1.3054191500541066,0.9753437999319546,0.2861228431147793,0.7025482869267448
0.052000000000000005,1.738860041310395,1.0,2858.7165085819142,0.4434177121401941,1.3049728019251554,0.9756535682063021,0.2860851217350366,0.703417060222959
0.0525,1.7379619132212818,1.0,2863.2930732716904,0.4465397089354634,1.3045265637357153,0.9759553533981251,0.28604740035529386,0.7042843494238435
0.053,1.7370637851321686,1.0,2867.8599261936843,0.4496441919480267,1.3040804441259646,0.9762494324702851,0.2860096789755511,0.7051501387122325
0.0535,1.7361656570430555,1.0,2872.4160602718257,0.4527312583599563,1.3036344517360816,0.9765360703695238,0.28597195759580835,0.7060144123690342
0.054,1.7352675289539425,1.0,2876.960465438111,0.45580100535332446,1.303188595206245,0.9768155206505079,0.2859342362160656,0.7068771547731625
0.0545,1.7343694008648294,1.0,2881.4921286581375,0.4588535301102035,1.3027428831766332,0.9770880260623671,0.28589651483632283,0.7077383504014649
0.055,1.7334712727757162,1.0,2886.0100339578566,0.46188892981266577,1.3022973242874247,0.9773538191002754,0.28585879345658005,0.7085979838286467
0.0555,1.732573144686603,1.0,2890.5131624522523,0.4649073016427835,1.3018519271787978,0.9776131225244366,0.2858210720768373,0.7094560397271867
0.056,1.73167501659749,1.0,2895.0004923749984,0.46790874278262906,1.301406700490931,0.9778661498486527,0.2857833506970946,0.7103125028672518
0.0565,1.7307768885083767,1.0,2899.4709991108166,0.4708933504142747,1.300961652864003,0.9781131058004974,0.2857456293173518,0.7111673581166054
0.057,1.7298787604192638,1.0,2903.925478463149,0.4738611915613576,1.3005167768711021,0.978354183158175,0.2857079079376091,0.7120206212340696
0.0575,1.7289806323301506,1.0,2908.3624598947254,0.4768123905667956,1.3000720850665466,0.9785895731134507,0.28567018655786636,0.7128722696550231
0.058,1.7280825042410375,1.0,2912.7811786199454,0.47974705164721504,1.2996275837583502,0.9788194570447826,0.2856324651781236,0.713722292892643
0.0585,1.7271843761519243,1.0,2917.1816617506056,0.4826652632721086,1.2991832722748216,0.9790440073831398,0.2855947437983808,0.7145706938486288
0.059000000000000004,1.7262862480628112,1.0,2921.563936869312,0.48556711391096913,1.2987391499442702,0.9792633897772419,0.28555702241863806,0.7154174754163739
0.059500000000000004,1.725388119973698,1.0,2925.9280320264475,0.48845269203328934,1.298295216095005,0.9794777634136902,0.28551930103889533,0.7162626404809767
0.06,1.724489991884585,1.0,2930.27397573781,0.49132208610856204,1.2978514700553347,0.9796872813195799,0.28548157965915255,0.7171061919192476
0.0605,1.723591863795472,1.0,2934.6017969814284,0.49417538460627997,1.297407911153569,0.979892090648676,0.2854438582794098,0.7179481325997156
0.061,1.7226937357063588,1.0,2938.9115251949806,0.49701267599593596,1.2969645387180166,0.9800923329521692,0.2854061368996671,0.7187884653826391
0.0615,1.7217956076172456,1.0,2943.2031902728036,0.4998340487470227,1.296521352076987,0.9802881444349504,0.2853684155199243,0.7196271931200113
0.062,1.7208974795281324,1.0,2947.4768225634302,0.502639591329033,1.2960783505587885,0.9804796561982875,0.28533069414018153,0.7204643186555713
0.0625,1.7199993514390193,1.0,2951.7324528666577,0.5054293922114597,1.2956355334917309,0.9806669944697176,0.2852929727604388,0.7212998448248076
0.063,1.7191012233499063,1.0,2955.970112430689,0.5082035398637954,1.295192900204123,0.9808502808209246,0.2852552513806961,0.7221337744549705
0.0635,1.7182030952607932,1.0,2960.189832949431,0.5109621227555331,1.294750450024274,0.9810296323743103,0.2852175300009533,0.7229661103650766
0.064,1.71730496717168,1.0,2964.3916465600987,0.5137052293561654,1.2943081822804927,0.9812051619989273,0.28517980862121056,0.7237968553659193
0.0645,1.7164068390825669,1.0,2968.575585839951,0.516432948135185,1.2938660963010884,0.9813769784963962,0.28514208724146783,0.7246260122600747
0.065,1.7155087109934537,1.0,2972.741683803917,0.519145367562085,1.2934241914143703,0.9815451867773874,0.28510436586172505,0.72545358384191
0.0655,1.7146105829043408,1.0,2976.889973901965,0.5218425761063579,1.2929824669486474,0.9817098880292109,0.2850666444819823,0.7262795728975917
0.066,1.7137124548152276,1.0,2981.020529143033,0.5245246105525347,1.292540921891914,0.9818711763649244,0.28502892310223954,0.7271039828400163
0.0665,1.7128143267261144,1.0,2985.133729338806,0.5271915946621046,1.2920995525701948,0.9820291483479313,0.2849912017224968,0.7279268220289923
0.067,1.7119161986370013,1.0,2989.2297947762117,0.529843645628064,1.2916583567070374,0.9821838967777965,0.28495348034275403,0.7287480961828778
0.0675,1.7110180705478881,1.0,2993.308902684216,0.5324808419882828,1.2912173324077165,0.9823355087305355,0.2849157589630113,0.7295678102848646
0.068,1.710119942458775,1.0,2997.371231083854,0.535103262280631,1.2907764777775073,0.9824840683172933,0.2848780375832686,0.7303859692962591
0.0685,1.709221814369662,1.0,3001.416958781477,0.5377109850429785,1.2903357909216846,0.982629656806004,0.2848403162035258,0.7312025781565046
0.069,1.7083236862805489,1.0,3005.4462653616965,0.5403040888131955,1.289895269945523,0.9827723527372478,0.28480259482378306,0.7320176417832025
0.0695,1.7074255581914357,1.0,3009.4593311800327,0.5428826521291517,1.289454912954298,0.982912232034623,0.2847648734440403,0.7328311650721293
0.07,1.7065274301023226,1.0,3013.4563373564015,0.5454467535287173,1.2890147180532843,0.9830493681099267,0.28472715206429755,0.7336431528972596
0.07050000000000001,1.7056293020132094,1.0,3017.4374657677786,0.547996471549762,1.288574683347757,0.9831838319634228,0.28468943068455477,0.7344536101107839
0.07100000000000001,1.7047311739240962,1.0,3021.4028990420543,0.5505318847301562,1.2881348069429908,0.983315692279457,0.28465170930481204,0.7352625415431296
0.07150000000000001,1.7038330458349833,1.0,3025.35282055079,0.5530530716077695,1.2876950869442605,0.9834450155176654,0.2846139879250693,0.7360699520029796
