Time [s],Phi [rad],STIM [ ],Fsee [N],Gamma [ ],Lcerel [ ],q [ ],Lmtc [m],fisomrel [ ]
0.0,1.8,1.0,17.967395894510037,1.0169403530795737e-05,1.3793397195864427,0.005000027558746584,0.288653,0.5411395954849458
0.0005,1.79999375,1.0,18.27676288553478,0.005619321670013711,1.3793023857079145,0.01294098434049517,0.2886527375,0.5412299113401927
0.001,1.799975,1.0,21.618495347066002,0.011197011027203255,1.378938290491815,0.035609459499345006,0.28865195,0.542110242344199
0.0015,1.79994375,1.0,31.0695246369188,0.016743413958004563,1.378046179138522,0.07060291380594097,0.2886506375,0.5442636684909585
0.002,1.7999,1.0,53.582946935226666,0.022258705953672468,1.3763680954158046,0.11471926812945878,0.2886488,0.5483005636258922
0.0025,1.79984375,1.0,97.11980304716178,0.027743061521373916,1.373935125558061,0.16457623142140065,0.28864643749999996,0.5541215620978227
0.003,1.7997750000000001,1.0,160.95939734979862,0.03319665419190593,1.3712142976964907,0.2172818343264181,0.28864354999999997,0.5605865599033839
0.0035,1.79969375,1.0,237.68477617395436,0.03861965651928648,1.368584689734766,0.2706142607888591,0.2886401375,0.5667899441745099
0.004,1.7996,1.0,321.4683612289044,0.044012240091536925,1.366156050286104,0.3229171300696835,0.2886362,0.5724800600729593
0.0045000000000000005,1.7994937500000001,1.0,409.2694558747694,0.04937457553586637,1.3639227741417643,0.37303576860246807,0.2886317375,0.5776792552964363
0.005,1.799375,1.0,499.41528081300953,0.0547068325097612,1.361858304593283,0.42024864093741743,0.28862675,0.582457166444116
0.0055,1.79924375,1.0,590.79224562135,0.060009179748453996,1.3599387993138918,0.4641747915010538,0.2886212375,0.5868751937132459
0.006,1.7991000000000001,1.0,682.5199663075286,0.06528178500807254,1.3581463809742995,0.5046809675733802,0.2886152,0.5909794955198084
0.006500000000000001,1.79894375,1.0,773.8833861883212,0.07052481512099677,1.356467217285358,0.5418016778485258,0.2886086375,0.5948058769159228
0.007,1.798775,1.0,864.2875040988338,0.07573843598055992,1.3548903676507007,0.5756776226670437,0.28860155,0.5983827389947401
0.0075,1.79859375,1.0,953.2444287762291,0.08092281254930404,1.353406760528334,0.6065106870945736,0.2885939375,0.6017336148369541
0.008,1.7984,1.0,1040.356690997595,0.08607810881493858,1.3520086723099767,0.6345327867613555,0.2885858,0.604878490492881
0.0085,1.79819375,1.0,1125.3210370804743,0.09120448808007063,1.3506891451002143,0.6599850304480697,0.2885771375,0.6078352152706659
0.009000000000000001,1.797975,1.0,1207.884138676929,0.09630211229080111,1.3494422542448594,0.6831049078438526,0.28856795,0.6106189762381091
0.0095,1.79774375,1.0,1287.8728493307044,0.10137114279615086,1.3482623799411833,0.7041181547655408,0.2885582375,0.6132439882579812
0.01,1.7975,1.0,1365.165351395829,0.10641174032755178,1.347144407101481,0.7232347312628947,0.288548,0.6157230887058711
0.0105,1.79724375,1.0,1439.660905822945,0.11142406387013656,1.3460839287823925,0.7406471006775545,0.2885372375,0.6180673285667855
0.011,1.796975,1.0,1511.3076175034082,0.11640827183088343,1.345076731948259,0.7565296220870926,0.28852595000000003,0.6202871462624662
0.0115,1.79669375,1.0,1580.1120997532216,0.12136452300565369,1.34411858953489,0.7710390331473065,0.2885141375,0.6223928454608353
0.012,1.7964,1.0,1646.0678140696123,0.12629297374848858,1.3432060385070643,0.7843158793853646,0.28850180000000003,0.6243929053963249
0.0125,1.79609375,1.0,1709.1817259124691,0.13119377932868798,1.342335945758026,0.7964856057758155,0.2884889375,0.6262949625062434
0.013000000000000001,1.7957750000000001,1.0,1769.4972155029668,0.13606709501555175,1.3415051781810186,0.8076598257981935,0.28847555,0.628106547434792
0.0135,1.79544375,1.0,1827.0724800483802,0.14091307505941322,1.3407108067024094,0.817937815201147,0.2884616375,0.6298346498603107
0.014,1.7951000000000001,1.0,1881.9857993628652,0.14573187388860742,1.3399500006350478,0.8274078060146967,0.2884472,0.6314859600390019
0.0145,1.79474375,1.0,1934.2886908221878,0.15052364293837858,1.3392204983316776,0.8361483890163123,0.2884322375,0.6330658594120164
0.015,1.794375,1.0,1984.050642651274,0.15528853346859145,1.3385200690292687,0.8442294300002288,0.28841675,0.6345796009707244
0.0155,1.79399375,1.0,2031.355450335575,0.16002669633546002,1.3378465307171545,0.8517130963125807,0.2884007375,0.6360322757729042
0.016,1.7936,1.0,2076.294000442807,0.16473828208560273,1.3371978053686064,0.8586547827664428,0.2883842,0.6374286991536844
0.0165,1.7931937500000001,1.0,2118.9556730313343,0.1694234406264838,1.3365719866789247,0.8651039324614503,0.2883671375,0.6387732709917147
0.017,1.792775,1.0,2159.408366458122,0.17408231892275408,1.3359675222550045,0.8711047894451522,0.28834955,0.6400695918043147
0.0175,1.7923437500000001,1.0,2197.730737361128,0.17871506393906456,1.3353828597037414,0.8766969104786214,0.2883314375,0.6413212290081012
0.018000000000000002,1.7919,1.0,2234.0112980846848,0.18332182264006613,1.3348164466320311,0.8819157162873469,0.2883128,0.6425317189563146
0.0185,1.79144375,1.0,2268.3310474478576,0.18790274027893808,1.3342668953665435,0.8867930161165037,0.2882936375,0.643704217672233
0.019,1.790975,1.0,2300.789994350628,0.19245796429351955,1.3337327066519586,0.8913573575061753,0.28827395,0.6448420934654264
0.0195,1.79049375,1.0,2331.457233327762,0.19698763763277716,1.333212757738684,0.8956345150695958,0.2882537375,0.6459478892862915
0.02,1.79,1.0,2360.4017457287077,0.20149190255543636,1.3327059831380383,0.8996477286637388,0.288233,0.6470240076025234
0.0205,1.78949375,1.0,2387.6976417496835,0.2059709013202227,1.33221131736134,0.903417974890553,0.2882117375,0.648072833600265
0.021,1.788975,1.0,2413.423728437401,0.21042477618586156,1.3317276949199073,0.9069642183162562,0.28818995000000003,0.6490967360431279
0.021500000000000002,1.78844375,1.0,2437.6483367492688,0.21485366725097932,1.3312541923509114,0.9103036609094624,0.2881676375,0.6500977680164076
0.022,1.7879,1.0,2460.456884611411,0.2192577177597502,1.3307897573831644,0.9134518792093558,0.2881448,0.6510782411045511
0.0225,1.78734375,1.0,2481.908493187069,0.22363706597725297,1.3303336222837323,0.9164230766856881,0.28812143749999997,0.6520398532809581
0.023,1.786775,1.0,2502.0587869518818,0.22799184913730453,1.3298850785058378,0.9192301850159809,0.28809755,0.6529841676632565
0.0235,1.78619375,1.0,2520.9658029851757,0.23232220447372182,1.3294434175027048,0.9218849855433244,0.28807313749999996,0.6539127380871765
0.024,1.7856,1.0,2538.6897885970525,0.23662826922032176,1.3290079307275562,0.924398227494697,0.2880482,0.6548271094335829
0.0245,1.78499375,1.0,2555.290193931693,0.24091018004303813,1.3285779360895704,0.926779737030741,0.2880227375,0.655728762484433
0.025,1.784375,1.0,2570.818952059425,0.24516807185045042,1.328152838804789,0.9290385193379717,0.28799675,0.6566189871950198
0.025500000000000002,1.78374375,1.0,2585.3479061682992,0.24940208310579964,1.327731872484202,0.9311827981931486,0.2879702375,0.6574994252487205
0.026000000000000002,1.7831000000000001,1.0,2598.9182956948425,0.2536123457002724,1.3273145706638225,0.9332201653547099,0.2879432,0.6583710836452727
0.0265,1.78244375,1.0,2611.5724799248937,0.25779899152505514,1.326900466879664,0.9351575949389271,0.2879156375,0.6592349641385769
0.027,1.781775,1.0,2623.3538441232295,0.2619621524713346,1.3264890946677395,0.9370015019521603,0.28788755,0.6600920633387751
0.0275,1.7810937500000001,1.0,2634.3067104875513,0.26610196043029716,1.326079987564062,0.9387577945639131,0.2878589375,0.66094337280045
0.028,1.7804,1.0,2644.476253926358,0.27021854729312944,1.3256726791046451,0.9404319208575486,0.2878298,0.6617898790969479
0.0285,1.77969375,1.0,2653.8700854965236,0.2743120420227191,1.325267056225041,0.9420289604287674,0.2878001375,0.6626318307866581
0.029,1.778975,1.0,2662.6052040787563,0.2783825779243972,1.3248620032673415,0.9435534682336177,0.28776995,0.663471552401562
0.029500000000000002,1.7782437500000001,1.0,2670.698054227676,0.282430282701974,1.3244573385567233,0.9450097872702128,0.2877392375,0.6643094242879076
0.03,1.7775021806568208,1.0,2678.2525048288344,0.28645528290858624,1.324053066371178,0.9464019647111884,0.2877080915875865,0.6651454406104493
0.0305,1.7767595641804048,1.0,2685.722713561578,0.29045770509737057,1.3236491909886967,0.9477337528530116,0.287676901695577,0.6659795955751344
0.031,1.7760169477039889,1.0,2693.159495164944,0.29443767582146385,1.3232457166872713,0.9490086343056134,0.2876457118035675,0.6668118834289933
0.0315,1.7752743312275732,1.0,2700.5621998220454,0.2983953216340028,1.322842647744893,0.9502298447368606,0.28761452191155806,0.6676422984600351
0.032,1.7745317147511572,1.0,2707.929410340701,0.3023307686253283,1.3224399954288935,0.9514003941482883,0.2875833320195486,0.6684708206244107
0.0325,1.7737890982747413,1.0,2715.2486922022563,0.3062441415137328,1.3220378713613694,0.9525230963110042,0.2875521421275391,0.6692972238808612
0.033,1.7730464817983254,1.0,2722.5124121247527,0.3101355636256705,1.3216363428803826,0.953600567508394,0.28752095223552965,0.6701213741662404
0.0335,1.7723038653219094,1.0,2729.715689887052,0.31400515761144543,1.3212354519615288,0.954635244910186,0.2874897623435202,0.6709431900608174
0.034,1.7715612488454937,1.0,2736.85413554865,0.3178530451060816,1.320835235932041,0.9556294030811513,0.28745857245151074,0.6717626000779069
0.0345,1.7708186323690778,1.0,2743.9279767014664,0.32167933889497813,1.3204356900898868,0.956585160616352,0.2874273825595013,0.6725796189943176
0.035,1.7700760158926618,1.0,2750.9245716982814,0.32548417943789676,1.3200369263044187,0.9575045186542959,0.2873961926674918,0.6733940236021048
0.035500000000000004,1.769333399416246,1.0,2757.8436163717256,0.3292676834460215,1.3196389443444285,0.9583893324644405,0.2873650027754823,0.6742058203392198
0.036000000000000004,1.7685907829398302,1.0,2764.6848107491815,0.3330299676305365,1.3192417439787079,0.9592413403407548,0.28733381288347287,0.67501501562957
0.0365,1.7678481664634143,1.0,2771.447859049007,0.3367711487026257,1.3188453249760486,0.9600621723138816,0.28730262299146336,0.6758216158830292
0.037,1.7671055499869983,1.0,2778.1324696764664,0.3404913433734733,1.3184496871052425,0.9608533581204437,0.2872714330994539,0.6766256274954502
0.0375,1.7663629335105824,1.0,2784.738355219588,0.34419066835426343,1.318054830135081,0.9616163345004092,0.28724024320744446,0.677427056848676
0.038,1.7656203170341667,1.0,2791.265232445363,0.34786924035618005,1.317660753834356,0.9623524518859738,0.287209053315435,0.6782259103105505
0.0385,1.7648777005577507,1.0,2797.7128222955416,0.3515271760904073,1.3172674579718595,0.9630629805388277,0.28717786342342555,0.679022194234931
0.039,1.7641350840813348,1.0,2804.0808498827355,0.3551645922681292,1.3168749423163828,0.9637491161868116,0.28714667353141604,0.6798159149616998
0.0395,1.7633924676049189,1.0,2810.369044486544,0.3587816056005299,1.316483206636718,0.9644119852057687,0.2871154836394066,0.6806070788167744
0.04,1.762649851128503,1.0,2816.5775375910594,0.3623783257930333,1.3160922471399752,0.9650526477704269,0.28708429374739713,0.6813956992920945
0.0405,1.7619072346520872,1.0,2822.7078917778863,0.36595486029174684,1.3157020472943441,0.9656721024952684,0.2870531038553876,0.6821818154788255
0.041,1.7611646181756713,1.0,2828.7603160478093,0.36951134666400803,1.3153126027603077,0.9662712984590809,0.2870219139633782,0.6829654417746187
0.0415,1.7604220016992553,1.0,2834.7361814054934,0.3730478930924383,1.3149238988866123,0.9668511260462953,0.2869907240713687,0.6837466132335931
0.042,1.7596793852228394,1.0,2840.6368694823955,0.37656460775965883,1.3145359210220047,0.9674124269111156,0.28695953417935927,0.6845253647539516
0.0425,1.7589367687464237,1.0,2846.463772298583,0.3800615988482909,1.3141486545152314,0.9679559971451799,0.2869283442873498,0.6853017310786663
0.043000000000000003,1.7581941522700077,1.0,2852.2182920291075,0.3835389745409557,1.3137620847150393,0.9684825902082553,0.2868971543953403,0.6860757467961496
0.043500000000000004,1.7574515357935918,1.0,2857.9018407756416,0.3869968430202746,1.3133761969701745,0.9689929196419215,0.28686596450333085,0.6868474463409133
0.044,1.7567089193171759,1.0,2863.5158403420724,0.3904353124688687,1.3129909766293837,0.9694876615843314,0.2868347746113214,0.6876168639942111
0.0445,1.75596630284076,1.0,2869.061722015588,0.39385449106935944,1.3126064090414136,0.9699674571024735,0.2868035847193119,0.6883840338846698
0.045,1.7552236863643442,1.0,2874.540926352361,0.39725448700436794,1.3122224795550108,0.9704329143568527,0.28677239482730243,0.6891489899889058
0.0455,1.7544810698879283,1.0,2879.9549029675827,0.4006354084565155,1.3118391735189219,0.9708846106121627,0.286741204935293,0.6899117661321292
0.046,1.7537384534115124,1.0,2885.3051103308653,0.4039973636084234,1.3114564762818932,0.9713230941062988,0.28671001504328353,0.6906723959887324
0.0465,1.7529958369350964,1.0,2890.5930155658643,0.40734046064271284,1.3110743731926717,0.9717488857889656,0.2866788251512741,0.6914309130828649
0.047,1.7522532204586807,1.0,2895.820094254996,0.4106648077420052,1.3106928496000037,0.972162480940143,0.28664763525926457,0.6921873507889972
0.0475,1.7515106039822648,1.0,2900.985240028684,0.4139704589279795,1.3103119136902759,0.9725643453473096,0.2866164453672551,0.6929416971360931
0.048,1.7507679875058488,1.0,2906.092447335975,0.4172575630517813,1.309931528707027,0.9729549313152326,0.28658525547524566,0.6936940290603486
0.0485,1.750025371029433,1.0,2911.144876054482,0.42052625814505606,1.3095516653869776,0.9733346685111841,0.28655406558323615,0.6944444083423107
0.049,1.749282754553017,1.0,2916.143619129323,0.423776641392279,1.3091723127613653,0.9737039624516873,0.2865228756912267,0.6951928604011115
0.0495,1.7485401380766012,1.0,2921.0897755433657,0.4270088099779254,1.3087934598614273,0.9740631996791655,0.28649168579921724,0.6959394105446719
0.05,1.7477975216001853,1.0,2925.9844501944635,0.4302228610864707,1.3084150957184013,0.9744127488214968,0.2864604959072078,0.6966840839700554
0.0505,1.7470549051237694,1.0,2930.828753775361,0.43341889190239,1.3080372093635249,0.974752961583191,0.28642930601519834,0.6974269057638136
0.051000000000000004,1.7463122886473534,1.0,2935.6238026560636,0.43659699961015874,1.3076597898280353,0.9750841736731816,0.28639811612318883,0.6981679009023251
0.051500000000000004,1.7455696721709377,1.0,2940.370718769112,0.4397572813942522,1.3072828261431702,0.9754067056738094,0.2863669262311794,0.6989070942521246
0.052000000000000005,1.7448270556945218,1.0,2945.070629497183,0.44289983443914555,1.3069063073401668,0.9757208638552147,0.2863357363391699,0.6996445105702267
0.0525,1.7440844392181059,1.0,2949.7246675635306,0.4460247559293142,1.306530222450263,0.9760269409390169,0.2863045464471604,0.7003801745044396
0.053,1.74334182274169,1.0,2954.333970925638,0.44913214304923343,1.306154560504696,0.9763252168148491,0.28627335655515096,0.7011141105936749
0.0535,1.742599206265274,1.0,2958.8996826703437,0.45222209298337857,1.3057793105347033,0.9766159592130483,0.2862421666631415,0.7018463432682446
0.054,1.7418565897888583,1.0,2963.4229509127276,0.4552947029162248,1.3054044615715226,0.9768994243365275,0.28621097677113205,0.7025768968501543
0.0545,1.7411139733124423,1.0,2967.9049286970835,0.4583500700322475,1.305030002646391,0.9771758574546404,0.2861797868791226,0.7033057955533887
0.055,1.7403713568360264,1.0,2972.3467739008684,0.4613882915159219,1.3046559227905465,0.9774454934616218,0.2861485969871131,0.7040330634841855
0.0555,1.7396287403596105,1.0,2976.7496491411453,0.4644094645517234,1.3042822110352261,0.9777085574019988,0.28611740709510364,0.7047587246413078
0.056,1.7388861238831947,1.0,2981.114721683629,0.4674136863241272,1.3039088564116676,0.9779652649651845,0.2860862172030942,0.7054828029163023
0.0565,1.7381435074067788,1.0,2985.4431633545314,0.4704010540176086,1.3035358479511083,0.9782158229512997,0.2860550273110847,0.7062053220937552
0.057,1.7374008909303629,1.0,2989.736150455218,0.473371664816643,1.3031631746847858,0.9784604297101216,0.2860238374190752,0.7069263058515372
0.0575,1.736658274453947,1.0,2993.9948636791496,0.47632561590570555,1.3027908256439376,0.9786992755549125,0.28599264752706577,0.7076457777610414
0.058,1.735915657977531,1.0,2998.2204880316617,0.4792630044692716,1.302418789859801,0.9789325431527617,0.2859614576350563,0.7083637612874156
0.0585,1.7351730415011153,1.0,3002.412528770499,0.4821838856454354,1.3020470709581278,0.9791604051461988,0.28593026774304686,0.7090802516760706
0.059000000000000004,1.7344304250246994,1.0,3006.5723807922013,0.4850883704340528,1.3016756561947442,0.9793830311936704,0.28589907785103735,0.7097952756998421
0.059500000000000004,1.7336878085482834,1.0,3010.702317440064,0.4879765895307771,1.3013045252634898,0.9796005854748961,0.2858678879590279,0.7105088745399969
0.06,1.7329451920718675,1.0,3014.8029002155604,0.4908486287616479,1.3009336727242036,0.9798132229048832,0.28583669806701845,0.7112210606528123
0.0605,1.7322025755954518,1.0,3018.8746928538717,0.493704573952705,1.3005630931367256,0.9800210924489423,0.28580550817500894,0.7119318464415945
0.061,1.7314599591190358,1.0,3022.9182612911136,0.49654451092998786,1.3001927810608953,0.9802243373969245,0.2857743182829995,0.7126412442567773
0.0615,1.73071734264262,1.0,3026.934173631433,0.49936852551953614,1.2998227310565522,0.9804230956227921,0.28574312839099003,0.7133492663960153
0.062,1.729974726166204,1.0,3030.9230001150713,0.5021767035473895,1.299452937683536,0.9806174998304206,0.2857119384989806,0.714055925104274
0.0625,1.729232109689788,1.0,3034.8853130872885,0.5049691308395875,1.299083395501686,0.9808076777864525,0.2856807486069711,0.7147612325739223
0.063,1.7284894932133723,1.0,3038.821686967285,0.5077458932221699,1.2987140990708423,0.9809937525409833,0.2856495587149616,0.7154652009448181
0.0635,1.7277468767369564,1.0,3042.7326982189993,0.5105070765211761,1.2983450429508445,0.9811758426367964,0.28561836882295216,0.7161678423043965
0.064,1.7270042602605404,1.0,3046.6189253210614,0.5132527665626458,1.2979762217015318,0.9813540623078251,0.2855871789309427,0.7168691686877537
0.0645,1.7262616437841245,1.0,3050.480948738346,0.5159830491726188,1.297607629882744,0.9815285216674683,0.2855559890389332,0.7175691920777287
0.065,1.7255190273077088,1.0,3054.3193508943186,0.5186980101771346,1.2972392620543207,0.9816993268873535,0.28552479914692375,0.7182679244049837
0.0655,1.7247764108312928,1.0,3058.1347161431686,0.5213977354022327,1.2968711127761015,0.9818665803670901,0.2854936092549143,0.7189653775480844
0.066,1.724033794354877,1.0,3061.9276307434675,0.5240823106739528,1.296503176607926,0.9820303808955364,0.28546241936290484,0.7196615633335748
0.0665,1.723291177878461,1.0,3065.6986828319996,0.5267518218183346,1.2961354481096339,0.982190823804057,0.2854312294708954,0.7203564935360534
0.067,1.722548561402045,1.0,3069.4484623984163,0.5294063546614177,1.2957679218410645,0.9823480011122244,0.2854000395788859,0.721050179878246
0.0675,1.7218059449256293,1.0,3073.1775612605893,0.5320459950292417,1.2954005923620577,0.9825020016663885,0.2853688496868764,0.721742634031076
0.068,1.7210633284492134,1.0,3076.8865730403704,0.5346708287478461,1.295033454232453,0.9826529112715084,0.28533765979486697,0.7224338676137341
0.0685,1.7203207119727975,1.0,3080.576093140322,0.5372809416432708,1.2946665020120902,0.9828008128166237,0.28530646990285746,0.7231238921937463
0.069,1.7195780954963815,1.0,3084.2467187210027,0.5398764195415551,1.2942997302608088,0.9829457863943056,0.285275280010848,0.7238127192870383
0.0695,1.7188354790199658,1.0,3087.8983863384274,0.542457317726833,1.293933139198717,0.9830879078031441,0.28524409011883856,0.7245003497474096
0.07,1.7180928625435499,1.0,3091.531420326139,0.54502372014224,1.29356672573531,0.9832272519350123,0.2852129002268291,0.7251867906283458
0.07050000000000001,1.717350246067134,1.0,3095.147059043294,0.547575750640185,1.2932004789871712,0.9833638932418027,0.28518171033481965,0.725872063525808
0.07100000000000001,1.716607629590718,1.0,3098.7455737013124,0.5501134850180691,1.2928343963485829,0.9834979012319531,0.28515052044281014,0.7265561744743657
