Time [s],Phi [rad],STIM [ ],Fsee [N],Gamma [ ],Lcerel [ ],q [ ],Lmtc [m],fisomrel [ ]
0.0,1.8,1.0,20.71437280412083,0.0016946383199320859,1.379042909595412,0.005733908195757125,0.288653,0.5418573746347077
0.0005,1.79999375,1.0,21.480471554959333,0.0072943420477468894,1.3789608778683493,0.018269563700618944,0.2886527375,0.5420556538432718
0.001,1.799975,1.0,26.09283553270946,0.012862635865150185,1.3785027789964763,0.044915697848095175,0.28865195,0.5431621374105376
0.0015,1.79994375,1.0,38.545665497442634,0.01839969595752971,1.3774435409259398,0.08299011587711834,0.2886506375,0.545715476445435
0.002,1.7999,1.0,66.79430853853654,0.02390569752064452,1.3755581894573314,0.12916511007323894,0.2886488,0.5502424946796274
0.0025,1.79984375,1.0,116.91686981828022,0.02938081476850049,1.3730253692941845,0.18014973983180974,0.28864643749999996,0.5562885008384479
0.003,1.7997750000000001,1.0,185.24913622691201,0.034825220937650024,1.3703370463377824,0.23325441378832626,0.28864354999999997,0.5626609442277015
0.0035,1.79969375,1.0,264.35055929822727,0.04023908829259872,1.3677851447673073,0.286434283220806,0.2886401375,0.5686673701801366
0.004,1.7996,1.0,349.38927244524547,0.045622588130295225,1.3654319297281003,0.33818798700803765,0.2886362,0.5741693390790712
0.0045000000000000005,1.7994937500000001,1.0,437.8840425405414,0.05097589079630141,1.363262429343202,0.3874990581875821,0.2886317375,0.579210482868862
0.005,1.799375,1.0,528.3835074266708,0.05629916566749553,1.3612514098558472,0.4337581664803304,0.28862675,0.5838565652970749
0.0055,1.79924375,1.0,619.8511194017995,0.06159258117647749,1.3593778749233945,0.4766680496971055,0.2886212375,0.588161808085284
0.006,1.7991000000000001,1.0,711.4579999920737,0.06685630477858359,1.3576258257160165,0.5161533289141679,0.2886152,0.5921676300412544
0.006500000000000001,1.79894375,1.0,802.5337486507806,0.07209050312238593,1.3559825821945544,0.5522859561226056,0.2886086375,0.595906891499035
0.007,1.798775,1.0,892.4970385133055,0.07729534161759222,1.3544383524474275,0.5852292400515328,0.28860155,0.5994051476860752
0.0075,1.79859375,1.0,980.909060061353,0.08247098526599926,1.3529842934206542,0.6151966265218682,0.2885939375,0.6026852314997497
0.008,1.7984,1.0,1067.3849805069592,0.08761759757423815,1.3516132864129422,0.6424247657400192,0.2885858,0.6057656148529664
0.0085,1.79819375,1.0,1151.6267063772925,0.09273534127322658,1.3503189058597376,0.6671548959552981,0.2885771375,0.6086628322615955
0.009000000000000001,1.797975,1.0,1233.4300270321044,0.09782437877922084,1.3490950240416133,0.6896214425491649,0.28856795,0.6113924240732954
0.0095,1.79774375,1.0,1312.618338715512,0.10288487075793301,1.3479364864808836,0.7100459128715549,0.2885582375,0.6139674788754398
0.01,1.7975,1.0,1389.0689536947293,0.10791697719847854,1.3468385142147887,0.7286332062082163,0.288548,0.6164000161265236
0.0105,1.79724375,1.0,1462.718741654853,0.11292085741164656,1.3457964887619869,0.7455702174571531,0.2885372375,0.6187014934945188
0.011,1.796975,1.0,1533.5369112638355,0.11789667029515005,1.3448061814280228,0.7610259521069146,0.28852595000000003,0.6208823254114333
0.0115,1.79669375,1.0,1601.4893939805586,0.12284457252604812,1.3438640620591056,0.7751523991463766,0.2885141375,0.6229512334955727
0.012,1.7964,1.0,1666.5862756031468,0.12776472068404077,1.3429666180758524,0.7880853657827999,0.28850180000000003,0.6249167694056519
0.0125,1.79609375,1.0,1728.8650843043365,0.13265727050409326,1.3421104971995872,0.7999459150314698,0.2884889375,0.6267870143681481
0.013000000000000001,1.7957750000000001,1.0,1788.3860461866266,0.13752237798780434,1.3412925048013975,0.8108417856352975,0.28847555,0.62856959874486
0.0135,1.79544375,1.0,1845.181396118385,0.14236019586122398,1.3405101148216263,0.8208689660619451,0.2884616375,0.6302706049239888
0.014,1.7951000000000001,1.0,1899.3093379038232,0.1471708768504021,1.3397608012006161,0.8301127234126411,0.2884472,0.6318960394372303
0.0145,1.79474375,1.0,1950.8487504176367,0.15195457343786437,1.3390420707193027,0.8386488317240612,0.2884322375,0.6334517674820388
0.015,1.794375,1.0,1999.8831892760777,0.1567114372387687,1.3383516085815628,0.8465447203468398,0.28841675,0.6349432046245822
0.0155,1.79399375,1.0,2046.504551505743,0.16144162000139645,1.3376872094194576,0.853860428885236,0.2884007375,0.6363754738345005
0.016,1.7936,1.0,2090.7758190601785,0.1661452700404802,1.3370471409338174,0.8606495875705047,0.2883842,0.6377526300648579
0.0165,1.7931937500000001,1.0,2132.7732889937897,0.17082253567075242,1.3364296708254715,0.866960029692116,0.2883671375,0.6390786881003345
0.017,1.792775,1.0,2172.5854554254925,0.17547356520694576,1.3358330667952498,0.8728344784355399,0.28834955,0.6403576251495449
0.0175,1.7923437500000001,1.0,2210.2963954939537,0.18009850549219678,1.3352557537401375,0.8783111923840259,0.2883314375,0.641593047143279
0.018000000000000002,1.7919,1.0,2246.0065162156125,0.18469750501538962,1.3346960897178,0.88342443010383,0.2883128,0.6427886719630562
0.0185,1.79144375,1.0,2279.788036137386,0.18927070830624565,1.3341528028154308,0.8882050247595775,0.2882936375,0.6439473991409178
0.019,1.790975,1.0,2311.7123379983705,0.19381825902956873,1.3336247000712165,0.8926807047215896,0.28827395,0.6450719371887463
0.0195,1.79049375,1.0,2341.857151261448,0.19834030085016266,1.333110588523343,0.8968764293937268,0.2882537375,0.6461649738955105
0.02,1.79,1.0,2370.3060169594405,0.20283697743283124,1.3326092752099965,0.9008147026202018,0.288233,0.6472291774371199
0.0205,1.78949375,1.0,2397.1298924959274,0.20730843016535092,1.332119740705504,0.9045158849252823,0.2882117375,0.6482668298268773
0.021,1.788975,1.0,2422.420363833082,0.21175480371524083,1.3316408095731511,0.9079983608869172,0.28818995000000003,0.6492805275053091
0.021500000000000002,1.78844375,1.0,2446.2373934693396,0.21617623725635213,1.331171652198307,0.9112788563338776,0.2881676375,0.6502721198349604
0.022,1.7879,1.0,2468.6413288586164,0.22057286952449362,1.3307114670782771,0.9143725525093811,0.2881448,0.6512433850221098
0.0225,1.78734375,1.0,2489.695517607593,0.2249448392554742,1.3302594527103673,0.9172932450416216,0.28812143749999997,0.6521960902278339
0.023,1.786775,1.0,2509.4660548378847,0.22929228518510267,1.3298148075918823,0.9200534895973955,0.28809755,0.6531319920061532
0.0235,1.78619375,1.0,2528.0143424743783,0.23361534440551976,1.3293767982452855,0.9226647422605334,0.28807313749999996,0.6540526938063917
0.024,1.7856,1.0,2545.406086887408,0.23791415575212493,1.328944671252911,0.9251374575826576,0.2880482,0.6549598318058494
0.0245,1.78499375,1.0,2561.6998911134738,0.24218885612046231,1.3285177587913062,0.927481206365913,0.2880227375,0.6558548538225037
0.025,1.784375,1.0,2576.942297466191,0.2464395789968026,1.3280955219946662,0.929704769893646,0.28799675,0.6567389299969628
0.025500000000000002,1.78374375,1.0,2591.1812645193118,0.25066645786741654,1.327677421997185,0.9318161970184135,0.2879702375,0.6576132242132614
0.026000000000000002,1.7831000000000001,1.0,2604.466047018156,0.2548696262185748,1.327262919933057,0.9338228751838751,0.2879432,0.6584788942502855
0.0265,1.78244375,1.0,2616.847082228639,0.25904921753654797,1.3268514769364765,0.9357315936934846,0.2879156375,0.659337091914681
0.027,1.781775,1.0,2628.3695654682247,0.26320536354529556,1.3264426126573419,0.9375486084010912,0.28788755,0.6601888413311501
0.0275,1.7810937500000001,1.0,2639.07784159687,0.2673381968945907,1.3260358631399731,0.9392796859541578,0.2878589375,0.6610351273806527
0.028,1.7804,1.0,2649.0242064437007,0.27144785161843993,1.3256306986768207,0.9409301367568759,0.2878298,0.6618770665792271
0.0285,1.77969375,1.0,2658.2418981110886,0.2755344554972032,1.3252267724334321,0.9425048891226895,0.2878001375,0.662715390601188
0.029,1.778975,1.0,2666.7647420833773,0.27959813631124064,1.3248237375753542,0.9440084997158729,0.28776995,0.6635508275114077
0.029500000000000002,1.7782437500000001,1.0,2674.6270996280196,0.2836390218409123,1.3244212472681343,0.9454451863642339,0.2877392375,0.6643841017888651
0.03,1.7775,1.0,2681.8638188641776,0.28765723986657815,1.3240189546773191,0.9468188575834835,0.287708,0.6652159343425301
0.0305,1.77674375,1.0,2688.5101884984842,0.2916529181685984,1.3236165129684563,0.9481331391785927,0.2876762375,0.6660470425195695
0.031,1.775975,1.0,2694.6007336129132,0.29562618388590195,1.3232135859247391,0.9493913993826911,0.28764395,0.6668781182196151
0.0315,1.7751937500000001,1.0,2700.1630263840125,0.29957716123870076,1.322809904081145,0.9505967766756964,0.2876111375,0.667709712458935
0.032,1.7744,1.0,2705.233513515649,0.30350598037970294,1.322405119562431,0.9517521837098643,0.2875778,0.6685425346936691
0.0325,1.77359375,1.0,2709.834728856249,0.3074127633331144,1.3219990140358056,0.9528603464426395,0.2875439375,0.6693770247447994
0.033,1.772775,1.0,2713.9894162276896,0.31129763212314104,1.3215913691684782,0.9539238062531085,0.28750955,0.6702136201414017
0.0335,1.7719437500000002,1.0,2717.7205090218245,0.31516070877398883,1.3211819666276579,0.954944934653115,0.2874746375,0.6710527561007338
0.034,1.7711000000000001,1.0,2721.051110853313,0.3190021153098635,1.3207705880805534,0.9559259466594279,0.2874392,0.6718948655052805
0.0345,1.7702437500000001,1.0,2724.004477270074,0.322821973754971,1.3203570151943742,0.9568689129629665,0.2874032375,0.6727403788767585
0.035,1.7693750000000001,1.0,2726.6039985196503,0.3266204061335173,1.3199410296363288,0.9577757710159363,0.28736675,0.6735897243470849
0.035500000000000004,1.76849375,1.0,2728.861715561783,0.33039752396027017,1.3195225173237826,0.9586483435724421,0.2873297375,0.6744431151883707
0.036000000000000004,1.7676,1.0,2730.814123094146,0.33415346228158344,1.3191011427429888,0.959488321622943,0.2872922,0.6753012139672152
0.0365,1.76669375,1.0,2732.4764500822353,0.33788833784210887,1.3186767645595308,0.9602973067726631,0.2872541375,0.6761642848528999
0.037,1.765775,1.0,2733.862462757959,0.3416022660036503,1.3182492553329939,0.9610768035356925,0.28721555,0.6770325621173305
0.0375,1.76484375,1.0,2734.985985081732,0.34529536212801115,1.3178184876229646,0.9618282253027272,0.2871764375,0.6779062784599856
0.038,1.7639,1.0,2735.8608918186933,0.3489677415769951,1.3173843339890292,0.9625529008640955,0.28713679999999997,0.6787856649819527
0.0385,1.76294375,1.0,2736.5011019753138,0.3526195197124058,1.316946666990774,0.9632520803970991,0.28709663750000003,0.679670951158927
0.039,1.761975,1.0,2736.920572595367,0.3562508118960468,1.3165053591877847,0.963926940967005,0.28705595,0.6805623648131742
0.0395,1.7609937500000001,1.0,2737.133292917207,0.3598617334897217,1.3160602831396482,0.9645785915860108,0.2870147375,0.6814601320844561
0.04,1.76,1.0,2737.153278889719,0.3634523998552342,1.31561131140595,0.965208077870049,0.286973,0.6823644773999249
0.0405,1.7589937500000001,1.0,2736.994568049543,0.3670229263543878,1.3151583165462768,0.9658163863293336,0.2869307375,0.6832756234429744
0.041,1.757975,1.0,2736.659910916026,0.37057341958019147,1.3147012737332604,0.9664044556421041,0.28688795,0.6841935851743097
0.0415,1.75694375,1.0,2736.1708107274076,0.374104001775063,1.314239988041608,0.9669731608088545,0.2868446375,0.6851187178431444
0.042,1.7559,1.0,2735.5396851796254,0.37761478553209155,1.3137743470997223,0.9675233342612258,0.28680079999999997,0.6860512088716295
0.0425,1.75484375,1.0,2734.7739077691244,0.3811058791759779,1.3133042843963554,0.9680557664802348,0.2867564375,0.6869911523561469
0.043000000000000003,1.753775,1.0,2733.880858216591,0.3845773910314228,1.3128297334202585,0.9685712056408096,0.28671155,0.6879386412251594
0.043500000000000004,1.75269375,1.0,2732.867920712267,0.388029429423127,1.3123506276601835,0.9690703602970939,0.28666613750000003,0.6888937672203106
0.044,1.7516,1.0,2731.742482258317,0.3914621026757913,1.311866900604882,0.9695539018714517,0.2866202,0.6898566208772471
0.0445,1.75049375,1.0,2730.5119311107323,0.39487551911411645,1.3113784857431052,0.9700224669633236,0.2865737375,0.690827291506157
0.045,1.7493750000000001,1.0,2729.1836553178955,0.3982697870628032,1.3108853165636054,0.9704766594926232,0.28652675,0.6918058671720244
0.0455,1.74824375,1.0,2727.7650413581487,0.40164501484655224,1.3103873265551336,0.9709170526910308,0.2864792375,0.6927924346746074
0.046,1.7471,1.0,2726.2634728751163,0.40500131079006446,1.3098844492064419,0.9713441909533439,0.2864312,0.6937870795281256
0.0465,1.7459437500000001,1.0,2724.682338446948,0.4083387769295786,1.3093766543155907,0.9717585933737679,0.28638263750000004,0.6947898143000367
0.047,1.744775,1.0,2723.0300700094185,0.4116575242437625,1.3088638657818694,0.9721607513252086,0.28633355,0.6958007411169622
0.0475,1.74359375,1.0,2721.3148502238846,0.4149576615701935,1.3083460097092383,0.9725511320559656,0.28628393750000003,0.696819956302265
0.048,1.7424,1.0,2719.5406560230685,0.41823929062573484,1.307823050428934,0.9729301820080062,0.2862338,0.6978474796703632
0.0485,1.74119375,1.0,2717.711461272239,0.4215025131272497,1.3072949522721935,0.9732983262586048,0.2861831375,0.6988833300638723
0.049,1.739975,1.0,2715.831236354201,0.42474743079160115,1.3067616795702535,0.9736559697356474,0.28613195,0.6999275253419552
0.0495,1.73874375,1.0,2713.903947783239,0.42797414533565253,1.306223196654351,0.9740034983530884,0.2860802375,0.7009800823685929
0.05,1.7375,1.0,2711.933557847309,0.4311827584762669,1.3056794678557224,0.9743412800724752,0.286028,0.7020410170007729
0.0505,1.73624375,1.0,2709.924024277517,0.4343733719303075,1.3051304575056053,0.974669665895985,0.2859752375,0.7031103440765945
0.051000000000000004,1.734975,1.0,2707.8792999472466,0.4375460874146375,1.3045761299352359,0.9749889907959589,0.28592195,0.7041880774032983
0.051500000000000004,1.73369375,1.0,2705.803332598055,0.4407010066461201,1.3040164494758513,0.9752995745855224,0.2858681375,0.7052742297452079
0.052000000000000005,1.7324,1.0,2703.695533572556,0.4438382210010728,1.3034514218400228,0.975601724265225,0.2858138,0.7063687327272594
0.0525,1.73109375,1.0,2701.5579548701467,0.44695783038097053,1.302881028628172,0.975895732595485,0.28575893750000003,0.7074715640852693
0.053,1.729775,1.0,2699.402413039677,0.45005995410162286,1.3023051621669877,0.9761818758827017,0.28570355000000003,0.7085828728545641
0.0535,1.72844375,1.0,2697.230426911386,0.45314468631691973,1.3017238087744913,0.9764604215599063,0.2856476375,0.7097026250593566
0.054,1.7271,1.0,2695.043513082761,0.45621212118075094,1.3011369547687048,0.9767316255031562,0.2855912,0.7108307859458898
0.0545,1.7257437500000001,1.0,2692.843185872483,0.45926235284700645,1.30054458646765,0.9769957326260009,0.2855342375,0.7119673199776444
0.055,1.724375,1.0,2690.6309572787204,0.4622954754695763,1.2999466901893484,0.9772529774385552,0.28547675,0.7131121908305327
0.0555,1.72299375,1.0,2688.408336941502,0.4653115832023502,1.2993432522518216,0.9775035845735591,0.2854187375,0.7142653613880814
0.056,1.7216,1.0,2686.176832109216,0.4683107701992183,1.2987342589730917,0.9777477692816344,0.2853602,0.7154267937366001
0.0565,1.72019375,1.0,2683.9379476094477,0.47129313061407047,1.2981196966711799,0.9779857378977739,0.28530113749999997,0.7165964491603435
0.057,1.718775,1.0,2681.693185823615,0.4742587586007966,1.2974995516641081,0.9782176882809592,0.28524155,0.717774288136654
0.0575,1.71734375,1.0,2679.4440466658775,0.47720774831328655,1.2968738102698982,0.9784438102286591,0.2851814375,0.7189602703310984
0.058,1.7159,1.0,2677.1920275665984,0.4801401939054304,1.2962424588065717,0.9786642858678294,0.2851208,0.7201543545925914
0.0585,1.71444375,1.0,2674.938623459291,0.48305618953111795,1.2956054835921502,0.9788792900239279,0.2850596375,0.7213564989485045
0.059000000000000004,1.7129750000000001,1.0,2672.68532677225,0.48595582934423925,1.2949628709446557,0.9790889905693412,0.28499795,0.7225666605997654
0.059500000000000004,1.71149375,1.0,2670.4336274240295,0.48883920749868415,1.2943146071821097,0.979293548752527,0.2849357375,0.7237847959159455
0.06,1.71,1.0,2668.1853444849944,0.49170639193088006,1.2936606755734117,0.9794931172108584,0.284873,0.7250108661408401
0.0605,1.7084937500000001,1.0,2665.942418451355,0.4945575046240065,1.2930010582424873,0.9796878469672693,0.2848097375,0.7262448337652505
0.061,1.7069750000000001,1.0,2663.705342825481,0.4973926359754161,1.2923357505973263,0.9798778813860856,0.28474595,0.7274866355953375
0.0615,1.7054437500000001,1.0,2661.4745662548394,0.5002118720728014,1.29166474845121,0.9800633580410832,0.2846816375,0.728736206986264
0.062,1.7039,1.0,2659.250536640348,0.5030152990038548,1.2909880476174207,0.9802444092971403,0.2846168,0.7299934826014085
0.0625,1.70234375,1.0,2657.0337011403635,0.5058030028562688,1.2903056439092395,0.9804211625448673,0.2845514375,0.7312583964108477
0.063,1.7007750000000001,1.0,2654.8245061762386,0.5085750697177356,1.2896175331399486,0.9805937404229651,0.28448555,0.7325308816898302
0.0635,1.69919375,1.0,2652.6233974380666,0.5113315856759478,1.2889237111228298,0.9807622610290416,0.28441913750000003,0.7338108710172564
0.064,1.6976,1.0,2650.430819890072,0.5140726368185979,1.2882241736711646,0.9809268381195625,0.2843522,0.735098296274153
0.0645,1.69599375,1.0,2648.24721777752,0.5167983092333783,1.2875189165982346,0.9810875812995741,0.2842847375,0.7363930886421475
0.065,1.694375,1.0,2646.0730346331443,0.5195086890079814,1.2868079357173217,0.9812445962027913,0.28421675,0.737695178601941
0.0655,1.69274375,1.0,2643.9087132841237,0.5222038622300996,1.2860912268417077,0.981397984662604,0.2841482375,0.739004495931781
0.066,1.6911,1.0,2641.7546958598678,0.5248839149874254,1.2853687857846745,0.9815478448745238,0.2840792,0.740320969705933
0.0665,1.6894437500000001,1.0,2639.6114237998677,0.5275489333676511,1.2846406083595034,0.9816942715505556,0.2840096375,0.7416445282931499
0.067,1.687775,1.0,2637.47933786158,0.5301990034584693,1.2839066903794762,0.9818373560659495,0.28393955,0.7429750993551409
0.0675,1.68609375,1.0,2635.358878129638,0.5328342113475724,1.283167027657875,0.981977186598762,0.2838689375,0.744312609845039
0.068,1.6844000000000001,1.0,2633.2474975151217,0.5354545974308564,1.2824216436458984,0.982113846593616,0.2837978,0.7456569362256034
0.0685,1.68269375,1.0,2631.1474820256467,0.5380602839157387,1.2816705170882188,0.9822474198317412,0.2837261375,0.7470080350869115
0.069,1.680975,1.0,2629.0605295264804,0.5406513775912061,1.2809136321432346,0.9823779864534564,0.28365395,0.7483658522834677
0.0695,1.67924375,1.0,2626.986506831674,0.5432279554896328,1.280150989910105,0.9825056227628634,0.28358123749999997,0.7497303024629729
0.07,1.6775,1.0,2624.9252810268335,0.5457900946433931,1.2793825914879895,0.9826304024914612,0.283508,0.7511012996602525
0.07050000000000001,1.67574375,1.0,2622.876719466242,0.5483378720848614,1.2786084379760478,0.9827523969008048,0.2834342375,0.7524787572976617
0.07100000000000001,1.673975,1.0,2620.840689770227,0.5508713648464119,1.2778285304734391,0.9828716748803916,0.28335995,0.7538625881854888
0.07150000000000001,1.67219375,1.0,2618.8170598225333,0.553390649960419,1.277042870079323,0.9829883030410261,0.2832851375,0.7552527045223576
0.07200000000000001,1.6704,1.0,2616.805697767613,0.5558958044592568,1.2762514578928588,0.9831023458039015,0.2832098,0.7566490178956317
0.0725,1.66859375,1.0,2614.8064720080197,0.5583869053752997,1.2754542950132062,0.9832138654856217,0.2831339375,0.7580514392818163
0.073,1.6667750000000001,1.0,2612.81925120198,0.560864029740922,1.2746513825395245,0.9833229223793702,0.28305755,0.7594598790469637
0.0735,1.66494375,1.0,2610.843904260644,0.5633272545884979,1.2738427215709731,0.9834295748324304,0.2829806375,0.7608742469470743
0.074,1.6631,1.0,2608.880300345553,0.5657766569504018,1.2730283132067115,0.983533879320237,0.2829032,0.7622944521285008
0.0745,1.6612437500000001,1.0,2606.9283088661664,0.5682123138590081,1.272208158545899,0.9836358905171391,0.2828252375,0.7637204031283503
0.075,1.659375,1.0,2604.98779947761,0.5706343023466908,1.2713822586876955,0.983735661364041,0.28274675,0.7651520078748876
0.0755,1.65749375,1.0,2603.0586420779678,0.5730426994458243,1.27055061473126,0.983833243133074,0.2826677375,0.766589173687938
