Time [s],Phi [rad],STIM [ ],Fsee [N],Gamma [ ],Lcerel [ ],q [ ],Lmtc [m],fisomrel [ ]
0.0,1.8,1.0,17.96725519776924,1.3575440804837403e-05,1.3793397353491095,0.005000048998904359,0.288653,0.5411395573509808
0.0005,1.79999375,1.0,18.277782901535264,0.00562270860211354,1.3793022724056307,0.01295044347439208,0.2886527375,0.5412301854206782
0.001,1.799975,1.0,21.62206172150963,0.011200378961291715,1.378937926255138,0.03562721138690642,0.28865195,0.5421111225939272
0.0015,1.79994375,1.0,31.07848034831924,0.01674676300064733,1.3780454162011817,0.07062721348836172,0.2886506375,0.5442655079377401
0.002,1.7999,1.0,53.6026598278418,0.022262036210831032,1.3763668166691856,0.11474804707252413,0.2886488,0.5483036330047948
0.0025,1.79984375,1.0,97.15323045251314,0.027746373098425134,1.3739335149169336,0.16460754118644016,0.28864643749999996,0.5541254031309548
0.003,1.7997750000000001,1.0,161.00306153951436,0.03319994719362787,1.3712126634213884,0.21731413600213775,0.28864354999999997,0.560590428940048
0.0035,1.79969375,1.0,237.73420619241676,0.03862293104987026,1.368583167243219,0.2706463893632869,0.2886401375,0.566793523038767
0.004,1.7996,1.0,321.5210072791277,0.044015496254591994,1.3661546559538496,0.32294824008956513,0.2886362,0.5724833160820092
0.0045000000000000005,1.7994937500000001,1.0,409.32401089650494,0.04937781343442761,1.3639214935727997,0.373065300732901,0.2886317375,0.577682227409894
0.005,1.799375,1.0,499.47097351428766,0.05471005224630346,1.3618571211631023,0.4202762708355056,0.28862675,0.5824598975240813
0.0055,1.79924375,1.0,590.8484632332231,0.0600123814247657,1.3599377009859142,0.4642003726014706,0.2886212375,0.5868777149520876
0.006,1.7991000000000001,1.0,682.5762788033121,0.06528496872548997,1.358145357385522,0.5047044763841749,0.2886152,0.5909818334923365
0.006500000000000001,1.79894375,1.0,773.9416117588446,0.0705279809820398,1.3564662233567284,0.5418231485077558,0.2886086375,0.5948081364980582
0.007,1.798775,1.0,864.3454785149127,0.07574158408005832,1.3548894311947333,0.575697184410165,0.28860155,0.5983848585021643
0.0075,1.79859375,1.0,953.3008194641405,0.08092594299419646,1.3534058931946562,0.6065284842257272,0.2885939375,0.6017355696916048
0.008,1.7984,1.0,1040.4160065190508,0.08608122174790034,1.3520077990201351,0.6345489215781708,0.2885858,0.6048804509853322
0.0085,1.79819375,1.0,1125.3735066900015,0.09120758336156645,1.3506884023343624,0.6599997311886681,0.2885771375,0.6078368764928966
0.009000000000000001,1.797975,1.0,1207.9402925281427,0.09630519026438314,1.3494414869730562,0.6831182283368593,0.28856795,0.6106206861672812
0.0095,1.79774375,1.0,1287.935801565614,0.1013742038191115,1.348261546918687,0.7041302104168331,0.2885582375,0.6132458384496277
0.01,1.7975,1.0,1365.2164962561465,0.10641478392425507,1.347143749757518,0.7232457728455648,0.288548,0.6157245440187809
0.0105,1.79724375,1.0,1439.7023234364713,0.11142709010959653,1.3460834104131554,0.7406572165470764,0.2885372375,0.6180684726938759
0.011,1.796975,1.0,1511.3619007492252,0.11641128175503512,1.3450760688576908,0.7565387767212607,0.28852595000000003,0.6202886055539611
0.0115,1.79669375,1.0,1580.1637411446163,0.12136751608650316,1.3441179726021542,0.771047409909286,0.2885141375,0.622394199401094
0.012,1.7964,1.0,1646.1020633260136,0.12629594948782955,1.343205637628897,0.7843236320457416,0.28850180000000003,0.6243937828435658
0.0125,1.79609375,1.0,1709.2056877655557,0.13119673795624673,1.3423356705176537,0.7964927622655624,0.2884889375,0.6262955634286622
0.013000000000000001,1.7957750000000001,1.0,1769.5301235024258,0.13607003739778342,1.3415048066783837,0.807666359260609,0.28847555,0.6281073565547187
0.0135,1.79544375,1.0,1827.1224462234445,0.14091600183445352,1.3407102515878397,0.8179437541773928,0.2884616375,0.6298358560680835
0.014,1.7951000000000001,1.0,1882.0295510469066,0.145734783841978,1.339949521705693,0.8274133019713001,0.2884472,0.6314869983803273
0.0145,1.79474375,1.0,1934.3224800048351,0.15052653599607776,1.339220133491615,0.8361534989000874,0.2884322375,0.6330666487051368
0.015,1.794375,1.0,1984.0737142321177,0.1552914097989519,1.3385198230564648,0.8442341933276404,0.28841675,0.634580132008354
0.0155,1.79399375,1.0,2031.3894470732362,0.16002955756047713,1.3378461725136397,0.8517174725689216,0.2884007375,0.6360330475697833
0.016,1.7936,1.0,2076.3363847614974,0.16474112814665529,1.3371973636497456,0.8586588160429292,0.2883842,0.6374296490677973
0.0165,1.7931937500000001,1.0,2118.9875245403477,0.16942626999365587,1.3365716580885612,0.8651077114044846,0.2883671375,0.6387739763122344
0.017,1.792775,1.0,2159.428407181261,0.17408513153764826,1.335967317453865,0.8711083404083935,0.28834955,0.6400700306213452
0.0175,1.7923437500000001,1.0,2197.742910521857,0.17871786012871424,1.335382736392437,0.8767002424520586,0.2883314375,0.6413214927612279
0.018000000000000002,1.7919,1.0,2234.0307685426474,0.18332460393651512,1.3348162510090305,0.8819188082509384,0.2883128,0.6425321366717409
0.0185,1.79144375,1.0,2268.3662356324926,0.18790550786867546,1.3342665445101967,0.8867958675077812,0.2882936375,0.6437049656288671
0.019,1.790975,1.0,2300.8222187802508,0.19246071603655945,1.3337323876211635,0.8913600330610709,0.28827395,0.6448427724894052
0.0195,1.79049375,1.0,2331.4782472911716,0.19699037255153115,1.333212551067159,0.8956370481274919,0.2882537375,0.6459483284799614
0.02,1.79,1.0,2360.413920558153,0.2014946206759656,1.3327058641353589,0.8996501252648995,0.288233,0.6470242601082403
0.0205,1.78949375,1.0,2387.71295445063,0.20597360413350943,1.332211168545617,0.9034202204653583,0.2882117375,0.6480731488952667
0.021,1.788975,1.0,2413.4522109676936,0.21042746537427265,1.3317274195934952,0.9069663044060974,0.28818995000000003,0.6490973185262794
0.021500000000000002,1.78844375,1.0,2437.6922856052865,0.21485634386815833,1.3312537696360964,0.9103055956095285,0.2881676375,0.6500986610391453
0.022,1.7879,1.0,2460.4972404305167,0.2192603790850694,1.330789371030524,0.9134537096517474,0.2881448,0.6510790561646373
0.0225,1.78734375,1.0,2481.93431615828,0.22363971049490902,1.3303333761338816,0.9164248305507741,0.28812143749999997,0.6520403718494627
0.023,1.786775,1.0,2502.0629610067117,0.2279944767673167,1.329885038878345,0.919231881138847,0.28809755,0.6529842510339057
0.0235,1.78619375,1.0,2520.948410866742,0.23232481600318497,1.3294435819993835,0.9218866285834144,0.28807313749999996,0.6539123924726259
0.024,1.7856,1.0,2538.6929989643104,0.23663086787181156,1.3290079004697706,0.9243997502053384,0.2880482,0.6548271729224284
0.0245,1.78499375,1.0,2555.328321955288,0.24091276669436687,1.3285775779024729,0.9267811239462752,0.2880227375,0.6557295130731644
0.025,1.784375,1.0,2570.8873806648553,0.24517064679202138,1.3281521979104567,0.929039786949973,0.28799675,0.656620328464721
0.025500000000000002,1.7837449618671302,1.0,2585.4630808337915,0.24940464248594546,1.3277313441066882,0.9311840185881626,0.2879702883984195,0.6575005296237995
0.026000000000000002,1.783112966108972,1.0,2599.5437881534785,0.2536148880973096,1.3273146001041338,0.933221414280035,0.2879437445765768,0.6583710221896395
0.0265,1.7824809703508138,1.0,2613.2647612782616,0.2578015177168955,1.3269015529561978,0.9351589516641473,0.28791720075473415,0.6592326998559509
0.027,1.7818489745926553,1.0,2626.6326286481803,0.2619646640206193,1.3264921121647237,0.9370030982408069,0.2878906569328915,0.6600857802749281
0.0275,1.7812169788344971,1.0,2639.6425836625745,0.26610445927386867,1.326086294659161,0.9387598252396662,0.28786411311104887,0.6609302564906214
0.028,1.780584983076339,1.0,2652.303151520883,0.2702210333722406,1.3256839950729071,0.9404346182153134,0.28783756928920623,0.6617663754890006
0.0285,1.7799529873181807,1.0,2664.6230506287447,0.27431451621133207,1.3252851080393595,0.9420325406153031,0.2878110254673636,0.6625943829331066
0.029,1.7793209915600225,1.0,2676.6111845025043,0.27838503768673994,1.324889528191916,0.9435582717534385,0.28778448164552095,0.6634145231863338
0.029500000000000002,1.7786889958018641,1.0,2688.2641643829998,0.28243268787390535,1.324497264373214,0.9450161419793872,0.2877579378236783,0.6642268029792744
0.03,1.778057000043706,1.0,2699.6106279367173,0.2864576528895828,1.3241080333005324,0.9464101577643388,0.28773139400183567,0.665031832748919
0.0305,1.7774250042855477,1.0,2710.659390042137,0.2904600582730674,1.3237217354708526,0.9477440364869135,0.28770485017999303,0.665829840509373
0.031,1.7767930085273895,1.0,2721.4180175548486,0.29444002530898594,1.323338284085361,0.9490212290930182,0.28767830635815034,0.6666210269283623
0.0315,1.7761610127692313,1.0,2731.8942077996994,0.2983976752819653,1.3229575923452428,0.9502449423800562,0.2876517625363077,0.6674055916663393
0.032,1.775529017011073,1.0,2742.09578317579,0.30233312947663243,1.3225795734516845,0.9514181592936525,0.28762521871446506,0.6681837333919939
0.0325,1.7748970212529147,1.0,2752.030685929724,0.3062465091776141,1.3222041406058718,0.9525436573026599,0.2875986748926224,0.6689556497972947
0.033,1.7742650254947565,1.0,2761.706973095042,0.31013793566953723,1.3218312070089906,0.9536240250549853,0.2875721310707798,0.6697215376120416
0.0335,1.7736330297365983,1.0,2771.1328115991646,0.31400753023702876,1.321460685862227,0.9546616774934495,0.28754558724893714,0.6704815926179418
0.034,1.7730010339784399,1.0,2780.3164735370688,0.3178554141647154,1.3210924903667667,0.9556588695904252,0.28751904342709445,0.6712360096622061
0.0345,1.7723690382202817,1.0,2789.2663316123453,0.3216817087372242,1.320726533723796,0.9566177088420939,0.2874924996052518,0.6719849826706595
0.035,1.7717370424621235,1.0,2797.9908547448613,0.3254865352391819,1.3203627291345001,0.9575401666473937,0.28746595578340917,0.6727287046603792
0.035500000000000004,1.7711050467039653,1.0,2806.498603845798,0.3292700149552155,1.3200009898000657,0.9584280886829107,0.2874394119615665,0.6734673677518439
0.036000000000000004,1.770473050945807,1.0,2814.798227759626,0.33303226916995177,1.3196412289216783,0.9592832043727622,0.2874128681397239,0.6742011631806097
0.0365,1.769841055187649,1.0,2822.8984593731607,0.3367734191680176,1.3192833597005238,0.9601071355418006,0.28738632431788125,0.6749302813085011
0.037,1.7692090594294905,1.0,2830.808111891518,0.3404935862340399,1.3189272953377884,0.960901404330971,0.2873597804960386,0.6756549116343211
0.0375,1.7685770636713323,1.0,2838.536018491044,0.34419289147717164,1.318572949540849,0.9616674404572882,0.28733323667419597,0.6763752417756497
0.038,1.767945067913174,1.0,2846.078028972095,0.3478714179152956,1.3182203522391076,0.9624065910962756,0.28730669285235333,0.6770912226429155
0.0385,1.7673130721550159,1.0,2853.4555737899,0.3515293295598689,1.3178693059696127,0.9631201187188515,0.2872801490305107,0.6778032663341733
0.039,1.7666810763968575,1.0,2860.673193229672,0.3551667369342412,1.31751976440862,0.9638092149658719,0.287253605208668,0.6785114770723675
0.0395,1.7660490806386993,1.0,2867.735469294491,0.35878375056176226,1.3171716812323844,0.9644750025075419,0.28722706138682536,0.6792159586231593
0.04,1.765417084880541,1.0,2874.6470241831867,0.3623804809657818,1.316825010117161,0.9651185397753864,0.2872005175649827,0.6799168142993011
0.0405,1.7647850891223829,1.0,2881.412518816535,0.36595703866964946,1.3164797047392054,0.9657408253212225,0.2871739737431401,0.6806141469648769
0.041,1.7641530933642247,1.0,2888.0366514108337,0.36951353419671507,1.3161357187747726,0.9663428018361734,0.28714742992129744,0.6813080590394065
0.0415,1.7635210976060662,1.0,2894.5241560987834,0.3730500780703283,1.315793005900118,0.9669253598595166,0.2871208860994548,0.6819986525018115
0.042,1.762889101847908,1.0,2900.8798015982543,0.3765667808138389,1.3154515197914964,0.9674893412042849,0.2870943422776121,0.6826860288942447
0.0425,1.7622571060897498,1.0,2907.108389928623,0.38006375295059647,1.3151112141251637,0.9680355421239473,0.28706779845576946,0.6833702893257819
0.043000000000000003,1.7616251103315916,1.0,2913.2147551744592,0.3835411050039509,1.3147720425773748,0.968564716242195,0.2870412546339268,0.6840515344759801
0.043500000000000004,1.7609931145734334,1.0,2919.2037622968155,0.3869989474972518,1.314433958824385,0.9690775772657769,0.2870147108120842,0.684729864598294
0.044,1.7603611188152752,1.0,2925.0803059925756,0.39043739095384883,1.3140969165424492,0.9695748014984732,0.28698816699024154,0.6854053795233601
0.0445,1.7597291230571168,1.0,2930.8493096005286,0.39385654589709185,1.313760869407823,0.9700570301726306,0.2869616231683989,0.6860781786621397
0.045,1.7590971272989586,1.0,2936.515724055869,0.39725652285033053,1.3134257710967618,0.970524871613173,0.28693507934655627,0.6867483610089293
0.0455,1.7584651315408004,1.0,2942.0845268917697,0.4006374323369146,1.3130915752855206,0.9709789032476546,0.2869085355247136,0.6874160251442323
0.046,1.7578331357826422,1.0,2947.5548047448574,0.40399935547405447,1.3127582874020154,0.9714196732701835,0.286881991702871,0.6880811660119845
0.0465,1.7572011400244838,1.0,2952.93521645413,0.40734242945517185,1.3124258292504616,0.9718477041463497,0.28685544788102835,0.6887439452077853
0.047,1.7565691442663256,1.0,2958.230127827724,0.410666765932746,1.3120941604455918,0.9722634918427897,0.28682890405918565,0.6894044483920958
0.0475,1.7559371485081674,1.0,2963.4418988463085,0.41397246563927964,1.3117632582818355,0.9726675079796173,0.286802360237343,0.6900627257190484
0.048,1.7553051527500092,1.0,2968.5729026369645,0.41725962930727556,1.3114331000536223,0.9730602014369644,0.2867758164155004,0.690718827139638
0.0485,1.754673156991851,1.0,2973.62552509351,0.42052835766923646,1.3111036630553816,0.9734419996622533,0.28674927259365773,0.6913728024028176
0.049,1.7540411612336926,1.0,2978.6021645075,0.42377875145766514,1.3107749245815425,0.9738133098906767,0.2867227287718151,0.6920247010565579
0.0495,1.7534091654755344,1.0,2983.5052312107227,0.42701091140506436,1.3104468619265348,0.974174520285396,0.28669618494997245,0.6926745724488745
0.05,1.7527771697173762,1.0,2988.3371472295094,0.4302249382439368,1.3101194523847879,0.9745260010034186,0.2866696411281298,0.6933224657288243
0.0505,1.752145173959218,1.0,2993.1003459501244,0.4334209327067853,1.3097926732507308,0.9748681051926305,0.2866430973062871,0.693968429847468
0.051000000000000004,1.7515131782010598,1.0,2997.797271795766,0.43659899552611253,1.3094665018187932,0.9752011699250085,0.2866165534844445,0.6946125135587975
0.051500000000000004,1.7508811824429014,1.0,3002.4303799147115,0.43975922743442125,1.3091409153834044,0.9755255170706312,0.28659000966260184,0.695254765420634
0.052000000000000005,1.7502491866847432,1.0,3007.002135880282,0.4429017291642142,1.308815891238994,0.9758414541167334,0.2865634658407592,0.6958952337954906
0.0525,1.749617190926585,1.0,3011.515015402023,0.4460266014479942,1.3084914066799913,0.9761492749357115,0.28653692201891656,0.6965339668514037
0.053,1.7489851951684268,1.0,3015.9715040484575,0.449133945018264,1.3081674390008258,0.9764492605056814,0.2865103781970739,0.6971710125627306
0.0535,1.7483531994102686,1.0,3020.3740969809232,0.45222386060752623,1.3078439654959266,0.9767416795869026,0.2864838343752313,0.6978064187109143
0.054,1.7477212036521104,1.0,3024.724753544241,0.4552964431796461,1.307520968166943,0.9770267890725945,0.28645729055338864,0.6984402236532716
0.0545,1.747089207893952,1.0,3029.022086013446,0.45835175712463117,1.3071984579608702,0.9773048336656776,0.286430746731546,0.6990724088854066
0.055,1.7464572121357937,1.0,3033.2727425574235,0.4613899545311194,1.3068763765177678,0.9775760520508612,0.28640420290970336,0.6997030916305014
0.0555,1.7458252163776355,1.0,3037.47783945927,0.4644111264337948,1.3065547133182243,0.9778406698465559,0.28637765908786067,0.7003322950968793
0.056,1.7451932206194773,1.0,3041.638497566887,0.46741536386734134,1.3062334578428294,0.9780989033084616,0.28635111526601803,0.7009600424031379
0.0565,1.744561224861319,1.0,3045.755842196591,0.4704027578664431,1.3059125995721719,0.9783509597947383,0.2863245714441754,0.7015863565784313
0.057,1.7439292291031607,1.0,3049.8310030391413,0.47337339946578394,1.3055921279868412,0.9785970382044067,0.28629802762233275,0.7022112605627362
0.0575,1.7432972333450025,1.0,3053.8651140684983,0.4763273797000479,1.3052720325674265,0.9788373293907169,0.2862714838004901,0.7028347772071176
0.058,1.7426652375868443,1.0,3057.8593134527982,0.47926478960391905,1.3049523027945167,0.9790720165511095,0.2862449399786475,0.7034569292739841
0.0585,1.7420332418286861,1.0,3061.8147434678044,0.4821857202120813,1.3046329281487012,0.9793012755952725,0.28621839615680483,0.704077739437335
0.059000000000000004,1.7414012460705277,1.0,3065.7325504129312,0.48509026255921867,1.3043138981105689,0.9795252754926822,0.28619185233496214,0.7046972302830048
0.059500000000000004,1.7407692503123695,1.0,3069.6138845296373,0.48797850768001516,1.3039952021607093,0.9797441786009313,0.2861653085131195,0.705315424308895
0.06,1.7401372545542113,1.0,3073.4598999221803,0.4908505466091547,1.3036768297797112,0.9799581409760436,0.28613876469127686,0.705932343925205
0.0605,1.739505258796053,1.0,3077.271754481024,0.4937064703813215,1.303358770448164,0.9801673126658992,0.2861122208694342,0.7065480114546498
0.061,1.738873263037895,1.0,3081.0506098085652,0.4965463700311993,1.3030410136466568,0.9803718379878108,0.2860856770475916,0.7071624491326747
0.0615,1.7382412672797367,1.0,3084.797631147279,0.4993703365934722,1.3027235488557787,0.9805718557912215,0.28605913322574894,0.7077756791076626
0.062,1.7376092715215783,1.0,3088.513987310628,0.5021784611028242,1.3024063655561189,0.9807674997064324,0.2860325894039063,0.708387723441132
0.0625,1.73697727576342,1.0,3092.200850615768,0.5049708345939393,1.3020894532282667,0.9809588983801992,0.28600604558206366,0.7089986041079299
0.063,1.736345280005262,1.0,3095.859396819605,0.5077475481015015,1.301772801352811,0.9811461756989848,0.285979501760221,0.7096083429964188
0.0635,1.7357132842471037,1.0,3099.4903594289626,0.5105086830009918,1.3014564032114835,0.9813294504966565,0.2859529579383784,0.710216954600751
0.064,1.7350812884889453,1.0,3103.0934706795865,0.5132543061262252,1.301140260641216,0.9815088366847405,0.2859264141165357,0.7108244369290196
0.0645,1.734449292730787,1.0,3106.671304075824,0.5159845472578835,1.3008243512707394,0.9816844472959202,0.28589987029469305,0.7114308344468712
0.065,1.7338172969726289,1.0,3110.2243862489263,0.51869948824454,1.30050867021298,0.9818563888032765,0.2858733264728504,0.7120361579299312
0.0655,1.7331853012144707,1.0,3113.7532454938155,0.5213992109347686,1.3001932125808637,0.9820247639020958,0.28584678265100777,0.7126404181134578
0.066,1.7325533054563125,1.0,3117.25841174398,0.5240837971771428,1.2998779734873172,0.9821896716710725,0.28582023882916513,0.7132436256924104
0.0665,1.731921309698154,1.0,3120.740416548091,0.5267533288202362,1.2995629480452664,0.9823512077255273,0.28579369500732243,0.7138457913215212
0.067,1.7312893139399959,1.0,3124.1997930464463,0.5294078877126224,1.2992481313676374,0.9825094643630832,0.2857671511854798,0.7144469256153612
0.0675,1.7306573181818377,1.0,3127.6370759478764,0.5320475557028749,1.2989335185673567,0.9826645307022257,0.28574060736363716,0.715047039148405
0.068,1.7300253224236795,1.0,3131.0528015075624,0.5346724146395674,1.2986191047573503,0.9828164928141422,0.2857140635417945,0.7156461424550977
0.0685,1.7293933266655213,1.0,3134.4475075051764,0.5372825463712734,1.2983048850505445,0.9829654338482058,0.2856875197199519,0.7162442460299152
0.069,1.7287613309073628,1.0,3137.821733223656,0.5398780327465665,1.2979908545598655,0.9831114341514592,0.28566097589810924,0.7168413603274268
0.0695,1.7281293351492046,1.0,3141.176019428152,0.5424589556140206,1.2976770083982396,0.9832545713824181,0.2856344320762666,0.7174374957623546
0.07,1.7274973393910464,1.0,3144.510908346323,0.5450253968222089,1.297363341678593,0.9833949206195046,0.28560788825442396,0.7180326627096312
0.07050000000000001,1.7268653436328882,1.0,3147.8269436480273,0.5475774382197051,1.2970498495138518,0.9835325544643996,0.2855813444325813,0.7186268715044579
