Time [s],Phi [rad],STIM [ ],Fsee [N],Gamma [ ],Lcerel [ ],q [ ],Lmtc [m],fisomrel [ ]
0.0,1.8,1.0,18.802783536965187,0.0009320813320846658,1.3792471921405678,0.005223302024725917,0.288653,0.541363415986911
0.0005,1.79999375,1.0,19.3862445558647,0.006536062401723532,1.379180959583445,0.01569725828715264,0.2886527375,0.5415235965860263
0.001,1.799975,1.0,23.413216910018683,0.012108609568886602,1.378758640787647,0.04057393185421301,0.28865195,0.5425442985608868
0.0015,1.79994375,1.0,34.418923678654686,0.01764989915198951,1.377768125194068,0.07729265239013224,0.2886506375,0.5449338124596903
0.002,1.7999,1.0,59.97858221354447,0.02316010648222662,1.3759648746954858,0.12257401208220613,0.2886488,0.5492678985816571
0.0025,1.79984375,1.0,107.18346510176718,0.02863940590639506,1.3734621348548735,0.17307830068801272,0.28864643749999996,0.5552488323649245
0.003,1.7997750000000001,1.0,173.62636739758884,0.03408797079305955,1.3707491410405188,0.2260246676082919,0.28864354999999997,0.561687099546293
0.0035,1.79969375,1.0,251.7643223665322,0.03950597353849414,1.3681572428049233,0.27929001492667216,0.2886401375,0.5677941472266477
0.004,1.7996,1.0,336.3123577208296,0.04489358557189053,1.3657673272297586,0.33130343150245867,0.2886362,0.5733873161071388
0.0045000000000000005,1.7994937500000001,1.0,424.55078713026114,0.05025097736690826,1.3635673510956572,0.3809867045988437,0.2886317375,0.5785037666367575
0.005,1.799375,1.0,514.9390650480179,0.05557831842371593,1.3615309504496482,0.4276807046979619,0.28862675,0.5832122827390753
0.0055,1.79924375,1.0,606.4032967336407,0.06087577730859925,1.3596357863516024,0.47105135999601083,0.2886212375,0.5875704756864304
0.006,1.7991000000000001,1.0,698.1026950265866,0.06614352164289512,1.3578647273765512,0.5109978013613887,0.2886152,0.591622566644473
0.006500000000000001,1.79894375,1.0,789.3378832192052,0.07138171809535582,1.3562047033698346,0.5475757805264052,0.2886086375,0.5954024531160975
0.007,1.798775,1.0,879.5318219264266,0.0765905323780895,1.3546451996552353,0.5809387200082418,0.28860155,0.5989374437547776
0.0075,1.79859375,1.0,968.214147737187,0.0817701294248685,1.353177407855897,0.6112952454342857,0.2885939375,0.6022503781256041
0.008,1.7984,1.0,1054.9929898086725,0.08692067288870409,1.3517939347386534,0.638880073277255,0.2885858,0.6053604192636992
0.0085,1.79819375,1.0,1139.58460152213,0.092042325989783,1.3504878618942806,0.6639343672124115,0.2885771375,0.6082852635994123
0.009000000000000001,1.797975,1.0,1221.748983014008,0.09713525065883861,1.3492533469225552,0.6866941317378412,0.28856795,0.6110398586205145
0.0095,1.79774375,1.0,1301.308819745299,0.10219960793255507,1.3480850461026463,0.707382837842859,0.2885582375,0.6136377572695109
0.01,1.7975,1.0,1378.1538456625137,0.10723555832184985,1.3469778649278694,0.7262076036522956,0.288548,0.6160917131699528
0.0105,1.79724375,1.0,1452.1996010565556,0.1122432609236749,1.345927337683132,0.7433578780656208,0.2885372375,0.61841287322532
0.011,1.796975,1.0,1523.398106205143,0.11722287417247253,1.3449293348950062,0.7590051259616597,0.28852595000000003,0.6206114602324255
0.0115,1.79669375,1.0,1591.7455003721884,0.12217455601269255,1.3439798651047299,0.7733034038447344,0.2885141375,0.6226972334264408
0.012,1.7964,1.0,1657.2377613347935,0.12709846265156874,1.3430755177019091,0.7863906861482373,0.28850180000000003,0.6246785368417316
0.0125,1.79609375,1.0,1719.8975104722006,0.1319947496955209,1.3422130496528868,0.7983900067444537,0.2884889375,0.6265632291048178
0.013000000000000001,1.7957750000000001,1.0,1779.7851846930391,0.13686357297458784,1.3413892037610278,0.809410805206427,0.28847555,0.6283590929700621
0.0135,1.79544375,1.0,1836.949261565531,0.14170508627067843,1.3406012247090442,0.8195505294521636,0.2884616375,0.6300727223427908
0.014,1.7951000000000001,1.0,1891.4385668830062,0.14651944209451678,1.3398466545881869,0.8288958544269355,0.2884472,0.6317099852207195
0.0145,1.79474375,1.0,1943.3255747171531,0.15130679295682686,1.3391230354897061,0.8375237881967245,0.2884322375,0.6332766798477281
0.015,1.794375,1.0,1992.6874056407544,0.15606729020267077,1.3384280897204937,0.8455028499137367,0.28841675,0.6347781507912549
0.0155,1.79399375,1.0,2039.6258529176678,0.16080108593936057,1.3377594785281204,0.852893985236074,0.2884007375,0.6362198171696818
0.016,1.7936,1.0,2084.2050414983414,0.16550832877126065,1.3371154364247673,0.8597516566948279,0.2883842,0.6376058116203402
0.0165,1.7931937500000001,1.0,2126.5002042613087,0.17018916713558485,1.336494223744221,0.8661244390190975,0.2883671375,0.638940170238438
0.017,1.792775,1.0,2166.59894717282,0.17484374946954698,1.335894100820269,0.8720557091303961,0.28834955,0.640226891052752
0.0175,1.7923437500000001,1.0,2204.5812558580974,0.17947222266770546,1.3353135194316175,0.8775843121449177,0.2883314375,0.6414695270611681
0.018000000000000002,1.7919,1.0,2240.5555098431896,0.18407473530435126,1.334750743762502,0.8827449915266666,0.2883128,0.6426720011175121
0.0185,1.79144375,1.0,2274.590397984766,0.18865143168504728,1.3342045270331497,0.887569040923505,0.2882936375,0.6438371623423109
0.019,1.790975,1.0,2306.7582269820587,0.19320245581538176,1.3336736575543264,0.892084585667448,0.28827395,0.6449677622905552
0.0195,1.79049375,1.0,2337.1377806146006,0.19772795170094273,1.333156923636797,0.8963169369809109,0.2882537375,0.6460665313548004
0.02,1.79,1.0,2365.809324103815,0.20222806269249294,1.3326531570181008,0.9002889206128356,0.288233,0.6471360877738863
0.0205,1.78949375,1.0,2392.8541016896284,0.20670293196090692,1.3321612315082245,0.9040211550538112,0.2882117375,0.6481789422287618
0.021,1.788975,1.0,2418.3510406979776,0.21115270218687435,1.33168008919558,0.9075323010824201,0.28818995000000003,0.6491974439770793
0.021500000000000002,1.78844375,1.0,2442.360192438464,0.21557751267745398,1.3312088938200808,0.9108393058242495,0.2881676375,0.650193458719638
0.022,1.7879,1.0,2464.944999897663,0.21997750273970462,1.3307468091216408,0.9139575426030562,0.2881448,0.6511688401015718
0.0225,1.78734375,1.0,2486.1720163963373,0.2243528116806851,1.3302929988401742,0.916900978858267,0.28812143749999997,0.6521254302205508
0.023,1.786775,1.0,2506.1064502727545,0.22870357807483313,1.3298466664573871,0.9196823314330431,0.28809755,0.6530649764889962
0.0235,1.78619375,1.0,2524.8101622393997,0.2330299397033842,1.3294070710199062,0.9223131991859446,0.28807313749999996,0.6539890993688983
0.024,1.7856,1.0,2542.3590499450893,0.23733203636147826,1.3289733603306615,0.9248041483537618,0.2880482,0.6548996434717882
0.0245,1.78499375,1.0,2558.79952166536,0.2416100022140402,1.328544979507946,0.9271648860408427,0.2880227375,0.6557978202810055
0.025,1.784375,1.0,2574.1795752818757,0.2458639714259949,1.328121373670053,0.929404295826309,0.28799675,0.6566848346329001
0.025500000000000002,1.78374375,1.0,2588.5486666751176,0.25009407816226725,1.3277019879352756,0.9315305188624298,0.2879702375,0.6575618848956266
0.026000000000000002,1.7831000000000001,1.0,2601.9575849429084,0.25430045658778205,1.3272862674219068,0.9335510259985476,0.2879432,0.6584301631283039
0.0265,1.78244375,1.0,2614.4571034253904,0.25848324046728777,1.32687366868128,0.9354726836498539,0.2879156375,0.6592908313866095
0.027,1.781775,1.0,2626.090941663367,0.2626425609370426,1.3264637237615815,0.9373018198212919,0.28788755,0.6601448886088068
0.0275,1.7810937500000001,1.0,2636.9167316230514,0.2667785540271893,1.3260558445937447,0.9390442477488364,0.2878589375,0.6609935784638388
0.028,1.7804,1.0,2646.96950477294,0.2708913484569778,1.3256496603836587,0.9407053582698953,0.2878298,0.661837687155637
0.0285,1.77969375,1.0,2656.2849687393737,0.27498107294565804,1.3252448003372121,0.9422901291510316,0.2878001375,0.6626779969821652
0.029,1.778975,1.0,2664.899448487195,0.2790478562124799,1.3248408936602944,0.9438031621092086,0.28776995,0.6635152863711138
0.029500000000000002,1.7782437500000001,1.0,2672.849830548316,0.2830918269766932,1.3244375695587947,0.9452487160709606,0.2877392375,0.6643503299068313
0.03,1.7775,1.0,2680.1735102992534,0.28711311395754796,1.3240344572386016,0.9466307370927644,0.287708,0.665183898348485
0.0305,1.77674375,1.0,2686.8951924805965,0.29111184140981,1.3236313063761347,0.9479528994971839,0.2876762375,0.6660165099913152
0.031,1.775975,1.0,2693.0581895328255,0.2950881410534363,1.3232276995933743,0.9492185959590999,0.28764395,0.6668490249221155
0.0315,1.7751937500000001,1.0,2698.70025604668,0.2990421410687928,1.3228232739565464,0.9504309856303077,0.2876111375,0.66768218683666
0.032,1.7744,1.0,2703.8442812192943,0.30297396398647525,1.3224178052974842,0.9515930230318319,0.2875778,0.6685164503416887
0.0325,1.77359375,1.0,2708.513393250319,0.30688373233707944,1.3220110694480203,0.9527074596371499,0.2875439375,0.6693522677070863
0.033,1.772775,1.0,2712.730937025261,0.31077156865120115,1.3216028422399875,0.95377686028651,0.28750955,0.6701900888493677
0.0335,1.7719437500000002,1.0,2716.5204529138596,0.3146375954594363,1.3211928995052187,0.9548036180871105,0.2874746375,0.6710303613119595
0.034,1.7711000000000001,1.0,2719.9056566817294,0.31848193529238056,1.3207810170755465,0.9557899679548889,0.2874392,0.6718735302422767
0.0345,1.7702437500000001,1.0,2722.9104205169338,0.3223047106806298,1.3203669707828039,0.9567379989361207,0.2874032375,0.6727200383655935
0.035,1.7693750000000001,1.0,2725.558755170054,0.32610604415477984,1.3199505364588235,0.9576496654316006,0.28736675,0.6735703259557112
0.035500000000000004,1.76849375,1.0,2727.8727433051936,0.32988605122229303,1.3195315085738417,0.9585267977083162,0.2873297375,0.6744247928205513
0.036000000000000004,1.7676,1.0,2729.8744131226936,0.3336448604997302,1.3191096830308557,0.9593711142220562,0.2872922,0.6752838335329936
0.0365,1.76669375,1.0,2731.5790917780982,0.3373825885781513,1.3186849174331619,0.9601842301055037,0.2872541375,0.6761477149254427
0.037,1.765775,1.0,2733.0020370006014,0.3410993516317856,1.3182570706504773,0.9609676613736331,0.28721555,0.6770166995566873
0.0375,1.76484375,1.0,2734.1585680750804,0.3447952658348622,1.3178260015525198,0.9617228320816552,0.2871764375,0.677891048268934
0.038,1.7639,1.0,2735.0640580397353,0.3484704473616101,1.3173915690090068,0.9624510809176595,0.28713679999999997,0.6787710201594417
0.0385,1.76294375,1.0,2735.7339263260337,0.3521250123862584,1.3169536318896562,0.9631536672530243,0.28709663750000003,0.6796568725508811
0.039,1.761975,1.0,2736.1836318393653,0.3557590770830362,1.316512049064185,0.9638317767005978,0.28705595,0.6805488609604302
0.0395,1.7609937500000001,1.0,2736.428666482199,0.35937275762617266,1.3160666794023115,0.9644865262255884,0.2870147375,0.6814472390675907
0.04,1.76,1.0,2736.4656166602713,0.36296614549202216,1.3156175536431811,0.9651189796428244,0.286973,0.6823519127305284
0.0405,1.7589937500000001,1.0,2736.320165102064,0.36653937572715545,1.3151644385927963,0.965730125266431,0.2869307375,0.6832633183880342
0.041,1.757975,1.0,2736.0174402855064,0.37009258061190964,1.3147071062465068,0.9663208959540479,0.28688795,0.6841818790750953
0.0415,1.75694375,1.0,2735.5644561215554,0.3736258675220658,1.3142454931581684,0.9668921825880833,0.2868446375,0.6851076850439399
0.042,1.7559,1.0,2734.9682369826273,0.37713934383340486,1.313779535881637,0.9674448272726855,0.28680079999999997,0.6860408254525013
0.0425,1.75484375,1.0,2734.2358158277307,0.38063311692170787,1.313309170970769,0.9679796264994213,0.2867564375,0.6869813883469691
0.043000000000000003,1.753775,1.0,2733.3742324166565,0.3841072941627559,1.31283433497942,0.9684973340765303,0.28671155,0.6879294606440818
0.043500000000000004,1.75269375,1.0,2732.3905316145015,0.3875619829323299,1.3123549644614463,0.9689986638416259,0.28666613750000003,0.6888851281131654
0.044,1.7516,1.0,2731.2917617839935,0.3909972906062109,1.3118709959707038,0.9694842921758589,0.2866202,0.6898484753579123
0.0445,1.75049375,1.0,2730.084973268348,0.39441332456017997,1.3113823660610486,0.9699548603358975,0.2865737375,0.6908195857979054
0.045,1.7493750000000001,1.0,2728.777216962588,0.3978101921700181,1.3108890112863367,0.9704109766186,0.28652675,0.6917985416498853
0.0455,1.74824375,1.0,2727.3755429741427,0.4011880008115064,1.310390868200424,0.9708532183718902,0.2864792375,0.6927854239087597
0.046,1.7471,1.0,2725.886999373223,0.40454685786042577,1.3098878733571666,0.971282133864159,0.2864312,0.6937803123283568
0.0465,1.7459437500000001,1.0,2724.318631032087,0.40788687069255725,1.3093799633104206,0.9716982440234038,0.28638263750000004,0.6947832854019222
0.047,1.744775,1.0,2722.6774785531584,0.4112081466836819,1.308867074614042,0.9721020440563426,0.28633355,0.6957944203423589
0.0475,1.74359375,1.0,2720.97057728764,0.41451079320958073,1.3083491438218868,0.9724940049568447,0.28628393750000003,0.6968137930622109
0.048,1.7424,1.0,2719.2049564415133,0.4177949176460347,1.307826107487811,0.9728745749122104,0.2862338,0.6978414781533884
0.0485,1.74119375,1.0,2717.385257592465,0.421060620536978,1.307297923853335,0.9732441812806756,0.2861831375,0.698877506362978
0.049,1.739975,1.0,2715.5148340218057,0.424308005831529,1.306764562860179,0.9736032323568955,0.28613195,0.6999218844808779
0.0495,1.73874375,1.0,2713.5995402112185,0.42753718290403603,1.3062259716210236,0.9739521163228219,0.2860802375,0.7009746629616074
0.05,1.7375,1.0,2711.642455364004,0.4307482509266032,1.3056821224944182,0.9742912037602612,0.286028,0.7020358417962613
0.0505,1.73624375,1.0,2709.6466553556857,0.4339413090713345,1.305132987838912,0.974620848158785,0.2859752375,0.7031054200653648
0.051000000000000004,1.734975,1.0,2707.615212505463,0.43711645651033404,1.3045785400130538,0.9749413868533211,0.28592195,0.7041833959295809
0.051500000000000004,1.73369375,1.0,2705.551195363957,0.44027379241570597,1.304018751375393,0.9752531419022908,0.2858681375,0.7052697666203669
0.052000000000000005,1.7324,1.0,2703.45766851828,0.4434134159595543,1.3034535942844787,0.9755564209105457,0.2858138,0.7063645284305835
0.0525,1.73109375,1.0,2701.3376924141844,0.4465354263139831,1.3028830410988603,0.9758515178010301,0.28575893750000003,0.7074676767050577
0.053,1.729775,1.0,2699.1943231947844,0.4496399226510964,1.3023070641770866,0.9761387135387797,0.28570355000000003,0.7085792058310931
0.0535,1.72844375,1.0,2697.0306125563875,0.4527270041429985,1.301725635877707,0.9764182768105836,0.2856476375,0.7096991092289331
0.054,1.7271,1.0,2694.8496076213282,0.4557967699617932,1.3011387285592704,0.9766904646633797,0.2855912,0.7108273793421751
0.0545,1.7257437500000001,1.0,2692.652027471682,0.45884930602040264,1.3005463358427576,0.9769555230915421,0.2855342375,0.7119639668733813
0.055,1.724375,1.0,2690.4398366155797,0.46188470831692446,1.2999484399379968,0.9772136879370021,0.28547675,0.7131088436822766
0.0555,1.72299375,1.0,2688.219629361268,0.46490310007574603,1.299344980621857,0.9774651851532129,0.2854187375,0.7142620617873087
0.056,1.7216,1.0,2685.9925183992427,0.467904572439506,1.2987359478001148,0.977710231126553,0.2853602,0.7154235761861195
0.0565,1.72019375,1.0,2683.759614631108,0.470889216550843,1.2981213313785465,0.9779490332792515,0.28530113749999997,0.7165933411259021
0.057,1.718775,1.0,2681.5220271548264,0.4738571235523956,1.2975011212629286,0.9781817905114647,0.28524155,0.7177713100998095
0.0575,1.71734375,1.0,2679.280863251716,0.4768083845868025,1.2968753073590376,0.9784086936180865,0.2851814375,0.7189574358433577
0.058,1.7159,1.0,2677.0372283762226,0.4797430907967024,1.29624387957265,0.9786299256819376,0.2851208,0.7201516703308202
0.0585,1.71444375,1.0,2674.7922261479853,0.4826613333247338,1.2956068278095425,0.978845662444844,0.2850596375,0.7213539647716183
0.059000000000000004,1.7129750000000001,1.0,2672.546958345739,0.48556320331353536,1.2949641419754911,0.9790560726580136,0.28499795,0.7225642696067038
0.059500000000000004,1.71149375,1.0,2670.3025249037983,0.4884487919057458,1.2943158119762725,0.9792613184130184,0.2849357375,0.7237825345049342
0.06,1.71,1.0,2668.0600239105443,0.49131819024400364,1.2936618277176635,0.9794615554546021,0.284873,0.7250087083594431
0.0605,1.7084937500000001,1.0,2665.8205516096887,0.4941714894709476,1.29300217910544,0.9796569334764391,0.2848097375,0.7262427392840041
0.061,1.7069750000000001,1.0,2663.5852024030146,0.4970087807292163,1.2923368560453787,0.9798475964009006,0.28474595,0.7274845746093862
0.0615,1.7054437500000001,1.0,2661.355068855968,0.4998301551614483,1.2916658484432562,0.9800336826438075,0.2846816375,0.7287341608797051
0.062,1.7039,1.0,2659.1312417056633,0.5026357039102823,1.2909891462048488,0.9802153253650834,0.2846168,0.7299914438487662
0.0625,1.70234375,1.0,2656.9148098701776,0.505425518118357,1.2903067392359333,0.9803926527061564,0.2845514375,0.7312563684764025
0.063,1.7007750000000001,1.0,2654.7055530684697,0.5081996702167489,1.2896186294922356,0.9805657872372324,0.28448555,0.7325288566678545
0.0635,1.69919375,1.0,2652.503524126114,0.510958243776532,1.2889248164147395,0.9807348476979602,0.28441913750000003,0.7338088343740723
0.064,1.6976,1.0,2650.3116605815567,0.5137013636094476,1.2882252728339025,0.9808999501113842,0.2843522,0.7350962758285154
0.0645,1.69599375,1.0,2648.130092586645,0.5164291118345272,1.2875199974427656,0.9810612044456546,0.2842847375,0.7363911067299493
0.065,1.694375,1.0,2645.9589501093037,0.5191415705708023,1.2868089889343688,0.9812187166871658,0.28421675,0.7376932521251439
0.0655,1.69274375,1.0,2643.7983629359987,0.5218388219373044,1.286092246001753,0.9813725890118654,0.2841482375,0.7390026364083944
0.066,1.6911,1.0,2641.6484606744343,0.5245209480530648,1.285369767337959,0.9815229199479957,0.2840792,0.7403191833210434
0.0665,1.6894437500000001,1.0,2639.509372756419,0.5271880310371152,1.284641551636027,0.9816698045307549,0.2840096375,0.7416428159510045
0.067,1.687775,1.0,2637.381228439859,0.529840153008487,1.2839075975889978,0.9818133344493336,0.28393955,0.7429734567322823
0.0675,1.68609375,1.0,2635.2641568122194,0.5324773960862117,1.283167903889912,0.9819535981867488,0.2838689375,0.7443110274444948
0.068,1.6844000000000001,1.0,2633.158286792528,0.5350998423893207,1.2824224692318102,0.9820906811528842,0.2837978,0.7456554492123955
0.0685,1.68269375,1.0,2631.063747134718,0.5377075740368457,1.281671292307733,0.9822246658111017,0.2837261375,0.7470066425053944
0.069,1.680975,1.0,2628.980666429968,0.5403006731478178,1.2809143718107208,0.9823556317987849,0.28365395,0.7483645271370796
0.0695,1.67924375,1.0,2626.9091731097296,0.5428792218412689,1.2801517064338146,0.982483656042139,0.28358123749999997,0.7497290222647378
0.07,1.6775,1.0,2624.849395448855,0.5454433022362303,1.2793832948700545,0.9826088128655617,0.283508,0.7511000463888781
0.07050000000000001,1.67574375,1.0,2622.8014615679267,0.5479929964517335,1.2786091358124816,0.9827311740958734,0.2834342375,0.7524775173527494
0.07100000000000001,1.673975,1.0,2620.765499436719,0.5505283866068099,1.2778292279541361,0.9828508091616839,0.28335995,0.7538613523418645
0.07150000000000001,1.67219375,1.0,2618.741636876859,0.5530495548204911,1.277043569988059,0.9829677851881511,0.2832851375,0.7552514678835189
0.07200000000000001,1.6704,1.0,2616.7300015651713,0.5555565832118085,1.2762521606072903,0.9830821670873765,0.2832098,0.7566477798463135
0.0725,1.66859375,1.0,2614.7307210362906,0.5580495538997936,1.275454998504871,0.9831940176446623,0.2831339375,0.758050203439673
0.073,1.6667750000000001,1.0,2612.7433127950103,0.5605284996420576,1.274652088040035,0.9833033949745126,0.28305755,0.7594586432884213
0.0735,1.66494375,1.0,2610.7683584966567,0.5629935479561785,1.273843423689097,0.9834103603724155,0.2829806375,0.7608730207341636
0.074,1.6631,1.0,2608.805832889545,0.565444790084325,1.2730290055634412,0.9835149713104755,0.2829032,0.7622932465594336
0.0745,1.6612437500000001,1.0,2606.855478074959,0.567882299000263,1.2722088359391968,0.9836172824812115,0.2828252375,0.7637192271576131
0.075,1.659375,1.0,2604.9170365966907,0.5703061476777579,1.2713829170924926,0.9837173468450082,0.28274675,0.7651508683366367
0.0755,1.65749375,1.0,2602.990251435468,0.5727164090905751,1.2705512512994581,0.9838152156945988,0.2826677375,0.7665880753198261
