Time [s],Phi [rad],STIM [ ],Fsee [N],Gamma [ ],Lcerel [ ],q [ ],Lmtc [m],fisomrel [ ]
0.0,1.8,1.0,17.96785289607885,1.881749941898001e-05,1.379339668387648,0.0050000939038029255,0.288653,0.5411397193480525
0.0005,1.79999375,1.0,18.280093826989464,0.0056279212569261,1.379302015722203,0.012965010577828825,0.2886527375,0.5412308063427097
0.001,1.799975,1.0,21.628249255329756,0.011205562377232183,1.3789372943886167,0.035654536049157554,0.28865195,0.5421126496219224
0.0015,1.79994375,1.0,31.092962309845596,0.016751917341724917,1.37804418271498,0.07066460943641772,0.2886506375,0.544268481872968
0.002,1.7999,1.0,53.63371755578546,0.022267161640126282,1.3763648024765922,0.11479233220782878,0.2886488,0.5483084676554711
0.0025,1.79984375,1.0,97.20538233657871,0.02775146977811778,1.3739310026227836,0.16465571928935838,0.28864643749999996,0.5541313943798465
0.003,1.7997750000000001,1.0,161.07091041507417,0.033205015284976686,1.3712101243949781,0.21736384030315867,0.28864354999999997,0.5605964398809467
0.0035,1.79969375,1.0,237.81085785010148,0.03862797071323068,1.368580806612308,0.27069582749287546,0.2886401375,0.5667990720568254
0.004,1.7996,1.0,321.6025427143423,0.044020507649423925,1.3661524967106324,0.3229961110995739,0.2886362,0.5724883582671247
0.0045000000000000005,1.7994937500000001,1.0,409.40842760225155,0.049382796719306184,1.3639195122292838,0.373110743911332,0.2886317375,0.5776868259528067
0.005,1.799375,1.0,499.55708910472873,0.054715007578937026,1.3618552913981024,0.4203187871257724,0.28862675,0.5824641201760028
0.0055,1.79924375,1.0,590.9353459466713,0.06001730896182771,1.3599360036541672,0.4642397363995043,0.2886212375,0.5868816112036586
0.006,1.7991000000000001,1.0,682.6632648427343,0.06528986862293568,1.358143776328607,0.5047406516154578,0.2886152,0.5909854447611119
0.006500000000000001,1.79894375,1.0,774.0277056449975,0.07053285339146725,1.3564647537757784,0.5418562290244225,0.2886086375,0.5948114774093549
0.007,1.798775,1.0,864.4332088528039,0.07574642916813343,1.3548880141535309,0.5757273040925094,0.28860155,0.5983880657211839
0.0075,1.79859375,1.0,953.3894970811068,0.08093076089708758,1.3534045293141899,0.6065558550605964,0.2885939375,0.601738643686913
0.008,1.7984,1.0,1040.5030313257657,0.08608601262885612,1.3520065178174163,0.6345737893260133,0.2885858,0.6048833272131919
0.0085,1.79819375,1.0,1125.4618624368172,0.09121234747906724,1.3506871515993353,0.6600222939130119,0.2885771375,0.6078396737982935
0.009000000000000001,1.797975,1.0,1208.022318935991,0.09630992761819711,1.3494403662173349,0.6831387623781809,0.28856795,0.6106231838580832
0.0095,1.79774375,1.0,1288.0099628398632,0.10137891440777028,1.3482605655974402,0.7041489238018825,0.2885582375,0.6132480180157878
0.01,1.7975,1.0,1365.2930761927676,0.10641946817245682,1.3471427655299468,0.7232627794880574,0.288548,0.6157267230236618
0.0105,1.79724375,1.0,1439.7840679270128,0.11143174836615877,1.3460823873478611,0.740672674453472,0.2885372375,0.6180707307640467
0.011,1.796975,1.0,1511.4342659394435,0.11641591373284034,1.3450751849077878,0.7565529291950455,0.28852595000000003,0.620290550895587
0.0115,1.79669375,1.0,1580.2233067491989,0.12137212178478768,1.3441172610155014,0.7710604082240351,0.2885141375,0.6223957610688433
0.012,1.7964,1.0,1646.1625651955449,0.12630052946117862,1.3432049294812725,0.7843355233109405,0.28850180000000003,0.6243953328436059
0.0125,1.79609375,1.0,1709.2731955387155,0.1312012926668113,1.3423348950928164,0.7965036302993997,0.2884889375,0.6262972563832601
0.013000000000000001,1.7957750000000001,1.0,1769.5921282767133,0.13607456646124522,1.341504106707904,0.8076763634139359,0.28847555,0.6281088810638917
0.0135,1.79544375,1.0,1827.170825458583,0.1409205049307951,1.3407097141110993,0.8179530142006981,0.2884616375,0.629837023948766
0.014,1.7951000000000001,1.0,1882.0786640314177,0.14573926183604335,1.3399489840953047,0.8274218332435921,0.2884472,0.631488163943145
0.0145,1.79474375,1.0,1934.3745907505706,0.15053098909330692,1.3392195708299828,0.8361613633791953,0.2884322375,0.6330678659627624
0.015,1.794375,1.0,1984.134365905094,0.1552958383145256,1.3385191764382385,0.8442414347159397,0.28841675,0.6345815280088545
0.0155,1.79399375,1.0,2031.4449964120267,0.16003396089029595,1.3378455872295656,0.8517241958883295,0.2884007375,0.6360343086400191
0.016,1.7936,1.0,2076.383955933417,0.16474550644998628,1.3371968678801558,0.8586650787042038,0.2883842,0.6374307152162397
0.0165,1.7931937500000001,1.0,2119.0295751762187,0.16943062364155648,1.3365712242845225,0.8651135478164986,0.2883671375,0.6387749074732707
0.017,1.792775,1.0,2159.4700420987638,0.1740894610271257,1.3359668919793146,0.8711137737845275,0.28834955,0.6400709422632639
0.0175,1.7923437500000001,1.0,2197.787493709669,0.17872216614179007,1.3353822847779657,0.8767052992310206,0.2883314375,0.6413224587280342
0.018000000000000002,1.7919,1.0,2234.0639146175254,0.18332888522555077,1.3348159179867432,0.8819235588245756,0.2883128,0.6425328477764494
0.0185,1.79144375,1.0,2268.395770646657,0.1879097645241792,1.3342662500229028,0.8868003173248548,0.2882936375,0.6437055934171756
0.019,1.7909769729517964,1.0,2300.9431861329417,0.19246494888055599,1.3337320810412279,0.8913641952640492,0.28827403286397546,0.6448434250124087
0.0195,1.7905089960419216,1.0,2332.175390393134,0.1969945819421908,1.33321258052862,0.89564103183327,0.28825437783376073,0.6459482658719962
0.02,1.790041019132047,1.0,2362.200042290762,0.20149880701844303,1.3327069338097426,0.8996541129572471,0.288234722803546,0.6470219904174731
0.0205,1.7895730422221723,1.0,2391.063243088919,0.20597776737505544,1.3322144297883451,0.9034244783722338,0.2882150677733312,0.6480662392870048
0.021,1.7891050653122975,1.0,2418.8054472646163,0.21043160472894373,1.3317344405175249,0.90697116413757,0.2881954127431165,0.6490824648422346
0.021500000000000002,1.788637088402423,1.0,2445.465746289573,0.21486045922289035,1.3312663758530892,0.910311412040494,0.28817575771290177,0.6500720287919639
0.022,1.7881691114925482,1.0,2471.0855530356025,0.21926447099967772,1.3308096456508445,0.9134608571258791,0.288156102682687,0.6510362829858505
0.0225,1.7877011345826734,1.0,2495.696062843269,0.22364377582364736,1.3303637775133443,0.916433720326248,0.28813644765247226,0.6519763217701324
0.023,1.7872331576727989,1.0,2519.3568419680955,0.2279985191301964,1.3299280475625086,0.9192428942016678,0.28811679262225753,0.6528937609425736
0.0235,1.7867651807629241,1.0,2542.1077701478553,0.23232883927626163,1.3295019376652522,0.9219001589437326,0.2880971375920428,0.6537897738356004
0.024,1.7862972038530494,1.0,2563.9793264834166,0.2366348708151982,1.3290850330927755,0.9244162787659932,0.2880774825618281,0.6546653092931343
0.0245,1.7858292269431748,1.0,2585.003327080409,0.2409167483003612,1.3286769191162793,0.9268010881483351,0.28805782753161335,0.6555213100772667
0.025,1.7853612500333,1.0,2605.212842311474,0.24517460628510573,1.3282771810069642,0.9290635849013865,0.2880381725013986,0.6563587131062527
0.025500000000000002,1.7848932731234253,1.0,2624.6421178919245,0.24940857932278696,1.3278854040360308,0.9312120127856472,0.28801851747118384,0.6571784496815333
0.026000000000000002,1.7844252962135507,1.0,2643.3264997696033,0.25361880196675995,1.3275011734746798,0.9332539349660006,0.2879988624409691,0.6579814457037874
0.0265,1.783957319303676,1.0,2661.3023628268325,0.25780540877037983,1.3271240745941117,0.9351962994147078,0.2879792074107544,0.6587686218780167
0.027,1.7834893423938012,1.0,2678.596142853652,0.2619685292483478,1.3267537926842894,0.9370455105134524,0.28795955238053966,0.6595406854796952
0.0275,1.7830213654839266,1.0,2695.24833271356,0.26610830113231915,1.3263898914263499,0.9388074517391033,0.28793989735032494,0.6602985930315546
0.028,1.7825533885740519,1.0,2711.287134959026,0.27022485551704084,1.326032054560125,0.9404875635038256,0.28792024232011015,0.6610430465539021
0.0285,1.782085411664177,1.0,2726.7350236563025,0.27431832030066106,1.3256800239622049,0.9420908756443138,0.2879005872898954,0.6617746236989084
0.029,1.7816174347543026,1.0,2741.6150259617802,0.27838882338132803,1.3253335415091798,0.9436220372249775,0.2878809322596807,0.6624938991361441
0.029500000000000002,1.7811494578444278,1.0,2755.9506896316766,0.28243649265718995,1.3249923490776403,0.9450853502954567,0.287861277229466,0.663201444646037
0.03,1.780681480934553,1.0,2769.7660520086365,0.2864614560263951,1.3246561885441768,0.9464848002520715,0.28784162219925125,0.6638978292090815
0.0305,1.7802135040246785,1.0,2783.0856104855006,0.29046384138709175,1.3243248017853797,0.9478240831818853,0.2878219671690365,0.6645836190907978
0.031,1.7797455271148037,1.0,2795.934294446779,0.2944437766374281,1.3239979306778393,0.9491066305221307,0.28780231213882174,0.6652593779224427
0.0315,1.779277550204929,1.0,2808.3291669291802,0.2984013836542843,1.3236753912224881,0.9503356386659721,0.287782657108607,0.665925513765846
0.032,1.7788095732950544,1.0,2820.2987564420555,0.3023367946686902,1.3233568996655019,0.9515140721971355,0.2877630020783923,0.6665826385163092
0.0325,1.7783415963851796,1.0,2831.86389145156,0.3062501357220633,1.3230422443926768,0.9526446985744229,0.28774334704817756,0.6672312128116775
0.033,1.7778736194753049,1.0,2843.0393668206393,0.31014152795792815,1.3227312701582679,0.9537301025584871,0.2877236920179628,0.6678715792794361
0.0335,1.7774056425654303,1.0,2853.8402072987324,0.3140110925198094,1.3224238217165307,0.9547726956846928,0.28770403698774805,0.6685040790488099
0.034,1.7769376656555556,1.0,2864.2816551188666,0.3178589505512317,1.3221197438217203,0.9557747299463826,0.2876843819575333,0.6691290517864456
0.0345,1.7764696887456808,1.0,2874.379158128776,0.3216852231957195,1.3218188812280918,0.956738310243231,0.2876647269273186,0.6697468357305465
0.035,1.7760017118358062,1.0,2884.1483584567195,0.32549003159679746,1.3215210786899005,0.9576654057191483,0.28764507189710387,0.6703577677234782
0.035500000000000004,1.7755337349259315,1.0,2893.6050817114215,0.3292734968979901,1.3212261809614017,0.95855786010045,0.28762541686688914,0.6709621832428343
0.036000000000000004,1.7750657580160567,1.0,2902.765326716411,0.3330357402428221,1.3209340327968504,0.9594174011328644,0.2876057618366744,0.6715604164309634
0.0365,1.7745977811061822,1.0,2911.6387258139575,0.33677687481481405,1.3206445364189185,0.9602456532111046,0.28758610680645963,0.6721526826042629
0.037,1.7741298041963074,1.0,2920.2437220336,0.3404970271485739,1.3203575176409401,0.9610441363901909,0.2875664517762449,0.6727393523307869
0.0375,1.7736618272864328,1.0,2928.5950631932196,0.3441963188481305,1.3200728361040166,0.9618142807308404,0.2875467967460302,0.6733207257280973
0.038,1.773193850376558,1.0,2936.701688967073,0.3478748638645004,1.3197904034780426,0.9625574339475967,0.28752714171581545,0.6738969956739501
0.0385,1.7727258734666833,1.0,2944.5726292558243,0.35153277614869993,1.3195101314329134,0.9632748639300537,0.28750748668560067,0.6744683543103394
0.039,1.7722578965568088,1.0,2952.2169998692557,0.3551701696517456,1.3192319316385235,0.9639677643429986,0.28748783165538594,0.6750349930559219
0.0395,1.771789919646934,1.0,2959.6439983806044,0.3587871583246539,1.3189557157647684,0.9646372597754597,0.2874681766251712,0.6755971026179345
0.04,1.7713219427370592,1.0,2966.86290015562,0.36238385611844126,1.3186813954815426,0.965284410479453,0.2874485215949565,0.6761548730036244
0.0405,1.7708539658271847,1.0,2973.8830545529727,0.36596037698412415,1.3184088824587414,0.9659102167351471,0.28742886656474176,0.6767084935311716
0.041,1.77038598891731,1.0,2980.7138812989506,0.369516834872719,1.3181380883662597,0.9665156228755394,0.28740921153452703,0.677258152840121
0.0415,1.7699180120074351,1.0,2987.36486703435,0.3730533437352423,1.3178689248739923,0.9671015210004956,0.2873895565043123,0.6778040389013145
0.042,1.7694500350975606,1.0,2993.844242548152,0.37657001453302125,1.3176013151037367,0.9676687548620393,0.2873699014740975,0.6783463158302837
0.0425,1.7689820581876858,1.0,3000.155454825885,0.3800669494180971,1.3173352241290206,0.9682181245708553,0.2873502464438828,0.6788850622671693
0.043000000000000003,1.768514081277811,1.0,3006.3143114290338,0.3835442800795007,1.3170705102496028,0.9687503835242879,0.28733059141366807,0.6794205724810477
0.043500000000000004,1.7680461043679365,1.0,3012.325749041882,0.38700211270724205,1.3168071265216095,0.9692662487105037,0.28731093638345334,0.6799529482943907
0.044,1.7675781274580618,1.0,3018.1947380644115,0.39044055349133117,1.3165450260011673,0.9697663995714111,0.28729128135323856,0.6804822911795929
0.0445,1.767110150548187,1.0,3023.9262812520824,0.39385970862177816,1.3162841617444023,0.9702514803407923,0.28727162632302383,0.681008702262885
0.045,1.7666421736383124,1.0,3029.525412404818,0.39725968428859304,1.316024486807441,0.9707221022146381,0.2872519712928091,0.6815322823281043
0.0455,1.7661741967284377,1.0,3034.99719510464,0.40064058668178587,1.3157659542464095,0.9711788453672494,0.2872323162625944,0.6820531318203267
0.046,1.765706219818563,1.0,3040.34672150203,0.4040025219913667,1.3155085171174343,0.9716222608254674,0.28721266123237965,0.6825713508493547
0.0465,1.7652382429086884,1.0,3045.57911115177,0.4073455964073456,1.3152521284766419,0.9720528722122842,0.2871930062021649,0.6830870391930706
0.047,1.7647702659988136,1.0,3050.6995098970183,0.4106699161197326,1.314996741380158,0.9724711773701047,0.2871733511719502,0.6836002963006438
0.0475,1.7643022890889388,1.0,3055.7130888023207,0.4139755873185377,1.3147423088841095,0.9728776498730312,0.2871536961417354,0.684111221295599
0.048,1.7638343121790643,1.0,3060.625043135998,0.4172627161937709,1.3144887840446224,0.9732727404367321,0.2871340411115207,0.6846199129787462
0.0485,1.7633663352691895,1.0,3065.4405914004883,0.4205314089354424,1.3142361199178232,0.9736568782337253,0.28711438608130596,0.6851264698309676
0.049,1.7628983583593147,1.0,3070.158906975423,0.4237817464455592,1.313984321560877,0.9740304726096516,0.28709473105109123,0.6856308858863385
0.0495,1.7624303814494402,1.0,3074.7902919841003,0.4270138627471774,1.313733298750642,0.9743939136722614,0.28707507602087645,0.6861333458387768
0.05,1.7619624045395654,1.0,3079.338447211861,0.43022786104181643,1.3134830180651724,0.9747475735141949,0.2870554209906617,0.686633920231986
0.0505,1.7614944276296907,1.0,3083.8058753239134,0.4334238390955236,1.3132334564592603,0.9750918071822882,0.287035765960447,0.6871326586562012
0.051000000000000004,1.7610264507198161,1.0,3088.1950903103184,0.4366018946743463,1.3129845908876978,0.9754269535679227,0.28701611093023227,0.6876296105448356
0.051500000000000004,1.7605584738099413,1.0,3092.5086171244993,0.4397621255443318,1.3127363983052764,0.9757533362846993,0.28699645590001754,0.6881248251755214
0.052000000000000005,1.7600904969000666,1.0,3096.7489913332497,0.4429046294715275,1.3124888556667886,0.9760712644909803,0.2869768008698028,0.6886183516711126
0.0525,1.759622519990192,1.0,3100.918758778827,0.4460295042219805,1.3122419399270262,0.9763810336612093,0.2869571458395881,0.6891102390006613
0.053,1.7591545430803173,1.0,3105.020475252823,0.44913684756173844,1.311995628040781,0.9766829263096226,0.2869374908093733,0.6896005359803529
0.0535,1.7586865661704425,1.0,3109.056706181776,0.45222675725684847,1.311749896962845,0.9769772126696731,0.2869178357791586,0.6900892912744119
0.054,1.758218589260568,1.0,3113.0300263244503,0.4552993310733579,1.3115047236480102,0.9772641513322314,0.28689818074894385,0.690576553395972
0.0545,1.7577506123506932,1.0,3116.9430194808206,0.4583546667773141,1.3112600850510685,0.9775439898454008,0.2868785257187291,0.6910623707079133
0.055,1.7572826354408184,1.0,3120.7982782131126,0.46139286213476444,1.3110159581268122,0.9778169652785506,0.28685887068851434,0.691546791423664
0.0555,1.7568146585309439,1.0,3124.5984035787583,0.46441401491175616,1.3107723198300327,0.9780833047529914,0.2868392156582996,0.6920298636079715
0.056,1.756346681621069,1.0,3128.3460048743204,0.46741822287433654,1.3105291471155223,0.9783432259415239,0.2868195606280849,0.692511635177635
0.0565,1.7558787047111943,1.0,3132.042454626218,0.4704055715987746,1.310286427500437,0.9785969370470684,0.28679990559787016,0.6929921330006892
0.057,1.7554107278013198,1.0,3135.6871205708494,0.4733761320816785,1.3100441655447876,0.9788446374571055,0.28678025056765544,0.6934713501646567
0.0575,1.754942750891445,1.0,3139.2870330409205,0.476330052581061,1.3098023008643653,0.9790865216069023,0.2867605955374407,0.6939494080967643
0.058,1.7544747739815703,1.0,3142.8433066157145,0.4792674213870556,1.3095608233345961,0.9793227736603086,0.2867409405072259,0.6944263286237468
0.0585,1.7540067970716957,1.0,3146.3570595948986,0.48218832678979595,1.3093197228309061,0.9795535704579134,0.2867212854770112,0.6949021335070517
0.059000000000000004,1.753538820161821,1.0,3149.829413912543,0.4850928570794158,1.3090789892287211,0.9797790818659835,0.2867016304467965,0.695376844443087
0.059500000000000004,1.7530708432519462,1.0,3153.261495053552,0.4879811005460486,1.3088386124034674,0.9799994711061276,0.28668197541658175,0.6958504830634593
0.06,1.7526028663420716,1.0,3156.6544319728305,0.49085314547982806,1.308598582230571,0.9802148950668962,0.286662320386367,0.6963230709352088
0.0605,1.7521348894321969,1.0,3160.009357015799,0.4937090801708878,1.308358888585458,0.9804255045984341,0.28664266535615224,0.6967946295610367
0.061,1.751666912522322,1.0,3163.3274058423162,0.4965489929093615,1.3081195213435541,0.9806314447912396,0.2866230103259375,0.6972651803795251
0.0615,1.7511989356124475,1.0,3166.6097173517433,0.4993729719853827,1.3078804703802858,0.9808328552399921,0.2866033552957228,0.6977347447653508
0.062,1.7507309587025728,1.0,3169.857433611058,0.502181105689085,1.3076417255710788,0.9810298702933641,0.28658370026550806,0.698203344029493
0.0625,1.750262981792698,1.0,3173.0716997849913,0.5049734823106021,1.3074032767913593,0.9812226192906577,0.28656404523529333,0.6986709994194356
0.063,1.7497950048828235,1.0,3176.253664068372,0.5077501901400677,1.3071651139165532,0.9814112267860536,0.2865443902050786,0.6991377321193588
0.0635,1.7493270279729487,1.0,3179.404477620843,0.5105113174676152,1.3069272268220868,0.9815958127612122,0.2865247351748639,0.6996035632503292
0.064,1.748859051063074,1.0,3182.5252945037855,0.5132569525833784,1.306689605383386,0.9817764928269096,0.2865050801446491,0.7000685138704813
0.0645,1.7483910741531994,1.0,3185.617271619832,0.5159871837774909,1.3064522394758769,0.9819533784143523,0.28648542511443437,0.7005326049751908
0.065,1.7479230972433246,1.0,3188.6815686537307,0.5187020993400862,1.3062151189749855,0.9821265769567697,0.28646577008421964,0.7009958574972432
0.0655,1.7474551203334499,1.0,3191.719348016723,0.5214017875612981,1.3059782337561379,0.9822961920618465,0.28644611505400486,0.701458292306997
0.066,1.7469871434235753,1.0,3194.7317747925235,0.52408633673126,1.3057415736947597,0.9824623236755176,0.28642646002379013,0.7019199302125376
0.0665,1.7465191665137005,1.0,3197.718890332156,0.5267558098711262,1.3055051381252014,0.9826250670377072,0.2864068049935754,0.7023807735302985
0.067,1.7460511896038258,1.0,3200.681144497979,0.5294102899860359,1.3052689229568546,0.9827845152234712,0.2863871499633607,0.7028408312396748
0.0675,1.7455832126939512,1.0,3203.620952408367,0.5320499028289606,1.3050329076207412,0.9829407600417028,0.28636749493314595,0.7033001443508813
0.068,1.7451152357840765,1.0,3206.538791602362,0.5346747270322942,1.3047970878370843,0.9830938879081185,0.2863478399029312,0.7037587220855637
0.0685,1.7446472588742017,1.0,3209.4351408060224,0.5372848412284308,1.304561459326108,0.9832439823069731,0.2863281848727165,0.7042165736388761
0.069,1.7441792819643271,1.0,3212.310479914212,0.5398803240497639,1.3043260178080354,0.9833911239107623,0.28630852984250177,0.7046737081795387
0.0695,1.7437113050544524,1.0,3215.165289972474,0.5424612541286878,1.3040907590030903,0.9835353906942473,0.286288874812287,0.7051301348498866
