Time [s],Phi [rad],STIM [ ],Fsee [N],Gamma [ ],Lcerel [ ],q [ ],Lmtc [m],fisomrel [ ]
0.0,1.8,1.0,19.15334651821167,0.0011110093544355695,1.379208977296007,0.005316763874525552,0.288653,0.5414558403638918
0.0005,1.79999375,1.0,19.782655451045105,0.00671398677935859,1.3791384210188453,0.016277323134848497,0.2886527375,0.5416264595259463
0.001,1.799975,1.0,23.94536019772782,0.012285535931106057,1.3787067083753803,0.04157392310149138,0.28865195,0.54266973543203
0.0015,1.79994375,1.0,35.27673939554833,0.017825833097538754,1.3776991168315735,0.07861655868397396,0.2886506375,0.5451000546704381
0.002,1.7999,1.0,61.454569322500674,0.023335053577301545,1.3758749198984903,0.12411321645789185,0.2886488,0.5494835605590036
0.0025,1.79984375,1.0,109.35533830235725,0.02881337168690548,1.3733630118549054,0.1747346002861237,0.28864643749999996,0.5554848896002352
0.003,1.7997750000000001,1.0,176.2644524785474,0.03426096076287996,1.3706544240292082,0.22772135394034948,0.28864354999999997,0.5619110266185456
0.0035,1.79969375,1.0,254.6444651594827,0.03967799317140316,1.3680712885192963,0.2809690390467562,0.2886401375,0.5679959393104113
0.004,1.7996,1.0,339.3189981351525,0.0450646403102556,1.3656896435045471,0.33292312065276625,0.2886362,0.5735685096732055
0.0045000000000000005,1.7994937500000001,1.0,427.6222543377716,0.05042107259965577,1.363496689235087,0.3825200590315055,0.2886317375,0.5786675922038602
0.005,1.799375,1.0,518.0502907854766,0.05574745958228425,1.3614659395063018,0.42911236645882356,0.28862675,0.5833621638291664
0.0055,1.79924375,1.0,609.5283890099902,0.06104396974748337,1.3595755982019535,0.4723749034800837,0.2886212375,0.5877085114085054
0.006,1.7991000000000001,1.0,701.2028461212038,0.06631077061327816,1.3578090691676716,0.5122130879316023,0.2886152,0.5917495855273099
0.006500000000000001,1.79894375,1.0,792.4053548792878,0.07154802895091716,1.3561529051128647,0.5486862704544718,0.2886086375,0.5955201153688354
0.007,1.798775,1.0,882.5461544833006,0.07675591033382358,1.3545969736668244,0.5819503969849021,0.28860155,0.5990465123288566
0.0075,1.79859375,1.0,971.1692399404282,0.08193457975718628,1.3531323426144348,0.6122151982522266,0.2885939375,0.6023518769121219
0.008,1.7984,1.0,1057.8806578750227,0.08708420082685114,1.351751744402639,0.639715914179294,0.2885858,0.6054550711406267
0.0085,1.79819375,1.0,1142.3909291558957,0.09220493655078708,1.3504484084122002,0.664693763116834,0.2885771375,0.6083734471982007
0.009000000000000001,1.797975,1.0,1224.475340633037,0.09729694921974069,1.3492163268619584,0.6873843341322305,0.28856795,0.6111223120313836
0.0095,1.79774375,1.0,1303.9494536587317,0.10236039951971909,1.3480503016690355,0.708010699866735,0.2885582375,0.613714883635502
0.01,1.7975,1.0,1380.6910366704774,0.10739544752475266,1.3469454240988492,0.7267795140878497,0.288548,0.6161634971201202
0.0105,1.79724375,1.0,1454.6516754521292,0.11240225362034403,1.3458967937717687,0.7438794241131252,0.2885372375,0.6184802552882989
0.011,1.796975,1.0,1525.769233333818,0.11738097547905693,1.3449004967966633,0.7594814412819382,0.28852595000000003,0.6206748957570626
0.0115,1.79669375,1.0,1594.0169554206198,0.1223317702027336,1.3439528379794188,0.7737392195011975,0.2885141375,0.6227565218300501
0.012,1.7964,1.0,1659.410517893247,0.12725479464004488,1.3430501802020345,0.7867901252685129,0.28850180000000003,0.6247339727785449
0.0125,1.79609375,1.0,1721.991317464906,0.13215020518077533,1.3421890811657595,0.7987566579325754,0.2884889375,0.6266155380450678
0.013000000000000001,1.7957750000000001,1.0,1781.7985646787133,0.13701815672142834,1.341366546544253,0.8097479628228929,0.28847555,0.6284084212386809
0.0135,1.79544375,1.0,1838.8702551191373,0.14185880254307812,1.3405799457093395,0.8198611671959963,0.2884616375,0.6301189431780083
0.014,1.7951000000000001,1.0,1893.2712451267548,0.14667229592679906,1.3398266480328436,0.829182551213332,0.2884472,0.6317533459399294
0.0145,1.79474375,1.0,1945.0721936271786,0.1514587889985659,1.3391042243459632,0.8377888453609892,0.2884322375,0.6333173629806207
0.015,1.794375,1.0,1994.3747580810439,0.15621843479039843,1.3384101431410378,0.8457482304134797,0.28841675,0.6348168846277498
0.0155,1.79399375,1.0,2041.2396420838156,0.16095138271236345,1.3377425127790386,0.8531215792022624,0.2884007375,0.6362563618038934
0.016,1.7936,1.0,2085.739620770953,0.1656577819686444,1.3370994766570818,0.8599631207422365,0.2883842,0.6376401238441376
0.0165,1.7931937500000001,1.0,2127.9614680658233,0.17033778176342465,1.3364791781722842,0.8663212170382967,0.2883671375,0.6389724574505874
0.017,1.792775,1.0,2167.986611255325,0.1749915299506565,1.3358799457203607,0.8722391106190568,0.28834955,0.6402572132107383
0.0175,1.7923437500000001,1.0,2205.9216917046256,0.17961917565066712,1.3352999642807377,0.8777554367940599,0.2883314375,0.6414985138818112
0.018000000000000002,1.7919,1.0,2241.8379961462947,0.18422086414842453,1.334737879048796,0.8829049248079761,0.2883128,0.6426994653377347
0.0185,1.79144375,1.0,2275.8088686716687,0.18879674024155568,1.334192396141796,0.8877187456413582,0.2882936375,0.6438630177327961
0.019,1.790975,1.0,2307.9149718572994,0.1933469487276877,1.3336622216769978,0.8922249076978206,0.28827395,0.6449920976580676
0.0195,1.79049375,1.0,2338.2382221847874,0.197871633652902,1.333146115244604,0.8964486312690632,0.2882537375,0.6460894958463936
0.02,1.79,1.0,2366.863639304787,0.2023709392449663,1.3326428645483501,0.9004126586992173,0.288233,0.6471579230391199
0.0205,1.78949375,1.0,2393.869422116597,0.20684500851989046,1.3321513758342145,0.904137551031594,0.2882117375,0.6481998199344337
0.021,1.788975,1.0,2419.318106000906,0.2112939816530905,1.3316707514916832,0.9076419440744251,0.28818995000000003,0.6492171958065756
0.021500000000000002,1.78844375,1.0,2443.276067871384,0.21571799881998246,1.3312000939102422,0.9109427175009597,0.2881676375,0.6502120465365011
0.022,1.7879,1.0,2465.8132065441396,0.2201172001959824,1.3307385054793774,0.9140551845660329,0.2881448,0.6511863552081245
0.0225,1.78734375,1.0,2486.9962790510945,0.22449172462793748,1.3302851491697523,0.9169932703731741,0.28812143749999997,0.6521419650443703
0.023,1.786775,1.0,2506.895869780505,0.2288417121429405,1.3298391785359576,0.9197696455784352,0.28809755,0.6530807280061375
0.0235,1.78619375,1.0,2525.5776786672272,0.23316730164852403,1.3293998178526614,0.9223958703321807,0.28807313749999996,0.6540043367303365
0.024,1.7856,1.0,2543.0921486955576,0.23746862823559595,1.3289664563413437,0.9248825232405034,0.2880482,0.6549141281958508
0.0245,1.78499375,1.0,2559.49155202399,0.24174582699506406,1.328538483223485,0.92723927247507,0.2880227375,0.6558114318916195
0.025,1.784375,1.0,2574.829836434486,0.24599903301783613,1.3281152877205658,0.929474966608099,0.28799675,0.6566975700384259
0.025500000000000002,1.78374375,1.0,2589.1624800531513,0.25022838139482,1.3276962590540662,0.9315977152793898,0.2879702375,0.6575738577868953
0.026000000000000002,1.7831000000000001,1.0,2602.5384729369157,0.254434005230278,1.3272808598110035,0.933614971948609,0.2879432,0.6584414502594715
0.0265,1.78244375,1.0,2615.010167996573,0.2586160395758791,1.3268685323918212,0.9355335833734439,0.2879156375,0.6593015386862784
0.027,1.781775,1.0,2626.630654485023,0.2627746188428171,1.3264587225765758,0.9373598494478428,0.28788755,0.6601553011915507
0.0275,1.7810937500000001,1.0,2637.436586182701,0.26690987250772596,1.326051037311463,0.9390995961493718,0.2878589375,0.6610035748345633
0.028,1.7804,1.0,2647.4653809594843,0.2710219300472396,1.325645083542679,0.9407581968694215,0.2878298,0.6618471924887808
0.0285,1.77969375,1.0,2656.755154777711,0.2751109209379921,1.3252404682164196,0.9423406135013938,0.2878001375,0.6626869828901918
0.029,1.778975,1.0,2665.3446591201473,0.27917697465661734,1.324836798278881,0.9438514333036574,0.28776995,0.6635237706757833
0.029500000000000002,1.7782437500000001,1.0,2673.273221843253,0.2832202206797493,1.324433680676259,0.9452949020177647,0.2877392375,0.6643583764121657
0.03,1.7775,1.0,2680.5745604259873,0.2872407862142044,1.3240307785897392,0.9466749603603635,0.287708,0.6651915004034676
0.0305,1.77674375,1.0,2687.2859676433036,0.29123880080104975,1.323627726457321,0.9479952606369926,0.2876762375,0.6660238988139839
0.031,1.775975,1.0,2693.4423477126693,0.2952143922204106,1.3232241843199777,0.9492591968716042,0.28764395,0.6668562712713173
0.0315,1.7751937500000001,1.0,2699.0694454638347,0.29916768430294965,1.3228198991844933,0.9504699333875779,0.2876111375,0.6676891348549541
0.032,1.7744,1.0,2704.193286676713,0.30309880087932944,1.3224146180576524,0.9516304142782258,0.2875778,0.6685230040265885
0.0325,1.77359375,1.0,2708.8401512935097,0.30700786578021266,1.3220080879462393,0.9527433814268886,0.2875439375,0.6693583906160939
0.033,1.772775,1.0,2713.0365480500254,0.3108950028362619,1.321600055857038,0.9538113908454513,0.28750955,0.6701958038034121
0.0335,1.7719437500000002,1.0,2716.809190525956,0.3147603358781399,1.3211902687968329,0.9548368275061522,0.2874746375,0.6710357500963593
0.034,1.7711000000000001,1.0,2720.17471362255,0.3186039845018256,1.3207785672005907,0.9558219281380522,0.2874392,0.6718785421707146
0.0345,1.7702437500000001,1.0,2723.1644310256856,0.3224260750928821,1.3203646591850844,0.9567687707327525,0.2874032375,0.6727247613049259
0.035,1.7693750000000001,1.0,2725.806200050645,0.3262267308320951,1.3199482857038414,0.9576793021819949,0.28736675,0.6735749186070571
0.035500000000000004,1.76849375,1.0,2728.1160573886564,0.3300060695139892,1.3195292963305425,0.9585553556701857,0.2873297375,0.6744293009773864
0.036000000000000004,1.7676,1.0,2730.1101308612297,0.33376420893308917,1.3191075406388695,0.9593986491187267,0.2872922,0.6752881935823095
0.0365,1.76669375,1.0,2731.8046295682752,0.3375012668839197,1.3186828682025034,0.9602107937409452,0.2872541375,0.6761518798285264
0.037,1.765775,1.0,2733.215834537173,0.34121736116100543,1.3182551285951252,0.9609933018696288,0.28721555,0.6770206413357792
0.0375,1.76484375,1.0,2734.3600898740287,0.34491260955887115,1.3178241713904164,0.9617475941264338,0.2871764375,0.677894757908148
0.038,1.7639,1.0,2735.2537944164665,0.34858712987204155,1.3173898461620583,0.9624750059951479,0.28713679999999997,0.6787745075039061
0.0385,1.76294375,1.0,2735.913393888148,0.35224103989504124,1.316952002483732,0.9631767938543818,0.28709663750000003,0.6796601662039297
0.039,1.761975,1.0,2736.357176702021,0.35587445015284486,1.3165104735597368,0.9638541375894096,0.28705595,0.6805520412212729
0.0395,1.7609937500000001,1.0,2736.598258786024,0.35948748515151036,1.316065139849031,0.964508155820416,0.2870147375,0.6814503423858815
0.04,1.76,1.0,2736.647202950555,0.36308025656057286,1.3156159052218264,0.9651399027711246,0.286973,0.6823552307748952
0.0405,1.7589937500000001,1.0,2736.5145949951184,0.3666528760259331,1.3151626735337214,0.9657503730059452,0.2869307375,0.6832668661067505
0.041,1.757975,1.0,2736.2110384827592,0.37020545519349163,1.3147053486403146,0.9663405054335888,0.28688795,0.68418540668743
0.0415,1.75694375,1.0,2735.747151329238,0.37373810570914906,1.3142438343972045,0.9669111869965359,0.2868446375,0.6851110093856579
0.042,1.7559,1.0,2735.13356259758,0.3772509392188059,1.3137780346599892,0.9674632560791502,0.28680079999999997,0.6860438296075083
0.0425,1.75484375,1.0,2734.380909497213,0.3807440673683629,1.3133078532842672,0.9679975056585604,0.2867564375,0.6869840212704212
0.043000000000000003,1.753775,1.0,2733.499834587558,0.38421760180372055,1.312833194125637,0.9685146862201562,0.28671155,0.6879317367766311
0.043500000000000004,1.75269375,1.0,2732.4973912257506,0.387671647269838,1.3123539936713524,0.9690155099988425,0.28666613750000003,0.6888870619820049
0.044,1.7516,1.0,2731.3829898545973,0.3911063185459895,1.311870167020974,0.9695006517149469,0.2866202,0.6898501241145082
0.0445,1.75049375,1.0,2730.1670459213874,0.3945217311563215,1.31138162013718,0.9699707504264963,0.2865737375,0.6908210670942123
0.045,1.7493750000000001,1.0,2728.855256610762,0.3979179900583352,1.3108883018465585,0.970426414078178,0.28652675,0.6917999482619999
0.0455,1.74824375,1.0,2727.453318978047,0.40129520020953163,1.310390160975697,0.9708682197034504,0.2864792375,0.6927868238822734
0.046,1.7471,1.0,2725.9669289870976,0.40465346656741197,1.3098871463511834,0.9712967152906253,0.2864312,0.6937817491272966
0.0465,1.7459437500000001,1.0,2724.401780605802,0.40799289408947725,1.3093792067996057,0.9717124215190225,0.28638263750000004,0.6947847780613737
0.047,1.744775,1.0,2722.7635649598483,0.4113135877332286,1.3088662911475517,0.9721158333753992,0.28633355,0.6957959636248592
0.0475,1.74359375,1.0,2721.0579695451065,0.41461565245616716,1.3083483482216092,0.9725074216599606,0.28628393750000003,0.6968153576180014
0.048,1.7424,1.0,2719.2906774966964,0.41789919321579394,1.307825326848366,0.9728876343904626,0.2862338,0.6978430106846195
0.0485,1.74119375,1.0,2717.4673669178196,0.42116431496961015,1.3072971758544099,0.9732568981121851,0.2861831375,0.6988789722956119
0.049,1.739975,1.0,2715.593710265148,0.42441112267511677,1.3067638440663287,0.9736156191209001,0.28613195,0.6999232907322996
0.0495,1.73874375,1.0,2713.673324973823,0.4276397149386843,1.3062252989879286,0.9739641851200417,0.2860802375,0.7009759765936026
0.05,1.7375,1.0,2711.7102317827553,0.43085019856058976,1.305681504411033,0.9743029664719071,0.286028,0.702037046750662
0.0505,1.73624375,1.0,2709.709253419044,0.43404267983362554,1.305132416768793,0.9746323158890411,0.2859752375,0.7031065313674605
0.051000000000000004,1.734975,1.0,2707.67325886086,0.4372172570284088,1.3045780102684588,0.9749525702134472,0.28592195,0.7041844249391156
0.051500000000000004,1.73369375,1.0,2705.605113583848,0.44037402841555673,1.3040182591172806,0.9752640510407634,0.2858681375,0.705270721056435
0.052000000000000005,1.7324,1.0,2703.5076793818675,0.4435130922656865,1.3034531375225094,0.9755670655411756,0.2858138,0.7063654123971461
0.0525,1.73109375,1.0,2701.383814202684,0.4466345468494154,1.3028826196913952,0.9758619072292032,0.28575893750000003,0.7074684907170845
0.053,1.729775,1.0,2699.236371998008,0.44973849043736064,1.3023066798311886,0.9761488566859664,0.28570355000000003,0.7085799468413367
0.0535,1.72844375,1.0,2697.068202588819,0.45282502130013935,1.30172529214914,0.9764281822372459,0.2856476375,0.7096997706553447
0.054,1.7271,1.0,2694.8821515449054,0.4558942377083688,1.3011384308525,0.9767001405903938,0.2855912,0.7108279510959632
0.0545,1.7257437500000001,1.0,2692.681060079423,0.45894623793266615,1.3005460701485188,0.9769649774329244,0.2855342375,0.7119644761424797
0.055,1.724375,1.0,2690.4677649582013,0.4619811202436487,1.299948184244447,0.9772229279953878,0.28547675,0.7131093328075871
0.0555,1.72299375,1.0,2688.2453853393404,0.4649989722571391,1.2993447447196467,0.977474216420776,0.2854187375,0.7142625121451835
0.056,1.7216,1.0,2686.016162286063,0.4679999032842725,1.2987357311530072,0.9777190599769646,0.2853602,0.7154239889428514
0.0565,1.72019375,1.0,2683.781267038264,0.4709840057462009,1.2981211328966595,0.9779576659137386,0.28530113749999997,0.7165937184962126
0.057,1.718775,1.0,2681.5418664622407,0.473951371744667,1.2975009393253556,0.9781902329374172,0.28524155,0.7177716552950609
0.0575,1.71734375,1.0,2679.299125508542,0.47690209338141343,1.296875139813848,0.9784169516566213,0.2851814375,0.7189577530628449
0.058,1.7159,1.0,2677.0542072015437,0.4798362627581829,1.2962437237368896,0.9786380049751294,0.2851208,0.7201519647528746
0.0585,1.71444375,1.0,2674.808272631686,0.48275397197671804,1.295606680469232,0.978853568462639,0.2850596375,0.7213542425445195
0.059000000000000004,1.7129750000000001,1.0,2672.5624809496667,0.4856553131387616,1.2949639993856281,0.9790638107048454,0.28499795,0.7225645378393979
0.059500000000000004,1.71149375,1.0,2670.31798936362,0.4885403783460562,1.2943156698608302,0.9792688936341357,0.2849357375,0.7237828012575599
0.06,1.71,1.0,2668.075953138572,0.4914092597003445,1.2936616812695907,0.9794689728421258,0.284873,0.725008982633665
0.0605,1.7084937500000001,1.0,2665.8375255985306,0.4942620493033692,1.293002022986662,0.9796641978751587,0.2848097375,0.7262430310131494
0.061,1.7069750000000001,1.0,2663.6026088573904,0.49709883754634576,1.2923366958818283,0.9798547129900337,0.28474595,0.7274848732171411
0.0615,1.7054437500000001,1.0,2661.3725828073702,0.49991971476602554,1.2916656872230794,0.9800406562075796,0.2846816375,0.7287344607675026
0.062,1.7039,1.0,2659.149689222788,0.5027247707915513,1.290988976319995,0.98022215985481,0.2846168,0.7299917591206675
0.0625,1.70234375,1.0,2656.934314032683,0.5055140930315137,1.2903065595454517,0.9803993519741419,0.2845514375,0.7312567011635303
0.063,1.7007750000000001,1.0,2654.7268425333223,0.5082877688945033,1.2896184332723253,0.9805723558261188,0.28448555,0.7325292190972056
0.0635,1.69919375,1.0,2652.527659393361,0.5110458857891109,1.2889245938734921,0.9807412901018724,0.28441913750000003,0.7338092444357067
0.064,1.6976,1.0,2650.3371486587052,0.5137885311239269,1.2882250377218283,0.9809062691246215,0.2843522,0.7350967080046259
0.0645,1.69599375,1.0,2648.1556937584505,0.516515792307542,1.2875197611902103,0.9810674030408477,0.2842847375,0.7363915399398101
0.065,1.694375,1.0,2645.981078272739,0.5192277531548256,1.2868087846475764,0.9812247989434264,0.28421675,0.7376936257939417
0.0655,1.69274375,1.0,2643.816964752546,0.5219245041815442,1.2860920741999144,0.9813785578634393,0.2841482375,0.7390029498724191
0.066,1.6911,1.0,2641.664968182796,0.5246061311916034,1.285369614816583,0.9815287778082248,0.2840792,0.7403194609038108
0.0665,1.6894437500000001,1.0,2639.5248657752763,0.5272727173541809,1.2846414084300364,0.98167555395039,0.2840096375,0.7416430759150676
0.067,1.687775,1.0,2637.3964351502686,0.5299243458384546,1.2839074569727282,0.9818189781121197,0.28393955,0.742973711336985
0.0675,1.68609375,1.0,2635.2794543329073,0.5325610998136024,1.2831677623771132,0.9819591389053256,0.2838689375,0.7443112830049068
0.068,1.6844000000000001,1.0,2633.173701748453,0.5351830624488021,1.282422326575645,0.982096121864977,0.2837978,0.745655706159438
0.0685,1.68269375,1.0,2631.0789562181394,0.5377903169132315,1.2816711515007775,0.9822300095759933,0.2837261375,0.7470068954471494
0.069,1.680975,1.0,2628.9949969554195,0.5403829463760687,1.2809142390849653,0.9823608817940478,0.28365395,0.748364764921285
0.0695,1.67924375,1.0,2626.925541298795,0.5429610333014904,1.2801515547759958,0.9824888138110571,0.28358123749999997,0.7497292932289292
0.07,1.6775061388766175,1.0,2625.1707624892388,0.5455246572760292,1.2793830885902369,0.982613879322095,0.2835082578328179,0.751100413934247
0.07050000000000001,1.6757685272548581,1.0,2623.9649886322204,0.5480739048792852,1.2786095377376119,0.9827361825996835,0.28343527814470404,0.7524768031939867
0.07100000000000001,1.6740309156330988,1.0,2623.27364614295,0.5506088549329786,1.2778312194979589,0.9828558068056868,0.28336229845659017,0.7538578235723119
0.07150000000000001,1.6722933040113395,1.0,2623.0623132848314,0.5531295862588292,1.277048451151116,0.9829728324754876,0.28328931876847624,0.7552428434782134
0.07200000000000001,1.6705556923895801,1.0,2623.296712040927,0.5556361776785573,1.2762615499769216,0.9830873376271255,0.28321633908036237,0.7566312372587654
0.0725,1.668818080767821,1.0,2623.94267792503,0.5581287080138828,1.2754708332552136,0.9831993978652857,0.2831433593922485,0.758022385285964
0.073,1.6670804691460617,1.0,2624.9661320249866,0.560607256086526,1.27467661826583,0.9833090864804063,0.28307037970413457,0.7594156740371413
0.0735,1.6653428575243023,1.0,2626.333055278299,0.5630719007182066,1.273879222288609,0.983416474543156,0.2829974000160207,0.7608104961689626
0.074,1.663605245902543,1.0,2628.009464978724,0.5655227207306448,1.273078962603389,0.9835216309945235,0.2829244203279068,0.7622062505850029
0.0745,1.6618676342807837,1.0,2629.96501979916,0.5679597942123521,1.2722761229105017,0.9836246212136486,0.2828514406397929,0.7636024008062033
