Time [s],Phi [rad],STIM [ ],Fsee [N],Gamma [ ],Lcerel [ ],q [ ],Lmtc [m],fisomrel [ ]
0.0,1.8,1.0,17.979801626511893,0.00011372191800586672,1.3793383299785942,0.0050033812675231125,0.288653,0.5411429572992705
0.0005,1.79999375,1.0,18.323392867061628,0.005722293336801655,1.379297209326841,0.013230973950378016,0.2886527375,0.5412424330257354
0.001,1.799975,1.0,21.742095992978502,0.011299405104361015,1.3789256845308169,0.03615110775091655,0.28865195,0.542140706641747
0.0015,1.79994375,1.0,31.358053771526734,0.016845233685389413,1.378021654367327,0.07134303104037325,0.2886506375,0.5443227960120831
0.002,1.7999,1.0,54.20030286429416,0.022359954552809758,1.3763281594544527,0.11559496526126212,0.2886488,0.5483964170970153
0.0025,1.79984375,1.0,98.15369024715989,0.027843742195989826,1.3738854371127387,0.16552840162147892,0.28864643749999996,0.5542400507494143
0.003,1.7997750000000001,1.0,162.30210997671963,0.033296770127528005,1.371164143256136,0.21826382535564745,0.28864354999999997,0.5607052894162585
0.0035,1.79969375,1.0,239.20045990415173,0.03871921088360846,1.3685380770009965,0.2715907479197282,0.2886401375,0.566899508292116
0.004,1.7996,1.0,323.08003085738426,0.04411123603455718,1.3661134167875848,0.32386248822288255,0.2886362,0.5725796111228324
0.0045000000000000005,1.7994937500000001,1.0,410.93776387547706,0.04947301619009519,1.3638836525029538,0.3739330590591336,0.2886317375,0.577770049238232
0.005,1.799375,1.0,501.117114241728,0.05480472099097931,1.3618221715945564,0.42108805338968586,0.28862675,0.5825405489241051
0.0055,1.79924375,1.0,592.5085983431452,0.060106519150827244,1.3599052903155475,0.4649519139613188,0.2886212375,0.586952110978576
0.006,1.7991000000000001,1.0,684.237573231606,0.06537857841270853,1.358115179112807,0.5053951134734231,0.2886152,0.5910507604878896
0.006500000000000001,1.79894375,1.0,775.5901775667518,0.0706210655799011,1.3564380973238404,0.5424546336152276,0.2886086375,0.5948720751790832
0.007,1.798775,1.0,865.9778076441924,0.07583414657035353,1.3548630771955117,0.5762726163828878,0.28860155,0.5984445039647077
0.0075,1.79859375,1.0,954.90870981968,0.08101798627746788,1.353381173345602,0.6070518064773396,0.2885939375,0.6017912829237423
0.008,1.7984,1.0,1041.983360617047,0.08617274860799279,1.3519847322111733,0.6350244793844051,0.2885858,0.6049322330683311
0.0085,1.79819375,1.0,1126.9138729068989,0.09129859712587537,1.3506666044429498,0.6604316508016663,0.2885771375,0.607885626685114
0.009000000000000001,1.797975,1.0,1209.4375519383354,0.09639569349718774,1.3494210353782718,0.6835107491602043,0.28856795,0.6106662628672721
0.0095,1.79774375,1.0,1289.3750715488725,0.10146419895522321,1.3482425071679731,0.704487296965791,0.2885582375,0.6132881256421052
0.01,1.7975,1.0,1366.615627697149,0.10650427443364723,1.3471257720668959,0.7235708613070586,0.288548,0.6157643442824026
0.0105,1.79724375,1.0,1441.0664053975695,0.11151607918404888,1.346066342176462,0.7409535323449674,0.2885372375,0.6181061441728442
0.011,1.796975,1.0,1512.6688659074227,0.11649977136727684,1.3450601073727164,0.7568093928006752,0.28852595000000003,0.6203237318237546
0.0115,1.79669375,1.0,1581.4061520206594,0.12145550863064677,1.344103133205787,0.7712949968622599,0.2885141375,0.622426765682272
0.012,1.7964,1.0,1647.3057998385768,0.12638344881547836,1.343191550870756,0.7845504080600278,0.28850180000000003,0.624424615468512
0.0125,1.79609375,1.0,1710.3800989900967,0.13128374731589326,1.342322182882051,0.7967007934334697,0.2884889375,0.6263250099071033
0.013000000000000001,1.7957750000000001,1.0,1770.6535444998667,0.13615655857079662,1.3414921263056063,0.8078576262254776,0.28847555,0.6281349734415683
0.0135,1.79544375,1.0,1828.1823357394314,0.1410020370190936,1.3406984782073559,0.8181199749153982,0.2884616375,0.6298614379693618
0.014,1.7951000000000001,1.0,1883.0369952437693,0.14582033595418167,1.3399384952217077,0.8275759067522321,0.2884472,0.6315109039107175
0.0145,1.79474375,1.0,1935.2973078501827,0.15061160896220316,1.3392096091204075,0.8363037303856337,0.2884322375,0.6330894167103964
0.015,1.794375,1.0,1985.0215262619295,0.1553760065281629,1.3385097193938547,0.8443732111825047,0.28841675,0.6346019447573144
0.0155,1.79399375,1.0,2032.2858141110712,0.16011367910787738,1.3378367291055278,0.85184641217772,0.2884007375,0.6360533943471883
0.016,1.7936,1.0,2077.1755456049736,0.16482477650307778,1.337188619051573,0.8587786264807143,0.2883842,0.637448454024532
0.0165,1.7931937500000001,1.0,2119.7844069774114,0.1695094487066817,1.3365634379978875,0.865219176499374,0.2883671375,0.6387916205454152
0.017,1.792775,1.0,2160.204658799402,0.17416784497087445,1.3359593854764735,0.8712121433383987,0.28834955,0.6400870258618312
0.0175,1.7923437500000001,1.0,2198.5029755067967,0.17880011120887734,1.3353750377860485,0.8767970443015971,0.2883314375,0.6413379592793576
0.018000000000000002,1.7919,1.0,2234.755389490717,0.1834063933339117,1.334808971225329,0.8820092645396135,0.2883128,0.6425476810811123
0.0185,1.79144375,1.0,2269.046513379433,0.1879868372591988,1.3342597620930323,0.8868805396050427,0.2882936375,0.6437194242522623
0.019,1.790975,1.0,2301.4621398083277,0.19254158805855015,1.3337260526880457,0.8914393939963877,0.28827395,0.6448562556034941
0.0195,1.79049375,1.0,2332.0904198869443,0.19707079093335933,1.333206530781854,0.8957115045494134,0.2882537375,0.6459611219525556
0.02,1.79,1.0,2361.012714295225,0.20157458991310995,1.3327000116140553,0.8997200413003346,0.288233,0.6470366781632892
0.0205,1.78949375,1.0,2388.2926295046727,0.20605312603563655,1.332205535353344,0.9034859682119041,0.2882117375,0.6480850838029277
0.021,1.788975,1.0,2413.998193326509,0.2105065403387737,1.3317221421684138,0.9070282382735433,0.28818995000000003,0.649108483403057
0.021500000000000002,1.78844375,1.0,2438.2014887062483,0.21493497386035587,1.3312488722279594,0.9103640139831551,0.2881676375,0.6501090071674267
0.022,1.7879,1.0,2460.974084016418,0.21933856685526162,1.3307848061350023,0.9135088690303587,0.2881448,0.6510886863208831
0.0225,1.78734375,1.0,2482.385356836652,0.22371745914507307,1.330329076928248,0.9164769604432732,0.28812143749999997,0.652049429004246
0.023,1.786775,1.0,2502.5099756770037,0.22807179146763848,1.3298807952177605,0.9192811638604429,0.28809755,0.6529931790385777
0.0235,1.78619375,1.0,2521.3998905918297,0.2324016997722165,1.3294393120354422,0.9219332532647021,0.28807313749999996,0.6539213637934138
0.024,1.7856,1.0,2539.1091484529056,0.23670732000806574,1.3290039784131953,0.9244439712031306,0.2880482,0.654835402386128
0.0245,1.78499375,1.0,2555.693718570685,0.24098878812444488,1.3285741453829225,0.9268231333458102,0.2880227375,0.6557367059498791
0.025,1.784375,1.0,2571.211327653749,0.24524624007061252,1.3281491639765262,0.9290797211789292,0.28799675,0.6566266778747033
0.025500000000000002,1.78374375,1.0,2585.7134679987957,0.24947980996132083,1.3277284584067184,0.931221975699578,0.2879702375,0.6575065610661858
0.026000000000000002,1.7831000000000001,1.0,2599.256451585505,0.2536896337386017,1.3273114207846433,0.9332574536372257,0.2879432,0.658377658877354
0.0265,1.78244375,1.0,2611.894698392943,0.2578758462168889,1.3268974727309337,0.9351931016968125,0.2879156375,0.6592412063843383
0.027,1.781775,1.0,2623.666811697578,0.26203857787587925,1.3264861930156897,0.9370353326293658,0.28788755,0.660098105134317
0.0275,1.7810937500000001,1.0,2634.61227858632,0.2661779591952694,1.32607716040901,0.9387900525451823,0.2878589375,0.660949252103306
0.028,1.7804,1.0,2644.7713942812325,0.270294120654756,1.3256699536809942,0.9404627076392035,0.2878298,0.6617955397621784
0.0285,1.77969375,1.0,2654.1851903982956,0.27438719273403583,1.3252641516017414,0.9420583260415422,0.2878001375,0.6626378561313757
0.029,1.778975,1.0,2662.895367140039,0.2784573059128056,1.3248593329413512,0.9435815553547399,0.28776995,0.6634770848242997
0.029500000000000002,1.7782437500000001,1.0,2670.9382586845136,0.2825045874470602,1.3244551313333857,0.9450367027071448,0.2877392375,0.6643139915543224
0.03,1.7775,1.0,2678.35563105629,0.2865291695375009,1.3240511352633704,0.9464277539088719,0.287708,0.6651494315514057
0.0305,1.77674375,1.0,2685.1776750228432,0.2905311784966263,1.323647043762027,0.9477584178620082,0.2876762375,0.6659840276278719
0.031,1.775975,1.0,2691.4326759784317,0.2945107393263696,1.323242576774614,0.9490321399787025,0.28764395,0.6668183563778945
0.0315,1.7751937500000001,1.0,2697.149253032287,0.2984679770286641,1.3228374542463919,0.9502521221137051,0.2876111375,0.6676529915041736
0.032,1.7744,1.0,2702.3563271576777,0.30240301660544305,1.322431396122619,0.9514213427918273,0.2875778,0.6684885038087331
0.0325,1.77359375,1.0,2707.083091079477,0.30631598305863955,1.3220241223485556,0.9525425755210206,0.2875439375,0.669325461178707
0.033,1.772775,1.0,2711.3568429453353,0.3102069996365089,1.3216153723675772,0.9536184071744535,0.28750955,0.6701643885741858
0.0335,1.7719437500000002,1.0,2715.200518558272,0.314076186361315,1.321204927299348,0.9546512550354486,0.2874746375,0.6710057228272339
0.034,1.7711000000000001,1.0,2718.650414491112,0.3179236766073845,1.3207924481775914,0.9556433664180107,0.2874392,0.6718501441078677
0.0345,1.7702437500000001,1.0,2721.7241701664752,0.321749589000738,1.3203777675655668,0.9565968567543297,0.2874032375,0.6726979784748204
0.035,1.7693750000000001,1.0,2724.4395480634244,0.3255540421673962,1.3199607180265336,0.9575137048506436,0.28736675,0.6735495501273758
0.035500000000000004,1.76849375,1.0,2726.8144212444595,0.32933715473337966,1.319541132123751,0.9583957632931167,0.2873297375,0.674405181380968
0.036000000000000004,1.7676,1.0,2728.8667615035615,0.333099045324709,1.3191188424204778,0.959244767946806,0.2872922,0.6752651926409893
0.0365,1.76669375,1.0,2730.6146281362176,0.3368398325674049,1.3186936814799743,0.9600623466361239,0.2872541375,0.6761299023748109
0.037,1.765775,1.0,2732.076157331084,0.340559635087488,1.318265481865499,0.9608500270857298,0.28721555,0.6769996270820207
0.0375,1.76484375,1.0,2733.269552182872,0.344258571510979,1.3178340761403118,0.9616092441924049,0.2871764375,0.6778746812628651
0.038,1.7639,1.0,2734.2130733270424,0.34793676046389843,1.3173992968676715,0.96234134669106,0.28713679999999997,0.6787553773849098
0.0385,1.76294375,1.0,2734.932081466252,0.3515943134509185,1.3169609125810986,0.9630475957937963,0.28709663750000003,0.679642155279838
0.039,1.7619785710483027,1.0,2735.596727183588,0.35523135430464514,1.3165189903034429,0.9637292089580988,0.2870560999840287,0.6805348494173757
0.0395,1.7610130196570664,1.0,2736.6059969019734,0.35884799876707024,1.316073772029582,0.9643873471444019,0.28701554682559677,0.6814329420758667
0.04,1.7600474682658298,1.0,2737.9545270465164,0.3624443586963644,1.315625476365578,0.965023101577023,0.28697499366716483,0.6823359651435014
0.0405,1.7590819168745933,1.0,2739.6184735022093,0.36602054595069816,1.3151743219174925,0.9656375013489729,0.2869344405087329,0.6832434528183955
0.041,1.758116365483357,1.0,2741.574020118387,0.3695766723882422,1.3147205272913873,0.9662315176178422,0.28689388735030097,0.6841549416499717
0.0415,1.7571508140921204,1.0,2743.7973653822723,0.3731128498671672,1.3142643110933243,0.9668060674766614,0.28685333419186904,0.6850699705772905
0.042,1.756185262700884,1.0,2746.2647101525267,0.3766291902456436,1.3138058919293651,0.9673620175279933,0.2868127810334371,0.6859880809643355
0.0425,1.7552197113096475,1.0,2748.9522464518877,0.38012580538184215,1.3133454884055717,0.9679001871867993,0.2867722278750052,0.6869088166322503
0.043000000000000003,1.7542541599184112,1.0,2751.836147319486,0.38360280713393335,1.3128833191280058,0.9684213517351866,0.28673167471657324,0.6878317238885283
0.043500000000000004,1.7532886085271746,1.0,2754.9007058847646,0.38706030118183876,1.3124195289811977,0.9689262382893293,0.28669112155814136,0.6887564984412199
0.044,1.7523230571359383,1.0,2758.1339003987073,0.39049839389998453,1.3119542293732347,0.9694155331883807,0.28665056839970937,0.6896829042606865
0.0445,1.7513575057447017,1.0,2761.498346846176,0.3939172126962744,1.3114877607884063,0.9698899079789026,0.2866100152412775,0.6906102515275018
0.045,1.7503919543534652,1.0,2764.9857987250844,0.3973168618786664,1.311020199837305,0.9703499758520969,0.2865694620828455,0.6915383778480959
0.0455,1.7494264029622288,1.0,2768.587996449247,0.40069744575511856,1.3105516231305225,0.9707963188017936,0.28652890892441363,0.6924671217187433
0.046,1.7484608515709923,1.0,2772.2966655567234,0.40405906863358915,1.3100821072786515,0.9712294895151972,0.28648835576598164,0.6933963225307107
0.0465,1.747495300179756,1.0,2776.103515050907,0.4074018348220362,1.3096117288922844,0.9716500131316209,0.28644780260754976,0.6943258205750338
0.047,1.7465297487885194,1.0,2780.0002358690563,0.41072584862841777,1.3091405645820133,0.9720583888795928,0.28640724944911783,0.6952554570469198
0.0475,1.745564197397283,1.0,2783.978499483311,0.41403121436069207,1.3086686909584306,0.9724550916018196,0.2863666962906859,0.696185074049773
0.048,1.7445986460060465,1.0,2788.0299566302765,0.4173180363268172,1.3081961846321284,0.9728405731766685,0.28632614313225396,0.697114514598849
0.0485,1.7436330946148102,1.0,2792.1462361713993,0.42058641883475123,1.3077231222136994,0.9732152638440906,0.28628558997382203,0.6980436226245301
0.049,1.7426675432235736,1.0,2796.3189440833435,0.42383646619245235,1.3072495803137356,0.9735795734432285,0.2862450368153901,0.6989722429752339
0.0495,1.741701991832337,1.0,2800.5396625785547,0.4270682827078786,1.3067756355428295,0.9739338925683527,0.28620448365695816,0.6999002214199396
0.05,1.7407364404411008,1.0,2804.7999493557286,0.43028197268898816,1.306301364511573,0.9742785936492042,0.28616393049852623,0.7008274046503458
0.0505,1.7397708890498642,1.0,2809.096541334783,0.4334776298827286,1.3058267971999507,0.9746140276787758,0.2861233773400943,0.7017537312322075
0.051000000000000004,1.7388053376586279,1.0,2813.4237227954045,0.43665536188722326,1.305351985460414,0.9749405326582563,0.28608282418166237,0.7026790974980328
0.051500000000000004,1.7378397862673913,1.0,2817.773624325137,0.4398152786943763,1.304877000257252,0.9752584327985676,0.28604227102323043,0.7036033632466184
0.052000000000000005,1.736874234876155,1.0,2822.1438986980197,0.44295747683952125,1.3044018629742589,0.9755680331727768,0.2860017178647985,0.7045264853883946
0.0525,1.7359086834849184,1.0,2826.532191445551,0.4460820528579913,1.3039265949952294,0.9758696253567001,0.28596116470636657,0.705448421092493
0.053,1.7349431320936821,1.0,2830.9361407899496,0.4491891032851201,1.303451217703958,0.9761634881434543,0.28592061154793463,0.706369127786942
0.0535,1.7339775807024456,1.0,2835.3533775869655,0.4522787246562409,1.3029757524842398,0.9764498882142583,0.2858800583895027,0.7072885631588286
0.054,1.733012029311209,1.0,2839.781525279551,0.4553510135066872,1.3025002207198688,0.976729080768514,0.28583950523107077,0.7082066851544345
0.0545,1.7320464779199727,1.0,2844.2181998606434,0.4584060663717924,1.3020246437946403,0.9770013101159628,0.28579895207263883,0.7091234519793388
0.055,1.7310809265287361,1.0,2848.661009847288,0.4614439797868899,1.3015490430923486,0.9772668102335015,0.2857583989142069,0.7100388220984977
0.0555,1.7301153751374998,1.0,2853.107556263891,0.46446485028731305,1.3010734399967883,0.9775258052890462,0.28571784575577497,0.7109527542362895
0.056,1.7291498237462632,1.0,2857.5554326362203,0.4674687744083954,1.3005978558917544,0.9777785101346492,0.28567729259734304,0.7118652073765308
0.0565,1.728184272355027,1.0,2862.002224995201,0.47045584868547025,1.300122312161041,0.9780251307709175,0.2856367394389111,0.7127761407624702
0.057,1.7272187209637904,1.0,2866.445511891195,0.473426169653871,1.2996468301884434,0.9782658647846166,0.2855961862804792,0.7136855138967416
0.0575,1.726253169572554,1.0,2870.8860311670446,0.4763798125459995,1.299171403290936,0.9785008983032415,0.28555563312204724,0.714593340092258
0.058,1.7252876181813175,1.0,2875.320229382144,0.4793168937656634,1.2986960628105335,0.9787304157162336,0.28551507996361536,0.7154995601450441
0.0585,1.724322066790081,1.0,2879.74639632624,0.4822375118517579,1.2982208236816146,0.9789545915983988,0.28547452680518337,0.7164041464370514
0.059000000000000004,1.7233565153988446,1.0,2884.1640663356334,0.4851417554927421,1.2977456897882584,0.9791735921978786,0.2854339736467515,0.7173070925143947
0.059500000000000004,1.722390964007608,1.0,2888.5727724719595,0.48802971337707496,1.2972706650145434,0.979387577269686,0.2853934204883195,0.718208391970061
0.06,1.7214254126163717,1.0,2892.972046532296,0.49090147419321567,1.2967957532445482,0.9795967003802292,0.2853528673298876,0.7191080384438815
0.0605,1.7204598612251352,1.0,2897.3614190578824,0.49375712662962323,1.2963209583623518,0.9798011091952733,0.2853123141714557,0.7200060256225043
0.061,1.7194943098338988,1.0,2901.7404193447614,0.4965967593747568,1.2958462842520326,0.9800009457523642,0.28527176101302376,0.7209023472393671
0.0615,1.7185287584426623,1.0,2906.1085754533706,0.49942046111707533,1.2953717347976696,0.980196346718662,0.28523120785459183,0.7217969970746656
0.062,1.717563207051426,1.0,2910.465414219651,0.502228320545038,1.2948973138833413,0.9803874436350728,0.2851906546961599,0.7226899689553256
0.0625,1.7165976556601894,1.0,2914.810461265645,0.5050204263471039,1.2944230253931264,0.980574363147507,0.28515010153772796,0.7235812567549695
0.063,1.7156321042689529,1.0,2919.143241010766,0.5077968672117319,1.2939488732111035,0.9807572272260294,0.28510954837929603,0.7244708543938858
0.0635,1.7146665528777165,1.0,2923.4632766833697,0.5105577318273813,1.2934748612213516,0.9809361533726253,0.2850689952208641,0.7253587558389938
0.064,1.71370100148648,1.0,2927.77009033283,0.5133031088825111,1.2930009933079492,0.9811112548182523,0.28502844206243216,0.726244955103811
0.0645,1.7127354500952436,1.0,2932.0632028414384,0.5160330870655803,1.292527273354975,0.9812826407098041,0.28498788890400023,0.7271294462484175
0.065,1.711769898704007,1.0,2936.342133937421,0.518747755065048,1.2920537052465078,0.9814504162875745,0.2849473357455683,0.7280122233794195
0.0655,1.7108043473127708,1.0,2940.607730420211,0.5214471486241502,1.2915802812351047,0.9816146788376946,0.28490678258713636,0.7288933022795192
0.066,1.7098387959215342,1.0,2944.8589243114384,0.5241314094347584,1.2911070103531639,0.9817755303006309,0.28486622942870443,0.7297726674848308
0.0665,1.7088732445302979,1.0,2949.0953664786225,0.526800636154017,1.2906338953222631,0.9819330657912377,0.2848256762702725,0.7306503153373973
0.067,1.7079076931390613,1.0,2953.3171143688,0.5294549082603635,1.2901609353047006,0.982087375670701,0.28478512311184057,0.731526248798155
0.0675,1.7069421417478248,1.0,2957.5242258636886,0.5320943052322358,1.2896881294627744,0.982238547196904,0.28474456995340863,0.7324004708174707
0.068,1.7059765903565884,1.0,2961.716759276577,0.5347189065480716,1.2892154769587831,0.9823866646528723,0.2847040167949767,0.7332729843351518
0.0685,1.7050110389653519,1.0,2965.8947733496734,0.537328791686309,1.288742976955025,0.9825318094690442,0.28466346363654477,0.7341437922804526
0.069,1.7040454875741156,1.0,2970.0583272512686,0.5399240401253855,1.2882706286137977,0.9826740603397008,0.28462291047811283,0.7350128975720852
0.0695,1.703079936182879,1.0,2974.2074805727343,0.5425047313437391,1.2877984310974,0.9828134933338745,0.2845823573196809,0.7358803031182242
0.07,1.7021143847916427,1.0,2978.3422933257557,0.5450709448198074,1.2873263835681301,0.9829501820010326,0.28454180416124897,0.7367460118165172
0.07050000000000001,1.7011488334004061,1.0,2982.462825939873,0.5476227600320285,1.286854485188286,0.983084197471818,0.28450125100281703,0.7376100265540926
0.07100000000000001,1.7001832820091696,1.0,2986.5691392591607,0.5501602564588398,1.286382735120166,0.9832156085541058,0.2844606978443851,0.7384723502075665
0.07150000000000001,1.6992177306179332,1.0,2990.6612945398747,0.5526835135786793,1.2859111325260686,0.983344481824629,0.2844201446859532,0.7393329856430512
