Time [s],Phi [rad],STIM [ ],Fsee [N],Gamma [ ],Lcerel [ ],q [ ],Lmtc [m],fisomrel [ ]
0.0,1.8,1.0,17.99250993219656,0.00016230739067225216,1.3793369069754413,0.005006868241131953,0.288653,0.5411463998925554
0.0005,1.79999375,1.0,18.351864466927765,0.0057706062833965425,1.3792940519407222,0.013368756599459124,0.2886527375,0.5412500706708825
0.001,1.799975,1.0,21.806648135629146,0.011347447053530172,1.3789191151363593,0.036406656744795644,0.28865195,0.5421565822202756
0.0015,1.79994375,1.0,31.500802708066843,0.016893006157224878,1.378009562529906,0.07169129339727122,0.2886506375,0.5443519471809601
0.002,1.7999,1.0,54.49851373372928,0.022407459058814878,1.3763089500524435,0.11600642525546234,0.2886488,0.548442519484782
0.0025,1.79984375,1.0,98.64707974995206,0.027890980239307164,1.3738618171490418,0.16597540768715016,0.28864643749999996,0.5542963701467362
0.003,1.7997750000000001,1.0,162.93899786419098,0.03334374320276329,1.3711404260866222,0.21872457707672985,0.28864354999999997,0.5607614289676037
0.0035,1.79969375,1.0,239.91725857212967,0.03876592047700708,1.3685160842999378,0.27204873718297173,0.2886401375,0.566951197743116
0.004,1.7996,1.0,323.8409852686423,0.04415768362405584,1.366093324218975,0.3243057488872328,0.2886362,0.5726265241144786
0.0045000000000000005,1.7994937500000001,1.0,411.72464125270085,0.04951920324541538,1.3638652278778582,0.37435369210526126,0.2886317375,0.5778128059355685
0.005,1.799375,1.0,501.919176635767,0.054850648973898686,1.3618051636339379,0.4214814940405823,0.28862675,0.5825797945402406
0.0055,1.79924375,1.0,593.317116183222,0.060152189513206715,1.3598895221352774,0.46531611802638495,0.2886212375,0.5869883031162044
0.006,1.7991000000000001,1.0,685.0458879876975,0.06542399260052373,1.358100508906526,0.5057297829781859,0.2886152,0.5910842650538495
0.006500000000000001,1.79894375,1.0,776.3930213890102,0.07066622503352957,1.3564244109010237,0.5427606137029009,0.2886086375,0.594903186587558
0.007,1.798775,1.0,866.7664881066175,0.07587905270936231,1.3548503528272233,0.5765514893255661,0.28860155,0.598473300696413
0.0075,1.79859375,1.0,955.675904003785,0.08106264043927126,1.353369385768443,0.6073055113711723,0.2885939375,0.601817848219494
0.008,1.7984,1.0,1042.746288300875,0.08621715255482337,1.351973510453509,0.6352548950957124,0.2885858,0.6049574232749794
0.0085,1.79819375,1.0,1127.6508665479423,0.09134275180057025,1.3506561804342032,0.6606410262195979,0.2885771375,0.6079089385309169
0.009000000000000001,1.797975,1.0,1210.1460603847231,0.09643960036013134,1.3494113620239576,0.6837010863585913,0.28856795,0.6106878191599581
0.0095,1.79774375,1.0,1290.0715602989844,0.10150785990500895,1.3482332973040734,0.7046603444045154,0.2885582375,0.6133085798747859
0.01,1.7975,1.0,1367.2889628177338,0.1065476903994774,1.3471171235434012,0.7237284288373432,0.288548,0.6157834902517703
0.0105,1.79724375,1.0,1441.7089101374274,0.11155925120141154,1.346058305558621,0.7410972413515639,0.2885372375,0.618123881230536
0.011,1.796975,1.0,1513.2952045001184,0.11654270142685673,1.3450524605738539,0.7569405769659612,0.28852595000000003,0.6203405594768145
0.0115,1.79669375,1.0,1582.0219747817703,0.12149819851746634,1.3440957799592226,0.7714149099125779,0.2885141375,0.6224429024689231
0.012,1.7964,1.0,1647.8879224332381,0.1264258988989797,1.3431847404121406,0.7846603180483942,0.28850180000000003,0.6244395215186596
0.0125,1.79609375,1.0,1710.9177515182553,0.13132595834467506,1.342316009706503,0.7968017641312977,0.2884889375,0.6263384869216115
0.013000000000000001,1.7957750000000001,1.0,1771.1750949033824,0.13619853316933683,1.3414862407849248,0.8079504274228774,0.28847555,0.6281477913092486
0.0135,1.79544375,1.0,1828.6998758631485,0.1410437768939928,1.3406927305493863,0.8182053668821325,0.2884616375,0.6298739265012859
0.014,1.7951000000000001,1.0,1883.540142193309,0.1458618421477074,1.339932989379156,0.8276546585631177,0.2884472,0.6315228403435924
0.0145,1.79474375,1.0,1935.7680704773104,0.1506528815595449,1.339204527653503,0.836376551738119,0.2884322375,0.6331004095005228
0.015,1.794375,1.0,1985.4580564845228,0.1554170467372107,1.3385050667992806,0.8444406736578153,0.28841675,0.6346119890025975
0.0155,1.79399375,1.0,2032.7133119789287,0.16015448974724006,1.3378322260624538,0.8519089333133524,0.2884007375,0.6360630964084412
0.016,1.7936,1.0,2077.601019852837,0.1648653594872784,1.337184186009848,0.8588366405960488,0.2883842,0.6374579869415699
0.0165,1.7931937500000001,1.0,2120.1947712473284,0.16954980444324536,1.336559205565251,0.8652731332886023,0.2883671375,0.6388007051954308
0.017,1.792775,1.0,2160.5806835542676,0.17420797310106062,1.3359555436524526,0.871262461033789,0.28834955,0.6400952572996972
0.0175,1.7923437500000001,1.0,2198.8394603773077,0.17884001268456462,1.3353716299964389,0.8768440571431795,0.2883314375,0.6413452480661088
0.018000000000000002,1.7919,1.0,2235.077220757672,0.18344607144095018,1.3348057383795953,0.8820531921311425,0.2883128,0.642554584018157
0.0185,1.79144375,1.0,2269.3647259864215,0.1880262939722041,1.3342565898399013,0.8869216157266759,0.2882936375,0.6437261866983419
0.019,1.790975,1.0,2301.7752238065877,0.19258082450908864,1.333722953616784,0.8914778602553664,0.28827395,0.6448628514964598
0.0195,1.79049375,1.0,2332.3885722821196,0.19710980728236588,1.3332035989496702,0.8957475976036816,0.2882537375,0.6459673521906484
0.02,1.79,1.0,2361.282770272081,0.20161338541743085,1.3326973723697668,0.8997539812394808,0.288233,0.6470422781194284
0.0205,1.78949375,1.0,2388.54437069122,0.20609170315493372,1.3322030891844465,0.9035179051497132,0.2882117375,0.6480902663785417
0.021,1.788975,1.0,2414.2438146108425,0.21054490191494704,1.3317197682058894,0.9070583035637555,0.28818995000000003,0.6491135056805835
0.021500000000000002,1.78844375,1.0,2438.4439382906535,0.21497312140460376,1.3312465405786555,0.910392345120715,0.2881676375,0.650113932891177
0.022,1.7879,1.0,2461.2110856359773,0.21937650133103676,1.3307825374473048,0.91353560093418,0.2881448,0.6510934723211812
0.0225,1.78734375,1.0,2482.6148133821284,0.22375518140137896,1.3303268899563976,0.9165022153371044,0.28812143749999997,0.6520540362619069
0.023,1.786775,1.0,2502.7186007757164,0.22810929919330927,1.3298788147992655,0.9193050716906097,0.28809755,0.6529973454930864
0.0235,1.78619375,1.0,2521.594388560937,0.2324389956639077,1.3294374726480338,0.9219558996974831,0.28807313749999996,0.6539252283650383
0.024,1.7856,1.0,2539.2981625762136,0.23674440748157533,1.3290021971304253,0.9244654316264537,0.2880482,0.6548391399341607
0.0245,1.78499375,1.0,2555.880114385315,0.2410256692644101,1.3285723944834447,0.9268434857301475,0.2880227375,0.6557403749471162
0.025,1.784375,1.0,2571.392109334073,0.24528291563050997,1.328147470944097,0.9290990457644459,0.28799675,0.6566302210235746
0.025500000000000002,1.78374375,1.0,2585.8875440942193,0.24951628119797278,1.3277268327493874,0.9312403433121144,0.2879702375,0.6575099588522164
0.026000000000000002,1.7831000000000001,1.0,2599.421212023641,0.2537259005848965,1.327309886136321,0.9332749309813372,0.2879432,0.6583808623642492
0.0265,1.78244375,1.0,2612.0380426491256,0.2579119052333536,1.3268961407933215,0.9352097626105165,0.2879156375,0.6592439832092887
0.027,1.781775,1.0,2623.793327718577,0.26207443166287053,1.326485020082362,0.9370512237489408,0.28788755,0.6601005473910069
0.0275,1.7810937500000001,1.0,2634.7329283844574,0.2662136124594581,1.3260760441868247,0.9388052088354816,0.2878589375,0.6609515733656632
0.028,1.7804,1.0,2644.892246868524,0.2703295764430306,1.325668837732116,0.9404771673502159,0.2878298,0.6617978575580763
0.0285,1.77969375,1.0,2654.307376316839,0.27442245243350205,1.3252630253436417,0.9420721304084992,0.2878001375,0.6626401924244308
0.029,1.778975,1.0,2663.0150406529615,0.2784923692507867,1.3248582316468083,0.943594748324376,0.28776995,0.6634793664901424
0.029500000000000002,1.7782437500000001,1.0,2671.052537554945,0.28253945571479877,1.3244540812670218,0.9450493243504228,0.2877392375,0.6643161643787399
0.03,1.7775,1.0,2678.4576845567663,0.28656384064545243,1.3240501988296887,0.9464398450248577,0.287708,0.6651513668317579
0.0305,1.77674375,1.0,2685.2650425352267,0.29056565122775896,1.3236462431035578,0.9477700114108325,0.2876762375,0.6659856802453851
0.031,1.775975,1.0,2691.5049771076474,0.2945450136656017,1.3232419149578234,0.9490432645683818,0.28764395,0.6668197207091814
0.0315,1.7751937500000001,1.0,2697.219430356375,0.29850205934337337,1.3228368125510785,0.9502627911651509,0.2876111375,0.667654312697257
0.032,1.7744,1.0,2702.4318014522455,0.30243691093364367,1.3224307066578143,0.9514315741826506,0.2875778,0.6684899215693321
0.0325,1.77359375,1.0,2707.165734551368,0.30634969110898225,1.3220233680525215,0.9525523912386815,0.2875439375,0.669327010293719
0.033,1.772775,1.0,2711.445095787122,0.31024052254195866,1.3216145675096915,0.953627831216868,0.28750955,0.6701660394309761
0.0335,1.7719437500000002,1.0,2715.2939514275313,0.3141095279051427,1.321204075803815,0.9546603093597233,0.2874746375,0.6710074671142126
0.034,1.7711000000000001,1.0,2718.736547197364,0.3179568298711039,1.320791663709383,0.9556520809835303,0.2874392,0.6718517490260398
0.0345,1.7702437500000001,1.0,2721.797288765351,0.32178255111241194,1.3203771020008865,0.9566052539554653,0.2874032375,0.6726993383721733
0.035,1.7693750000000001,1.0,2724.496787350466,0.3255868122719708,1.319960197262809,0.9575218034070939,0.28736675,0.6735506127791593
0.035500000000000004,1.76849375,1.0,2726.8554419909583,0.3293697342266198,1.3195407590785022,0.9584035788808144,0.2873297375,0.6744059416056589
0.036000000000000004,1.7676,1.0,2728.9013671532057,0.3331314408981981,1.3191185278327024,0.9592523069539027,0.2872922,0.6752658328886758
0.0365,1.76669375,1.0,2730.6495459102257,0.3368720489492651,1.3186933641564031,0.9600696173738302,0.2872541375,0.676130547329956
0.037,1.765775,1.0,2732.115031641284,0.34059167504238047,1.3182651286805984,0.9608570396679839,0.28721555,0.6770003439602109
0.0375,1.76484375,1.0,2733.3129398653487,0.3442904358401037,1.3178336820362817,0.9616160104241821,0.2871764375,0.6778754801124356
0.038,1.7639,1.0,2734.258440504216,0.3479684480049943,1.317398884854447,0.9623478799647672,0.28713679999999997,0.6787562113939847
0.0385,1.76294375,1.0,2734.9667505770767,0.3516258281996119,1.3169605977660879,0.9630539184708816,0.28709663750000003,0.6796427916574115
0.039,1.761975,1.0,2735.453127325078,0.3552626930865159,1.3165186814021983,0.9637353216077211,0.28705595,0.6805354729700692
0.0395,1.7609937500000001,1.0,2735.7298300720454,0.3588791547296314,1.3160730239193343,0.9643932173277839,0.2870147375,0.6814344500972191
0.04,1.76,1.0,2735.811270060825,0.3624753296304666,1.3156234941868752,0.9650286680192224,0.286973,0.6823399550933277
0.0405,1.7589937500000001,1.0,2735.7141590351603,0.36605133943618245,1.31516994039461,0.9656426749334437,0.2869307375,0.6832522597948278
0.041,1.757975,1.0,2735.447581139664,0.3696072942554892,1.314712280147164,0.9662361871304885,0.28688795,0.6841714946574393
0.0415,1.75694375,1.0,2735.020635075621,0.3731433041970971,1.3142504310491623,0.9668101010482529,0.2868446375,0.6850977888565553
0.042,1.7559,1.0,2734.44243136539,0.37665947936971644,1.31378431070523,0.9673652639597601,0.28680079999999997,0.6860312702654454
0.0425,1.75484375,1.0,2733.722089767203,0.3801559298820574,1.3133138367199926,0.9679024771690946,0.2867564375,0.6869720654330289
0.043000000000000003,1.753775,1.0,2732.8687368401215,0.38363276584283024,1.3128389266980751,0.9684224989682177,0.28671155,0.687920299561213
0.043500000000000004,1.75269375,1.0,2731.891503660699,0.3870900973607453,1.3123594982441027,0.9689260473747919,0.28666613750000003,0.6888760964817997
0.044,1.7516,1.0,2730.799523688457,0.3905280345445127,1.3118754689627006,0.9694138026692687,0.2866202,0.6898395786329579
0.0445,1.75049375,1.0,2729.60193078366,0.3939466875028428,1.3113867564584938,0.9698864097478141,0.2865737375,0.6908108670352637
0.045,1.7493750000000001,1.0,2728.305478499617,0.39734616136249545,1.3108932999639065,0.970344481244433,0.28652675,0.6917900383850526
0.0455,1.74824375,1.0,2726.9117298752353,0.40072655265963536,1.3103950859071858,0.9707886009461268,0.2864792375,0.6927770747597919
0.046,1.7471,1.0,2725.4399670863595,0.4040879961900927,1.3098919395704214,0.9712193165065499,0.2864312,0.6937722761137829
0.0465,1.7459437500000001,1.0,2723.8943162033656,0.4074305940673811,1.309383823988136,0.9716371538409847,0.28638263750000004,0.6947756679033104
0.047,1.744775,1.0,2722.2789018393287,0.41075444840501407,1.308870702194853,0.9720426128816277,0.28633355,0.6957872746353906
0.0475,1.74359375,1.0,2720.5978466113643,0.41405966131650523,1.3083525372250957,0.9724361691026864,0.28628393750000003,0.696807119856014
0.048,1.7424,1.0,2718.855270631682,0.4173463349153682,1.307829292113387,0.9728182749421718,0.2862338,0.6978352261383007
0.0485,1.74119375,1.0,2717.0552910299475,0.4206145713151166,1.3073009298942504,0.9731893611282859,0.2861831375,0.6988716150705645
0.049,1.739975,1.0,2715.202021504728,0.4238644726292639,1.306767413602209,0.9735498379176216,0.28613195,0.6999163072442962
0.0495,1.73874375,1.0,2713.299571906188,0.42709614097132376,1.3062287062717859,0.9739000962517966,0.2860802375,0.7009693222420545
0.05,1.7375,1.0,2711.3520478489786,0.43030967845480983,1.3056847709375043,0.9742405088385869,0.286028,0.7020306786252727
0.0505,1.73624375,1.0,2709.3635503546056,0.43350518719323555,1.3051355706338876,0.974571431163123,0.2859752375,0.7031003939219763
0.051000000000000004,1.734975,1.0,2707.3381755252094,0.4366827693001146,1.3045810683954588,0.9748932024342606,0.28592195,0.7041784846144159
0.051500000000000004,1.73369375,1.0,2705.280014246916,0.43984252688896064,1.3040212272567413,0.9752061464708208,0.2858681375,0.7052649661266099
0.052000000000000005,1.7324,1.0,2703.193151923553,0.4429845620732871,1.303456010252258,0.9755105725320139,0.2858138,0.706359852811803
0.0525,1.73109375,1.0,2701.079411041979,0.44610896882403567,1.3028854010412723,0.97580677654091,0.28575893750000003,0.7074631180997055
0.053,1.729775,1.0,2698.939502543657,0.4492158397158517,1.302309393422096,0.9760950418636487,0.28570355000000003,0.7085747150789682
0.0535,1.72844375,1.0,2696.782467077657,0.45230529678804393,1.301727905015121,0.976375637773872,0.2856476375,0.7096947427780171
0.054,1.7271,1.0,2694.60986832503,0.4553774337510185,1.3011409217126066,0.976648823146462,0.2855912,0.7108231673153116
0.0545,1.7257437500000001,1.0,2692.4232676405795,0.45843234431518176,1.3005484294068126,0.9769148457410665,0.2855342375,0.711959954021359
0.055,1.724375,1.0,2690.2242240079977,0.46147012219093986,1.2999504139899982,0.9771739427701549,0.28547675,0.7131050674337649
0.0555,1.72299375,1.0,2688.014293999747,0.4644908610886991,1.299346861354423,0.9774263414334652,0.2854187375,0.7142584712922699
0.056,1.7216,1.0,2685.795031740764,0.4674946547188656,1.2987377573923466,0.9776722594210885,0.2853602,0.7154201285337738
0.0565,1.72019375,1.0,2683.567988877193,0.47048159679184565,1.2981230879960282,0.9779119053872753,0.28530113749999997,0.7165900012873484
0.057,1.718775,1.0,2681.334714549148,0.47345178101804547,1.2975028390577275,0.9781454793968928,0.28524155,0.7177680508692345
0.0575,1.71734375,1.0,2679.09675536775,0.4764053011078713,1.2968769964697038,0.9783731733463152,0.2851814375,0.71895423777783
0.058,1.7159,1.0,2676.855655397105,0.47934225077172943,1.2962455461242166,0.9785951713604153,0.2851208,0.7201485216886628
0.0585,1.71444375,1.0,2674.612956140392,0.48226272372002593,1.2956084739135256,0.9788116501671799,0.2850596375,0.7213508614493509
0.059000000000000004,1.7129750000000001,1.0,2672.3701965301816,0.48516681366316716,1.2949657657298899,0.9790227794513903,0.28499795,0.7225612150745527
0.059500000000000004,1.71149375,1.0,2670.128912923449,0.48805461431155933,1.2943174074655692,0.9792287221886858,0.2849357375,0.7237795397408996
0.06,1.71,1.0,2667.8906391008754,0.4909262193756086,1.293663385012823,0.9794296349612436,0.284873,0.7250057917819213
0.0605,1.7084937500000001,1.0,2665.650163766221,0.4937816925253543,1.293003746280343,0.9796256691719183,0.2848097375,0.7262398107961875
0.061,1.7069750000000001,1.0,2663.4143715827217,0.4966211559006018,1.2923384279539107,0.9798169691477804,0.28474595,0.7274816439459061
0.0615,1.7054437500000001,1.0,2661.186087622965,0.49944470690147746,1.2916674039838052,0.9800036736620881,0.2846816375,0.7287312673895019
0.062,1.7039,1.0,2658.9656038858916,0.5022524307252533,1.2909906716049133,0.9801859164805263,0.2846168,0.729988613006765
0.0625,1.70234375,1.0,2656.7532118946647,0.5050444125692012,1.2903082280521228,0.980363826333508,0.2845514375,0.7312536120064945
0.063,1.7007750000000001,1.0,2654.5492027009254,0.5078207376305934,1.289620070560321,0.980537527141655,0.28448555,0.7325261949254934
0.0635,1.69919375,1.0,2652.353866888953,0.5105814911067019,1.2889261963643956,0.9807071382295525,0.28441913750000003,0.7338062916275596
0.064,1.6976,1.0,2650.167494579808,0.5133267581947987,1.2882266026992342,0.9808727745284732,0.2843522,0.7350938313024804
0.0645,1.69599375,1.0,2647.9903754360607,0.5160566240921558,1.2875212867997239,0.9810345467687128,0.2842847375,0.7363887424650221
0.065,1.694375,1.0,2645.8227986661386,0.5187711739960453,1.2868102459007524,0.9811925616621425,0.28421675,0.737690952953922
0.0655,1.69274375,1.0,2643.6650530292036,0.5214704931037393,1.2860934772372072,0.9813469220755435,0.2841482375,0.7390003899308788
0.066,1.6911,1.0,2641.5174268403885,0.5241546666125096,1.285370978043976,0.9814977271952484,0.2840792,0.7403169798795428
0.0665,1.6894437500000001,1.0,2639.380207975752,0.5268237797196286,1.2846427455559457,0.9816450726835892,0.2840096375,0.7416406486045062
0.067,1.687775,1.0,2637.253683877275,0.5294779176223681,1.2839087770080044,0.9817890508276104,0.28393955,0.7429713212302909
0.0675,1.68609375,1.0,2635.138141558993,0.5321171655180003,1.2831690696350393,0.981929750680481,0.2838689375,0.744308922200339
0.068,1.6844000000000001,1.0,2633.0338676123333,0.5347416086037969,1.282423620671938,0.9820672581960176,0.2837978,0.7456533752759991
0.0685,1.68269375,1.0,2630.9411482116793,0.5373513320770303,1.281672427353588,0.982201656356691,0.2837261375,0.7470046035355156
0.069,1.680975,1.0,2628.860269120953,0.5399464211349725,1.2809154869148764,0.9823330252954832,0.28365395,0.7483625293730163
0.0695,1.67924375,1.0,2626.7894775639816,0.5425269220856318,1.2801528154752848,0.9824614408355012,0.28358123749999997,0.7497270407566041
0.07,1.6775,1.0,2624.7313698367743,0.5450929604642687,1.2793843888675465,0.9825869793493321,0.283508,0.7510980971208787
0.07050000000000001,1.67574375,1.0,2622.6862196249763,0.547644621073272,1.278610204424396,0.9827097130735027,0.2834342375,0.7524756185924624
0.07100000000000001,1.673975,1.0,2620.653857924568,0.5501819805799952,1.2778302635817744,0.9828297115198126,0.28335995,0.7538595173408219
0.07150000000000001,1.67219375,1.0,2618.6341160544653,0.5527051156517917,1.277044567775623,0.9829470418973434,0.2832851375,0.7552497049299051
0.07200000000000001,1.6704,1.0,2616.6268256533826,0.555214102956015,1.2762531184418828,0.9830617692026233,0.2832098,0.7566460923186705
0.0725,1.66859375,1.0,2614.6318186758804,0.5577090191600186,1.2754559170164952,0.9831739563056762,0.2831339375,0.7580485898616126
0.073,1.6667750000000001,1.0,2612.6489273892576,0.5601899409311559,1.274652964935401,0.9832836640321658,0.28305755,0.7594571073092901
0.0735,1.66494375,1.0,2610.6779843701083,0.5626569449367804,1.2738442636345417,0.9833909512418436,0.2829806375,0.7608715538088509
0.074,1.6631,1.0,2608.718822500791,0.5651101078442456,1.2730298145498586,0.9834958749034766,0.2829032,0.7622918379045593
0.0745,1.6612437500000001,1.0,2606.7712749663947,0.567549506320905,1.2722096191172927,0.9835984901664485,0.2828252375,0.7637178675383242
0.075,1.659375,1.0,2604.8351752514986,0.5699752170341118,1.2713836787727852,0.9836988504291928,0.28274675,0.7651495500502223
0.0755,1.65749375,1.0,2602.910357136777,0.5723873166512198,1.2705519949522772,0.9837970074046195,0.2826677375,0.7665867921790274
