Time [s],Phi [rad],STIM [ ],Fsee [N],Gamma [ ],Lcerel [ ],q [ ],Lmtc [m],fisomrel [ ]
0.0,1.8,1.0,17.971719763361385,7.366984971500031e-05,1.3793392352008735,0.005001423837825093,0.288653,0.5411407673380624
0.0005,1.79999375,1.0,18.30225914230742,0.005682465928931661,1.3792995545585551,0.013118220120167293,0.2886527375,0.5412367599224543
0.001,1.799975,1.0,21.69125457920532,0.011259801096755517,1.378930865468902,0.035941127395375715,0.28865195,0.5421281862085103
0.0015,1.79994375,1.0,31.243149226604164,0.016805851824938958,1.3780314075964397,0.0710564305474386,0.2886506375,0.5442992821130563
0.002,1.7999,1.0,53.957792223135165,0.02232079359348892,1.3763438198935087,0.1152560703692109,0.2886488,0.5483588304463083
0.0025,1.79984375,1.0,97.75016984940176,0.02780480089866216,1.373904798951649,0.16516004365326567,0.28864643749999996,0.5541938817631598
0.003,1.7997750000000001,1.0,161.77968038157516,0.03325804726009489,1.371183632858279,0.2178840167059206,0.28864354999999997,0.5606591540118955
0.0035,1.79969375,1.0,238.61163233795168,0.03868070522086645,1.3685561679780835,0.27121312854937063,0.2886401375,0.5668569867516284
0.004,1.7996,1.0,322.4544529123244,0.04407294635814952,1.3661299525465305,0.3234969499605325,0.2886362,0.5725410007916945
0.0045000000000000005,1.7994937500000001,1.0,410.2905666428199,0.04943494128843333,1.3638988197618387,0.37358613698878224,0.2886317375,0.5777348500508318
0.005,1.799375,1.0,500.4571878018957,0.054766859658962996,1.3618361757312607,0.4207635290594079,0.28862675,0.5825082332020926
0.0055,1.79924375,1.0,591.8432958713664,0.06006887019164499,1.359918273497708,0.4646514841643547,0.2886212375,0.5869223099567253
0.006,1.7991000000000001,1.0,683.5722072286401,0.06534114063473537,1.3581272614274997,0.505119035241675,0.2886152,0.5910231652501252
0.006500000000000001,1.79894375,1.0,774.9291007888456,0.07058383781357842,1.3564493723018167,0.542202215871649,0.2886086375,0.5948464444695181
0.007,1.798775,1.0,865.305539235318,0.07579712729869902,1.3548739279768482,0.5760427856389962,0.28860155,0.5984199465634016
0.0075,1.79859375,1.0,954.2568414587022,0.08098117482343602,1.3533911927173428,0.6068426952083458,0.2885939375,0.6017687018807842
0.008,1.7984,1.0,1041.3708295988588,0.08613614412530977,1.3519937447865789,0.6348342551351943,0.2885858,0.6049120013747475
0.0085,1.79819375,1.0,1126.3046209211047,0.09126219771423999,1.3506752242526834,0.6602589400247212,0.2885771375,0.6078663491560276
0.009000000000000001,1.797975,1.0,1208.8331172778917,0.09635949804898142,1.3494292900400888,0.6833538850647205,0.28856795,0.6106478675448963
0.0095,1.79774375,1.0,1288.7970671963399,0.10142820680159316,1.3482501521687167,0.7043445711331092,0.2885582375,0.6132711464109237
0.01,1.7975,1.0,1366.055120836143,0.10646848412359161,1.3471329730146049,0.7234409150089011,0.288548,0.6157484025702857
0.0105,1.79724375,1.0,1440.5142441726682,0.11148048915153018,1.346073250185446,0.7408351209759032,0.2885372375,0.6180908976596994
0.011,1.796975,1.0,1512.1410209365115,0.11646438097693869,1.345066552918888,0.7567012424832423,0.28852595000000003,0.6203095473746052
0.0115,1.79669375,1.0,1580.9206080215965,0.12142031766762958,1.3441089318651407,0.771195961343601,0.2885141375,0.6224140402124745
0.012,1.7964,1.0,1646.8362322352734,0.126348455126622,1.3431970453854971,0.7844596921277109,0.28850180000000003,0.6244125894090085
0.0125,1.79609375,1.0,1709.9125583567936,0.13124894925693506,1.3423275518412507,0.7966176198959534,0.2884889375,0.6263132884259432
0.013000000000000001,1.7957750000000001,1.0,1770.1926039407458,0.13612195515318062,1.3414973285861973,0.8077812159133324,0.28847555,0.6281236433944222
0.0135,1.79544375,1.0,1827.752707820182,0.14096762827591747,1.3407032501546396,0.8180495512549673,0.2884616375,0.6298510693050543
0.014,1.7951000000000001,1.0,1882.6409910913367,0.1457861211662947,1.3399428291380773,0.8275108743628989,0.2884472,0.6315015080280613
0.0145,1.79474375,1.0,1934.9137171758262,0.15057758561679743,1.3392137501000347,0.8362436475006328,0.2884322375,0.6330804583643852
0.015,1.794375,1.0,1984.6483082959091,0.15534217341991094,1.338513697604036,0.8443176131719464,0.28841675,0.6345933562960566
0.0155,1.79399375,1.0,2031.922562111262,0.16008003534256005,1.3378405557878221,0.8517948796563211,0.2884007375,0.636045149441886
0.016,1.7936,1.0,2076.8414220828945,0.16479132266264823,1.337192100622875,0.8587307228509508,0.2883842,0.6374409670839697
0.0165,1.7931937500000001,1.0,2119.4754300084164,0.1694761834776428,1.3365666250081825,0.8651745842454601,0.2883671375,0.6387847797531936
0.017,1.792775,1.0,2159.898992348363,0.17413476539612793,1.3359625086999989,0.8711706296413607,0.28834955,0.6400803340178673
0.0175,1.7923437500000001,1.0,2198.1975292234497,0.17876721602668794,1.3353781314545787,0.8767583472023668,0.2883314375,0.6413313422896534
0.018000000000000002,1.7919,1.0,2234.452825492921,0.1833736818043822,1.3348120107406152,0.881973133740594,0.2883128,0.6425411908923029
0.0185,1.79144375,1.0,2268.7652035393403,0.1879543101847553,1.3342625666486942,0.8868467109408371,0.2882936375,0.6437134455912858
0.019,1.790975,1.0,2301.2069989946526,0.19250924513620685,1.3337285783628614,0.8914076635984327,0.28827395,0.6448508800507127
0.0195,1.79049375,1.0,2331.849914083719,0.19703862996924926,1.3332088958923924,0.8956817268252645,0.2882537375,0.6459560959763162
0.02,1.79,1.0,2360.7714868028133,0.20154260799439486,1.3327023692465627,0.8996920925582467,0.288233,0.6470316756942724
0.0205,1.78949375,1.0,2388.0488781182235,0.2060213216609155,1.3322079040082113,0.9034597071176369,0.2882117375,0.648080065416043
0.021,1.788975,1.0,2413.763209049452,0.21047491388008283,1.331724413435886,0.9070035103161477,0.28818995000000003,0.6491036783501828
0.021500000000000002,1.78844375,1.0,2437.9892144466594,0.214903526342846,1.331250913774899,0.9103406744466074,0.2881676375,0.6501046942707095
0.022,1.7879,1.0,2460.7855855060698,0.21930729770416268,1.3307866106067918,0.9134868113116802,0.2881448,0.6510848796022662
0.0225,1.78734375,1.0,2482.2140733499064,0.22368636661899055,1.3303307095131074,0.9164561014463385,0.28812143749999997,0.6520459896446653
0.023,1.786775,1.0,2502.3392346097035,0.22804087174228727,1.3298824160753882,0.9192614451462752,0.28809755,0.6529897690187005
0.0235,1.78619375,1.0,2521.224536932052,0.2323709510927993,1.3294409704339516,0.9219146019248763,0.28807313749999996,0.6539178794628069
0.024,1.7856,1.0,2538.9278648080726,0.23667674147311882,1.3290056869056666,0.9244263144214527,0.2880482,0.6548318175501611
0.0245,1.78499375,1.0,2555.5258935967468,0.24095838241752957,1.3285757218927907,0.926806371786373,0.2880227375,0.655733402368085
0.025,1.784375,1.0,2571.0630825439125,0.24521600739352634,1.3281505523462291,0.9290637842695835,0.28799675,0.6566237723050534
0.025500000000000002,1.78374375,1.0,2585.585316789058,0.24944974986860385,1.3277296552168876,0.9312068072705918,0.2879702375,0.6575040596027424
0.026000000000000002,1.7831000000000001,1.0,2599.139789320933,0.25365974331025687,1.3273125074556713,0.9332430148258326,0.2879432,0.658375390507274
0.0265,1.78244375,1.0,2611.7748889976697,0.2578461211859801,1.3268985860134859,0.9351793650459368,0.2879156375,0.6592388854030089
0.027,1.781775,1.0,2623.540094633911,0.2620090169632684,1.3264873678412368,0.9370222584703289,0.28788755,0.6600956589288933
0.0275,1.7810937500000001,1.0,2634.479320743038,0.2661485602776861,1.326078390531797,0.938777597718774,0.2878589375,0.6609466939674518
0.028,1.7804,1.0,2644.644449362793,0.2702648872481846,1.3256711259137182,0.9404508188665642,0.2878298,0.6617931050576886
0.0285,1.77969375,1.0,2654.069884281264,0.2743581260707491,1.3252652144685166,0.9420469619626122,0.2878001375,0.6626356513289218
0.029,1.778975,1.0,2662.7903191470855,0.2784284047693185,1.3248602996650594,0.9435706858167162,0.28776995,0.6634750819564026
0.029500000000000002,1.7782437500000001,1.0,2670.8410057705496,0.28247585136783177,1.3244560249722128,0.9450263014331367,0.2877392375,0.6643121424082615
0.03,1.7775,1.0,2678.2577030304183,0.2865005938902278,1.3240520338588437,0.9464178024301448,0.287708,0.6651475744641161
0.0305,1.77674375,1.0,2685.076628599253,0.29050276036044553,1.3236479697938188,0.9477488924373431,0.2876762375,0.6659821162255719
0.031,1.775975,1.0,2691.3241147053322,0.2944824735236706,1.3232435705195418,0.9490230201191819,0.28764395,0.6668163077735269
0.0315,1.7751937500000001,1.0,2697.0365762651395,0.29843986350986157,1.322838484570358,0.9502433815285265,0.2876111375,0.6676508701540648
0.032,1.7744,1.0,2702.254438740887,0.3023750622076798,1.3224323268981952,0.9514129462539274,0.2875778,0.6684865898310439
0.0325,1.77359375,1.0,2706.9991181102446,0.30628819095213294,1.322024888790851,0.9525344975117197,0.2875439375,0.6693238871149236
0.033,1.772775,1.0,2711.292241396975,0.3101793710782289,1.3216159615361225,0.9536106293497074,0.28750955,0.6701631801186078
0.0335,1.7719437500000002,1.0,2715.155626956488,0.3140487239209755,1.321205336421807,0.9546437617781354,0.2874746375,0.6710048847390108
0.034,1.7711000000000001,1.0,2718.6112657265107,0.3178963708153804,1.3207928047357023,0.9556361545189305,0.2874392,0.6718494146358469
0.0345,1.7702437500000001,1.0,2721.6813034444544,0.32172243309645154,1.320378157765605,0.9565899195139964,0.2874032375,0.6726971812076437
0.035,1.7693750000000001,1.0,2724.3880238296983,0.32552703209919664,1.319961186799313,0.9575070323176136,0.28736675,0.6735485935649717
0.035500000000000004,1.76849375,1.0,2726.7538327323796,0.3293102891586235,1.3195416831246236,0.9583893424841724,0.2873297375,0.6744040585009012
0.036000000000000004,1.7676,1.0,2728.8012432477212,0.33307232560974,1.3191194380293338,0.9592385830502899,0.2872922,0.6752639804586804
0.0365,1.76669375,1.0,2730.5434191606028,0.3368132570260892,1.3186943286147546,0.9600563866089206,0.2872541375,0.6761285870816035
0.037,1.765775,1.0,2732.0033489438797,0.3405332067605359,1.3182661433585434,0.9608442782098879,0.28721555,0.676998284412242
0.0375,1.76484375,1.0,2733.203084444819,0.3442322956687238,1.3178346798938467,0.9616036905891991,0.2871764375,0.677873457451454
0.038,1.7639,1.0,2734.1550780826137,0.3479106380458775,1.3173998235707862,0.9623359775259912,0.28713679999999997,0.678754311215669
0.0385,1.76294375,1.0,2734.8718259846996,0.35156834818722127,1.3169614597394839,0.9630424124373984,0.28709663750000003,0.6796410492341057
0.039,1.761975,1.0,2735.3658624064856,0.35520554038797947,1.3165194737500612,0.9637241940202954,0.28705595,0.6805338735235471
0.0395,1.7609937500000001,1.0,2735.6497544439953,0.35882232894337657,1.3160737509526403,0.9643824514383484,0.2870147375,0.6814329845622713
0.04,1.76,1.0,2735.7360970366003,0.3624188281486369,1.315624176697343,0.9650182490954915,0.286973,0.6823385812631516
0.0405,1.7589937500000001,1.0,2735.637508262205,0.3659951522989849,1.3151706363342912,0.9656325910328586,0.2869307375,0.6832508609459118
0.041,1.757975,1.0,2735.3666249230464,0.36955141568964484,1.3147130152136064,0.9662264249825233,0.28688795,0.684170019308547
0.0415,1.75694375,1.0,2734.935893745238,0.3730877317167969,1.3142512005440103,0.9668006461125713,0.2868446375,0.6850962466729853
0.042,1.7559,1.0,2734.3566121085914,0.376604207327428,1.313785090070668,0.9673561002900389,0.28680079999999997,0.6860297106165267
0.0425,1.75484375,1.0,2733.640759375134,0.3801009645054218,1.3133145754169209,0.9678935894618145,0.2867564375,0.6869705893855695
0.043000000000000003,1.753775,1.0,2732.795626113211,0.3835781110195906,1.312839590841685,0.9684138736589594,0.28671155,0.6879189744961962
0.043500000000000004,1.75269375,1.0,2731.828507955018,0.3870357546387466,1.3123600706038763,0.9689176725462767,0.28666613750000003,0.6888749562893541
0.044,1.7516,1.0,2730.7467039305247,0.39047400313170216,1.311875948962411,0.9694056679653649,0.2866202,0.6898386239119758
0.0445,1.75049375,1.0,2729.5575148990893,0.39389296426726955,1.3113871601762048,0.969878506293108,0.2865737375,0.6908100652978271
0.045,1.7493750000000001,1.0,2728.268242075256,0.3972927458142611,1.3108936385041743,0.9703368006306932,0.28652675,0.6917893671480734
0.0455,1.74824375,1.0,2726.8861856515887,0.400673455541489,1.3103953182052352,0.9707811328368657,0.2864792375,0.6927766149115777
0.046,1.7471,1.0,2725.4186435168062,0.4040352012177656,1.3098921335383036,0.9712120554179149,0.2864312,0.6937718927649178
0.0465,1.7459437500000001,1.0,2723.872910069602,0.40737809061190317,1.3093840187622958,0.9716300932857679,0.28638263750000004,0.6947752835921281
0.047,1.744775,1.0,2722.2445675935055,0.41070219799145086,1.3088710146948022,0.9720357486999857,0.28633355,0.6957866590605973
0.0475,1.74359375,1.0,2720.5500293255927,0.4140076606728232,1.3083529725785876,0.9724294940336426,0.28628393750000003,0.696806263717949
0.048,1.7424,1.0,2718.800768664083,0.4172946021969299,1.307829788487005,0.9728117800572113,0.2862338,0.6978342516583094
0.0485,1.74119375,1.0,2716.9997476319145,0.4205631213943137,1.3073014359202193,0.9731830381672322,0.2861831375,0.6988706233462096
0.049,1.739975,1.0,2715.1499259651787,0.4238133170955172,1.306767888378395,0.9735436792676698,0.28613195,0.6999153783796573
0.0495,1.73874375,1.0,2713.254260841094,0.427045288131083,1.3062291193616977,0.97389409492723,0.2860802375,0.7009685154813747
0.05,1.7375,1.0,2711.315706621552,0.4302591333315539,1.3056851023702916,0.9742346584611858,0.286028,0.7020300324900012
0.0505,1.73624375,1.0,2709.3372146114084,0.4334549515274725,1.305135810904342,0.9745657259432704,0.2859752375,0.7030999263512424
0.051000000000000004,1.734975,1.0,2707.3217328334,0.4366328415493814,1.3045812184640138,0.9748876371527451,0.28592195,0.7041781931089819
0.051500000000000004,1.73369375,1.0,2705.2722058179015,0.43979290222782336,1.3040212985494715,0.9752007164613307,0.2858681375,0.7052648278963429
0.052000000000000005,1.7324,1.0,2703.191574408394,0.442935232393341,1.3034560246608802,0.9755052736643185,0.2858138,0.7063598249267069
0.0525,1.73109375,1.0,2701.0827755828195,0.4460599308764769,1.302885370298405,0.9758016047598294,0.28575893750000003,0.707463177484688
0.053,1.729775,1.0,2698.9487422901857,0.44916709650777376,1.3023093089622104,0.9760899926798807,0.28570355000000003,0.7085748779170625
0.0535,1.72844375,1.0,2696.792403302803,0.45225682811777435,1.3017278141524617,0.976370707976626,0.2856476375,0.7096949176236528
0.054,1.7271,1.0,2694.616683084223,0.45532922453702124,1.3011408593693234,0.9766440094668778,0.2855912,0.7108232870481677
0.0545,1.7257437500000001,1.0,2692.424501672613,0.45838438459605707,1.3005484181129607,0.9769101448377842,0.2855342375,0.7119599756689954
0.055,1.724375,1.0,2690.218774579478,0.4614224071254246,1.2999504638835384,0.9771693512163016,0.28547675,0.7131049719899558
0.0555,1.72299375,1.0,2688.0024127046945,0.46444339095566634,1.2993469701812213,0.9774218557049178,0.2854187375,0.7142582635310046
0.056,1.7216,1.0,2685.7783222662747,0.46744743491732504,1.298737910506174,0.9776678758858849,0.2853602,0.715419836818894
0.0565,1.72019375,1.0,2683.550097762574,0.47043463344915964,1.2981232520056014,0.9779076195258237,0.28530113749999997,0.7165896894566476
0.057,1.718775,1.0,2681.314128732116,0.47340507666421533,1.2975030278485178,0.9781412892368814,0.28524155,0.7177676926688905
0.0575,1.71734375,1.0,2679.0735138681193,0.47635885792875216,1.2968772097045942,0.978369076160989,0.2851814375,0.7189538340497909
0.058,1.7159,1.0,2676.8318788701986,0.4792960705833263,1.296245764359156,0.9785911634205319,0.2851208,0.7201481093726384
0.0585,1.71444375,1.0,2674.5898765833235,0.48221680767470537,1.2956086858400484,0.9788077282734862,0.2850596375,0.7213504619130089
0.059000000000000004,1.7129750000000001,1.0,2672.348014787104,0.48512116212383166,1.294965969497729,0.9790189409774734,0.28499795,0.7225608317546711
0.059500000000000004,1.71149375,1.0,2670.108563089671,0.4880092254855281,1.2943175944833747,0.9792249640600192,0.2849357375,0.723779188703826
0.06,1.71,1.0,2667.8717565119164,0.49088108885067133,1.2936635586192005,0.9794259546499937,0.284873,0.7250054666425619
0.0605,1.7084937500000001,1.0,2665.6348930815593,0.49373684319065764,1.2930038867378426,0.9796220652086445,0.2848097375,0.7262395483307318
0.061,1.7069750000000001,1.0,2663.4065106616563,0.496576579179868,1.2923385002877914,0.9798134367850451,0.28474595,0.727481509086368
0.0615,1.7054476935106258,1.0,2661.37333363033,0.4994003867466773,1.2916674612518666,0.9800002123810687,0.2846818031274463,0.7287311608638103
0.062,1.703920122647831,1.0,2659.90070262179,0.5022083547865042,1.290991148317332,0.9801825460933464,0.2846176451512089,0.7299877283193894
0.0625,1.7023925517850362,1.0,2658.9599975085944,0.5050005721947673,1.2903099401714515,0.9803605862954221,0.28455348717497153,0.7312504420843375
0.063,1.7008649809222416,1.0,2658.5104775300842,0.5077771274048614,1.2896242094448265,0.9805344755576461,0.28448932919873415,0.7325185500748064
0.0635,1.699337410059447,1.0,2658.50877040751,0.510538108737506,1.2889343544555079,0.9807043525628373,0.2844251712224968,0.7337912589776114
0.064,1.697809839196652,1.0,2658.9209289108967,0.5132836030473363,1.2882406878345432,0.9808703465471142,0.2843610132462594,0.735067939657747
0.0645,1.6962822683338574,1.0,2659.713679729891,0.5160136970872272,1.2875435168510343,0.9810325818447402,0.284296855270022,0.7363479780514635
0.065,1.6947546974710628,1.0,2660.8617627981175,0.5187284751937895,1.2868430756179419,0.9811911745591181,0.28423269729378464,0.7376308991391571
0.0655,1.6932271266082681,1.0,2662.3249893947523,0.5214280266560073,1.2861397361301765,0.9813462438788105,0.28416853931754726,0.7389159802530387
0.066,1.6916995557454733,1.0,2664.0731489402533,0.5241124382562414,1.2854337787300998,0.9814979001791336,0.2841043813413099,0.7402026720658688
0.0665,1.6901719848826786,1.0,2666.0875204738973,0.5267817933148209,1.2847253781719108,0.9816462446384459,0.2840402233650725,0.7414906218905051
0.067,1.688644414019884,1.0,2668.349395980476,0.5294361751520741,1.284014709209809,0.9817913749548328,0.28397606538883513,0.7427794800780216
0.0675,1.687116843157089,1.0,2670.8400712628286,0.5320756670883299,1.2833019465979933,0.9819333854948912,0.28391190741259775,0.744068900043966
0.068,1.6855892722942944,1.0,2673.5408374910894,0.5347003524439169,1.2825872650906631,0.982072367435195,0.2838477494363604,0.7453585382926635
0.0685,1.6840617014314998,1.0,2676.4329734294793,0.5373103145391639,1.2818708394420173,0.9822084088968522,0.283783591460123,0.7466480544395807
0.069,1.6825341305687052,1.0,2679.497738339877,0.5399056366943994,1.2811528444062552,0.9823415950735298,0.2837194334838856,0.7479371112317348
0.0695,1.6810065597059103,1.0,2682.7211317308947,0.5424863994705901,1.280433411038808,0.982472006135071,0.28365527550764824,0.7492254527204686
0.07,1.6794789888431156,1.0,2686.0866840737162,0.5450526867545785,1.2797126928376146,0.9825997208751414,0.28359111753141086,0.750512785285492
0.07050000000000001,1.677951417980321,1.0,2689.5781822178847,0.5476045824328806,1.2789908406775052,0.9827248154096666,0.2835269595551735,0.7517988227616674
0.07100000000000001,1.6764238471175261,1.0,2693.1871564964335,0.550142165454931,1.278267934269084,0.9828473598409987,0.2834628015789361,0.7530834080281148
0.07150000000000001,1.6748962762547315,1.0,2696.9051216682174,0.5526655147701643,1.2775440533229547,0.9829674220186465,0.28339864360269873,0.7543663854115589
0.07200000000000001,1.6733687053919368,1.0,2700.723575124979,0.5551747093280157,1.2768192775497216,0.9830850676286745,0.28333448562646135,0.7556476006914867
0.0725,1.6718411345291422,1.0,2704.63399523974,0.5576698280779195,1.2760936866599883,0.9832003602790047,0.283270327650224,0.7569269011048985
0.073,1.6703135636663473,1.0,2708.6278398555773,0.5601509499693109,1.2753673603643592,0.9833133615808369,0.2832061696739866,0.7582041353506542
0.0735,1.6687859928035527,1.0,2712.69654491563,0.5626181539516244,1.274640378373438,0.9834241312263916,0.2831420116977492,0.7594791535934147
0.074,1.667258421940758,1.0,2716.83152323382,0.5650715189742949,1.2739128203978285,0.9835327270631582,0.28307785372151184,0.7607518074671777
