Time [s],Phi [rad],STIM [ ],Fsee [N],Gamma [ ],Lcerel [ ],q [ ],Lmtc [m],fisomrel [ ]
0.0,1.8,1.0,17.966898464773863,2.3310171612916124e-05,1.3793397753152257,0.00500014385224474,0.288653,0.5411394606626088
0.0005,1.79999375,1.0,18.28074513033404,0.005632388728783873,1.3793019433823523,0.012977508493327489,0.2886527375,0.5412309813340905
0.001,1.799975,1.0,21.632304675248285,0.011210004790104705,1.3789368803010713,0.03567797280739358,0.28865195,0.5421136503434042
0.0015,1.79994375,1.0,31.104140540575088,0.016756334836176046,1.3780432308170785,0.07069668237646586,0.2886506375,0.544270776892172
0.002,1.7999,1.0,53.659084336597715,0.022271554355922173,1.3763631577926896,0.11483031105064159,0.2886488,0.5483124153581476
0.0025,1.79984375,1.0,97.24884975400947,0.027755837854254287,1.3739289091972515,0.1646970326444704,0.28864643749999996,0.5541363866918165
0.003,1.7997750000000001,1.0,161.12791922074888,0.03320935885965916,1.3712079914367956,0.21740645803755992,0.28864354999999997,0.5606014894561859
0.0035,1.79969375,1.0,237.8755275856586,0.03863228992389044,1.3685788152829292,0.27073821339995274,0.2886401375,0.566803752948445
0.004,1.7996,1.0,321.6715107691399,0.04402480263272525,1.3661506704938209,0.3230371507502449,0.2886362,0.5724926227580529
0.0045000000000000005,1.7994937500000001,1.0,409.4799640133559,0.049387067611155855,1.3639178333589026,0.37314970024926064,0.2886317375,0.5776907224597003
0.005,1.799375,1.0,499.63017364105616,0.05471925451450841,1.361853738637771,0.4203552328772408,0.28862675,0.5824677035518743
0.0055,1.79924375,1.0,591.0091572433017,0.06002153207536882,1.3599345617823007,0.4642734787922843,0.2886212375,0.5868849210286453
0.006,1.7991000000000001,1.0,682.7372369363255,0.06529406804811694,1.3581424318922217,0.5047716599225375,0.2886152,0.5909885155558844
0.006500000000000001,1.79894375,1.0,774.1011740470286,0.0705370292599926,1.356463499770358,0.5418845818334717,0.2886086375,0.5948143282253444
0.007,1.798775,1.0,864.5061913044358,0.0757505816172094,1.3548868353784715,0.5757531383993872,0.28860155,0.5983907336576966
0.0075,1.79859375,1.0,953.4601866066828,0.08093489004255586,1.3534034421398,0.6065793614736555,0.2885939375,0.6017410940170314
0.008,1.7984,1.0,1040.5731845212329,0.08609011863129544,1.3520054850421206,0.634595139513898,0.2885858,0.6048856457278744
0.0085,1.79819375,1.0,1125.5290398769255,0.09121643042687187,1.3506862006903382,0.6600416993155345,0.2885771375,0.6078418005273465
0.009000000000000001,1.797975,1.0,1208.0902721718144,0.09631398770094592,1.349439437777141,0.6831563773813311,0.28856795,0.610625252952792
0.0095,1.79774375,1.0,1288.0647698780394,0.10138295144953058,1.3482598403946273,0.704165022709986,0.2885582375,0.6132496287254743
0.01,1.7975,1.0,1365.3475851130377,0.10642348281422728,1.3471420649822996,0.7232774281744807,0.288548,0.6157282739790335
0.0105,1.79724375,1.0,1439.8386777791002,0.11143574069119032,1.3460817038997013,0.7406860179679213,0.2885372375,0.6180722392406872
0.011,1.796975,1.0,1511.48346697575,0.1164198834593499,1.3450745839230236,0.756565132274798,0.28852595000000003,0.6202918735023984
0.0115,1.79669375,1.0,1580.2681517258964,0.12137606901928305,1.344116725294258,0.7710715814238946,0.2885141375,0.6223969367753703
0.012,1.7964,1.0,1646.210136756424,0.12630445481877928,1.343204372686331,0.784345736298839,0.28850180000000003,0.624396551559254
0.0125,1.79609375,1.0,1709.3190257760664,0.131205196131764,1.3423343686746934,0.7965130020462352,0.2884889375,0.6262984056890917
0.013000000000000001,1.7957750000000001,1.0,1769.6315737703214,0.1360784478825309,1.3415036614150107,0.8076849989913132,0.28847555,0.6281098508933092
0.0135,1.79544375,1.0,1827.1995211684416,0.140924364247598,1.340709395314948,0.817961004918191,0.2884616375,0.6298377166585538
0.014,1.7951000000000001,1.0,1882.1062531755438,0.14574309969533097,1.3399486820965663,0.8274292036285389,0.2884472,0.6314888186888001
0.0145,1.79474375,1.0,1934.4056353219091,0.15053480579830752,1.3392192356322954,0.8361681561045214,0.2884322375,0.6330685911257694
0.015,1.794375,1.0,1984.1645865482656,0.1552996337478264,1.338518854254299,0.8442477201980216,0.28841675,0.6345822235789436
0.0155,1.79399375,1.0,2031.4662440147595,0.16003773447834613,1.337845363360727,0.8517300489712568,0.2884007375,0.6360347909938084
0.016,1.7936,1.0,2076.400641239064,0.1647492583470712,1.337196693993266,0.8586705246672084,0.2883842,0.6374310891582007
0.0165,1.7931937500000001,1.0,2119.0551571950336,0.16943435519675576,1.3365709603766338,0.8651185829090491,0.2883671375,0.6387754739513725
0.017,1.792775,1.0,2159.4996332525484,0.17409317211496145,1.3359665895845987,0.8711184491264092,0.28834955,0.6400715901877991
0.0175,1.7923437500000001,1.0,2197.8147491268073,0.17872585618924994,1.3353820086909285,0.8767096637975779,0.2883314375,0.6413230492552231
0.018000000000000002,1.7919,1.0,2234.089197914101,0.1833325542701322,1.334815663964322,0.8819276383794872,0.2883128,0.6425333901917416
0.0185,1.79144375,1.0,2268.4058498173963,0.18791341182200552,1.3342661495260915,0.8868041698642198,0.2882936375,0.6437058076562521
0.019,1.790975,1.0,2300.8640752471683,0.19246857631987338,1.333731973233862,0.8913678013014358,0.28827395,0.6448436544688547
0.0195,1.79049375,1.0,2331.5282607544473,0.1969981901696309,1.3332120591904097,0.8956443124741541,0.2882537375,0.6459493737566546
0.02,1.79,1.0,2360.4684135208076,0.20150239577717324,1.3327053314985107,0.8996569346882127,0.288233,0.6470253902820986
0.0205,1.78949375,1.0,2387.759699313802,0.2059813355483956,1.332210714260941,0.9034266369773836,0.2882117375,0.6480741113846793
0.021,1.788975,1.0,2413.4820061078644,0.2104351518891931,1.3317271315804766,0.9069723772049527,0.28818995000000003,0.6490979278488175
0.021500000000000002,1.78844375,1.0,2437.701963448329,0.21486398464588868,1.331253676551873,0.9103113568750143,0.2881676375,0.650098857687714
0.022,1.7879,1.0,2460.508272422482,0.2192679774854244,1.330789265414604,0.9134591425780367,0.2881448,0.6510792789747023
0.0225,1.78734375,1.0,2481.957315805349,0.22364726821036285,1.3303331568976131,0.9164299400278069,0.28812143749999997,0.6520408337182938
0.023,1.786775,1.0,2502.105003504253,0.228001994109898,1.329884639738629,0.9192366774983981,0.28809755,0.6529850907669481
0.0235,1.78619375,1.0,2521.009662653548,0.2323322924732237,1.3294430026753803,0.9218911332851434,0.28807313749999996,0.6539136096563437
0.024,1.7856,1.0,2538.7318344862906,0.23663830058953397,1.3290075344455952,0.9244040538823076,0.2880482,0.6548279409375973
0.0245,1.78499375,1.0,2555.3301880076724,0.2409201549914815,1.3285775603722367,0.9267852646992177,0.2880227375,0.6557295498081286
0.025,1.784375,1.0,2570.8583154721496,0.2451779910406358,1.3281524701306175,0.929043766565311,0.28799675,0.6566197587601217
0.025500000000000002,1.78374375,1.0,2585.3863638024427,0.24941194672971204,1.3277315133069445,0.9311877841865889,0.2879702375,0.6575001759742987
0.026000000000000002,1.7831000000000001,1.0,2598.955602218636,0.2536221539868667,1.3273142231482347,0.9332249077253304,0.2879432,0.6583718090716444
0.0265,1.78244375,1.0,2611.6084203511805,0.2578087447402563,1.3269001329015053,0.935162109852278,0.2879156375,0.6592356604240375
0.027,1.781775,1.0,2623.3882342917977,0.2619718509180373,1.326488775813774,0.9370058042629187,0.28788755,0.6600927272564516
0.0275,1.7810937500000001,1.0,2634.3393974741716,0.2661116044483663,1.326079685132058,0.938761897936428,0.2878589375,0.6609440017352612
0.028,1.7804,1.0,2644.5071163849952,0.27022813725939976,1.3256723941033748,0.9404358378738936,0.2878298,0.6617904710426535
0.0285,1.77969375,1.0,2653.9298360347257,0.2743215776207381,1.3252665054339265,0.9420326615097304,0.2878001375,0.6626329733507699
0.029,1.778975,1.0,2662.6570850649255,0.27839206003773626,1.3248615258039298,0.9435570138412523,0.28776995,0.6634725416209907
0.029500000000000002,1.7782437500000001,1.0,2670.721076090976,0.28243971190443984,1.3244571270059984,0.9450132132947566,0.2877392375,0.6643098620376704
0.03,1.7775,1.0,2678.1523411325697,0.28646465961798107,1.3240530006864732,0.9464052625659016,0.287708,0.6651455763587135
0.0305,1.77674375,1.0,2684.98184004679,0.290467029575492,1.3236488384916953,0.9477368735788627,0.2876762375,0.6659803231600017
0.031,1.775975,1.0,2691.240921125307,0.2944469481741047,1.3232443320680054,0.9490114922683865,0.28764395,0.6668147378377203
0.0315,1.7751937500000001,1.0,2696.961283799362,0.29840454181095133,1.3228391730617444,0.9502323209586396,0.2876111375,0.6676494526046208
0.032,1.7744,1.0,2702.174504331533,0.3023399364799888,1.3224330571308343,0.9514023389651023,0.2875778,0.668485088231072
0.0325,1.77359375,1.0,2706.904034981374,0.3062532497655931,1.3220257566527034,0.9525243272159528,0.2875439375,0.6693221047584625
0.033,1.772775,1.0,2711.191727402552,0.31014461976778884,1.3216168782414803,0.9536008641597935,0.28750955,0.6701612998412143
0.0335,1.7719437500000002,1.0,2715.0570502223086,0.31401416633075424,1.321206234818992,0.9546343738853671,0.2874746375,0.6710030443667303
0.034,1.7711000000000001,1.0,2718.519633973105,0.3178620092986677,1.3207936393070654,0.9556271198919659,0.2874392,0.6718477072070422
0.0345,1.7702437500000001,1.0,2721.599255387187,0.3216882685157076,1.320378904627528,0.9565812176227161,0.2874032375,0.6726956551966368
0.035,1.7693750000000001,1.0,2724.3158224658964,0.32549306382605214,1.319961843702207,0.9574986458797893,0.28736675,0.6735472531080501
0.035500000000000004,1.76849375,1.0,2726.689360325805,0.3292765150738797,1.3195422694529293,0.9583812572329692,0.2873297375,0.6744028636252282
0.036000000000000004,1.7676,1.0,2728.7399978202143,0.33303874210336865,1.319119994801522,0.95923078752081,0.2872922,0.6752628473146575
0.0365,1.76669375,1.0,2730.487954937186,0.3367798647586972,1.3186948326698122,0.9600488645328722,0.2872541375,0.6761275625942614
0.037,1.765775,1.0,2731.9535309728367,0.3405000028840438,1.3182665959796271,0.9608370159520314,0.28721555,0.6769973657000663
0.0375,1.76484375,1.0,2733.1495830398285,0.34419926750425134,1.31783516587423,0.9615966814192627,0.2871764375,0.677872472365117
0.038,1.7639,1.0,2734.095120065266,0.347877781365209,1.317400368105349,0.9623292112530747,0.28713679999999997,0.6787532089495822
0.0385,1.76294375,1.0,2734.8121884489437,0.3515356709141277,1.31696200129246,0.9630358737626495,0.28709663750000003,0.6796399545174698
0.039,1.761975,1.0,2735.3115383632876,0.3551730482196346,1.3165199670078014,0.9637178695200542,0.28705595,0.6805328778232791
0.0395,1.7609937500000001,1.0,2735.6039508393324,0.358790025350357,1.3160741668236113,0.9643763294563813,0.2870147375,0.6814321462588008
0.04,1.76,1.0,2735.7002335576954,0.3623867143749222,1.3156245023121282,0.9650123196424697,0.286973,0.6823379258297875
0.0405,1.7589937500000001,1.0,2735.611216855076,0.3659632273619576,1.3151708750455906,0.9656268456925915,0.2869307375,0.6832503811320049
0.041,1.757975,1.0,2735.3477499452906,0.3695196763800904,1.3147131865962367,0.9662208568244944,0.28688795,0.6841696753266655
0.0415,1.75694375,1.0,2734.920697355234,0.37305617349794795,1.3142513385363048,0.9667952496059378,0.2868446375,0.6850959701152448
0.042,1.7559,1.0,2734.340935575444,0.37657283078415754,1.3137852324380337,0.9673508714149219,0.28680079999999997,0.6860294257136772
0.0425,1.75484375,1.0,2733.619349925924,0.3800697603073465,1.3133147698736614,0.9678885236382191,0.2867564375,0.6869702008259395
0.043000000000000003,1.753775,1.0,2732.7668316359413,0.3835470741361421,1.3128398524154261,0.9684089646304639,0.28671155,0.6879184526170102
0.043500000000000004,1.75269375,1.0,2731.7942751396117,0.38700488433917163,1.3123603816355667,0.9689129124539759,0.28666613750000003,0.6888743366852141
0.044,1.7516,1.0,2730.7063831049445,0.39044329181490633,1.3118763153811603,0.9694010501685887,0.2866202,0.689837895102905
0.0445,1.75049375,1.0,2729.5143907214383,0.3938624156279932,1.311387552156102,0.9698740234032487,0.2865737375,0.6908092868693585
0.045,1.7493750000000001,1.0,2728.2277056509074,0.39726236885845245,1.3108940070494894,0.970332444900993,0.28652675,0.6917886364180867
0.0455,1.74824375,1.0,2726.851523547705,0.40064325576979765,1.3103956334226272,0.9707768978039446,0.2864792375,0.6927759909188969
0.046,1.7471,1.0,2725.3910395001076,0.4040051806255422,1.309892384636821,0.9712079358470378,0.2864312,0.6937713965054357
0.0465,1.7459437500000001,1.0,2723.851447209623,0.4073482476891996,1.3093842140533751,0.9716260851190931,0.28638263750000004,0.6947748982607633
0.047,1.744775,1.0,2722.2379382191098,0.4106725612242832,1.3088710750335952,0.9720318457022367,0.28633355,0.6957865402027781
0.0475,1.74359375,1.0,2720.5557011891256,0.4139782254943065,1.3083529209387859,0.9724256931991442,0.28628393750000003,0.6968063652695118
0.048,1.7424,1.0,2718.8099212215852,0.41726534476278304,1.3078297051302525,0.9728080801567598,0.2862338,0.6978344153042786
0.0485,1.74119375,1.0,2717.0057792331854,0.4205340232932262,1.3073013809693,0.9731794373944164,0.2861831375,0.6988707310406925
0.049,1.739975,1.0,2715.148451375484,0.42378436534914943,1.3067679018172331,0.9735401752435898,0.28613195,0.6999153520875396
0.0495,1.73874375,1.0,2713.2431085042836,0.42701647519406616,1.3062292210353572,0.9738906847059351,0.2860802375,0.7009683169135151
0.05,1.7375,1.0,2711.294915696855,0.4302304570914899,1.3056852919849775,0.9742313385356757,0.286028,0.702029662831821
0.0505,1.73624375,1.0,2709.307499034386,0.4334263945827191,1.3051360820116382,0.9745624908176092,0.2859752375,0.7030993987710038
0.051000000000000004,1.734975,1.0,2707.285761924146,0.436604413058191,1.3045815467635746,0.9748844833977504,0.28592195,0.7041775553925651
0.051500000000000004,1.73369375,1.0,2705.2326536851365,0.43976461608787915,1.3040216596710057,0.9751976412852246,0.2858681375,0.7052641277132883
0.052000000000000005,1.7324,1.0,2703.1506525720547,0.4429070999305203,1.303456398431984,0.9755022743548744,0.2858138,0.7063591015646971
0.0525,1.73109375,1.0,2701.042233595428,0.446031960844851,1.302885740744563,0.9757986786892663,0.28575893750000003,0.7074624619056675
0.053,1.729775,1.0,2698.9098683933503,0.4491392950896081,1.3023096643067953,0.9760871373090582,0.28570355000000003,0.7085741928147729
0.0535,1.72844375,1.0,2696.75602511372,0.4522291989235282,1.3017281468167337,0.9763679208586175,0.2856476375,0.7096942774825881
0.054,1.7271,1.0,2694.583168308194,0.455301768605348,1.3011411659724315,0.9766412882499892,0.2855912,0.7108226982039685
0.0545,1.7257437500000001,1.0,2692.3937588363838,0.4583571003938042,1.3005486994719413,0.9769074872680794,0.2855342375,0.7119594363702957
0.055,1.724375,1.0,2690.1902537816673,0.46139529054763334,1.2999507250133162,0.9771667551396914,0.28547675,0.71310447246169
0.0555,1.72299375,1.0,2687.9751063778326,0.46441643532557225,1.299347220294609,0.9774193190688613,0.2854187375,0.7142577860391927
0.056,1.7216,1.0,2685.750765946619,0.46742063098635755,1.2987381630138728,0.9776653967407483,0.2853602,0.7154193557369157
0.0565,1.72019375,1.0,2683.519677846579,0.4704079737887259,1.2981235308691605,0.9779051967961717,0.28530113749999997,0.7165891592541604
0.057,1.718775,1.0,2681.2842834328358,0.47337855999141404,1.2975033015585251,0.9781389192787298,0.28524155,0.7177671733475041
0.0575,1.71734375,1.0,2679.047020027612,0.47633248585315857,1.2968774527800193,0.9783667560562932,0.2851814375,0.7189533738228553
0.058,1.7159,1.0,2676.8070793025104,0.4792698036718952,1.2962459919851976,0.9785888890661864,0.2851208,0.7201476793134765
0.0585,1.71444375,1.0,2674.566396848405,0.48219064557280616,1.2956089014421166,0.9788054984584555,0.2850596375,0.7213500554470185
0.059000000000000004,1.7129750000000001,1.0,2672.327184803822,0.48509512679529426,1.2949661608486858,0.9790167555572171,0.28499795,0.7225604717926889
0.059500000000000004,1.71149375,1.0,2670.0900953700525,0.4879833340094664,1.294317764204906,0.9792228232804804,0.2849357375,0.7237788701320962
0.06,1.71,1.0,2667.8557796551395,0.49085535388542945,1.2936637055107783,0.9794238581694837,0.284873,0.7250051915359659
0.0605,1.7084937500000001,1.0,2665.6248876757572,0.4937112730932902,1.2930039787663037,0.9796200106857117,0.2848097375,0.7262393763619754
0.061,1.7069750000000001,1.0,2663.398068360082,0.4965511783031556,1.292338577971483,0.9798114254918654,0.28474595,0.7274813642525864
0.0615,1.7054437500000001,1.0,2661.175969550591,0.4993751561851324,1.2916674971263178,0.9799982417177627,0.2846816375,0.7287310941328744
0.062,1.7039,1.0,2658.9592380093727,0.5021832934093274,1.2909907302308088,0.9801805932120891,0.2846168,0.7299885042083567
0.0625,1.70234375,1.0,2656.7485194220967,0.5049756766458476,1.290308271284957,0.9803586087808472,0.2845514375,0.7312535319628184
0.063,1.7007750000000001,1.0,2654.544458404371,0.5077523925647999,1.2896201142887633,0.9805324124133082,0.28448555,0.7325261141561341
0.0635,1.69919375,1.0,2652.3476985085763,0.5105135278362909,1.288926253242229,0.9807021234962021,0.28441913750000003,0.7338061868220898
0.064,1.6976,1.0,2650.158882230712,0.5132591691304276,1.2882266821453547,0.9808678570168432,0.2843522,0.7350936852662011
0.0645,1.69599375,1.0,2647.978651019089,0.5159894031173167,1.287521394998142,0.9810297237558414,0.2842847375,0.7363885440635278
0.065,1.694375,1.0,2645.8076452833548,0.5187043164670652,1.2868103858005917,0.9811878304699999,0.28421675,0.7376906970564916
0.0655,1.69274375,1.0,2643.646504404004,0.5214039958497799,1.2860936485527046,0.9813422800659716,0.2841482375,0.7390000773526835
0.066,1.6911,1.0,2641.4958667431656,0.5240885279355677,1.285371177254482,0.9814931717651987,0.2840792,0.7403166173226754
0.0665,1.6894437500000001,1.0,2639.3563696564493,0.5267579993945354,1.2846429659059246,0.9816406012606362,0.2840096375,0.7416402485978273
0.067,1.687775,1.0,2637.2286495041994,0.5294124968967898,1.283909008507034,0.9817846608657216,0.28393955,0.7429709020680897
0.0675,1.68609375,1.0,2635.1133416655507,0.5320521071124378,1.2831692990578105,0.9819254396560251,0.2838689375,0.7443085078798095
0.068,1.6844000000000001,1.0,2633.011080551669,0.5346769167115862,1.2824238315582557,0.9820630236039923,0.2837978,0.7456529954335269
0.0685,1.68269375,1.0,2630.9188669839255,0.5372869720905135,1.2816726336405826,0.982197494692239,0.2837261375,0.7470042329654916
0.069,1.680975,1.0,2628.837431088712,0.5398823818234678,1.2809156984406302,0.9823289344893605,0.28365395,0.7483621504133064
0.0695,1.67924375,1.0,2626.769068910927,0.5424632557040615,1.280153004574589,0.9824574211560263,0.28358123749999997,0.7497267028948671
0.07,1.6775,1.0,2624.713608016314,0.545029670531823,1.2793845535067125,0.9825830291757075,0.283508,0.75109780376867
0.07050000000000001,1.67574375,1.0,2622.6708763022734,0.5475817031062813,1.2786103467012542,0.982705830532357,0.2834342375,0.7524753657876497
0.07100000000000001,1.673975,1.0,2620.640701993996,0.5501194302269645,1.2778303856224673,0.9828258948096567,0.28335995,0.7538593010997165
0.07150000000000001,1.67219375,1.0,2618.6229136411876,0.5526429286934016,1.277044671734606,0.9829432892856718,0.2832851375,0.7552495212482921
0.07200000000000001,1.6704,1.0,2616.6173401146084,0.555152275305121,1.2762532065019234,0.9830580790231569,0.2832098,0.7566459371728497
0.0725,1.66859375,1.0,2614.62381060219,0.5576475468616513,1.2754559913886732,0.9831703269557365,0.2831339375,0.7580484592094491
0.073,1.6667750000000001,1.0,2612.64215460606,0.5601288201625212,1.2746530278591088,0.9832800939701771,0.28305755,0.7594569970912742
0.0735,1.66494375,1.0,2610.672201938909,0.5625961720072593,1.273844317377484,0.9833874389849491,0.2829806375,0.7608714599491703
0.074,1.6631,1.0,2608.71378272066,0.5650496791953941,1.2730298614080522,0.9834924190252724,0.2829032,0.7622917563121806
0.0745,1.6612437500000001,1.0,2606.7667273752577,0.5674894185264541,1.2722096614150669,0.9835950892948213,0.2828252375,0.7637177941080825
0.075,1.659375,1.0,2604.8308666276207,0.5699154667999681,1.2713837188627817,0.9836955032442596,0.28274675,0.7651494806639243
0.0755,1.65749375,1.0,2602.9060315000756,0.5723279008154647,1.2705520352154502,0.9837937126367629,0.2826677375,0.7665867227065618
