Time [s],Phi [rad],STIM [ ],Fsee [N],Gamma [ ],Lcerel [ ],q [ ],Lmtc [m],fisomrel [ ]
0.0,1.8,1.0,20.37424427915768,0.0015858479366796397,1.3790785455493884,0.005643157243185861,0.288653,0.5417712254596949
0.0005,1.79999375,1.0,21.116360399685583,0.007186161892553748,1.3789983451061552,0.01788665904862223,0.2886527375,0.5419650969604456
0.001,1.799975,1.0,25.64374132961796,0.012755062515232356,1.3785447109475646,0.04428361101592911,0.28865195,0.5430609113954872
0.0015,1.79994375,1.0,37.88075339182636,0.018292726008840302,1.3774946207002567,0.08216857868817706,0.2886506375,0.5455925106580655
0.002,1.7999,1.0,65.73971523747366,0.02379932758892514,1.3756197109876462,0.12821984801027708,0.2886488,0.550095129839149
0.0025,1.79984375,1.0,115.45483952127029,0.02927504148772548,1.3730897816630054,0.17913890222517623,0.28864643749999996,0.5561352513349839
0.003,1.7997750000000001,1.0,183.53129867894992,0.03472004096145338,1.3703971224346594,0.23222321285235814,0.28864354999999997,0.5625190423855994
0.0035,1.79969375,1.0,262.5046993708968,0.04013449829389919,1.3678391525222324,0.28541691411731734,0.2886401375,0.5685406819889216
0.004,1.7996,1.0,347.48294349762153,0.045518584801226086,1.3654804277527568,0.33720872224015497,0.2886362,0.5740563039848914
0.0045000000000000005,1.7994937500000001,1.0,435.93590391396503,0.05087247080047471,1.3633066893550754,0.38657367962279393,0.2886317375,0.5791079383605063
0.005,1.799375,1.0,526.4362508637658,0.056196325835560834,1.361291675681528,0.4328949616261863,0.28862675,0.5837637917194947
0.0055,1.79924375,1.0,617.9001606501178,0.06149031817021537,1.3594151170014563,0.4758707225879224,0.2886212375,0.5880764466544306
0.006,1.7991000000000001,1.0,709.5275763690473,0.06675461541466401,1.357660217940335,0.5154216384895901,0.2886152,0.5920891852770156
0.006500000000000001,1.79894375,1.0,800.625223016408,0.07198938410443671,1.3560145941464414,0.551617638120821,0.2886086375,0.5958342115903845
0.007,1.798775,1.0,890.6317301693251,0.07719478987999785,1.3544680186333915,0.5846204567216737,0.28860155,0.5993380859888955
0.0075,1.79859375,1.0,979.0837256416107,0.08237099751625807,1.3530119830810814,0.6146430917152156,0.2885939375,0.6026228947741146
0.008,1.7984,1.0,1065.59624806142,0.08751817050002848,1.3516392972472158,0.6419219125239093,0.2885858,0.6057072851769267
0.0085,1.79819375,1.0,1149.8973949218832,0.09263647208955732,1.3503431143586615,0.6666979537849075,0.2885771375,0.6086087443286794
0.009000000000000001,1.797975,1.0,1231.7587310213892,0.09772606427033798,1.3491176304041521,0.6892060424310943,0.28856795,0.6113420922863197
0.0095,1.79774375,1.0,1310.9968154464057,0.10278710755951848,1.347957747080875,0.7096680108632375,0.2885582375,0.6139203005306181
0.01,1.7975,1.0,1387.5002515765034,0.10781976211183532,1.3468585077054833,0.7282890008902341,0.288548,0.616355789643894
0.0105,1.79724375,1.0,1461.2149375506751,0.11282418797932879,1.3458151658814725,0.7452562007946227,0.2885372375,0.6186603030815359
0.011,1.796975,1.0,1532.0892253720087,0.11780054313301662,1.3448237411297672,0.7607390827764454,0.28852595000000003,0.6208437103101763
0.0115,1.79669375,1.0,1600.0948257549023,0.12274898447330307,1.343880614410088,0.7748899145112188,0.2885141375,0.6229149331407535
0.012,1.7964,1.0,1665.2466166694824,0.127669668697645,1.3429822048062532,0.7878447719730098,0.28850180000000003,0.6248826759765351
0.0125,1.79609375,1.0,1727.5868245686195,0.1325627520017732,1.3421250989941227,0.7997249682519891,0.2884889375,0.626755155096498
0.013000000000000001,1.7957750000000001,1.0,1787.1602630787525,0.13742838954430536,1.3413062719756967,0.8106385577310401,0.28847555,0.6285396323662364
0.0135,1.79544375,1.0,1844.0048050631328,0.14226673437855272,1.340523124382455,0.820681716607662,0.2884616375,0.6302423525536069
0.014,1.7951000000000001,1.0,1898.184778618017,0.14707793955782672,1.3397730568458768,0.8299398798559384,0.2884472,0.6318694829132927
0.0145,1.79474375,1.0,1949.771835634748,0.15186215714687265,1.3390536509407485,0.8384890222245753,0.2884322375,0.6334267276267509
0.015,1.794375,1.0,1998.8639438338244,0.156619540186283,1.3383624333642552,0.846396673243146,0.28841675,0.6349198459433034
0.0155,1.79399375,1.0,2045.529422307034,0.16135023842580062,1.3376974469432596,0.85372309001837,0.2884007375,0.6363534257908302
0.016,1.7936,1.0,2089.838011804124,0.1660544006735153,1.3370568817632975,0.8605219936302773,0.2883842,0.63773169150511
0.0165,1.7931937500000001,1.0,2131.873142152048,0.1707321757375167,1.336438927909904,0.8668412980453986,0.2883671375,0.6390588258508749
0.017,1.792775,1.0,2171.724404017728,0.175383711774528,1.3358418402585188,0.8727238161951165,0.28834955,0.6403388339661082
0.0175,1.7923437500000001,1.0,2209.4851160234975,0.18000915698235206,1.335263949183693,0.8782078649304281,0.2883314375,0.6415755241637566
0.018000000000000002,1.7919,1.0,2245.2389846892693,0.18460865806172755,1.3347037812914517,0.883327822316707,0.2883128,0.6427722537921048
0.0185,1.79144375,1.0,2279.0557183516644,0.18918235930949706,1.334160086893726,0.8881145898658447,0.2882936375,0.6439318760432956
0.019,1.790975,1.0,2311.0121476295935,0.19373040502250313,1.333631616302448,0.8925959373211667,0.28827395,0.6450572213119137
0.0195,1.79049375,1.0,2341.1916298857677,0.19825293949758832,1.3331171198295488,0.8967968609801448,0.2882537375,0.6461510984581187
0.02,1.79,1.0,2369.6687210821487,0.20275010511637756,1.332615491846473,0.9007399297675465,0.288233,0.6472159903817885
0.0205,1.78949375,1.0,2396.537240924372,0.20722204706262723,1.3321254893821401,0.9044454954892962,0.2882117375,0.6482546533886286
0.021,1.788975,1.0,2421.86185253532,0.21166890576821773,1.3316461987150772,0.9079320357785556,0.28818995000000003,0.6492691290747434
0.021500000000000002,1.78844375,1.0,2445.704115899586,0.2160908206824777,1.3311767727300863,0.9112163028025441,0.2881676375,0.6502613048599643
0.022,1.7879,1.0,2468.1289751161944,0.2204879312547357,1.3307163643119702,0.9143134958671333,0.2881448,0.6512330560467865
0.0225,1.78734375,1.0,2489.2044750508585,0.22486037693432043,1.3302641263455315,0.9172374268469622,0.28812143749999997,0.65218624633043
0.023,1.786775,1.0,2508.995386990616,0.22920829588413727,1.3298192696129028,0.9200006764361162,0.28809755,0.653122606479628
0.0235,1.78619375,1.0,2527.5684307759057,0.23353182706688191,1.3293810100248191,0.9226147128546621,0.28807313749999996,0.6540438464127233
0.024,1.7856,1.0,2544.9877456524546,0.23783110871805013,1.328948609086493,0.9250900121089846,0.2880482,0.6549515707272373
0.0245,1.78499375,1.0,2561.3014099877346,0.24210627507000793,1.328521497726165,0.9274361780144883,0.2880227375,0.6558470201905529
0.025,1.784375,1.0,2576.559099556143,0.24635746035512135,1.3280991068720758,0.9296620011163789,0.28799675,0.6567314287938335
0.025500000000000002,1.78374375,1.0,2590.8119531637876,0.2505847988057564,1.327680867452466,0.9317755386480656,0.2879702375,0.6576060239336715
0.026000000000000002,1.7831000000000001,1.0,2604.112445452884,0.2547884246542792,1.327266210395577,0.9337841856534398,0.2879432,0.6584720265730801
0.0265,1.78244375,1.0,2616.507793641762,0.2589684704408149,1.3268546267260013,0.9356947470839332,0.2879156375,0.6593305261090764
0.027,1.781775,1.0,2628.045718957745,0.2631250697142477,1.326445612488165,0.9375134859355942,0.28788755,0.6601825959414122
0.0275,1.7810937500000001,1.0,2638.7797394671966,0.2672583567674798,1.3260386188823916,0.9392461660311506,0.2878589375,0.6610293973126997
0.028,1.7804,1.0,2648.744727677001,0.27136846022544137,1.325633277399786,0.9408981284702113,0.2878298,0.6618717112559757
0.0285,1.77969375,1.0,2657.9762232968333,0.2754555087130629,1.3252292195314537,0.9424743057640151,0.2878001375,0.662710314932913
0.029,1.778975,1.0,2666.510375123064,0.27951963085527465,1.324826076768499,0.9439792583985893,0.28776995,0.6635459816683202
0.029500000000000002,1.7782437500000001,1.0,2674.3838859330463,0.283560955277007,1.3244234806020272,0.9454172076876782,0.2877392375,0.664379480975976
0.03,1.7775,1.0,2681.633960390585,0.2875796106031901,1.3240210625231432,0.9467920653323281,0.287708,0.6652115785758078
0.0305,1.77674375,1.0,2688.2932349082994,0.2915757236425392,1.3236185000108724,0.9481074654154518,0.2876762375,0.666042941488243
0.031,1.775975,1.0,2694.394363550313,0.29554942223043784,1.3232154738951247,0.9493667833697286,0.28764395,0.666874226513871
0.0315,1.7751937500000001,1.0,2699.973292505501,0.2995008343075664,1.3228116380643993,0.9505731535701555,0.2876111375,0.6677061426345003
0.032,1.7744,1.0,2705.0543789268413,0.30343008286427126,1.322406755141859,0.9517295043169056,0.2875778,0.6685391716801574
0.0325,1.77359375,1.0,2709.6622232720574,0.3073372908908989,1.3220005877506666,0.9528385629913121,0.2875439375,0.6693737930109223
0.033,1.772775,1.0,2713.8216457286526,0.3112225813777957,1.3215928985139849,0.9539028722734625,0.28750955,0.6702104834992788
0.0335,1.7719437500000002,1.0,2717.5576638882667,0.31508607731530824,1.3211834500549766,0.9549248048658313,0.2874746375,0.6710497175088723
0.034,1.7711000000000001,1.0,2720.895471670212,0.3189279016937828,1.3207720049968046,0.9559065768764231,0.2874392,0.6718919668696748
0.0345,1.7702437500000001,1.0,2723.8546520466416,0.32274817360461405,1.3203583784408242,0.9568502647364624,0.2874032375,0.6727375936312682
0.035,1.7693750000000001,1.0,2726.458984136602,0.32654701677054593,1.3199423484796313,0.9577578084082075,0.28736675,0.6735870333205937
0.035500000000000004,1.76849375,1.0,2728.7357938160676,0.3303245567135567,1.319523662051925,0.9586310216778439,0.2873297375,0.6744407824902015
0.036000000000000004,1.7676,1.0,2730.7005362567616,0.3340809101726018,1.3191021749667013,0.9594716136211361,0.2872922,0.6752991133020432
0.0365,1.76669375,1.0,2732.3687451502387,0.33781619388663636,1.3186777430329555,0.960281187270263,0.2872541375,0.6761622962226455
0.037,1.765775,1.0,2733.7560238439983,0.3415305245946159,1.3182502220596835,0.9610612473842707,0.28721555,0.6770305999966906
0.0375,1.76484375,1.0,2734.8780369398078,0.3452240190354957,1.3178194678558812,0.9618132075668995,0.2871764375,0.6779042916192746
0.038,1.7639,1.0,2735.7505023520794,0.3488967939482311,1.317385336230544,0.9625383967931992,0.28713679999999997,0.6787836363068382
0.0385,1.76294375,1.0,2736.389183827803,0.3525489660717773,1.3169476829926685,0.9632380653999785,0.28709663750000003,0.6796688974667695
0.039,1.761975,1.0,2736.8098839269965,0.35618065214508976,1.3165063639512495,0.9639133905894839,0.28705595,0.6805603366656862
0.0395,1.7609937500000001,1.0,2737.026896898947,0.3597919657245167,1.3160612488991732,0.9645654821566311,0.2870147375,0.6814581854091036
0.04,1.76,1.0,2737.05217438839,0.363383019152474,1.3156122291304393,0.9651953881545693,0.286973,0.6823626301763874
0.0405,1.7589937500000001,1.0,2736.901495468774,0.36695393679191823,1.315159161388983,0.9658040965157519,0.2869307375,0.6832739253590336
0.041,1.757975,1.0,2736.583816136549,0.37050482847720817,1.31470196450545,0.9663925426842733,0.28688795,0.6841921987768191
0.0415,1.75694375,1.0,2736.108106159758,0.3740358040427027,1.3142405573104858,0.9669616103818656,0.2868446375,0.6851175769808523
0.042,1.7559,1.0,2735.4833464225453,0.3775469733227606,1.313774858634736,0.9675121349967999,0.28680079999999997,0.686050185231988
0.0425,1.75484375,1.0,2734.7185264164323,0.38103844615174065,1.3133047873088461,0.9680449067172994,0.2867564375,0.6869901474788224
0.043000000000000003,1.753775,1.0,2733.8226418763866,0.3845103323640017,1.3128302621634618,0.9685606734311201,0.28671155,0.6879375863352672
0.043500000000000004,1.75269375,1.0,2732.804692564807,0.38796274179390244,1.3123512020292285,0.9690601434109443,0.28666613750000003,0.6888926230577044
0.044,1.7516,1.0,2731.67368019955,0.39139578427580174,1.311867525736792,0.9695439878033857,0.2866202,0.68985537752172
0.0445,1.75049375,1.0,2730.438606529869,0.3948095696440585,1.3113791521167977,0.9700128429377851,0.2865737375,0.690825968198419
0.045,1.7493750000000001,1.0,2729.108471557282,0.39820420773303145,1.3108859999998912,0.9704673124694854,0.28652675,0.6918045121303178
0.0455,1.74824375,1.0,2727.683448705629,0.40157977826119184,1.3103880684428801,0.9709079711868414,0.2864792375,0.6927909660978889
0.046,1.7471,1.0,2726.1817492754626,0.4049364290124827,1.3098851924894557,0.9713353622445702,0.2864312,0.6937856105732558
0.0465,1.7459437500000001,1.0,2724.608124633732,0.4082742642560203,1.30937732949182,0.9717500046835967,0.28638263750000004,0.6947884821317277
0.047,1.744775,1.0,2722.9664988942855,0.41159338541408436,1.308864444308725,0.9721523921252408,0.28633355,0.6957996015365515
0.0475,1.74359375,1.0,2721.2607941970723,0.4148938939089545,1.308346501798922,0.972542994104371,0.28628393750000003,0.6968189886108654
0.048,1.7424,1.0,2719.4949302360264,0.4181758911629105,1.3078234668211626,0.9729222574660265,0.2862338,0.697846662226405
0.0485,1.74119375,1.0,2717.6728238153123,0.421439478598232,1.3072953042341984,0.973290607668558,0.2861831375,0.6988826402921284
0.049,1.739975,1.0,2715.7983884318674,0.4246847576371988,1.3067619788967806,0.9736484500003456,0.28613195,0.6999269397427652
0.0495,1.73874375,1.0,2713.875533886142,0.4279118297020905,1.306223455667661,0.9739961707165619,0.2860802375,0.7009795765272833
0.05,1.7375,1.0,2711.90816591993,0.4311207962151869,1.305679699405591,0.9743341381019163,0.286028,0.7020405655972817
0.0505,1.73624375,1.0,2709.9001858814413,0.4343117585987676,1.3051306749693223,0.9746627034648196,0.2859752375,0.703109920895299
0.051000000000000004,1.734975,1.0,2707.8554904179578,0.4374848182751124,1.3045763472176064,0.9749822020679684,0.28592195,0.7041876553430486
0.051500000000000004,1.73369375,1.0,2705.777971195891,0.4406400766665009,1.3040166810091944,0.9752929539999423,0.2858681375,0.7052737808295718
0.052000000000000005,1.7324,1.0,2703.671514647842,0.4437776351952129,1.3034516412028383,0.9755952649920426,0.2858138,0.7063683081993108
0.0525,1.73109375,1.0,2701.5400017476786,0.446897595283528,1.3028811926572896,0.9758894271842534,0.28575893750000003,0.7074712472401078
0.053,1.729775,1.0,2699.3873078124857,0.45000005835372603,1.3023053002312994,0.9761757198439157,0.28570355000000003,0.7085826066711223
0.0535,1.72844375,1.0,2697.2096470653396,0.45308509347280307,1.301723998782329,0.9764544110807516,0.2856476375,0.7097022594349526
0.054,1.7271,1.0,2695.0173041658345,0.45615283462238254,1.3011371945164976,0.9767257560943061,0.2855912,0.7108303255061643
0.0545,1.7257437500000001,1.0,2692.8134890693595,0.45920338268528615,1.3005448582321615,0.9769899997013445,0.2855342375,0.7119667990759246
0.055,1.724375,1.0,2690.5994707884156,0.46223682990761117,1.2999469784503126,0.9772473765292,0.28547675,0.7131116394085706
0.0555,1.72299375,1.0,2688.376516346809,0.465253268535455,1.2993435436919425,0.9774981113271267,0.2854187375,0.7142648050062186
0.056,1.7216,1.0,2686.1458907549422,0.468252790814915,1.2987345424780428,0.9777424194613666,0.2853602,0.7154262536047018
0.0565,1.72019375,1.0,2683.908856988553,0.4712354889920884,1.2981199633296052,0.9779805073814772,0.28530113749999997,0.716595942169499
0.057,1.718775,1.0,2681.666675970077,0.4742014553130727,1.2974997947676217,0.9782125730598081,0.28524155,0.7177738268916549
0.0575,1.71734375,1.0,2679.420606552803,0.47715078202396505,1.2968740253130837,0.9784388064058823,0.2851814375,0.7189598631836943
0.058,1.7159,1.0,2677.1719055084072,0.48008356137086294,1.2962426434869831,0.978659389657298,0.2851208,0.7201540056755236
0.0585,1.71444375,1.0,2674.921827517082,0.4829998855998637,1.2956056378103116,0.9788744977486612,0.2850596375,0.7213562082103282
0.059000000000000004,1.7129750000000001,1.0,2672.6716251605535,0.4858998469570646,1.2949629968040608,0.9790842986599467,0.28499795,0.722566423840458
0.059500000000000004,1.71149375,1.0,2670.422548918281,0.48878353768856303,1.2943147089892226,0.9792889537455864,0.2849357375,0.7237846048233074
0.06,1.71,1.0,2668.175847166156,0.4916510500404563,1.2936607628867887,0.9794886180454934,0.284873,0.7250107026171853
0.0605,1.7084937500000001,1.0,2665.9327661787397,0.4945024762588418,1.2930011470177505,0.9796834405791445,0.2848097375,0.7262446678771766
0.061,1.7069750000000001,1.0,2663.694550133737,0.49733790858981686,1.2923358499031001,0.9798735646237682,0.28474595,0.7274864504509952
0.0615,1.7054437500000001,1.0,2661.4624411197574,0.5001574392794789,1.291664860063829,0.9800591279776102,0.2846816375,0.7287359993748312
0.062,1.7039,1.0,2659.2361021553284,0.5029611392256157,1.2909881805433283,0.9802402623303033,0.2846168,0.7299932359186332
0.0625,1.70234375,1.0,2657.016451105673,0.5057491039636581,1.2903058028295935,0.9804170957101335,0.2845514375,0.7312581021794171
0.063,1.7007750000000001,1.0,2654.8058507512274,0.5085214479034363,1.2896177050793378,0.9805897520756784,0.28448555,0.732530564108985
0.0635,1.69919375,1.0,2652.6045121311695,0.5112782543291432,1.2889238852531504,0.9807583494722344,0.28441913750000003,0.7338105501601544
0.064,1.6976,1.0,2650.4126459559834,0.5140196065249719,1.2882243413116208,0.9809230016103067,0.2843522,0.7350979881233493
0.0645,1.69599375,1.0,2648.2304626116593,0.5167455877751154,1.2875190712153384,0.9810838180548415,0.2842847375,0.7363928051258584
0.065,1.694375,1.0,2646.0581721627286,0.5194562813637665,1.2868080729248932,0.9812409044048582,0.28421675,0.7376949276310878
0.0655,1.69274375,1.0,2643.8959843562966,0.5221517705751186,1.2860913444008741,0.9813943624640353,0.2841482375,0.7390042814378203
0.066,1.6911,1.0,2641.7441086256144,0.5248321386933645,1.2853688836038712,0.9815442904027674,0.2840792,0.740320791679465
0.0665,1.6894437500000001,1.0,2639.6027540943946,0.5274974690026972,1.2846406884944737,0.9816907829121773,0.2840096375,0.7416443828233164
0.067,1.687775,1.0,2637.4721295800514,0.5301478447873099,1.2839067570332712,0.9818339313505359,0.28393955,0.7429749786698059
0.0675,1.68609375,1.0,2635.3524435987465,0.5327833493313954,1.2831670871808531,0.9819738238825139,0.2838689375,0.7443125023517574
0.068,1.6844000000000001,1.0,2633.243904368624,0.5354040659191468,1.2824216768978094,0.9821105456116642,0.2837978,0.7456568763336395
0.0685,1.68269375,1.0,2631.146719814717,0.5380100778347571,1.281670524144729,0.9822441787065098,0.2837261375,0.7470080224108215
0.069,1.680975,1.0,2629.0610975730738,0.5406014683624193,1.2809136268822017,0.9823748025205853,0.28365395,0.7483658617088239
0.0695,1.67924375,1.0,2626.987244995012,0.5431783207863264,1.2801509830708169,0.9825024937067617,0.28358123749999997,0.749730314682573
0.07,1.6775,1.0,2624.9253691520457,0.5457407183906715,1.2793825906711644,0.982627326326166,0.283508,0.7511013011156524
0.07050000000000001,1.67574375,1.0,2622.875676840286,0.5482887444596477,1.2786084476438335,0.9827493719519805,0.2834342375,0.7524787401195576
0.07100000000000001,1.673975,1.0,2620.8383745851343,0.5508224822774478,1.277828551949414,0.9828686997684024,0.28335995,0.7538625501329459
0.07150000000000001,1.67219375,1.0,2618.812583666149,0.5533419676441534,1.2770429116168112,0.982985374264445,0.2832851375,0.7552526311316319
0.07200000000000001,1.6704,1.0,2616.7994454693944,0.555847326407398,1.2762515159347536,0.9830994623535692,0.2832098,0.7566489156369598
0.0725,1.66859375,1.0,2614.799194292254,0.5583386530222871,1.2754543626001789,0.9832110272544584,0.2831339375,0.7580513205501569
0.073,1.6667750000000001,1.0,2612.811585801876,0.5608160216797635,1.2746514537539282,0.9833201291388846,0.28305755,0.7594597543075696
0.0735,1.66494375,1.0,2610.836376097925,0.5632795065707699,1.2738427915368424,0.9834268262391488,0.2829806375,0.7608741247554511
0.074,1.6631,1.0,2608.87332170746,0.5657291818862485,1.273028378089763,0.9835311749217515,0.2829032,0.7622943391507442
0.0745,1.6612437500000001,1.0,2606.9221795798157,0.5681651218171422,1.272208215553531,0.9836332297577908,0.2828252375,0.7637203041618699
0.075,1.659375,1.0,2604.9827070817787,0.5705874005543934,1.2713823060689875,0.9837330435902628,0.28274675,0.7651519258695102
0.0755,1.65749375,1.0,2603.0546619925153,0.5729960922889449,1.2705506517769736,0.9838306675984115,0.2826677375,0.7665891097673941
