Time [s],Phi [rad],STIM [ ],Fsee [N],Gamma [ ],Lcerel [ ],q [ ],Lmtc [m],fisomrel [ ]
0.0,1.8,1.0,18.64304142081672,0.0008383827178117006,1.3792647237221,0.005180830076582026,0.288653,0.5413210119260177
0.0005,1.79999375,1.0,19.201666969387208,0.006442889362605338,1.3792009148229143,0.015399300804422995,0.2886527375,0.5414753386398754
0.001,1.799975,1.0,23.159056684672503,0.012015959156404642,1.3787836527553679,0.04005492412385081,0.28865195,0.5424838788434341
0.0015,1.79994375,1.0,33.99649510090766,0.017557768435485763,1.3778024241374824,0.0766026103188015,0.2886506375,0.5448511744765365
0.002,1.7999,1.0,59.235249186447795,0.023068492546181617,1.376010596629545,0.1217698467716675,0.2886488,0.5491582628261912
0.0025,1.79984375,1.0,106.07267744544497,0.028548305852046083,1.3735132187634636,0.17221173691901456,0.28864643749999996,0.5551271537275415
0.003,1.7997750000000001,1.0,172.26390692103058,0.033997381738355065,1.3707983402308375,0.2251361813045201,0.28864354999999997,0.5615707617412504
0.0035,1.79969375,1.0,250.2729628193639,0.03941589261685637,1.3682019438037625,0.2784101526011135,0.2886401375,0.567689185520188
0.004,1.7996,1.0,334.7529863337241,0.04480400993399119,1.3658077540724534,0.33045422365942456,0.2886362,0.5732930072081234
0.0045000000000000005,1.7994937500000001,1.0,422.9534498349113,0.05016190417653371,1.3636042003124458,0.3801824950388952,0.2886317375,0.5784183211579936
0.005,1.799375,1.0,513.3213107993494,0.05548974486130443,1.361564832018296,0.42692960591649703,0.28862675,0.5831341589527468
0.0055,1.79924375,1.0,604.7831954952766,0.0607877005767118,1.3596670499611139,0.4703567769486491,0.2886212375,0.5874987664932068
0.006,1.7991000000000001,1.0,696.4894725585324,0.06605593895083578,1.3578937390713222,0.5103600054303659,0.2886152,0.5915563505534069
0.006500000000000001,1.79894375,1.0,787.7414459021428,0.07129462667246877,1.3562317011174294,0.546992927343066,0.2886086375,0.5953411196396123
0.007,1.798775,1.0,877.9607489760768,0.07650392948106481,1.3546703678474235,0.5804077196170137,0.28860155,0.5988805171268283
0.0075,1.79859375,1.0,966.6744026666277,0.08168401228233307,1.3532009162658347,0.6108123673024584,0.2885939375,0.6021974258577003
0.008,1.7984,1.0,1053.4898793993555,0.08683503878084538,1.3518159188162064,0.6384413259166215,0.2885858,0.6053110946030245
0.0085,1.79819375,1.0,1138.1215339529726,0.09195717225937536,1.3505084500733129,0.6635357668165328,0.2885771375,0.608239242433686
0.009000000000000001,1.797975,1.0,1220.3282673850763,0.09705057455110744,1.3492726545919316,0.6863318508379072,0.28856795,0.6109968518951061
0.0095,1.79774375,1.0,1299.935668777137,0.1021154068353962,1.3481031274209652,0.7070532664255654,0.2885582375,0.6135976169634672
0.01,1.7975,1.0,1376.8259985298926,0.10715182947114783,1.3469948548448083,0.7259074664061894,0.288548,0.6160541157883623
0.0105,1.79724375,1.0,1450.9104192067957,0.11216000153074278,1.3459434065340576,0.7430842175884583,0.2885372375,0.6183774217972313
0.011,1.796975,1.0,1522.1616633225133,0.11714008213441329,1.34494438165107,0.7587551504183359,0.28852595000000003,0.620578359589799
0.0115,1.79669375,1.0,1590.5526815918893,0.12209222833328809,1.3439940656956377,0.7730747372920994,0.2885141375,0.6226660802493154
0.012,1.7964,1.0,1656.0863311668027,0.12701659664447926,1.3430889517849103,0.78618116661238,0.28850180000000003,0.6246491427395775
0.0125,1.79609375,1.0,1718.792451490794,0.13191334293966983,1.3422257055032045,0.7981976717370342,0.2884889375,0.6265356074388837
0.013000000000000001,1.7957750000000001,1.0,1778.7253125543205,0.13678262305061029,1.3414011359941838,0.8092339369513426,0.28847555,0.6283331133350794
0.0135,1.79544375,1.0,1835.9241190645362,0.1416245902144442,1.3406125848479293,0.819387638113163,0.2884616375,0.6300480454184061
0.014,1.7951000000000001,1.0,1890.4499474068368,0.14643939738333792,1.3398574509437862,0.8287455640726922,0.2884472,0.6316865849425766
0.0145,1.79474375,1.0,1942.3770860625668,0.15122719679442684,1.339133254285891,0.837384867703426,0.2884322375,0.6332545785633331
0.015,1.794375,1.0,1991.7946550998643,0.155988141277259,1.33843758803537,0.8453741629316168,0.28841675,0.6347576498877587
0.0155,1.79399375,1.0,2038.774883652259,0.1607223811280805,1.3377684274621153,0.8527746206333452,0.2884007375,0.6362005402097249
0.016,1.7936,1.0,2083.3870451559383,0.1654300651971713,1.3371239460637823,0.8596407835310916,0.2883842,0.6375875159132144
0.0165,1.7931937500000001,1.0,2125.7143416785134,0.1701113423348114,1.3365023173380264,0.866021289910877,0.2883671375,0.6389228011037571
0.017,1.792775,1.0,2165.8463028207025,0.17476636074673432,1.3359017801911552,0.8719595917136171,0.28834955,0.6402104402564185
0.0175,1.7923437500000001,1.0,2203.876211124241,0.17939526870033023,1.3353206508468256,0.877494570286958,0.2883314375,0.641454276516777
0.018000000000000002,1.7919,1.0,2239.8902900699804,0.1839982132529455,1.3347574180807789,0.8826610963662866,0.2883128,0.6426577520404677
0.0185,1.79144375,1.0,2273.9573556818923,0.1885753387182686,1.3342108307795075,0.887490516566421,0.2882936375,0.6438237263701256
0.019,1.790975,1.0,2306.153434533035,0.1931267894099881,1.3336796378295042,0.8920109945226842,0.28827395,0.6449550360266931
0.0195,1.79049375,1.0,2336.561162776438,0.19765270964179243,1.333162588117261,0.8962478755660414,0.2882537375,0.646054495787654
0.02,1.79,1.0,2365.246024113267,0.2021532421823376,1.3326586570233778,0.9002240582330933,0.288233,0.6471244193475851
0.0205,1.78949375,1.0,2392.3240570267053,0.20662853175006943,1.3321663774608838,0.9039601164412231,0.2882117375,0.6481680410858216
0.021,1.788975,1.0,2417.865093196687,0.21107871956189972,1.3316847820694189,0.9074747654074133,0.28818995000000003,0.64918751703942
0.021500000000000002,1.78844375,1.0,2441.9136446221105,0.2155039450547966,1.331213184936962,0.9107850145429013,0.2881676375,0.6501843945277865
0.022,1.7879006102066333,1.0,2464.546117623237,0.2199043476657281,1.3307509001514917,0.913906292196451,0.2881448256286786,0.6511602106153636
0.0225,1.7873545159928321,1.0,2486.237020710286,0.22428006683166246,1.3302972418009866,0.916852614444631,0.28812188967169894,0.6521164925339942
0.023,1.7868084217790308,1.0,2507.1843906526115,0.22863124166620438,1.329851535814957,0.9196367359933366,0.2880989537147193,0.6530547331649049
0.0235,1.7862623275652296,1.0,2527.4125376035095,0.23295801028431162,1.3294134530869903,0.9222703436327379,0.2880760177577396,0.6539756917261008
0.024,1.7857162333514285,1.0,2546.936812505306,0.2372605099359761,1.3289827578170952,0.9247641170946982,0.28805308180076,0.6548799268464875
0.0245,1.7851701391376271,1.0,2565.780234727315,0.24153887571765312,1.3285591493982398,0.9271278016146014,0.28803014584378034,0.6557681292943404
0.025,1.784624044923826,1.0,2583.966639181138,0.24579324272579792,1.3281423272233928,0.9293703143272435,0.2880072098868007,0.6566409856008159
0.025500000000000002,1.7840779507100248,1.0,2601.518425947484,0.25002374431523255,1.3277320112072246,0.9314998284818367,0.28798427392982107,0.6574991352999605
0.026000000000000002,1.7835318564962235,1.0,2618.4493304405064,0.2542305061221675,1.3273280081386585,0.9335238537137174,0.2879613379728414,0.6583430328060533
0.0265,1.7829857622824223,1.0,2634.8079455069856,0.2584136813425455,1.3269298073195923,0.9354492517412007,0.28793840201586174,0.6591737917282343
0.027,1.782439668068621,1.0,2650.611355694103,0.26257339831510546,1.32653719720469,0.9372823701843163,0.2879154660588821,0.6599918968166627
0.0275,1.7818935738548198,1.0,2665.877132678118,0.26670978537858636,1.326149966248615,0.9390290557070196,0.2878925301019024,0.6607978300893729
0.028,1.7813474796410187,1.0,2680.623309538569,0.27082297087172724,1.3257679029060305,0.9406947001728412,0.2878695941449228,0.6615920709062726
0.0285,1.7808013854272173,1.0,2694.8683560241684,0.274913083133267,1.3253907956316004,0.9422842819911507,0.28784665818794314,0.6623750960402871
0.029,1.7802552912134162,1.0,2708.6311548119693,0.27898025050194464,1.325018432879988,0.9438024032074009,0.2878237222309635,0.6631473797456526
0.029500000000000002,1.779709196999615,1.0,2721.93097875764,0.28302460131649915,1.3246506031058574,0.9452533228217606,0.2878007862739838,0.6639093938233517
0.03,1.7791631027858137,1.0,2734.787469138885,0.2870462639156695,1.3242870947638716,0.9466409867607506,0.2877778503170042,0.6646616076836982
0.0305,1.7786170085720125,1.0,2747.2206148900314,0.2910453666381947,1.3239276963086943,0.9479690548745653,0.28775491436002454,0.665404488406066
0.031,1.7780709143582114,1.0,2759.2507328299303,0.2950220378228137,1.3235721961949891,0.9492409252876103,0.2877319784030449,0.6661385007957636
0.0315,1.77752482014441,1.0,2770.8945444877418,0.2989764017007857,1.3232204181007823,0.950459759481467,0.2877090424460652,0.6668640348302153
0.032,1.776978725930609,1.0,2782.166264803172,0.30290858177542546,1.3228722106082147,0.9516285016913731,0.28768610648908555,0.6675814273500149
0.0325,1.7764326317168078,1.0,2793.0908107698415,0.3068187133022264,1.3225273281451937,0.9527498861228862,0.28766317053210594,0.6682912072688857
0.033,1.7758865375030064,1.0,2803.6797438490594,0.3107069165410765,1.3221856475319378,0.953826471578203,0.2876402345751263,0.6689936496314604
0.0335,1.7753404432892053,1.0,2813.9447993184813,0.314573311751864,1.3218470455886653,0.9548606456264043,0.2876172986181466,0.6696890282074223
0.034,1.7747943490754041,1.0,2823.8978776954036,0.3184180191944768,1.3215113991355942,0.9558546381089835,0.287594362661167,0.6703776155161754
0.0345,1.7742482548616028,1.0,2833.5510364967386,0.32224115912880313,1.3211785849929434,0.9568105334283873,0.28757142670418734,0.6710596828505442
0.035,1.7737021606478016,1.0,2842.916482336002,0.3260428518147309,1.320848479980931,0.9577302817420379,0.2875484907472077,0.6717355002995093
0.035500000000000004,1.7731560664340005,1.0,2852.0065633558183,0.3298232175121483,1.3205209609197754,0.9586157091707966,0.287525554790228,0.6724053367699738
0.036000000000000004,1.7726099722201991,1.0,2860.8337619975014,0.33358237648094347,1.320195904629695,0.9594685271188985,0.28750261883324835,0.6730694600075616
0.0365,1.772063878006398,1.0,2869.4106881067883,0.3373204489810042,1.3198731879309078,0.9602903407919021,0.2874796828762687,0.6737281366164481
0.037,1.7715177837925968,1.0,2877.750072375947,0.3410375552722189,1.3195526876436325,0.9610826569899172,0.2874567469192891,0.6743816320782239
0.0375,1.7709716895787955,1.0,2885.8553935446666,0.34473380058031794,1.3192343633881525,0.9618468961025671,0.2874338109623094,0.675030042194391
0.038,1.7704255953649943,1.0,2893.7469034101837,0.34840932137156366,1.31891802722195,0.9625843859311524,0.28741087500532975,0.6756737624772307
0.0385,1.769879501151193,1.0,2901.4328465302583,0.3520642324392777,1.3186035983320294,0.9632963813278086,0.2873879390483501,0.6763129691641673
0.039,1.7693334069373918,1.0,2908.9201496623928,0.355698646161499,1.3182910081554835,0.9639840644474489,0.2873650030913705,0.6769478129061414
0.0395,1.7687873127235907,1.0,2916.2158027327746,0.3593126749162664,1.3179801881294049,0.9646485491449875,0.2873420671343908,0.6775784437410342
0.04,1.7682412185097893,1.0,2923.3268560936554,0.36290643108161885,1.3176710696908862,0.9652908856534863,0.28731913117741115,0.6782050111015565
0.0405,1.7676951242959882,1.0,2930.2604178841752,0.3664800270355952,1.31736358427702,0.9659120648940912,0.2872961952204315,0.6788276638228408
0.041,1.767149030082187,1.0,2937.0236514961243,0.3700335751562343,1.317057663324899,0.9665130224503273,0.2872732592634518,0.6794465501497291
0.0415,1.7666029358683857,1.0,2943.623773143352,0.37356718782157516,1.3167532382716158,0.9670946422361301,0.2872503233064722,0.6800618177437658
0.042,1.7660568416545845,1.0,2950.068049535877,0.3770809774096565,1.316450240554263,0.9676577598841539,0.28722738734949255,0.6806736136898885
0.0425,1.7655107474407834,1.0,2956.3637956578864,0.3805750562985174,1.3161486016099337,0.9682031658783571,0.2872044513925129,0.6812820845028169
0.043000000000000003,1.764964653226982,1.0,2962.5183726502946,0.3840495368661966,1.3158482528757203,0.9687316084525762,0.2871815154355333,0.6818873761331476
0.043500000000000004,1.764418559013181,1.0,2968.5358581531495,0.38750452136275054,1.3155491547923852,0.9692437970177293,0.2871585794785536,0.6824895756052658
0.044,1.7638724647993798,1.0,2974.4223137508798,0.39094012154445046,1.3152512507786203,0.9697404040108328,0.28713564352157395,0.683088803834552
0.0445,1.7633263705855784,1.0,2980.188032625537,0.39435646252880396,1.3149544477517683,0.970222066197538,0.2871127075645943,0.6836852545962331
0.045,1.7627802763717773,1.0,2985.8367346765313,0.39775364839817057,1.3146587101897058,0.970689389004361,0.2870897716076146,0.6842790054265011
0.0455,1.7622341821579761,1.0,2991.3721629972397,0.4011317832349096,1.3143640025703098,0.9711429471860106,0.287066835650635,0.6848701335713465
0.046,1.7616880879441748,1.0,2996.798083049787,0.4044909711213807,1.3140702893714569,0.9715832866751991,0.28704389969365535,0.6854587159889329
0.0465,1.7611419937303736,1.0,3002.1182818681127,0.4078313161399433,1.3137775350710241,0.9720109263037665,0.2870209637366757,0.6860448293518885
0.047,1.7605958995165722,1.0,3007.336567288707,0.41115292237295686,1.3134857041468881,0.9724263594052224,0.286998027779696,0.6866285500495208
0.0475,1.760049805302771,1.0,3012.4567672093563,0.4144558939027809,1.3131947610769261,0.9728300553079162,0.2869750918227164,0.6872099541899463
0.048,1.75950371108897,1.0,3017.482728875795,0.41774033481177497,1.3129046703390146,0.9732224607272673,0.28695215586573675,0.6877891176021449
0.0485,1.7589576168751686,1.0,3022.4183181966464,0.42100634918229846,1.3126153964110303,0.9736040010647499,0.2869292199087571,0.6883661158379286
0.049,1.7584115226613675,1.0,3027.2674190859584,0.4242540410967109,1.3123269037708505,0.9739750816206929,0.2869062839517774,0.6889410241738326
0.0495,1.7578654284475663,1.0,3032.033932833994,0.4274835146373717,1.3120391568963519,0.9743360887273453,0.28688334799479775,0.689513917612927
0.05,1.757319334233765,1.0,3036.7217775058944,0.4306948738866405,1.311752120265411,0.974687390808134,0.2868604120378181,0.6900848708865457
0.0505,1.7567732400199638,1.0,3041.33488736828,0.4338882229268767,1.311465758355905,0.9750293393685452,0.2868374760808385,0.6906539584559341
0.051000000000000004,1.7562271458061627,1.0,3045.8710470928654,0.43706363045371655,1.3111800886953158,0.9753622694416496,0.2868145401238588,0.69122114923334
0.051500000000000004,1.7556810515923613,1.0,3050.340133665059,0.4402212434812059,1.3108950248122888,0.975686502913705,0.28679160416687915,0.6917866184533366
0.052000000000000005,1.7551349573785602,1.0,3054.7440989438214,0.4433611580277944,1.310610548605405,0.9760023460513946,0.28676866820989955,0.692350405277581
0.0525,1.754588863164759,1.0,3059.0847692414486,0.44648346928011295,1.3103266431234981,0.9763100915780576,0.2867457322529199,0.6929125464531283
0.053,1.7540427689509577,1.0,3063.363978685269,0.4495882724247927,1.3100432914154025,0.9766100194059237,0.2867227962959402,0.6934730785979075
0.0535,1.7534966747371565,1.0,3067.5835690061253,0.4526756626484645,1.3097604765299524,0.9769023973063237,0.28669986033896055,0.6940320382013291
0.054,1.7529505805233554,1.0,3071.7453893334646,0.45574573513775934,1.3094781815159822,0.9771874815393208,0.2866769243819809,0.694589461624875
0.0545,1.752404486309554,1.0,3075.8512959968043,0.45879858507930826,1.3091963894223255,0.9774655174455485,0.2866539884250013,0.695145385102671
0.055,1.751858392095753,1.0,3079.9031523333265,0.4618343076597423,1.3089150832978167,0.9777367400028197,0.2866310524680216,0.6956998447420376
0.0555,1.7513122978819518,1.0,3083.902828502392,0.46485299806569236,1.30863424619129,0.9780013743498804,0.28660811651104195,0.6962528765240247
0.056,1.7507662036681504,1.0,3087.8522013059833,0.4678547514837894,1.3083538611515795,0.9782596362795063,0.28658518055406235,0.69680451630393
0.0565,1.7502201094543492,1.0,3091.753154015196,0.47083966310066455,1.3080739112275195,0.9785117327029722,0.2865622445970827,0.6973547998117935
0.057,1.749674015240548,1.0,3095.6075762042215,0.4738078281029487,1.3077943794679439,0.9787578620877796,0.286539308640103,0.6979037626528808
0.0575,1.7491279210267467,1.0,3099.417363589549,0.4767593416772728,1.307515248921687,0.9789982148703827,0.28651637268312335,0.6984514403081405
0.058,1.7485818268129456,1.0,3103.184417876093,0.47969429901026794,1.3072365026375827,0.9792329738455359,0.2864934367261437,0.6989978681346513
0.0585,1.7480357325991442,1.0,3106.9106466095573,0.48261279528856504,1.3069581236644656,0.9794623145337584,0.286470500769164,0.6995430813660416
0.059000000000000004,1.747489638385343,1.0,3110.5975171950763,0.4855149194407296,1.306680098847331,0.9796864052190625,0.2864475648121844,0.7000871076881099
0.059500000000000004,1.746943544171542,1.0,3114.2430196161836,0.4884007168093602,1.3064024446612208,0.9799054056688604,0.28642462885520475,0.7006299167909041
0.06,1.7463974499577406,1.0,3117.8534570046154,0.49127035274049324,1.306125106849199,0.9801194753471657,0.2864016928982251,0.7011716165706839
0.0605,1.7458513557439395,1.0,3121.4296241848797,0.4941239125964401,1.305848078106006,0.9803287636360274,0.2863787569412455,0.7017122229555564
0.061,1.7453052615301383,1.0,3124.972318596776,0.49696148173951193,1.3055713511263822,0.9805334142295331,0.2863558209842658,0.7022517518201442
0.0615,1.744759167316337,1.0,3128.4823402462125,0.4997831455320201,1.3052949186050677,0.9807335653936722,0.28633288502728615,0.7027902189857305
0.062,1.7442130731025358,1.0,3131.960491656672,0.5025889893362757,1.3050187732368028,0.9809293502124262,0.2863099490703065,0.703327640220395
0.0625,1.7436669788887347,1.0,3135.4075778221477,0.5053790985145902,1.304742907716328,0.9811208968209155,0.2862870131133268,0.7038640312391506
0.063,1.7431208846749333,1.0,3138.8244061612936,0.5081535584292748,1.3044673147383832,0.9813083286263744,0.28626407715634716,0.7043994077040763
0.0635,1.7425747904611322,1.0,3142.211786472796,0.5109124544426407,1.3041919869977088,0.9814917645176751,0.28624114119936755,0.7049337852244445
0.064,1.742028696247331,1.0,3145.5705308913316,0.5136558719169991,1.3039169171890452,0.9816713190640745,0.2862182052423879,0.7054671793568463
0.0645,1.7414826020335297,1.0,3148.9014538458623,0.5163838962146614,1.3036420980071324,0.9818471027038124,0.2861952692854082,0.7059996056053157
0.065,1.7409365078197285,1.0,3152.2053720180675,0.5190966126979388,1.3033675221467107,0.9820192219231527,0.2861723333284286,0.7065310794214446
0.0655,1.7403904136059274,1.0,3155.4831043022687,0.5217941067291427,1.3030931823025207,0.9821877794264098,0.28614939737144895,0.7070616162044993
0.066,1.739844319392126,1.0,3158.735471766964,0.5244764636705843,1.3028190711693022,0.9823528742974862,0.2861264614144693,0.7075912313015342
0.0665,1.7392982251783249,1.0,3161.963297616807,0.5271437688845747,1.3025451814417957,0.9825146021533927,0.2861035254574896,0.7081199400074967
0.067,1.7387521309645235,1.0,3165.1674071563957,0.5297961077334253,1.3022715058147414,0.9826730552902093,0.28608058950050996,0.708647757565334
0.0675,1.7382060367507224,1.0,3168.3486277550455,0.5324335655794474,1.3019980369828796,0.9828283228219081,0.28605765354353035,0.7091746991660945
0.068,1.7376599425369212,1.0,3171.5077888123437,0.5350562277849522,1.3017247676409505,0.9829804908124334,0.2860347175865507,0.7097007799490257
0.0685,1.7371138483231199,1.0,3174.645721725711,0.537664179712251,1.3014516904836944,0.9831296424014128,0.286011781629571,0.7102260150016675
0.069,1.7365677541093187,1.0,3177.763259858396,0.540257506723655,1.3011787982058516,0.9832758579238479,0.2859888456725914,0.7107504193599457
0.0695,1.7360216598955176,1.0,3180.8611786863416,0.5428362922069307,1.3009060840058724,0.9834192149279777,0.28596590971561175,0.7112740070416164
0.07,1.7354755656817162,1.0,3183.9382354014147,0.5454005611129058,1.3006335580831236,0.9835597856712359,0.2859429737586321,0.7117967594205393
