Time [s],Phi [rad],STIM [ ],Fsee [N],Gamma [ ],Lcerel [ ],q [ ],Lmtc [m],fisomrel [ ]
0.0,1.8,1.0,17.967442292959593,1.3098323971939049e-05,1.3793397143883024,0.0050000456281161084,0.288653,0.5411396080605906
0.0005,1.79999375,1.0,18.277791869496152,0.0056222341615285165,1.3793022714094931,0.012949117773686951,0.2886527375,0.5412301878303547
0.001,1.799975,1.0,21.62170481911489,0.011199907181943329,1.3789379627045126,0.03562472332863352,0.28865195,0.5421110345068667
0.0015,1.79994375,1.0,31.07736729483131,0.01674629386760778,1.3780455110162615,0.07062380750448537,0.2886506375,0.5442652793381815
0.002,1.7999,1.0,53.60004244540725,0.022261569709257377,1.376366986441431,0.11474401326219005,0.2886488,0.5483032255006242
0.0025,1.79984375,1.0,97.1486893906086,0.02774590921355612,1.373933733703802,0.1646031529158792,0.28864643749999996,0.5541248813722388
0.003,1.7997750000000001,1.0,160.99707597514544,0.03319948591078625,1.3712128874376022,0.21730960907513341,0.28864354999999997,0.560589898597698
0.0035,1.79969375,1.0,237.7273993235019,0.03862247235446102,1.368583376891853,0.27064188701342023,0.2886401375,0.5667930302263976
0.004,1.7996,1.0,321.51373687699225,0.0440150401321015,1.3661548485038788,0.3229438807143178,0.2886362,0.5724828664448393
0.0045000000000000005,1.7994937500000001,1.0,409.31646169571843,0.049377359870422674,1.3639216707699553,0.37306116263835365,0.2886317375,0.5776818161479729
0.005,1.799375,1.0,499.46325439712103,0.054709601226428255,1.361857285184898,0.42027239942416955,0.28862675,0.5824595190006868
0.0055,1.79924375,1.0,590.8406625248489,0.06001193293476493,1.3599378533858548,0.46419678835345274,0.2886212375,0.5868773651147413
0.006,1.7991000000000001,1.0,682.5684563766924,0.06528452275116732,1.358145499570765,0.5047011825782063,0.2886152,0.5909815087283394
0.006500000000000001,1.79894375,1.0,773.9337935470993,0.07052753750938894,1.3564663568138655,0.5418201372889699,0.2886086375,0.5948078330990112
0.007,1.798775,1.0,864.3376823188256,0.07574114309411109,1.3548895571242188,0.575694440961286,0.28860155,0.5983845734827036
0.0075,1.79859375,1.0,953.2934167692697,0.08092550448199572,1.3534060070525344,0.6065259865633508,0.2885939375,0.6017353130713775
0.008,1.7984,1.0,1040.4090445675272,0.08608078569686259,1.3520079015181814,0.6345466496328217,0.2885858,0.6048802208825457
0.0085,1.79819375,1.0,1125.3535602732966,0.09120714930565706,1.3506886846961006,0.659997773156475,0.2885771375,0.6078362449812467
0.009000000000000001,1.797975,1.0,1207.9128672740421,0.09630475831970024,1.3494418617024575,0.6831165087406686,0.28856795,0.6106198510520426
0.0095,1.79774375,1.0,1287.931289894534,0.10137377496525987,1.3482616066192024,0.7041284906604682,0.2885582375,0.6132457058514412
0.01,1.7975,1.0,1365.2359940473616,0.10641435820348286,1.3471434991636273,0.7232440505762838,0.288548,0.6157250988151552
0.0105,1.79724375,1.0,1439.7256033228032,0.1114266669955161,1.3460831190530236,0.7406556207615088,0.2885372375,0.618069115773376
0.011,1.796975,1.0,1511.3637716051617,0.11641086030250646,1.3450760460046838,0.7565374395298332,0.28852595000000003,0.6202886558474916
0.0115,1.79669375,1.0,1580.154440873834,0.12136709655429787,1.3441180837068885,0.7710462470948719,0.2885141375,0.6223939555672797
0.012,1.7964,1.0,1646.1006300148633,0.1262955325828336,1.343205654405328,0.7843225285709562,0.28850180000000003,0.6243937461231206
0.0125,1.79609375,1.0,1709.2134843322149,0.13119632381211002,1.3423355809619781,0.7964917064624839,0.2884889375,0.6262957589522478
0.013000000000000001,1.7957750000000001,1.0,1769.5284664971973,0.13606962512550896,1.341504825384446,0.807665430342802,0.28847555,0.6281073158135813
0.0135,1.79544375,1.0,1827.1139474847694,0.1409155915348168,1.3407103460066518,0.8179429280643449,0.2884616375,0.6298356509057002
0.014,1.7951000000000001,1.0,1882.0283329052693,0.1457343761995002,1.3399495350400479,0.8274125120531819,0.2884472,0.6314869694708396
0.0145,1.79474375,1.0,1934.327112610478,0.1505261308995125,1.3392200834711172,0.8361527472481054,0.2884322375,0.633066756919159
0.015,1.794375,1.0,1984.0869181475186,0.15529100741480706,1.3385196822863428,0.8442334668036168,0.28841675,0.6345804359207703
0.0155,1.79399375,1.0,2031.3870066342515,0.16002915630984085,1.3378461982270018,0.8517168507728563,0.2884007375,0.6360329921669687
0.016,1.7936,1.0,2076.332629967692,0.1647407291328385,1.3371974027810936,0.8586582433595635,0.2883842,0.6374295649160873
0.0165,1.7931937500000001,1.0,2118.9897968345094,0.16942587373911297,1.3365716346469416,0.8651071609677693,0.2883671375,0.6387740266297375
0.017,1.792775,1.0,2159.4342632709404,0.17408473781182518,1.3359672576092059,0.8711078173255119,0.28834955,0.6400701588474156
0.0175,1.7923437500000001,1.0,2197.7528752255434,0.17871746903413596,1.3353826354525462,0.876699742979831,0.2883314375,0.6413217086635985
0.018000000000000002,1.7919,1.0,2234.0274187677423,0.18332421366649224,1.3348162846647278,0.8819183760880461,0.2883128,0.6425320648064667
0.0185,1.79144375,1.0,2268.359403541103,0.18790511956628886,1.334266612631788,0.8867954724242326,0.2882936375,0.6437048204071119
0.019,1.790975,1.0,2300.8197563627195,0.19246033059886541,1.3337324119997018,0.8913596531461756,0.28827395,0.6448427206022362
0.0195,1.79049375,1.0,2331.4793254887963,0.19698998995543066,1.3332125404631519,0.8956366840905897,0.2882537375,0.6459483510143254
0.02,1.79,1.0,2360.414781836285,0.2014942408271933,1.3327058557168208,0.8996497844206043,0.288233,0.6470242779711035
0.0205,1.78949375,1.0,2387.707274327179,0.20597322625974196,1.332211223747559,0.9034199143966919,0.2882117375,0.6480730319392517
0.021,1.788975,1.0,2413.4282636590187,0.21042708733225157,1.3317276510800735,0.9069660538495542,0.28818995000000003,0.6490968287911256
0.021500000000000002,1.78844375,1.0,2437.6640963930486,0.21485596788230982,1.331254040768942,0.9103053692439905,0.2881676375,0.6500980882469648
0.022,1.7879,1.0,2460.4724574190323,0.21926000626190972,1.3307896082941204,0.913453491259586,0.2881448,0.6510785556269847
0.0225,1.78734375,1.0,2481.9140688182524,0.2236393408230444,1.3303335691355658,0.9164246173003391,0.28812143749999997,0.6520399652492296
0.023,1.786775,1.0,2502.0524388551444,0.22799410991770686,1.3298851387732347,0.9192316627561833,0.28809755,0.6529840408691445
0.0235,1.78619375,1.0,2520.953624615363,0.23232445189789017,1.3294435326870833,0.9218863945159533,0.28807313749999996,0.6539124960798939
0.024,1.7856,1.0,2538.6755989025182,0.23663050251828194,1.329008064465984,0.9243995654845132,0.2880482,0.6548268288148816
0.0245,1.78499375,1.0,2555.285105892851,0.24091240178499249,1.3285779838884701,0.9267809917456409,0.2880227375,0.6557286623207534
0.025,1.784375,1.0,2570.8330573415255,0.24517028465592608,1.3281527066956653,0.9290396813057575,0.28799675,0.6566192636744537
0.025500000000000002,1.78374375,1.0,2585.3654276709767,0.24940428416260305,1.3277317088408016,0.9311838967748504,0.2879702375,0.6574997672840819
0.026000000000000002,1.7831000000000001,1.0,2598.9295017981044,0.2536145333365438,1.327314466277111,0.9332212187240528,0.2879432,0.6583713015488838
0.0265,1.78244375,1.0,2611.5737628667,0.2578011652092687,1.3269004549578254,0.9351586111945277,0.2879156375,0.6592349889935165
0.027,1.781775,1.0,2623.347786069172,0.26196431281229815,1.3264891508361765,0.9370024801153168,0.28788755,0.6600919463847972
0.0275,1.7810937500000001,1.0,2634.2947752792293,0.26610410715917815,1.3260800979934597,0.938758734927346,0.2878589375,0.660943143152346
0.028,1.7804,1.0,2644.4573249713053,0.2702206803310171,1.3256728539060667,0.9404328273020712,0.2878298,0.6617895160353244
0.0285,1.77969375,1.0,2653.8893543300683,0.2743141665892936,1.3252668786008206,0.9420297771678204,0.2878001375,0.6626321992515276
0.029,1.778975,1.0,2662.6222122492372,0.2783846930324318,1.3248618467397522,0.9435542521291926,0.28776995,0.6634718766991001
0.029500000000000002,1.7782437500000001,1.0,2670.6877781787757,0.28243238675885596,1.324457432984891,0.9450105712073557,0.2877392375,0.6643092288930323
0.03,1.7775,1.0,2678.1184157729163,0.28645737486699024,1.3240533119982678,0.9464027353349794,0.287708,0.6651449329813561
0.0305,1.77674375,1.0,2684.94692888544,0.29045978445525894,1.3236491584419128,0.9477344548212142,0.2876762375,0.6659796627545971
0.031,1.775975,1.0,2691.206519911278,0.29443974262208616,1.3232446469778563,0.94900917412068,0.28764395,0.6668140886484728
0.0315,1.7751937500000001,1.0,2696.930750474914,0.2983973764658962,1.3228394522681284,0.9502300942003531,0.2876111375,0.6676488777398433
0.032,1.7744,1.0,2702.1464449085147,0.30233280894849346,1.3224333134673907,0.9514001993813813,0.2875778,0.6684845611174726
0.0325,1.77359375,1.0,2706.887751806333,0.30624616960530254,1.3220259052773016,0.9525222627515068,0.2875439375,0.6693217995227501
0.033,1.772775,1.0,2711.1797475324556,0.31013758205236996,1.321616987501142,0.9535988772399261,0.28750955,0.6701610757356193
0.0335,1.7719437500000002,1.0,2715.0438571824548,0.3140071673806742,1.3212063550574225,0.9546324651355321,0.2874746375,0.6710027980571591
0.034,1.7711000000000001,1.0,2718.5016763506123,0.3178550466811939,1.3207938028646526,0.9556252882639616,0.2874392,0.6718473725881198
0.0345,1.7702437500000001,1.0,2721.574953724674,0.3216813410449076,1.3203791258413424,0.9565794605111694,0.2874032375,0.6726952032051572
0.035,1.7693750000000001,1.0,2724.2855746124146,0.3254861715627939,1.3199621189060018,0.9574969592296385,0.28736675,0.6735466915343801
0.035500000000000004,1.76849375,1.0,2726.655545401425,0.32926965932583135,1.3195425769771405,0.9583796356386062,0.2873297375,0.6744022369222202
0.036000000000000004,1.7676,1.0,2728.705783595884,0.3330319240946296,1.3191203058401728,0.9592292251316227,0.2872922,0.6752622142872275
0.0365,1.76669375,1.0,2730.4497983867527,0.3367730774455819,1.3186951794368973,0.9600473601570894,0.2872541375,0.6761268577923591
0.037,1.765775,1.0,2731.9198397539217,0.34049325450103324,1.3182669020834734,0.960835561065654,0.28721555,0.6769967443819795
0.0375,1.76484375,1.0,2733.128429869531,0.3441925694590221,1.3178353580205113,0.961595268900711,0.2871764375,0.6778720828825682
0.038,1.7639,1.0,2734.0881410554402,0.347871136517587,1.3174004314886212,0.9623278381478612,0.28713679999999997,0.6787530806468021
0.0385,1.76294375,1.0,2734.811589827836,0.35152906987476645,1.316962006728413,0.9630345428814364,0.28709663750000003,0.67963994352901
0.039,1.761975,1.0,2735.31143123779,0.35516648372859894,1.3165199679804969,0.9637165824101932,0.28705595,0.6805328758597744
0.0395,1.7609937500000001,1.0,2735.600353510298,0.35878349227712303,1.3160741994854834,0.9643750864679463,0.2870147375,0.6814320804196774
0.04,1.76,1.0,2735.6910729793426,0.3623802097183772,1.315624585483982,0.9650111199903134,0.286973,0.6823377584121955
0.0405,1.7589937500000001,1.0,2735.5963293203213,0.3659567502504,1.3151710102166037,0.965625687514613,0.2869307375,0.683250109435732
0.041,1.757975,1.0,2735.328881080002,0.3695132280712298,1.3147133579239578,0.966219737236317,0.28688795,0.684169331454805
0.0415,1.75694375,1.0,2734.901501502763,0.3730497573789053,1.3142515128466548,0.9667941647521752,0.2868446375,0.6850956207703724
0.042,1.7559,1.0,2734.323841250791,0.37656644611840817,1.313785387681622,0.9673498178608414,0.28680079999999997,0.6860291150430302
0.0425,1.75484375,1.0,2733.6062837553036,0.3800634091509708,1.313314888550837,0.9678874989532836,0.2867564375,0.6869699636874254
0.043000000000000003,1.753775,1.0,2732.760370826976,0.38354076383337043,1.3128399111066607,0.9684079668542648,0.28671155,0.6879183355190582
0.043500000000000004,1.75269375,1.0,2731.7931052811145,0.3869986171236014,1.3123603922646732,0.9689119417311103,0.28666613750000003,0.6888743155110316
0.044,1.7516,1.0,2730.7114934372917,0.390437075979658,1.3118762689404537,0.9694001059019477,0.2866202,0.6898379874737939
0.0445,1.75049375,1.0,2729.5225436203195,0.3938562473595346,1.3113874780495827,0.9698731061957885,0.2865737375,0.6908094340367369
0.045,1.7493750000000001,1.0,2728.2332647483286,0.3972562382212256,1.3108939565076396,0.9703315561430308,0.28652675,0.6917887366295469
0.0455,1.74824375,1.0,2726.850665009514,0.4006371555227252,1.3103956412302045,0.9707760380101093,0.2864792375,0.6927759754632978
0.046,1.7471,1.0,2725.3817506276446,0.40399910622202784,1.309892469132857,0.9712071046907795,0.2864312,0.6937712295112922
0.0465,1.7459437500000001,1.0,2723.8335247147143,0.40734219727712784,1.309384377131177,0.9716252814654314,0.28638263750000004,0.694774576489648
0.047,1.744775,1.0,2722.212986212661,0.41066653564601946,1.3088713021407445,0.972031067638807,0.28633355,0.6957860928376305
0.0475,1.74359375,1.0,2720.527128923471,0.4139722282866971,1.3083531810771392,0.9724249380656015,0.28628393750000003,0.6968058536977328
0.048,1.7424,1.0,2718.774785826609,0.41725935530478153,1.3078300251259938,0.9728073464230453,0.2862338,0.6978337870884249
0.0485,1.74119375,1.0,2716.9689635205978,0.4205280534805598,1.3073017163798963,0.9731787227144615,0.2861831375,0.6988700736925055
0.049,1.739975,1.0,2715.115035619858,0.42377843019235434,1.3067682063564388,0.9735394775812228,0.28613195,0.6999147562782315
0.0495,1.73874375,1.0,2713.215960554491,0.42701058405695036,1.3062294685387446,0.9738900027608507,0.2860802375,0.7009678335410652
0.05,1.7375,1.0,2711.2746938932924,0.4302246136911329,1.3056854764099366,0.9742306717289985,0.286028,0.7020293032909124
0.0505,1.73624375,1.0,2709.29418810558,0.4334206177116874,1.3051362034531382,0.9745618407118257,0.2859752375,0.7030991624432559
0.051000000000000004,1.734975,1.0,2707.2773923397904,0.4365986947353988,1.304581623151472,0.974883849633514,0.28592195,0.7041774070102511
0.051500000000000004,1.73369375,1.0,2705.227252216517,0.4397589433790525,1.3040217089880617,0.9751970230036188,0.2858681375,0.7052640320917676
0.052000000000000005,1.7324,1.0,2703.146709638123,0.44290146225943366,1.3034564344460298,0.9755016707485714,0.2858138,0.7063590318663981
0.0525,1.73109375,1.0,2701.038702613255,0.44602634999332735,1.3028857730084997,0.9757980889913092,0.28575893750000003,0.7074623995824094
0.053,1.729775,1.0,2698.906165097372,0.44913370519751894,1.3023096981585947,0.9760865607826824,0.28570355000000003,0.7085741275486588
0.0535,1.72844375,1.0,2696.7520268485387,0.4522236264887936,1.3017281833794376,0.9763673567880204,0.2856476375,0.7096942071254606
0.054,1.7271,1.0,2694.5792132992624,0.4552962124839365,1.3011412021541517,0.9766407359319558,0.2855912,0.7108226287154091
0.0545,1.7257437500000001,1.0,2692.3906454432727,0.4583515617997328,1.3005487279658599,0.9769069460043842,0.2855342375,0.7119593817541567
0.055,1.724375,1.0,2690.1892397384045,0.46138977305296774,1.2999507342976855,0.9771662242302062,0.28547675,0.7131044547011457
0.0555,1.72299375,1.0,2687.97790802508,0.46441094486042656,1.2993471946327513,0.9774187978052974,0.2854187375,0.7142578350302988
0.056,1.7216,1.0,2685.7568927792368,0.4674151562307124,1.2987381068715609,0.9776648840072717,0.2853602,0.7154194627002419
0.0565,1.72019375,1.0,2683.5277485263805,0.47040251013154827,1.298123456883973,0.9779046926231031,0.28530113749999997,0.7165892999220341
0.057,1.718775,1.0,2681.294582779405,0.47337312357944644,1.2975032071034711,0.9781384246976702,0.28524155,0.7177673525610624
0.0575,1.71734375,1.0,2679.0583616431118,0.4763270861453657,1.296877348722931,0.9783662722181748,0.2851814375,0.7189535708394235
0.058,1.7159,1.0,2676.8200496307795,0.47926448740026467,1.2962458729352293,0.9785884194056648,0.2851208,0.7201479042373852
0.0585,1.71444375,1.0,2674.580609657922,0.48218541691510225,1.2956087709332422,0.9788050430889785,0.2850596375,0.7213503014902358
0.059000000000000004,1.7129750000000001,1.0,2672.341003037268,0.48508996426083706,1.2949660339098454,0.9790163130578168,0.28499795,0.7225607105851273
0.059500000000000004,1.71149375,1.0,2670.102189476282,0.4879782190084279,1.2943176530579157,0.979222392396258,0.2849357375,0.7237790787579094
0.06,1.71,1.0,2667.8651270759806,0.49085027072883347,1.2936636195703288,0.9794234377979479,0.284873,0.7250053524899656
0.0605,1.7084937500000001,1.0,2665.6307723314953,0.49370620899301254,1.2930039246399612,0.9796195998641001,0.2848097375,0.7262394775050381
0.061,1.7069750000000001,1.0,2663.4000801343636,0.49654612337192383,1.292338559459689,0.979811023385374,0.28474595,0.727481398766052
0.0615,1.7054437500000001,1.0,2661.1740037765,0.4993701034365261,1.2916675152223882,0.9799978476086164,0.2846816375,0.7287310604719323
0.062,1.7039,1.0,2658.9534949562817,0.5021782387577781,1.2909907831209353,0.9801802064893869,0.2846168,0.7299884060544158
0.0625,1.70234375,1.0,2656.739503785572,0.5049706189066385,1.2903083543482063,0.9803582289311287,0.2845514375,0.7312533781748606
0.063,1.7007750000000001,1.0,2654.5329787992437,0.5077473334540662,1.2896202200970774,0.980532039011784,0.28448555,0.7325259187210473
0.0635,1.69919375,1.0,2652.334866966192,0.5105084719710198,1.2889263715604249,0.9807017561986009,0.28441913750000003,0.7338059688039773
0.064,1.6976,1.0,2650.1461137013266,0.5132541240284579,1.2882267999311248,0.9808674955518295,0.2843522,0.7350934687546664
0.0645,1.69599375,1.0,2647.967662880773,0.5159843791973396,1.2875214964020536,0.9810293679179621,0.2842847375,0.7363883581209307
0.065,1.694375,1.0,2645.7991696082436,0.5186992793681076,1.28681046405033,0.9811874773265996,0.28421675,0.73769055392613
0.0655,1.69274375,1.0,2643.641783159198,0.5213989637976136,1.286093692158318,0.9813419302386968,0.2841482375,0.7389999977908852
0.066,1.6911,1.0,2641.4957660194955,0.5240835242610662,1.2853711781851485,0.9814928263638079,0.2840792,0.7403166156288912
0.0665,1.6894437500000001,1.0,2639.3611393586107,0.5267530410906274,1.2846429218170083,0.9816402611906058,0.2840096375,0.7416403286335347
0.067,1.687775,1.0,2637.237924353416,0.5294075946184597,1.2839089227400848,0.9817843268447685,0.28393955,0.742971057361494
0.0675,1.68609375,1.0,2635.126142189791,0.5320472651767255,1.2831691806405645,0.9819251122295511,0.2838689375,0.7443087217326254
0.068,1.6844000000000001,1.0,2633.02581406253,0.5346721330975872,1.282423695204635,0.9820627031595204,0.2837978,0.7456532410298451
0.0685,1.68269375,1.0,2630.936961176314,0.5372822787132072,1.281672466118483,0.9821971824878307,0.2837261375,0.7470045338990179
0.069,1.680975,1.0,2628.8596047466517,0.5398777823557479,1.2809154930682956,0.9823286302273984,0.28365395,0.7483625183488406
0.0695,1.67924375,1.0,2626.7937659998897,0.5424587243573715,1.28015277574026,0.9824571236663027,0.28358123749999997,0.7497271117507258
0.07,1.6775,1.0,2624.739466174708,0.5450251850502407,1.2793843138205632,0.9825827374777253,0.283508,0.7510982308386897
0.07050000000000001,1.67574375,1.0,2622.6967265222606,0.5475772447665175,1.2786101069953921,0.9827055438247275,0.2834342375,0.7524757917092353
0.07100000000000001,1.673975,1.0,2620.6655683069675,0.5501149838383645,1.2778301549509339,0.9828256124601331,0.28335995,0.7538597098212374
0.07150000000000001,1.67219375,1.0,2618.6460128073677,0.5526384825979442,1.2770444573733755,0.9829430108217807,0.2832851375,0.7552498999958289
0.07200000000000001,1.6704,1.0,2616.63808131669,0.5551478213774188,1.2762530139489041,0.9830578041233887,0.2832098,0.7566462764162838
0.0725,1.66859375,1.0,2614.641795143554,0.5576430805089506,1.2754558243637069,0.9831700554412621,0.2831339375,0.7580487526279039
0.073,1.6667750000000001,1.0,2612.65717561286,0.5601243403247023,1.2746528883039705,0.9832798257970574,0.28305755,0.7594572415379041
0.0735,1.66494375,1.0,2610.684244066143,0.562591681156836,1.2738442054558825,0.9833871742368075,0.2829806375,0.7608716554152948
0.074,1.6631,1.0,2608.723021862502,0.5650451833375142,1.2730297755056295,0.9834921579064023,0.2829032,0.7622919058907703
0.0745,1.6612437500000001,1.0,2606.773530379341,0.5674849271988993,1.2722095981393986,0.9835948321237018,0.2828252375,0.7637179039565916
0.075,1.659375,1.0,2604.8359041405406,0.569910992496682,1.2713836719907718,0.9836952503690195,0.28274675,0.7651495617882818
