Time [s],Phi [rad],STIM [ ],Fsee [N],Gamma [ ],Lcerel [ ],q [ ],Lmtc [m],fisomrel [ ]
0.0,1.8,1.0,17.96713521998178,1.0074654690167105e-05,1.3793397487906205,0.005000027049606485,0.288653,0.5411395248324904
0.0005,1.79999375,1.0,18.27649440422893,0.005619227452639208,1.3793024155310558,0.012940721819614004,0.2886527375,0.5412298391974052
0.001,1.799975,1.0,21.618170464200823,0.011196917338313657,1.3789383236738553,0.03560896748431681,0.28865195,0.542110162153216
0.0015,1.79994375,1.0,31.069051547958075,0.01674332079463561,1.3780462194440433,0.07060224086534016,0.2886506375,0.544263571313987
0.002,1.7999,1.0,53.58217032289119,0.022258613312876346,1.3763681457983308,0.11471847127570146,0.2886488,0.5483004426923674
0.0025,1.79984375,1.0,97.11864897972143,0.0277429694002194,1.3739351811697338,0.16457536416151117,0.28864643749999996,0.5541214294756326
0.003,1.7997750000000001,1.0,160.95797540357142,0.03319656258747824,1.3712143509212054,0.2172809390804426,0.28864354999999997,0.5605864338971562
0.0035,1.79969375,1.0,237.68321554687708,0.03861956542868719,1.3685847378061413,0.2706133698869881,0.2886401375,0.566789831174675
0.004,1.7996,1.0,321.4667318274884,0.04401214951188386,1.3661560934426722,0.3229162670686748,0.2886362,0.5724799592946465
0.0045000000000000005,1.7994937500000001,1.0,409.2677914243218,0.04937448546429352,1.363922813212719,0.37303494912090057,0.2886317375,0.5776791646152437
0.005,1.799375,1.0,499.4136014104169,0.05470674294341973,1.3618583402804152,0.42024787403761676,0.28862675,0.5824570840864263
0.0055,1.79924375,1.0,590.7905644463382,0.06000909068450729,1.3599388321599473,0.46417408133213306,0.2886212375,0.5868751183142007
0.006,1.7991000000000001,1.0,682.5182958954346,0.06528169644370355,1.3581464113379227,0.5046803148029958,0.2886152,0.5909794261663504
0.006500000000000001,1.79894375,1.0,773.8818139207207,0.0705247270532993,1.356467244124974,0.5418010800461426,0.2886086375,0.5948058158990629
0.007,1.798775,1.0,864.2861498452856,0.07573834840684418,1.354890389526222,0.575677075856813,0.28860155,0.5983826894831835
0.0075,1.79859375,1.0,953.242776093335,0.08092272546688485,1.3534067859482999,0.6065101927973726,0.2885939375,0.6017335575436624
0.008,1.7984,1.0,1040.3574038983727,0.08607802224922274,1.352008661813942,0.634532317229092,0.2885858,0.604878514055988
0.0085,1.79819375,1.0,1125.3193445338304,0.09120440195603556,1.3506891690603884,0.6599846233099235,0.2885771375,0.6078351616828264
0.009000000000000001,1.797975,1.0,1207.8791295382655,0.09630202648264996,1.3494423226893102,0.6831045628563361,0.28856795,0.6106188237037629
0.0095,1.79774375,1.0,1287.8736231627897,0.10137105766802239,1.3482623697012401,0.7041178014455889,0.2885582375,0.6132440110015203
0.01,1.7975,1.0,1365.1666174383,0.1064116557378656,1.3471443908294067,0.723234406442405,0.288548,0.6157231247311228
0.0105,1.79724375,1.0,1439.6593935419846,0.1114239797089977,1.3460839477097448,0.7406468215928759,0.2885372375,0.6180672867909395
0.011,1.796975,1.0,1511.307314787944,0.11640818820530739,1.3450767356460775,0.7565293606862235,0.28852595000000003,0.6202871381245125
0.0115,1.79669375,1.0,1580.1108850490039,0.12136443978907255,1.3441186040464483,0.7710387990296574,0.2885141375,0.6223928136132773
0.012,1.7964,1.0,1646.0652155589496,0.1262928909246385,1.3432060689220904,0.7843156720780513,0.28850180000000003,0.6243928388234865
0.0125,1.79609375,1.0,1709.178168705623,0.1311936969376187,1.342335986618425,0.7964854204924481,0.2884889375,0.6262948732971605
0.013000000000000001,1.7957750000000001,1.0,1769.4933475328094,0.13606701308640862,1.3415052218472576,0.8076596573626176,0.28847555,0.6281064523311715
0.0135,1.79544375,1.0,1827.0736199720989,0.14091299370499258,1.340710794037992,0.8179376392041682,0.2884616375,0.6298346773788295
0.014,1.7951000000000001,1.0,1881.9870402127026,0.14573179302771386,1.3399499870519644,0.827407643271528,0.2884472,0.6314859894877844
0.0145,1.79474375,1.0,1934.286636974791,0.15052356245336115,1.3392205205082803,0.8361482511572892,0.2884322375,0.6330658114352403
0.015,1.794375,1.0,1984.0464220903164,0.15528845338072314,1.3385201140260459,0.8442293104716302,0.28841675,0.6345795038258703
0.0155,1.79399375,1.0,2031.34868710117,0.16002661635157944,1.3378466019777122,0.8517129941888401,0.2884007375,0.6360321222325042
0.016,1.7936,1.0,2076.289914498521,0.1647382027020687,1.3371978479515432,0.8586546798689269,0.2883842,0.6374286075792346
0.0165,1.7931937500000001,1.0,2118.955002782527,0.16942336191601448,1.3365719935934524,0.8651038266527579,0.2883671375,0.6387732561496463
0.017,1.792775,1.0,2159.4108592209086,0.17408224085838794,1.335967496780789,0.8711046817305865,0.28834955,0.6400696463866407
0.0175,1.7923437500000001,1.0,2197.735111873544,0.17871498639416028,1.3353828153909024,0.8766968045647056,0.2883314375,0.6413213237897699
0.018000000000000002,1.7919,1.0,2234.0152127015836,0.1833217453883027,1.334816407301141,0.8819156181953113,0.2883128,0.6425318029399121
0.0185,1.79144375,1.0,2268.337667411623,0.18790266358813723,1.3342668293596256,0.8867929171822607,0.2882936375,0.6437043583860426
0.019,1.790975,1.0,2300.795399925047,0.19245788753971851,1.3337326531351161,0.8913572670330877,0.28827395,0.6448422073705238
0.0195,1.79049375,1.0,2331.465409151849,0.19698756126713812,1.3332126773296569,0.8956344232164706,0.2882537375,0.6459480601619961
0.02,1.79,1.0,2360.4144609472514,0.20149182680735686,1.3327058588533411,0.8996476316564342,0.288233,0.6470242713158822
0.0205,1.78949375,1.0,2387.714387742845,0.20597082619733553,1.3322111546162627,0.9034178742667945,0.2882117375,0.648073178407301
0.021,1.788975,1.0,2413.4416657654388,0.21042470147403497,1.3317275215285154,0.9069641202600485,0.28818995000000003,0.6490971028716466
0.021500000000000002,1.78844375,1.0,2437.64852031895,0.21485359311328336,1.331254190585269,0.910303604431864,0.2881676375,0.6500977717464868
0.022,1.7879,1.0,2460.452908301796,0.21925764347554266,1.3307897954511474,0.9134518337820325,0.2881448,0.6510781607952425
0.0225,1.78734375,1.0,2481.92797789065,0.2236369920428054,1.3303334365514285,0.9164229888882353,0.28812143749999997,0.6520402445667198
0.023,1.7867750257461987,1.0,2502.100727157929,0.2279917758319397,1.3298846919642278,0.9192300620500312,0.28809755108134033,0.6529849808917939
0.0235,1.7862008280273025,1.0,2521.333148442422,0.23232213185981374,1.3294431397676598,0.9218848881391485,0.2880734347771467,0.6539133216199814
0.024,1.785626630308406,1.0,2539.9206270353825,0.23662819714329567,1.3290083580398404,0.9243982636442156,0.28804931847295306,0.6548262128186486
0.0245,1.7850524325895096,1.0,2557.9001960499736,0.2409101086992537,1.328579924858884,0.9267800520468067,0.2880252021687594,0.6557245949608741
0.025,1.7844782348706132,1.0,2575.299780524595,0.24516800242831663,1.3281575120795488,0.9290392929043579,0.28800108586456574,0.6566092068423495
0.025500000000000002,1.7839040371517167,1.0,2592.129090667652,0.24940201343897464,1.3277409682124726,0.9311842968024654,0.2879769695603721,0.6574804137600481
0.026000000000000002,1.7833298394328205,1.0,2608.4061102789656,0.2536122748874707,1.3273300689700858,0.9332226738024795,0.2879528532561785,0.6583387307016546
0.0265,1.782755641713924,1.0,2624.149521943471,0.25779891971889535,1.3269245883997463,0.9351614135779539,0.28792873695198484,0.6591846731494149
0.027,1.7821814439950276,1.0,2639.370832664311,0.26196207234325597,1.3265243714402652,0.9370069518457972,0.28790462064779115,0.6600186060444506
0.0275,1.7816072462761312,1.0,2654.091991928768,0.26610186757790266,1.3261291702918039,0.9387652056214745,0.2878805043435975,0.6608410850917716
0.028,1.781033048557235,1.0,2668.346703381188,0.2702184536748273,1.3257386334318613,0.9404416207263305,0.28785638803940383,0.6616528784755853
0.0285,1.7804588508383385,1.0,2682.148469750462,0.2743119564899963,1.3253525997171767,0.9420412427833826,0.2878322717352102,0.6624543554122277
0.029,1.779884653119442,1.0,2695.5111130165083,0.27838250187937635,1.3249709080044898,0.9435687350661012,0.28780815543101657,0.6632458831337291
0.029500000000000002,1.7793104554005457,1.0,2708.448758609483,0.28243021569893395,1.3245933971505404,0.9450284124143226,0.28778403912682293,0.664027826933264
0.03,1.7787362576816494,1.0,2720.9758201845193,0.28645522380463573,1.324219906012068,0.9464242717376975,0.2877599228226293,0.6648005502089469
0.0305,1.778162059962753,1.0,2733.106984972397,0.29045765205244817,1.3238502734458122,0.9477600194871115,0.2877358065184356,0.6655644145059716
0.031,1.7775878622438566,1.0,2744.8571997058775,0.2944376262983379,1.3234843383085126,0.9490390964284032,0.287711690214242,0.666319779557091
0.0315,1.7770136645249601,1.0,2756.241657121344,0.29839527239827146,1.323121939456909,0.9502647000125508,0.2876875739100483,0.6670670033214467
0.032,1.7764394668060637,1.0,2767.27578303696,0.30233071620821544,1.3227629157477405,0.9514398046015321,0.28766345760585466,0.6678064420217378
0.0325,1.7758652690871675,1.0,2777.9752240057683,0.30624408358413635,1.3224071060377474,0.9525671797785439,0.287639341301661,0.6685384501797345
0.033,1.775291071368271,1.0,2788.3558355451137,0.3101355003820008,1.322054349183669,0.953649406944615,0.2876152249974674,0.6692633806501386
0.0335,1.7747168736493746,1.0,2798.4329600772885,0.3140050914150986,1.321704490423654,0.9546888948239073,0.28759110869327376,0.6699815715601314
0.034,1.7741426759304781,1.0,2808.2105427576976,0.3178529665905481,1.3213574787630078,0.9556879003448104,0.28756699238908007,0.6706931468210555
0.0345,1.773568478211582,1.0,2817.7140908165743,0.32167926887712806,1.3210130711508739,0.9566485204143484,0.28754287608488643,0.6713986229282016
0.035,1.7729942804926855,1.0,2826.9522915285966,0.32548411537178584,1.3206711768321935,0.9575727264050895,0.2875187597806928,0.6720982026436738
0.035500000000000004,1.772420082773789,1.0,2835.933941678655,0.3292676231714688,1.3203317050519083,0.9584623640671873,0.2874946434764991,0.6727920878142131
0.036000000000000004,1.7718458850548926,1.0,2844.6679425960383,0.33302990937312427,1.31999456505496,0.9593191629830661,0.2874705271723055,0.6734804793854814
0.0365,1.7712716873359962,1.0,2853.163295370865,0.33677109107369957,1.3196596660862903,0.9601447452074126,0.28744641086811185,0.6741635774158208
0.037,1.7706974896171,1.0,2861.429096253663,0.3404912853701421,1.3193269173908404,0.9609406331710564,0.2874222945639182,0.6748415810894879
0.0375,1.7701232918982035,1.0,2869.4745322371678,0.3441906093593993,1.3189962282135523,0.9617082569189778,0.2873981782597245,0.6755146887293599
0.038,1.769549094179307,1.0,2877.308876821237,0.3478691801384184,1.3186675077993673,0.9624489607453094,0.2873740619555309,0.6761830978091206
0.0385,1.7689748964604106,1.0,2884.941485959637,0.35152711480414683,1.3183406653932273,0.9631640092816511,0.28734994565133726,0.6768470049649149
0.039,1.7684006987415144,1.0,2892.3817941898874,0.3551645304535319,1.3180156102400735,0.9638545930892288,0.28732582934714357,0.6775066060064849
0.0395,1.767826501022618,1.0,2899.6393109461906,0.358781544183521,1.317692251584848,0.9645218338002729,0.28730171304294994,0.6781620959277732
0.04,1.7672523033037215,1.0,2906.718228435818,0.36237826047925153,1.3173705461363574,0.9651667907491004,0.2872775967387563,0.6788135728479281
0.0405,1.766678105584825,1.0,2913.6294398666564,0.3659548033939185,1.3170503920233385,0.965790461779308,0.28725348043456267,0.6794612529268093
0.041,1.7661039078659286,1.0,2920.3832005730815,0.36951129486852197,1.3167316936099065,0.9663937890114,0.287229364130369,0.6801053388488532
0.0415,1.7655297101470324,1.0,2926.984485656139,0.37304784362225063,1.3164144021794937,0.9669776641149532,0.28720524782617535,0.6807459377978113
0.042,1.764955512428136,1.0,2933.438308741483,0.3765645583742933,1.3160984690155335,0.9675429299917149,0.2871811315219817,0.6813831565243489
0.0425,1.7643813147092395,1.0,2939.74972048645,0.3800615478438387,1.3157838454014588,0.9680903839434443,0.287157015217788,0.6820171013503431
0.043000000000000003,1.763807116990343,1.0,2945.9238071393806,0.3835389207500756,1.3154704826207024,0.968620780602891,0.2871328989135944,0.6826478781730264
0.043500000000000004,1.7632329192714469,1.0,2951.9656891510162,0.38699678581219277,1.3151583319566973,0.9691348346478509,0.28710878260940076,0.6832755924689802
0.044,1.7626587215525504,1.0,2957.8805198393325,0.3904352517493789,1.3148473446928761,0.9696332233163713,0.2870846663052071,0.6839003492979759
0.0445,1.762084523833654,1.0,2963.673484106346,0.39385442728082276,1.3145374721126721,0.9701165887395173,0.2870605500010135,0.6845222533066646
0.045,1.7615103261147576,1.0,2969.3497972080163,0.3972544211257132,1.3142286654995183,0.9705855401066095,0.2870364336968198,0.6851414087321168
0.0455,1.7609361283958611,1.0,2974.9147035767,0.40063534200323886,1.3139208761368473,0.9710406556764892,0.28701231739262617,0.6857579194052111
0.046,1.760361930676965,1.0,2980.3734756955437,0.40399729863258854,1.313614055308092,0.9714824846471609,0.28698820108843254,0.6863718887538681
0.0465,1.7597877329580685,1.0,2985.7314130265186,0.40734039973295094,1.3133081542966856,0.9719115488950514,0.28696408478423885,0.6869834198061361
0.047,1.759213535239172,1.0,2990.987404420926,0.4106647266984762,1.3130031802760889,0.9723283450262769,0.2869399684800452,0.6875925036258106
0.0475,1.7586393375202756,1.0,2996.152295109242,0.41397041875224083,1.3126990367136133,0.9727333456091906,0.2869158521758516,0.6881993381325839
0.048,1.7580651398013794,1.0,3001.229650774815,0.4172575804964237,1.312395690554088,0.9731270003573106,0.28689173587165795,0.6888039940154164
0.0485,1.757490942082483,1.0,3006.22203827456,0.4205263118959174,1.312093117542813,0.9735097375334653,0.28686761956746426,0.6894065241785967
0.049,1.7569167443635865,1.0,3011.132037830886,0.4237767129156145,1.3117912934250895,0.9738819651525216,0.2868435032632706,0.6900069813275184
0.0495,1.75634254664469,1.0,3015.9622426223436,0.4270088835204075,1.3114901939462178,0.9742440721233177,0.286819386959077,0.6906054179698585
0.05,1.7557683489257938,1.0,3020.715258387352,0.4302229236751891,1.3111897948514986,0.9745964293161851,0.2867952706548833,0.6912018864167163
0.0505,1.7551941512068974,1.0,3025.393703041344,0.43341893334485176,1.3108900718862324,0.9749393905615401,0.28677115435068967,0.6917964387837158
0.051000000000000004,1.754619953488001,1.0,3030.0002063063052,0.4365970124942881,1.3105910007957198,0.9752732935845683,0.28674703804649604,0.6923891269920701
0.051500000000000004,1.7540457557691045,1.0,3034.537409353798,0.43975726108839075,1.3102925573252615,0.9755984608806363,0.2867229217423024,0.6929800027696087
0.052000000000000005,1.753471558050208,1.0,3039.007964460967,0.44289977909205214,1.3099947172201583,0.975915200535667,0.2866988054381087,0.693569117651767
0.0525,1.7528973603313118,1.0,3043.4145346797877,0.4460246664701649,1.3096974562257102,0.9762238069954029,0.2866746891339151,0.6941565229825393
0.053,1.7523231626124154,1.0,3047.759793518606,0.4491320231876217,1.3094007500872182,0.9765245617871513,0.28665057282972145,0.6947422699153913
0.0535,1.751748964893519,1.0,3052.0464246374745,0.452221949209315,1.3091045745499832,0.9768177341973364,0.28662645652552776,0.6953264094141387
0.054,1.7511747671746225,1.0,3056.2771215567095,0.45529454450013745,1.308808905359305,0.9771035819079188,0.28660234022133413,0.6959089922537876
0.0545,1.7506005694557263,1.0,3060.45404374064,0.4583499039063977,1.3085137229271122,0.9773823513778673,0.2865782239171405,0.6964900598394549
0.055,1.7500263717368298,1.0,3064.5758653993744,0.461388093856132,1.3082190376302876,0.9776542777111393,0.28655410761294686,0.6970695945225107
0.0555,1.7494521740179334,1.0,3068.6496106296768,0.46440926206165184,1.3079247882512282,0.9779195896357569,0.28652999130875323,0.697647719325371
0.056,1.748877976299037,1.0,3072.67647963953,0.46741349918873787,1.3076309636399805,0.9781785038981994,0.28650587500455954,0.6982244585776052
0.0565,1.7483037785801405,1.0,3076.657677271241,0.4704008959031706,1.3073375526465907,0.9784312283267628,0.2864817587003659,0.6987998365216967
0.057,1.7477295808612443,1.0,3080.5944128968767,0.4733715428707306,1.3070445441211054,0.9786779622709376,0.2864576423961723,0.6993738773133373
0.0575,1.7471553831423479,1.0,3084.487900317981,0.47632553075719836,1.3067519269135706,0.9789188970157054,0.2864335260919786,0.6999466050217202
0.058,1.7465811854234514,1.0,3088.3393576674575,0.47926295022835447,1.3064596898740328,0.9791542161723794,0.28640940978778495,0.7005180436298203
0.0585,1.746006987704555,1.0,3092.1500073140032,0.4821838919499795,1.306167821852538,0.9793840960474881,0.2863852934835913,0.70108821703467
0.059000000000000004,1.7454327899856588,1.0,3095.9210757693286,0.485088446587854,1.3058763116991332,0.9796087059911069,0.2863611771793977,0.7016571490476234
0.059500000000000004,1.7448585922667623,1.0,3099.6537935988663,0.48797670480775845,1.3055851482638643,0.9798282087259302,0.286337060875204,0.7022248633946175
0.06,1.7442843945478659,1.0,3103.3493953343022,0.49084875727547345,1.3052943203967775,0.9800427606582933,0.28631294457101036,0.7027913837164215
0.0605,1.7437101968289694,1.0,3107.0091193893054,0.4937046946567796,1.3050038169479192,0.9802525121722677,0.28628882826681673,0.7033567335688782
0.061,1.743135999110073,1.0,3110.634207977673,0.4965446076174574,1.304713626767336,0.9804576079078738,0.28626471196262304,0.7039209364231398
0.0615,1.7425618013911768,1.0,3114.225907035314,0.4993685868232874,1.3044237387050739,0.9806581870243816,0.2862405956584294,0.7044840156658958
0.062,1.7419876036722803,1.0,3117.7854661432348,0.5021767229400501,1.3041341416111796,0.9808543834496101,0.2862164793542358,0.7050459945995886
0.0625,1.741413405953384,1.0,3121.3141384548303,0.5049691066335262,1.3038448243356988,0.9810463261160677,0.28619236305004214,0.7056068964426286
0.063,1.7408392082344875,1.0,3124.8131806250144,0.5077458285694961,1.3035557757286784,0.9812341391847225,0.28616824674584845,0.7061667443295927
0.0635,1.7402650105155912,1.0,3128.283852742773,0.5105069794137405,1.3032669846401648,0.9814179422571354,0.2861441304416548,0.7067255613114225
0.064,1.7396908127966948,1.0,3131.7250059180164,0.5132525990611257,1.3029784603910313,0.9815978480070563,0.2861200141374612,0.7072833308006388
0.0645,1.7391166150777984,1.0,3135.1392249430633,0.5159828180249902,1.302690180619361,0.9817739698549618,0.2860958978332675,0.7078400974381973
0.065,1.738542417358902,1.0,3138.5283709782484,0.5186977471281499,1.302402129149491,0.9819464160416377,0.28607178152907387,0.708395893768669
0.0655,1.7379682196400055,1.0,3141.8929596945322,0.5213974670421251,1.3021143012428984,0.9821152894374311,0.28604766522488023,0.7089507301802145
0.066,1.7373940219211093,1.0,3145.2335082983577,0.5240820584384362,1.3018266921610608,0.9822806892909502,0.2860235489206866,0.7095046170252304
0.0665,1.7368198242022128,1.0,3148.550535508312,0.5267516019886038,1.301539297165455,0.9824427113824185,0.28599943261649297,0.7100575646204192
0.067,1.7362456264833164,1.0,3151.8445615323794,0.5294061783641484,1.3012521115175584,0.9826014481694865,0.2859753163122993,0.7106095832468513
0.0675,1.73567142876442,1.0,3155.1161080459156,0.5320458682365903,1.3009651304788483,0.9827569889259254,0.28595120000810564,0.7111606831500312
0.068,1.7350972310455237,1.0,3158.365698169581,0.53467075227745,1.3006783493108016,0.9829094198735943,0.285927083703912,0.7117108745399603
0.0685,1.7345230333266273,1.0,3161.5938564480944,0.5372809111582479,1.3003917632748958,0.9830588243080534,0.2859029673997183,0.7122601675911957
0.069,1.7339488356077308,1.0,3164.801108830014,0.5398764255505045,1.3001053676326082,0.9832052827181713,0.2858788510955247,0.7128085724429116
0.0695,1.7333746378888344,1.0,3167.9879826468145,0.5424573761257404,1.2998191576454157,0.98334887290005,0.28585473479133106,0.7133560991989585
0.07,1.732800440169938,1.0,3171.1550065934143,0.545023843555476,1.2995331285747955,0.983489670065579,0.2858306184871374,0.7139027579279178
