Time [s],Phi [rad],STIM [ ],Fsee [N],Gamma [ ],Lcerel [ ],q [ ],Lmtc [m],fisomrel [ ]
0.0,1.8,1.0,17.967736892187236,1.0020291748088879e-05,1.3793396813837329,0.005000026759612103,0.288653,0.5411396879071686
0.0005,1.79999375,1.0,18.277022128907454,0.005619173394630003,1.3793023569111391,0.012940569680953109,0.2886527375,0.5412299810001748
0.001,1.799975,1.0,21.618624889545647,0.011196863583527323,1.378938277261012,0.0356086802491423,0.28865195,0.5421102743190576
0.0015,1.79994375,1.0,31.069416177405365,0.016743267341370882,1.3780461883788653,0.07060184630970737,0.2886506375,0.5442636462124092
0.002,1.7999,1.0,53.58237309729903,0.02225856015944242,1.3763681326433577,0.11471800361220992,0.2886488,0.5483004742683417
0.0025,1.79984375,1.0,97.11862366464187,0.027742916544934063,1.373935182389609,0.16457485606992897,0.28864643749999996,0.5541214265664853
0.003,1.7997750000000001,1.0,160.95774832263555,0.033196510028669315,1.371214359421069,0.21728041601497255,0.28864354999999997,0.5605864137742518
0.0035,1.79969375,1.0,237.68284716110847,0.03861951316469184,1.3685847491534047,0.27061285062707824,0.2886401375,0.5667898045010261
0.004,1.7996,1.0,321.46626519561875,0.04401209754104832,1.3661561058019733,0.3229157650297133,0.2886362,0.5724799304334633
0.0045000000000000005,1.7994937500000001,1.0,409.2672533974508,0.04937443378497282,1.363922825842264,0.3730344731029402,0.2886317375,0.5776791353028737
0.005,1.799375,1.0,499.4130073875915,0.05470669155397423,1.3618583529033532,0.4202474291323122,0.28862675,0.5824570549555876
0.0055,1.79924375,1.0,590.7899329493443,0.060009039583323834,1.3599388444978688,0.4641736697196681,0.2886212375,0.5868750899921524
0.006,1.7991000000000001,1.0,682.5176324847527,0.06528164562916045,1.3581464233969642,0.5046799368287923,0.2886152,0.5909793986223293
0.006500000000000001,1.79894375,1.0,773.8808733566051,0.0705246765241398,1.35646726018102,0.541800737473781,0.2886086375,0.5948057793974396
0.007,1.798775,1.0,864.2853852230485,0.07573829816101864,1.3548904018773216,0.575676761995625,0.28860155,0.5983826615285497
0.0075,1.79859375,1.0,953.2428876317223,0.08092267550239304,1.3534067842327238,0.6065098991523517,0.2885939375,0.6017335614103477
0.008,1.7984,1.0,1040.3440476686526,0.08607797216292322,1.352008858458246,0.6345321670004217,0.2885858,0.6048780725986052
0.0085,1.79819375,1.0,1125.3140324481533,0.09120435227818387,1.3506892442599086,0.6599844240888907,0.2885771375,0.6078349934962188
0.009000000000000001,1.797975,1.0,1207.9002707398738,0.09630197779661188,1.3494420338186681,0.6831041834407399,0.28856795,0.6106194674766352
0.0095,1.79774375,1.0,1287.892769678082,0.1013710092139706,1.3482621163407544,0.7041174666791105,0.2885582375,0.6132445737304172
0.01,1.7975,1.0,1365.1673796911373,0.10641160702602347,1.347144381032397,0.7232342191694485,0.288548,0.6157231464210265
0.0105,1.79724375,1.0,1439.658819200041,0.11142393121179701,1.346083954898076,0.7406466589176888,0.2885372375,0.6180672709250843
0.011,1.796975,1.0,1511.3215067249769,0.11640814055376522,1.3450765622849823,0.7565291277452098,0.28852595000000003,0.6202875196478914
0.0115,1.79669375,1.0,1580.1206519215796,0.12136439222948534,1.3441184873659042,0.7710386078495148,0.2885141375,0.6223930696843176
0.012,1.7964,1.0,1646.057447755357,0.12629284290196777,1.3432061598427563,0.7843155841424748,0.28850180000000003,0.6243926398150141
0.0125,1.79609375,1.0,1709.1740891781499,0.13119364931959515,1.3423360334785919,0.7964853232204997,0.2884889375,0.626294770988981
0.013000000000000001,1.7957750000000001,1.0,1769.5065138640118,0.13606696639921814,1.3415050732102756,0.8076594911328523,0.28847555,0.6281067760575394
0.0135,1.79544375,1.0,1827.0911187933536,0.14091294762924014,1.3407105996286592,0.8179374668198073,0.2884616375,0.6298350998108402
0.014,1.7951000000000001,1.0,1881.9919483509962,0.1457317464980647,1.3399499333245957,0.8274075325180743,0.2884472,0.6314861059713105
0.0145,1.79474375,1.0,1934.280300718767,0.150523515371405,1.3392205889246516,0.8361481903426803,0.2884322375,0.6330656634235095
0.015,1.794375,1.0,1984.0542442664862,0.15528840728912577,1.3385200306313119,0.84422920414121,0.28841675,0.6345796838691826
0.0155,1.79399375,1.0,2031.373857932621,0.16002657186472136,1.337846336766821,0.8517128367732992,0.2884007375,0.6360326936646677
0.016,1.7936,1.0,2076.3122166694616,0.1647381585357734,1.3371976155230565,0.8586545413489443,0.2883842,0.6374291074157047
0.0165,1.7931937500000001,1.0,2118.9567962018427,0.1694233167398636,1.336571975091896,0.8651037590643148,0.2883671375,0.6387732958633294
0.017,1.792775,1.0,2159.390604271343,0.17408219437288425,1.3359677037720081,0.8711046828661742,0.28834955,0.6400692028767991
0.0175,1.7923437500000001,1.0,2197.72042727658,0.17871494083284148,1.3353829641427821,0.8766967918012599,0.2883314375,0.6413210056211778
0.018000000000000002,1.7919,1.0,2234.0141521056,0.1833217013272416,1.3348164179571445,0.8819155712728759,0.2883128,0.6425317801860548
0.0185,1.79144375,1.0,2268.346301565826,0.18790262092091842,1.334266743269585,0.8867928491543476,0.2882936375,0.6437045419130912
0.019,1.790975,1.0,2300.7989352254,0.19245784467870583,1.3337326181345937,0.8913572152123979,0.28827395,0.6448422818655277
0.0195,1.79049375,1.0,2331.452685662327,0.19698751657323502,1.3332128024649221,0.8956344116633891,0.2882537375,0.6459477942393903
0.02,1.79,1.0,2360.3968680160274,0.20149178158394057,1.3327060308152507,0.899647632036221,0.288233,0.6470239064386525
0.0205,1.78949375,1.0,2387.706666778775,0.20597078234789773,1.332211229651986,0.9034178544618306,0.2882117375,0.6480730194295774
0.021,1.788975,1.0,2413.445174742482,0.21042465922606118,1.3317274876090233,0.9069640790154248,0.28818995000000003,0.6490971746320323
0.021500000000000002,1.78844375,1.0,2437.679426356966,0.21485355257938557,1.3312538933202587,0.9103035100270063,0.2881676375,0.6500983997454423
0.022,1.7879,1.0,2460.48006940523,0.21925760276882547,1.3307895354195882,0.9134517505590417,0.2881448,0.6510787093650925
0.0225,1.78734375,1.0,2481.9151588349305,0.2236369489254368,1.3303335587452894,0.9164229840752969,0.28812143749999997,0.652039987138624
0.023,1.786775,1.0,2502.054847583532,0.2279917310239981,1.3298851159053022,0.9192301157238376,0.28809755,0.6529840889800553
0.0235,1.78619375,1.0,2520.9655737273215,0.2323220882128537,1.3294434196710485,0.9218849141938554,0.28807313749999996,0.6539127335313948
0.024,1.7856,1.0,2538.6982375272037,0.23662815574158153,1.3290078510962355,0.9243981461205796,0.2880482,0.6548272765211649
0.0245,1.78499375,1.0,2555.305613310686,0.24091006885975966,1.32857779123457,0.9267796488073899,0.2880227375,0.6557290660312862
0.025,1.784375,1.0,2570.8421921603767,0.24516796281696604,1.3281526211397594,0.9290384231915213,0.28799675,0.6566194427267396
0.025500000000000002,1.78374375,1.0,2585.3640330970034,0.24940197286277868,1.3277317218655107,0.9311827163793812,0.2879702375,0.6574997400608021
0.026000000000000002,1.7831000000000001,1.0,2598.920106477925,0.25361223210016115,1.3273145537960624,0.9332201069970559,0.2879432,0.658371118856137
0.0265,1.78244375,1.0,2611.564417296897,0.25779887609796553,1.3269005418023423,0.9351575528376974,0.2879156375,0.6592348079379307
0.027,1.781775,1.0,2623.3490196857665,0.2619620390665218,1.3264891393984526,0.9370014580188379,0.28788755,0.6600919702004395
0.0275,1.7810937500000001,1.0,2634.310932089515,0.266101850655119,1.3260799485041448,0.9387577414145823,0.2878589375,0.6609434540291272
0.028,1.7804,1.0,2644.487956190692,0.270218440513046,1.3256725710391706,0.940431860814486,0.2878298,0.6617901035482666
0.0285,1.77969375,1.0,2653.9186093232142,0.2743119382895917,1.3252666089232819,0.9420288548924712,0.2878001375,0.6626327586720306
0.029,1.778975,1.0,2662.642060399288,0.2783824736340451,1.32486166407623,0.9435533808495741,0.28776995,0.6634722551454804
0.029500000000000002,1.7782437500000001,1.0,2670.698069349474,0.2824301761956952,1.324457338417767,0.945009748223555,0.2877392375,0.6643094245754422
0.03,1.7775,1.0,2678.1204460892504,0.2864551731658068,1.32405329336727,0.9464019563953557,0.287708,0.6651449714854147
0.0305,1.77674375,1.0,2684.9478135149907,0.29045759458589404,1.3236491503345251,0.947733710003233,0.2876762375,0.6659796794889667
0.031,1.775975,1.0,2691.2142866195713,0.2944375680161678,1.3232445758809759,0.9490084532546608,0.28764395,0.6668142352153317
0.0315,1.7751937500000001,1.0,2696.9458820685136,0.2983952174571815,1.322839313899849,0.9502293954290999,0.2876111375,0.6676491626297025
0.032,1.7744,1.0,2702.1689048894386,0.3023306669094884,1.3224331082843708,0.9513995218693848,0.2875778,0.6684849830423445
0.0325,1.77359375,1.0,2706.90992104826,0.30624404037364183,1.3220257029277676,0.9525216123503495,0.2875439375,0.6693222150952718
0.033,1.772775,1.0,2711.195731479718,0.310135461850195,1.3216168417232657,0.9535982577293503,0.28750955,0.6701613747447446
0.0335,1.7719437500000002,1.0,2715.053347572252,0.31400505533970136,1.3212062685640913,0.9546318750577294,0.2874746375,0.6710029752395819
0.034,1.7711000000000001,1.0,2718.5077145285272,0.31785294384251667,1.3207937478690155,0.9556247233481612,0.2874392,0.6718474851025208
0.0345,1.7702437500000001,1.0,2721.5810141441343,0.3216792496849876,1.320379070674304,0.956578916628943,0.2874032375,0.6726953159243283
0.035,1.7693750000000001,1.0,2724.2942402094077,0.3254840933314668,1.3199620400637162,0.9574964332047187,0.28736675,0.6735468524179364
0.035500000000000004,1.76849375,1.0,2726.667329183463,0.329267594425367,1.3195424698112763,0.9583791261127412,0.2873297375,0.6744024553154004
0.036000000000000004,1.7676,1.0,2728.720319966171,0.33302987261010114,1.3191201736910085,0.9592287316278884,0.2872922,0.6752624832379482
0.0365,1.76669375,1.0,2730.4787737812517,0.3367710439118418,1.3186949161080213,0.9600468721112848,0.2872541375,0.6761273930067005
0.037,1.7657762882561177,1.0,2732.024362329894,0.3404912269502855,1.3182665342357869,0.9608350780875385,0.28721560410675695,0.6769974910253211
0.0375,1.7648569633246582,1.0,2733.7895249947283,0.3441905497792818,1.3178353205767275,0.9615948336300898,0.2871769924596356,0.6778721587815335
0.038,1.7639376383931988,1.0,2735.8464970193113,0.3478691262603498,1.3174014626643193,0.9623275199843945,0.28713838081251436,0.67875099329895
0.0385,1.7630183134617394,1.0,2738.1749425285852,0.3515270702550089,1.3169651480320386,0.9630344360797559,0.28709976916539304,0.679633593536441
0.039,1.76209898853028,1.0,2740.7545327614107,0.35516449562477814,1.3165265642133612,0.963716804335497,0.28706115751827177,0.6805195604186381
0.0395,1.7611796635988206,1.0,2743.5649362451522,0.3587815162311767,1.3160858987417636,0.964375775997937,0.28702254587115045,0.681408496864195
0.04,1.7602603386673612,1.0,2746.585809750895,0.36237824593572393,1.315643339150722,0.9650124360506712,0.2869839342240292,0.6823000078118057
0.0405,1.7593410137359018,1.0,2749.7967900276485,0.3659547985999389,1.3151990729737129,0.9656278077364051,0.28694532257690786,0.6831937002439797
0.041,1.7584216888044424,1.0,2753.1774863171895,0.36951128808534084,1.3147532877442119,0.9662228567248072,0.2869067109297866,0.6840891832085758
0.0415,1.757502363872983,1.0,2756.7074736473946,0.37304782825344895,1.3143061709956958,0.966798494957482,0.28686809928266527,0.6849860678380881
0.042,1.7565830389415236,1.0,2760.368027545941,0.37656453153639186,1.3138578945285988,0.9673555826392533,0.286829487635544,0.6858839988586574
0.0425,1.7556637140100642,1.0,2764.1526209066915,0.3800615035851326,1.3134085196048086,0.9678949229504945,0.2867908759884227,0.6867828438747522
0.043000000000000003,1.7547443890786047,1.0,2768.035878645571,0.3835388675733525,1.3129582775177149,0.9684172925894573,0.2867522643413014,0.6876821318021205
0.043500000000000004,1.7538250641471453,1.0,2772.0103572433445,0.386996730432163,1.3125072372293853,0.9689234112817073,0.2867136526941801,0.6885817177272215
0.044,1.752905739215686,1.0,2776.0685957408514,0.3904351990926755,1.3120554677018879,0.9694139609522171,0.2866750410470588,0.6894814575170791
0.0445,1.7519864142842265,1.0,2780.203114570686,0.3938543804860015,1.3116030378972907,0.9698895880874064,0.2866364293999375,0.690381207822639
0.045,1.7510670893527671,1.0,2784.406414495516,0.39725438154325254,1.3111500167776615,0.9703509059272606,0.28659781775281623,0.6912808260818271
0.0455,1.7501477644213077,1.0,2788.67097565068,0.40063530919553997,1.3106964733050683,0.9707984965012905,0.2865592061056949,0.692180170522299
0.046,1.7492284394898483,1.0,2792.9892566933536,0.40399727037397526,1.310242476441579,0.9712329125208714,0.28652059445857364,0.6930791001638913
0.0465,1.7483091145583889,1.0,2797.3536940558724,0.4073403720096699,1.3097880951492615,0.9716546791393695,0.2864819828114523,0.6939774748207657
0.047,1.7473897896269295,1.0,2801.756701306145,0.41066472103373525,1.309333398390184,0.9720642955904761,0.28644337116433105,0.6948751551032516
0.0475,1.74647046469547,1.0,2806.1906686116586,0.4139704243772828,1.3088784551264143,0.972462236714247,0.28640475951720973,0.6957720024193867
0.048,1.7455511397640107,1.0,2810.654133064062,0.4172575787874277,1.308423279045866,0.9728489492020219,0.28636614787008846,0.696667987699604
0.0485,1.7446318148325513,1.0,2815.1371969654497,0.42052630135681257,1.307967959290191,0.9732248661702733,0.28632753622296714,0.6975629338349341
0.049,1.7437124899010918,1.0,2819.6369265384533,0.4237766932907726,1.3075125224396744,0.9735903939258304,0.28628892457584587,0.6984567874451172
0.0495,1.7427931649696324,1.0,2824.150758402917,0.42700885501184466,1.307056991680877,0.9739459194046192,0.28625031292872455,0.6993495021042406
0.05,1.7418738400381732,1.0,2828.676120950694,0.4302228869425654,1.30660139020036,0.9742918115798946,0.2862117012816033,0.7002410316556333
0.0505,1.7409545151067136,1.0,2833.2104343030637,0.4334188895054716,1.306145741184684,0.9746284224584668,0.28617308963448196,0.7011313302119915
0.051000000000000004,1.7400351901752544,1.0,2837.7511102807002,0.43659696312310003,1.30569006782041,0.9749560880130833,0.2861344779873607,0.7020203521554629
0.051500000000000004,1.739115865243795,1.0,2842.295552384729,0.43975720821798747,1.3052343932940986,0.9752751290556019,0.28609586634023937,0.7029080521377026
0.052000000000000005,1.7381965403123356,1.0,2846.841155790538,0.4428997252126706,1.3047787407923108,0.9755858520551988,0.2860572546931181,0.7037943850798898
0.0525,1.7372772153808762,1.0,2851.3853073529367,0.4460246145296862,1.3043231335016074,0.9758885499055245,0.2860186430459968,0.704679306172713
0.053,1.7363578904494168,1.0,2855.9253856236096,0.44913197659157106,1.3038675946085492,0.9761835026444117,0.2859800313988755,0.7055627708763215
0.0535,1.7354385655179574,1.0,2860.4628331976137,0.4522218867909218,1.303412111141146,0.9764709733737501,0.2859414197517542,0.7064448048879873
0.054,1.734519240586498,1.0,2864.991977607887,0.45529447328345396,1.3029567332941545,0.9767512230166058,0.2859028081046329,0.7073253117083371
0.0545,1.7335999156550386,1.0,2869.5109776451163,0.45834983773782517,1.3025014771397097,0.9770244966273897,0.2858641964575116,0.7082042612509366
0.055,1.7326805907235792,1.0,2874.0193348621806,0.4613880728251845,1.3020463468057712,0.9772910273102281,0.28582558481039033,0.7090816466240044
0.0555,1.7317612657921198,1.0,2878.516549452166,0.46440927121668085,1.3015913464202982,0.9775510384094738,0.285786973163269,0.709957460983392
0.056,1.7308419408606603,1.0,2883.00212026058,0.4674135255834632,1.3011364801112502,0.9778047439992769,0.28574836151614774,0.7108316975325466
0.0565,1.729922615929201,1.0,2887.4755447969565,0.47040092859668053,1.3006817520065863,0.9780523493447119,0.2857097498690264,0.71170434952248
0.057,1.7290032909977415,1.0,2891.9363192475894,0.47337157292748183,1.3002271662342662,0.9782940513363366,0.28567113822190515,0.7125754102517294
0.0575,1.7280839660662821,1.0,2896.383938488234,0.476325551247016,1.2997727269222492,0.9785300388999134,0.28563252657478383,0.7134448730663221
0.058,1.7271646411348227,1.0,2900.817896097594,0.47926295622643206,1.2993184381984946,0.978760493382904,0.28559391492766256,0.7143127313597385
0.0585,1.7262453162033633,1.0,2905.2376843704055,0.4821838805368789,1.2988643041909618,0.9789855889192282,0.28555530328054124,0.7151789785728708
0.059000000000000004,1.725325991271904,1.0,2909.6427943320527,0.4850884168495056,1.29841032902761,0.9792054927736746,0.28551669163342,0.7160436081939843
0.059500000000000004,1.7244066663404445,1.0,2914.0327157522065,0.48797665783546107,1.2979565168363991,0.9794203656672471,0.28547807998629865,0.7169066137586755
0.06,1.723487341408985,1.0,2918.4069371602945,0.49084869616589427,1.297502871745288,0.9796303620846452,0.2854394683391774,0.7177679888498303
0.0605,1.7225680164775257,1.0,2922.7649458599294,0.4937046245119542,1.297049397882236,0.9798356305649921,0.28540085669205606,0.71862772709758
0.061,1.7216486915460663,1.0,2927.106227944968,0.49654453554478983,1.2965960993752028,0.9800363139768434,0.2853622450449348,0.7194858221792564
0.0615,1.7207293666146068,1.0,2931.4308537229495,0.49936850005246214,1.2961429752175506,0.9802325478196152,0.28532363339781347,0.7203422775168915
0.062,1.7198100416831474,1.0,2935.739040782411,0.5021766074855222,1.2956900231165447,0.9804244638948629,0.2852850217506922,0.7211970989455908
0.0625,1.718890716751688,1.0,2940.029956989228,0.5049689842677677,1.2952372499815223,0.9806121923392949,0.2852464101035709,0.7220502749469009
0.063,1.7179713918202286,1.0,2944.303703077229,0.5077457139209389,1.2947846545392305,0.9807958548363224,0.2852077984564496,0.7229018094648805
0.0635,1.7170520668887692,1.0,2948.5603804133957,0.5105068799667758,1.2943322355164169,0.980975568619816,0.2851691868093283,0.7237517064282797
0.064,1.7161327419573098,1.0,2952.8000909937214,0.5132525659270182,1.293879991639828,0.9811514466697809,0.285130575162207,0.7245999697505567
0.0645,1.7152134170258504,1.0,2957.0229374373234,0.515982855323406,1.2934279216362115,0.9813235978980416,0.2850919635150857,0.7254466033298895
0.065,1.714294092094391,1.0,2961.2290229823043,0.5186978316776796,1.292976024232314,0.9814921273245174,0.28505335186796443,0.7262916110491917
0.0655,1.7133747671629316,1.0,2965.418451480177,0.5213975785115786,1.2925242981548832,0.9816571362446285,0.2850147402208431,0.7271349967761256
0.066,1.7124554422314722,1.0,2969.591327391729,0.5240821793468432,1.292072742130666,0.9818187223883396,0.28497612857372184,0.7279767643631172
0.0665,1.7115361173000128,1.0,2973.747755781451,0.5267517177052133,1.2916213548864095,0.9819769800713157,0.2849375169266005,0.7288169176473687
0.067,1.7106167923685534,1.0,2977.8878423135407,0.5294062771084289,1.291170135148861,0.9821320003386377,0.28489890527947925,0.729655460450874
0.0675,1.709697467437094,1.0,2982.0116932463015,0.53204594107823,1.2907190816447671,0.9822838711014866,0.28486029363235793,0.7304923965804313
0.068,1.7087781425056345,1.0,2986.1194154282875,0.5346707931363567,1.2902681931008757,0.982432677267196,0.28482168198523666,0.7313277298276555
0.0685,1.7078588175741751,1.0,2990.2111162928736,0.5372809168045487,1.2898174682439336,0.9825785008630301,0.28478307033811534,0.7321614639689941
0.069,1.7069394926427157,1.0,2994.2869038542362,0.5398763956045463,1.289366905800688,0.9827214211540402,0.2847444586909941,0.732993602765739
0.0695,1.7060201677112563,1.0,2998.3468867022675,0.5424573130580893,1.2889165044978859,0.9828615147553124,0.28470584704387275,0.7338241499640406
0.07,1.705100842779797,1.0,3002.3911739983546,0.5450237526869177,1.2884662630622747,0.9829988557389183,0.2846672353967515,0.7346531092949187
0.07050000000000001,1.7041815178483375,1.0,3006.41987547057,0.5475757980127716,1.2880161802206012,0.9831335157358462,0.28462862374963016,0.7354804844742799
0.07100000000000001,1.703262192916878,1.0,3010.433101409524,0.5501135325573909,1.287566254699613,0.9832655640331863,0.2845900121025089,0.7363062792029251
0.07150000000000001,1.7023428679854187,1.0,3014.430826455453,0.5526369979011425,1.2871164864041713,0.9833950652502762,0.28455140045538757,0.7371304950093218
