Time [s],Phi [rad],STIM [ ],Fsee [N],Gamma [ ],Lcerel [ ],q [ ],Lmtc [m],fisomrel [ ]
0.0,1.8,1.0,19.687881716156383,0.0013397453300406884,1.3791513746426682,0.005459808554143869,0.288653,0.5415951374571909
0.0005,1.79999375,1.0,20.373115728619297,0.006941439726996154,1.379075841702347,0.017039932923828965,0.2886527375,0.5417777622374272
0.001,1.799975,1.0,24.708927214215773,0.012511713048357515,1.3786331889084356,0.04286917284090626,0.28865195,0.542847283982873
0.0015,1.79994375,1.0,36.47030375579302,0.018050741539171397,1.3776044797716371,0.08032069874931641,0.2886506375,0.5453279874247172
0.002,1.7999,1.0,63.45217445571413,0.02355870046063862,1.3757548779699338,0.12608752263188058,0.2886488,0.5497712744955363
0.0025,1.79984375,1.0,112.2349525851696,0.029035764087585132,1.3732330935039725,0.17685462298869573,0.28864643749999996,0.5557941897750477
0.003,1.7997750000000001,1.0,179.71709351668505,0.034482105718343745,1.3705315259292417,0.22989013684575166,0.28864354999999997,0.5622014932798078
0.0035,1.79969375,1.0,258.3910451617041,0.03989789767907183,1.3679602006674714,0.2831131078294862,0.2886401375,0.5682566668518948
0.004,1.7996,1.0,343.2179648391295,0.0452833113290641,1.3655894151533592,0.3349898782979026,0.2886362,0.5738022306371964
0.0045000000000000005,1.7994937500000001,1.0,431.6062116938356,0.05063851706986872,1.3634054117016452,0.38447545889272816,0.2886317375,0.5788791669195081
0.005,1.799375,1.0,522.0485196781854,0.055963684277298406,1.3613826800574917,0.4309377656348674,0.28862675,0.5835540770231651
0.0055,1.79924375,1.0,613.5371641202146,0.06125898164853549,1.3594986160964662,0.4740620153790457,0.2886212375,0.5878850287778241
0.006,1.7991000000000001,1.0,705.1953319180359,0.06652457649986104,1.357737571471889,0.5137616914651286,0.2886152,0.5919127230784286
0.006500000000000001,1.79894375,1.0,796.3470366504326,0.07176063551004257,1.3560864916446593,0.5501012200789878,0.2886086375,0.5956709517480803
0.007,1.798775,1.0,886.4293669232661,0.07696732440855845,1.3545349677867344,0.5832392266605535,0.28860155,0.5991867239045254
0.0075,1.79859375,1.0,974.9638582779372,0.08214480780194784,1.353074575002574,0.6133872287957709,0.2885939375,0.6024819658378562
0.008,1.7984,1.0,1061.592248977492,0.08729324981740696,1.3516976006026589,0.640780734051485,0.2885858,0.6055765233747852
0.0085,1.79819375,1.0,1146.0014334308348,0.09241281298526877,1.350397720415214,0.6656611729948994,0.2885771375,0.6084867268106554
0.009000000000000001,1.797975,1.0,1227.9645200931668,0.09750365930067999,1.3491690088369064,0.688263753154226,0.28856795,0.6112276889918763
0.0095,1.79774375,1.0,1307.3351601758695,0.10256595038622611,1.3480058052899238,0.7088106729303965,0.2885582375,0.6138136463154071
0.01,1.7975,1.0,1383.976890659636,0.10759984587015303,1.3469034550403653,0.7275080194189962,0.288548,0.61625635485031
0.0105,1.79724375,1.0,1457.8082875617513,0.11260550496977442,1.3458575117641116,0.7445439245446768,0.2885372375,0.6185669054730147
0.011,1.796975,1.0,1528.8002112249994,0.11758308630393352,1.344863666077733,0.760088468651076,0.28852595000000003,0.6207559050364344
0.0115,1.79669375,1.0,1596.944630854808,0.12253274777399704,1.3439180311422005,0.7742945379700177,0.2885141375,0.6228328694364553
0.012,1.7964,1.0,1662.2313042160665,0.1274546452629511,1.343017310466922,0.7872990249361586,0.28850180000000003,0.6248058823980842
0.0125,1.79609375,1.0,1724.6882442823,0.1323489345197381,1.3421582300328678,0.7992239164461026,0.2884889375,0.6266828623111451
0.013000000000000001,1.7957750000000001,1.0,1784.3676701588324,0.1372157705506888,1.3413376541489808,0.8101777699040212,0.28847555,0.6284713197068584
0.0135,1.79544375,1.0,1841.3388254278925,0.14205530847053807,1.3405526174698363,0.8202571195398056,0.2884616375,0.6301782995358525
0.014,1.7951000000000001,1.0,1895.6437407921287,0.1468677001980885,1.3398007629002242,0.8295479427652616,0.2884472,0.6318094436620715
0.0145,1.79474375,1.0,1947.347364216884,0.15165309765214258,1.3390797333449347,0.8381266288071393,0.2884322375,0.6333703266413521
0.015,1.794375,1.0,1996.5331834722913,0.15641165254769168,1.338387197321267,0.8460610977774626,0.28841675,0.6348664052584754
0.0155,1.79399375,1.0,2043.286607781843,0.16114351556366907,1.3377210026949165,0.8534118433835414,0.2884007375,0.6363026924066972
0.016,1.7936,1.0,2087.704189931225,0.1658488378803439,1.3370790535212977,0.860232770669413,0.2883842,0.6376840295828639
0.0165,1.7931937500000001,1.0,2129.8506517995183,0.1705277669707856,1.3364597342741482,0.8665720985231841,0.2883671375,0.6390141811612551
0.017,1.792775,1.0,2169.802485960677,0.17518045030806356,1.335861429427205,0.8724728892886745,0.28834955,0.6402968757114622
0.0175,1.7923437500000001,1.0,2207.6469718407075,0.17980703536524725,1.3352825234542058,0.8779736577005386,0.2883314375,0.6415358082467473
0.018000000000000002,1.7919,1.0,2243.468377985254,0.1844076682695352,1.3347215298808395,0.8831089382888626,0.2883128,0.6427343668183364
0.0185,1.79144375,1.0,2277.3647675696084,0.18898249662870137,1.3341769105912842,0.887909703325107,0.2882936375,0.6438960217718905
0.019,1.790975,1.0,2309.410326161961,0.19353166456149817,1.333647442465959,0.8924038623922479,0.28827395,0.6450235463518004
0.0195,1.79049375,1.0,2339.6739601186428,0.19805531483892624,1.3331320174388033,0.8966165623496255,0.2882537375,0.6461194482052068
0.02,1.79,1.0,2368.2301828368572,0.2025535902319863,1.3326295274437563,0.9005704730662433,0.288233,0.6471862164303042
0.0205,1.78949375,1.0,2395.158644674157,0.20702663351167896,1.3321388644147578,0.9042860648430275,0.2882117375,0.6482263225295763
0.021,1.788975,1.0,2420.5307069176924,0.2114745855640703,1.3316590456034318,0.9077818779122047,0.28818995000000003,0.649241956216265
0.021500000000000002,1.78844375,1.0,2444.432479391783,0.2158975898853998,1.3311889852383922,0.9110746870612924,0.2881676375,0.6502355103850894
0.022,1.7879,1.0,2466.9268491948146,0.22029578571539313,1.330727856594815,0.9141797627573183,0.2881448,0.6512088165567584
0.0225,1.78734375,1.0,2488.070637142498,0.22466931083709388,1.3302749197270476,0.9171109968357622,0.28812143749999997,0.6521635121150902
0.023,1.786775,1.0,2507.9233079491846,0.22901830303354556,1.3298294346894368,0.9198810310008139,0.28809755,0.6531012245294852
0.0235,1.78619375,1.0,2526.54674929273,0.23334290008779174,1.3293906615363298,0.9225013866184517,0.28807313749999996,0.6540235717240404
0.024,1.7856,1.0,2544.002918146138,0.23764323935170642,1.3289578805164322,0.9249825829152877,0.2880482,0.654932120045079
0.0245,1.78499375,1.0,2560.3449571522074,0.24191945607491327,1.328530473277652,0.9273342516004152,0.2880227375,0.6558282146937564
0.025,1.784375,1.0,2575.6471848965493,0.246171689449724,1.3281076390509834,0.929565179062,0.28799675,0.6567135752435893
0.025500000000000002,1.78374375,1.0,2589.9520763542955,0.25040007194890873,1.327688890543277,0.9316834681937239,0.2879702375,0.6575892570615949
0.026000000000000002,1.7831000000000001,1.0,2603.303335540237,0.25460473604523753,1.3272737404613841,0.9336965552311657,0.2879432,0.6584563099630567
0.0265,1.78244375,1.0,2615.745793008298,0.25878581421148045,1.3268617015121558,0.9356112735851189,0.2879156375,0.659315778330926
0.027,1.781775,1.0,2627.3253086162763,0.2629434389204077,1.3264522864024428,0.937433910785131,0.28788755,0.6601687012200812
0.0275,1.7810937500000001,1.0,2638.0886795547726,0.2670777426447894,1.3260450078390966,0.9391702593508804,0.2878589375,0.6610161124464395
0.028,1.7804,1.0,2648.075257984793,0.2711888541728299,1.3256394550838022,0.9408256720332591,0.2878298,0.6618588816732283
0.0285,1.77969375,1.0,2657.337118794382,0.27527690865786303,1.3252351067453902,0.9424050786486576,0.2878001375,0.6626981037637584
0.029,1.778975,1.0,2665.9077068974393,0.27934203408552927,1.324831619432793,0.943913059387674,0.28776995,0.6635344994153992
0.029500000000000002,1.7782437500000001,1.0,2673.818487102383,0.2833843573758,1.3244286728253816,0.9453538562951918,0.2877392375,0.6643687380381427
0.03,1.7775,1.0,2681.1013942878803,0.28740400544864664,1.3240259466025281,0.9467314000050631,0.287708,0.665201485740866
0.0305,1.77674375,1.0,2687.788790608813,0.2914011052240408,1.3236231204436046,0.9480493365463865,0.2876762375,0.6660334053391077
0.031,1.775975,1.0,2693.9134249765193,0.2953757836219538,1.3232198740279826,0.9493110515259852,0.28764395,0.6668651563562981
0.0315,1.7751937500000001,1.0,2699.508394814074,0.29932816756235725,1.322815887035034,0.9505196919723452,0.2876111375,0.6676973950184446
0.032,1.7744,1.0,2704.608135427558,0.3032583821626582,1.322410829781375,0.9516781844105343,0.2875778,0.6685307934938942
0.0325,1.77359375,1.0,2709.233716033561,0.30716655213301,1.3220044971058795,0.9527892692919132,0.2875439375,0.669365764807365
0.033,1.772775,1.0,2713.4105912126624,0.3110528002094909,1.321596645763371,0.9538554962868296,0.28750955,0.6702027979392502
0.0335,1.7719437500000002,1.0,2717.16448966413,0.31491724910605917,1.3211870318336119,0.9548792444591262,0.2874746375,0.6710423806821251
0.034,1.7711000000000001,1.0,2720.5197472597692,0.31876002004693194,1.320775425703631,0.9558627369919545,0.2874392,0.671884968956168
0.0345,1.7702441525137982,1.0,2723.5201006888674,0.3225812350988173,1.3203616044097843,0.956808053069614,0.2874032544055795,0.6727310026147604
0.035,1.7693848247125556,1.0,2726.590741724053,0.3263810198145994,1.3199455871666743,0.9577171648049898,0.28736716263792733,0.6735804249125383
0.035500000000000004,1.768525496911313,1.0,2729.885023042748,0.33015949214289125,1.319527552944444,0.9585919334264683,0.28733107087027515,0.6744328536649733
0.036000000000000004,1.7676661691100704,1.0,2733.3836429176786,0.3339167700323063,1.3191076807132365,0.9594341027233458,0.28729497910262297,0.6752879085134539
0.0365,1.7668068413088278,1.0,2737.0672731659733,0.33765297143145767,1.3186861494431954,0.9602453077941272,0.28725888733497074,0.6761452109472874
0.037,1.7659475135075853,1.0,2740.9165522113526,0.34136821428895875,1.3182631381044638,0.9610270830496586,0.28722279556731856,0.6770043843236575
0.0375,1.7650881857063425,1.0,2744.912078855779,0.3450626165534227,1.3178388256671851,0.9617808695420735,0.2871867037996664,0.677865053885538
0.038,1.7642288579051,1.0,2749.034406761735,0.3487362961734628,1.3174133911015022,0.9625080216831137,0.2871506120320142,0.6787268467775662
0.0385,1.7633695301038574,1.0,2753.2677149248666,0.35238936912200225,1.3169869801151415,0.9632098098876284,0.287114520264362,0.679589459303198
0.039,1.7625102023026147,1.0,2757.5969660019373,0.35602195281016646,1.3165597309446184,0.9638874296091565,0.28707842849670984,0.6804526044141288
0.0395,1.7616508745013721,1.0,2762.01095736676,0.35963416162198525,1.3161317467894367,0.964542003196875,0.28704233672905766,0.6813160671934295
0.04,1.7607915467001296,1.0,2766.5003079610583,0.3632261086198929,1.3157031141088076,0.9651745869572259,0.2870062449614054,0.6821796675446468
0.0405,1.7599322188988868,1.0,2771.0556086974234,0.3667979068663239,1.3152739193619425,0.9657861773853789,0.28697015319375324,0.6830432263079063
0.041,1.7590728910976443,1.0,2775.667421298637,0.37034966942371267,1.3148442490080534,0.966377715183169,0.28693406142610106,0.683906565263249
0.0415,1.7582135632964018,1.0,2780.3262773034658,0.37388150935449355,1.3144141895063517,0.966950088966992,0.2868979696584489,0.6847695071334948
0.042,1.757354235495159,1.0,2785.0296691280696,0.377393530052371,1.3139837643991439,0.9675041318325953,0.28686187789079665,0.6856320015744353
0.0425,1.7564949076939165,1.0,2789.7609956778,0.38088585728171337,1.3135531238709959,0.9680406459030086,0.28682578612314447,0.686493745251084
0.043000000000000003,1.7556355798926737,1.0,2794.515021260472,0.38435860060759036,1.3131223155032739,0.9685603793226982,0.2867896943554923,0.6873546413707533
0.043500000000000004,1.7547762520914312,1.0,2799.288173268682,0.3878118671561067,1.3126913717903776,0.9690640390531532,0.2867536025878401,0.6882146237495275
0.044,1.7539169242901886,1.0,2804.0768668872984,0.3912457640533672,1.3122603252267073,0.9695522950529755,0.2867175108201879,0.6890736265603028
0.0445,1.7530575964889459,1.0,2808.8775050076247,0.3946603984254767,1.3118292083066627,0.9700257825821464,0.28668141905253575,0.6899315843330356
0.045,1.7521982686877033,1.0,2813.686478164974,0.39805587739853987,1.311398053524644,0.9704851043410102,0.28664532728488357,0.6907884319549203
0.0455,1.7513389408864608,1.0,2818.5001644997146,0.4014323080986616,1.3109668933750507,0.9709308324573326,0.28660923551723133,0.6916441046705034
0.046,1.750479613085218,1.0,2823.314929741938,0.4047897976519465,1.310535760352283,0.971363510333599,0.28657314374957915,0.6924985380817268
0.0465,1.7496202852839755,1.0,2828.1271272186577,0.4081284531844995,1.3101046869507407,0.9717836543656294,0.28653705198192697,0.6933516681479055
0.047,1.748760957482733,1.0,2832.93309788576,0.4114483818224252,1.309673705664824,0.9721917555426199,0.2865009602142748,0.6942034311856377
0.0475,1.7479016296814902,1.0,2837.7315193446207,0.414749680080615,1.309242828048874,0.9725882780912877,0.28646486844662256,0.6950538051668833
0.048,1.7470423018802477,1.0,2842.5201803160644,0.41803245528169286,1.3088120735361017,0.9729736658147432,0.2864287766789704,0.6959027526732566
0.0485,1.7461829740790051,1.0,2847.293938837017,0.42129682891333625,1.3083814875770288,0.9733483448607352,0.2863926849113182,0.6967501853309275
0.049,1.7453236462777624,1.0,2852.052153377819,0.42454290026989944,1.3079510754525399,0.973712715745911,0.286356593143666,0.6975960941569647
0.0495,1.7444643184765198,1.0,2856.794180623179,0.42777076864573665,1.30752084244352,0.974067160270917,0.28632050137601384,0.6984404702258536
0.05,1.7436049906752773,1.0,2861.5193754930337,0.43098053333520225,1.307090793830855,0.9744120425646384,0.28628440960836166,0.6992833046694368
0.0505,1.7427456628740345,1.0,2866.2270911638966,0.4341722936326505,1.3066609348954294,0.9747477100611223,0.2862483178407095,0.7001245886768532
0.051000000000000004,1.741886335072792,1.0,2870.9166790906247,0.4373461488324355,1.306231270918129,0.9750744944140793,0.28621222607305724,0.7009643134944754
0.051500000000000004,1.7410270072715495,1.0,2875.587489029205,0.4405021982289117,1.3058018071798385,0.9753927123534814,0.28617613430540506,0.7018024704258445
0.052000000000000005,1.7401676794703067,1.0,2880.238869059483,0.4436405411164333,1.3053725489614434,0.9757026664883909,0.2861400425377529,0.7026390508316036
0.0525,1.7393083516690642,1.0,2884.8701656091234,0.4467612767893545,1.3049435015438287,0.9760046460598474,0.2861039507701007,0.7034740461294291
0.053,1.7384490238678216,1.0,2889.480723478048,0.4498645045420297,1.3045146702078796,0.9762989276473173,0.2860678590024485,0.7043074477939615
0.0535,1.7375896960665789,1.0,2894.0698858632895,0.4529503236688131,1.3040860602344813,0.9765857758319535,0.2860317672347963,0.7051392473567328
0.054,1.7367303682653363,1.0,2898.6369943848417,0.45601883346405897,1.303657676904519,0.9768654438196486,0.2859956754671441,0.7059694364060931
0.0545,1.7358710404640938,1.0,2903.1813891115116,0.45907013322212153,1.303229525498878,0.9771381740266414,0.2859595836994919,0.7067980065871344
0.055,1.735011712662851,1.0,2907.7033830261944,0.4621042975244738,1.302801602716876,0.9774041957703381,0.28592349193183975,0.7076249661737601
0.0555,1.7341523848616085,1.0,2912.202797051819,0.4651214367765073,1.3023739096012488,0.9776637324396771,0.28588740016418757,0.7084503150269639
0.056,1.7332930570603657,1.0,2916.678889846996,0.4681216704335091,1.301946452138644,0.9779169992382537,0.2858513083965354,0.709274043497722
0.0565,1.7324337292591232,1.0,2921.1318522359265,0.4711050887160262,1.3015192281101369,0.9781641993523853,0.28581521662888315,0.710096157780189
0.057,1.7315744014578807,1.0,2925.561876178077,0.47407178184460563,1.3010922352968024,0.9784055277026903,0.28577912486123097,0.7109166640432876
0.0575,1.730715073656638,1.0,2929.9691547561674,0.4770218400397945,1.300665471479716,0.978641171347145,0.2857430330935788,0.7117355684307403
0.058,1.7298557458553954,1.0,2934.35388216523,0.47995535352213975,1.3002389344399525,0.9788713098613651,0.2857069413259266,0.7125528770611029
0.0585,1.7289964180541528,1.0,2938.716253701429,0.48287241251218843,1.2998126219585875,0.9790961156975689,0.28567084955827443,0.7133685960277969
0.059000000000000004,1.72813709025291,1.0,2943.056465750584,0.48577310723048756,1.2993865318166962,0.9793157545235762,0.2856347577906222,0.7141827313991402
0.059500000000000004,1.7272777624516675,1.0,2947.3747157778926,0.48865752789758427,1.2989606617953533,0.979530385543102,0.28559866602297,0.7149952892183813
0.06,1.726418434650425,1.0,2951.671202316266,0.4915257647340254,1.2985350096756345,0.9797401617985173,0.28556257425531784,0.7158062755037271
0.0605,1.7255591068491822,1.0,2955.9461249559904,0.4943779079603582,1.2981095732386148,0.9799452304571611,0.28552648248766566,0.716615696248377
0.061,1.7246997790479397,1.0,2960.199684333932,0.4972140477971295,1.2976843502653692,0.9801457330822234,0.2854903907200135,0.7174235574205516
0.0615,1.7238404512466972,1.0,2964.432082123081,0.5000342744648865,1.2972593385369733,0.9803418058891349,0.2854542989523613,0.7182298649635239
0.062,1.7229811234454544,1.0,2968.6435210219292,0.5028386781841762,1.296834535834502,0.9805335799883516,0.2854182071847091,0.7190346247956498
0.0625,1.7221217956442119,1.0,2972.8342047442766,0.5056273491755454,1.2964099399390305,0.9807211816153457,0.2853821154170569,0.7198378428103964
0.063,1.7212624678429693,1.0,2977.004338009133,0.5084003776595415,1.295985548631634,0.9809047323485736,0.2853460236494047,0.7206395248763731
0.0635,1.7204031400417266,1.0,2981.1541265302594,0.5111578538567112,1.2955613596933877,0.9810843493161314,0.2853099318817525,0.7214396768373594
0.064,1.719543812240484,1.0,2985.2837770062924,0.5138998679876018,1.2951373709053668,0.9812601453917659,0.28527384011410034,0.722238304512334
0.0645,1.7186844844392413,1.0,2989.3930779458315,0.5166264279310453,1.294713583689313,0.9814322237739591,0.2852377483464481,0.7230354068526857
0.065,1.7178251566379987,1.0,2993.4831493255156,0.519337723985032,1.2942899879088061,0.9816006961636702,0.2852016565787959,0.7238310045173302
0.0655,1.7169658288367562,1.0,2997.5542331462875,0.5220338369306622,1.2938665810725918,0.9817656630403477,0.28516556481114375,0.7246251037267406
0.066,1.7161065010355134,1.0,3001.6065669727095,0.5247148467631841,1.2934433607367117,0.9819272213064119,0.28512947304349157,0.7254177105852808
0.0665,1.715247173234271,1.0,3005.64038936444,0.527380833477846,1.2930203244572063,0.9820854644897264,0.2850933812758394,0.7262088311702601
0.067,1.7143878454330284,1.0,3009.6559398659924,0.530031877069896,1.2925974697901166,0.9822404828850997,0.2850572895081872,0.7269984715319573
0.0675,1.7135285176317856,1.0,3013.6534589968915,0.5326680575345819,1.2921747942914836,0.9823923636888942,0.285021197740535,0.7277866376936519
0.068,1.712669189830543,1.0,3017.6331882418,0.5352894548671522,1.2917522955173484,0.982541191127124,0.2849851059728828,0.7285733356516513
0.0685,1.7118098620293005,1.0,3021.595370041321,0.5378961490628549,1.2913299710237514,0.9826870465773988,0.2849490142052306,0.7293585713753195
0.069,1.7109505342280578,1.0,3025.540247781733,0.540488220116938,1.290907818366734,0.9828300086850514,0.28491292243757843,0.7301423508071024
0.0695,1.7100912064268152,1.0,3029.4680657862978,0.5430657480246497,1.2904858351023367,0.9829701534737634,0.28487683066992625,0.7309246798625575
0.07,1.7092318786255727,1.0,3033.3790693055716,0.5456288127812382,1.2900640187866008,0.9831075544509859,0.284840738902274,0.7317055644303778
0.07050000000000001,1.70837255082433,1.0,3037.273504508601,0.5481774943819516,1.289642366975567,0.9832422827084325,0.28480464713462184,0.7324850103724202
0.07100000000000001,1.7075132230230874,1.0,3041.151618473734,0.5507118728220379,1.2892208772252762,0.9833744070179083,0.28476855536696966,0.7332630235237299
0.07150000000000001,1.7066538952218449,1.0,3045.013659179915,0.5532320280967454,1.2887995470917692,0.9835039939227187,0.2847324635993175,0.7340396096925668
