Time [s],Phi [rad],STIM [ ],Fsee [N],Gamma [ ],Lcerel [ ],q [ ],Lmtc [m],fisomrel [ ]
0.0,1.8,1.0,17.983806086920662,0.00013219616737459496,1.379337881527844,0.0050045636466756775,0.288653,0.5411440422129061
0.0005,1.79999375,1.0,18.333441369956176,0.00574066396024457,1.379296094708297,0.013283235838995478,0.2886527375,0.5412451292698806
0.001,1.799975,1.0,21.76588218998748,0.011317672683133308,1.3789232627047314,0.036248174109658304,0.28865195,0.5421465592512791
0.0015,1.79994375,1.0,31.41151340442287,0.016863398797494683,1.3780171227438254,0.07147538293842184,0.2886506375,0.5443337210219377
0.002,1.7999,1.0,54.31278213701385,0.022378017772984832,1.3763209078538146,0.1157513795514588,0.2886488,0.5484138211482169
0.0025,1.79984375,1.0,98.34041011814217,0.027861704095793513,1.3738764913328978,0.1656983571047805,0.28864643749999996,0.5542613814687551
0.003,1.7997750000000001,1.0,162.54351991087626,0.03331463127527248,1.3711551478861859,0.21843902552363073,0.28864354999999997,0.5607265822627026
0.0035,1.79969375,1.0,239.47237465767284,0.03873697184442656,1.368529730282341,0.2717649106595914,0.2886401375,0.566919125950335
0.004,1.7996,1.0,323.36882561806453,0.04412889737042302,1.366105788542973,0.3240310592807012,0.2886362,0.5725974221789794
0.0045000000000000005,1.7994937500000001,1.0,411.2364852387579,0.04949057845985999,1.3638766559080324,0.37409303132682437,0.2886317375,0.5777862859859292
0.005,1.799375,1.0,501.4216758210692,0.05482218475048884,1.3618157116780598,0.4212376882474522,0.28862675,0.582555455302612
0.0055,1.79924375,1.0,592.8156642186708,0.06012388495205315,1.3598993004738043,0.4650904322460958,0.2886212375,0.5869658594338851
0.006,1.7991000000000001,1.0,684.5446496180991,0.06539584680547456,1.358109604924679,0.5055224000435323,0.2886152,0.5910634912649564
0.006500000000000001,1.79894375,1.0,775.8953477736313,0.07063823711125757,1.3564328941223254,0.5425710080894358,0.2886086375,0.5948839030216301
0.007,1.798775,1.0,866.2775618997364,0.07585122178483544,1.3548582403548945,0.5763786822386376,0.28860155,0.598455450421645
0.0075,1.79859375,1.0,955.198075086624,0.08103496564932192,1.3533767268286307,0.6071483212192202,0.2885939375,0.6018013040047299
0.008,1.7984,1.0,1042.275365236179,0.08618963289672499,1.3519804366858441,0.6351120978775554,0.2885858,0.6049418756072784
0.0085,1.79819375,1.0,1127.1921786343084,0.09131538662974571,1.3506626676973723,0.660511299551071,0.2885771375,0.6078944307505174
0.009000000000000001,1.797975,1.0,1209.6995805202891,0.09641238874177932,1.3494174575392268,0.6835831973326719,0.28856795,0.6106742358635926
0.0095,1.79774375,1.0,1289.6284141642877,0.10148080051634879,1.3482391568605345,0.7045531939510629,0.2885582375,0.6132955664192092
0.01,1.7975,1.0,1366.868482539852,0.10652078312021392,1.3471225240717222,0.7236308108542279,0.288548,0.6157715347004996
0.0105,1.79724375,1.0,1441.3098371627934,0.11153249518140844,1.346063297057316,0.7410081953540102,0.2885372375,0.618112864891007
0.011,1.796975,1.0,1512.902024153165,0.11651609519556087,1.3450572606216713,0.7568593151976946,0.28852595000000003,0.6203299964676914
0.0115,1.79669375,1.0,1581.6300655142811,0.12147174092057031,1.3441004593956842,0.7713406586296039,0.2885141375,0.6224326334300991
0.012,1.7964,1.0,1647.5214753975677,0.12639959019003932,1.3431890274656229,0.7845922390181751,0.28850180000000003,0.6244301384795917
0.0125,1.79609375,1.0,1710.581719911343,0.13129979805006836,1.3423198678134893,0.7967392094512722,0.2884889375,0.6263300640948827
0.013000000000000001,1.7957750000000001,1.0,1770.8426649122655,0.13617251916540257,1.3414899920452787,0.8078929627453989,0.28847555,0.628139621597307
0.0135,1.79544375,1.0,1828.3634973618325,0.14101790786373594,1.3406964661837732,0.818152517697524,0.2884616375,0.6298658097254115
0.014,1.7951000000000001,1.0,1883.2178871216274,0.14583611816836722,1.3399365156711895,0.8276058996402628,0.2884472,0.6315151955144487
0.0145,1.79474375,1.0,1935.4732532741782,0.150627302688635,1.3392077098725839,0.8363314376437457,0.2884322375,0.6330935253922098
0.015,1.794375,1.0,1985.190465654773,0.15539161209743485,1.338507918755666,0.8443988579897571,0.28841675,0.6346058320781485
0.0155,1.79399375,1.0,2032.4487954282947,0.16012919706766238,1.3378350122881453,0.8518701883840049,0.2884007375,0.6360570933426937
0.016,1.7936,1.0,2077.332665977686,0.16484020732317992,1.3371869819521107,0.8588007045550848,0.2883842,0.6374519744962595
0.0165,1.7931937500000001,1.0,2119.9407999135674,0.16952479355925631,1.3365618249373943,0.8652396955739051,0.2883671375,0.638795082891616
0.017,1.792775,1.0,2160.3513027761433,0.17418310367244685,1.3359578871833437,0.8712312689942504,0.28834955,0.6400902360947185
0.0175,1.7923437500000001,1.0,2198.6355669064096,0.1788152839417576,1.3353736949201158,0.8768149109427588,0.2883314375,0.6413408314911642
0.018000000000000002,1.7919,1.0,2234.8745334999476,0.18342148064619465,1.334807774377867,0.8820259793332622,0.2883128,0.6425502366586074
0.0185,1.79144375,1.0,2269.157887027594,0.1880018400647641,1.3342586517867545,0.8868961859386955,0.2882936375,0.6437217911533839
0.019,1.790975,1.0,2301.56367923855,0.19255650646288,1.3337250475738829,0.891454065843772,0.28827395,0.6448583948399542
0.0195,1.79049375,1.0,2332.190315794715,0.19708562667034735,1.3332055484511185,0.8957252633257408,0.2882537375,0.6459632094432057
0.02,1.79,1.0,2361.10326920429,0.2015893424924652,1.332699126608392,0.8997329775304275,0.288233,0.6470385559758072
0.0205,1.78949375,1.0,2388.3705966444145,0.20606779543531054,1.3322047777329322,0.9034981539141052,0.2882117375,0.6480866889394551
0.021,1.788975,1.0,2414.064891266775,0.21052112700496017,1.3317214975119667,0.9070397291398495,0.28818995000000003,0.6491098472207216
0.021500000000000002,1.78844375,1.0,2438.2628988468687,0.2149494787074911,1.3312482816327238,0.9103748513002655,0.2881676375,0.6501102548321674
0.022,1.7879,1.0,2461.016925542822,0.21935298965972855,1.330784396028265,0.9135191279078674,0.2881448,0.6510895514802804
0.0225,1.787343866365425,1.0,2482.442316946227,0.22373180261124495,1.3303285865787995,0.916486633284554,0.2881214423873478,0.6520504620180247
0.023,1.786783071984265,1.0,2502.9310327069156,0.22808605481235483,1.3298804437406602,0.9192903350252619,0.2880978890233391,0.6529939184868149
0.0235,1.786222277603105,1.0,2522.724565535062,0.2324158827032756,1.3294396692845973,0.9219420663651506,0.2880743356593304,0.6539206132068085
0.024,1.785661483221945,1.0,2541.84538719498,0.2367214227242246,1.3290059649813613,0.924452622007501,0.28805078229532166,0.654831234077434
0.0245,1.785100688840785,1.0,2560.316788732463,0.24100281131541929,1.3285790326017022,0.9268318635202936,0.28802722893131294,0.6557264647146988
0.025,1.784539894459625,1.0,2578.162689795976,0.24526018479121406,1.3281585752717049,0.9290888129364266,0.2880036755673042,0.6566069817463163
0.025500000000000002,1.7839791000784648,1.0,2595.404808612968,0.2494936778892775,1.3277443234220387,0.9312317393164,0.2879801222032955,0.6574734007162949
0.026000000000000002,1.7834183056973048,1.0,2612.065073445135,0.2537034255251772,1.3273360115583224,0.9332682290947109,0.2879565688392868,0.6583263250544957
0.0265,1.7828575113161447,1.0,2628.163243787453,0.2578895596995132,1.3269333998978279,0.9352052536766446,0.28793301547527805,0.6591663011200477
0.027,1.7822967169349846,1.0,2643.71961904222,0.2620522124128858,1.3265362486578274,0.9370492250910086,0.28790946211126933,0.6599938721698774
0.0275,1.7817359225538245,1.0,2658.755008852006,0.26619151566589494,1.3261443180555932,0.9388060483276401,0.2878859087472606,0.6608095784440435
0.028,1.7811751281726647,1.0,2673.2781245448195,0.270307589263443,1.3257574838533706,0.9404811801628875,0.2878623553832519,0.6616137171987277
0.0285,1.7806143337915046,1.0,2687.3276134827465,0.27440058151353497,1.3253753505354589,0.9420796304190518,0.28783880201924317,0.6624071468875232
0.029,1.7800535394103445,1.0,2700.9230199891426,0.27847062287930513,1.324997702693544,0.9436060479154755,0.28781524865523445,0.6631903483543329
0.029500000000000002,1.7794927450291844,1.0,2714.078715461452,0.28251783859060114,1.324624375498506,0.945064739280677,0.2877916952912257,0.6639636952557555
0.03,1.7789319506480243,1.0,2726.8093741964008,0.28654235387727095,1.3242552041212248,0.9464596939620329,0.287768141927217,0.6647275593121903
0.0305,1.7783711562668643,1.0,2739.129957901268,0.2905442939691624,1.3238900237325795,0.9477946116210515,0.2877445885632083,0.6654823103523888
0.031,1.7778103618857042,1.0,2751.0557008077208,0.29452378409612334,1.32352866950345,0.9490729268394491,0.28772103519919956,0.6662283163562737
0.0315,1.777249567504544,1.0,2762.602095387796,0.2984809494880016,1.3231709766047164,0.9502978314291747,0.28769748183519084,0.6669659434960264
0.032,1.7766887731233842,1.0,2773.7848786724403,0.30241591537464496,1.3228167802072577,0.9514722946046861,0.2876739284711821,0.6676955561754435
0.0325,1.7761279787422242,1.0,2784.6200191720964,0.3063288069859013,1.3224659154819542,0.9525990812453873,0.2876503751071734,0.6684175170675547
0.033,1.775567184361064,1.0,2795.123704400252,0.3102197495516185,1.3221182175996855,0.9536807684495736,0.2876268217431647,0.6691321871505156
0.0335,1.775006389979904,1.0,2805.3123289987284,0.31408886830164434,1.321773521731331,0.9547197605580207,0.28760326837915595,0.6698399257417625
0.034,1.774445595598744,1.0,2815.1938880126995,0.3179362773353805,1.3214317399788196,0.9557183084614985,0.28757971501514723,0.6705409328258563
0.0345,1.7738848012175839,1.0,2824.7884550266335,0.3217621098644935,1.3210926776537983,0.9566785092390921,0.2875561616511385,0.6712356261387562
0.035,1.7733240068364238,1.0,2834.1099851251897,0.3255664898326231,1.3207561964286454,0.9576023283558714,0.2875326082871298,0.6719243062902687
0.035500000000000004,1.7727632124552637,1.0,2843.167593105307,0.3293495342523323,1.3204222024020236,0.958491609048636,0.28750905492312107,0.6726071817851934
0.036000000000000004,1.7722024180741038,1.0,2851.9705031976996,0.3331113601361844,1.3200906016725953,0.9593480785848899,0.28748550155911234,0.6732844602068748
0.0365,1.7716416236929438,1.0,2860.528043986158,0.3368520844967424,1.3197613003390238,0.9601733568852473,0.2874619481951036,0.6739563482318132
0.037,1.7710808293117837,1.0,2868.849643522669,0.34057182434656963,1.319434204499972,0.9609689644114449,0.2874383948310949,0.6746230516437182
0.0375,1.7705200349306236,1.0,2876.944824638314,0.3442706966982291,1.3191092202541024,0.9617363293900233,0.2874148414670862,0.6752847753469987
0.038,1.7699592405494635,1.0,2884.8232004487827,0.34794881856428395,1.3187862537000778,0.9624767944343741,0.28739128810307746,0.6759417233796863
0.0385,1.7693984461683034,1.0,2892.4944700563615,0.3516063069572974,1.318465210936561,0.9631916226213336,0.28736773473906874,0.6765940989258025
0.039,1.7688376517871434,1.0,2899.9684144467083,0.35524327888983254,1.3181459980622152,0.9638820030727197,0.28734418137506,0.6772421043271587
0.0395,1.7682768574059833,1.0,2907.2548925815663,0.35885985137445253,1.3178285211757028,0.9645490560870807,0.2873206280110513,0.6778859410945977
0.04,1.7677160630248234,1.0,2914.357720595552,0.3624561279759771,1.3175127401853997,0.9651938401714855,0.28729707464704257,0.6785257009565016
0.0405,1.7671552686436633,1.0,2921.289623216904,0.36603223580679184,1.3171985370931878,0.9658173514334205,0.28727352128303385,0.6791616328633341
0.041,1.7665944742625033,1.0,2928.0600882182034,0.36958829387104164,1.3168858230210447,0.9664205312772417,0.28724996791902513,0.6797939259192447
0.0415,1.7660336798813432,1.0,2934.6743060744075,0.37312441101154287,1.3165745473069315,0.9670042705114821,0.2872264145550164,0.6804226913182763
0.042,1.765472885500183,1.0,2941.137507415969,0.3766406960711117,1.316264659288809,0.9675694112358888,0.2872028611910077,0.6810480398116505
0.0425,1.764912091119023,1.0,2947.4549614416487,0.3801372578925646,1.3159561083046378,0.9681167500046606,0.28717930782699896,0.6816700817123341
0.043000000000000003,1.764351296737863,1.0,2953.631974388199,0.3836142053187177,1.3156488436923794,0.9686470407532243,0.28715575446299024,0.6822889268994381
0.043500000000000004,1.7637905023567029,1.0,2959.6738880571593,0.3870716471923874,1.3153428147899944,0.9691609975084454,0.2871322010989815,0.6829046848224596
0.044,1.763229707975543,1.0,2965.5860783980465,0.39050969235639,1.3150379709354436,0.9696592969003163,0.2871086477349728,0.6835174645053527
0.0445,1.762668913594383,1.0,2971.3739541490972,0.3939284496535418,1.3147342614666884,0.9701425804915007,0.2870850943709641,0.6841273745504408
0.045,1.7621081192132229,1.0,2977.042955534581,0.3973280279266591,1.3144316357216892,0.9706114569396153,0.28706154100695536,0.6847345231421651
0.0455,1.7615473248320628,1.0,2982.598553018841,0.40070853601855827,1.3141300430384073,0.971066504005788,0.28703798764294663,0.6853390180506644
0.046,1.7609865304509027,1.0,2988.046246117728,0.40407008277205547,1.3138294327548032,0.9715082704218088,0.2870144342789379,0.6859409666351991
0.0465,1.7604257360697426,1.0,2993.389980404812,0.40741277027887085,1.3135297679389526,0.9719372777221723,0.2869908809149292,0.6865404483933244
0.047,1.7598649416885825,1.0,2998.6312761736276,0.41073669357596443,1.3132310328760088,0.9723540223865469,0.28696732755092047,0.6871375001384843
0.0475,1.7593041473074225,1.0,3003.780464735486,0.41404198687818516,1.3129331356115863,0.9727589763654395,0.28694377418691175,0.687732310702489
0.048,1.7587433529262626,1.0,3008.840219175791,0.41732875039028716,1.3126360508503043,0.9731525891099227,0.286920220822903,0.6883249352956822
0.0485,1.7581825585451025,1.0,3013.813226894402,0.42059708431702464,1.3123397532967827,0.9735352886172468,0.2868966674588943,0.6889154289238041
0.049,1.7576217641639424,1.0,3018.702189157113,0.42384708886315153,1.312044217655641,0.9739074826520384,0.2868731140948856,0.6895038463892822
0.0495,1.7570609697827824,1.0,3023.5098206613543,0.42707886423342206,1.3117494186314993,0.9742695598871991,0.28684956073087686,0.6900902422924815
0.05,1.7565001754016223,1.0,3028.238849115909,0.4302925106325903,1.311455330928977,0.9746218909704749,0.28682600736686814,0.6906746710329128
0.0505,1.7559393810204622,1.0,3032.8920148348143,0.4334881282654103,1.3111619292526935,0.97496482952216,0.2868024540028594,0.6912571868104012
0.051000000000000004,1.7553785866393021,1.0,3037.472070345729,0.4366658173366362,1.3108691883072687,0.9752987130689679,0.2867789006388507,0.6918378436262114
0.051500000000000004,1.754817792258142,1.0,3041.9817800119986,0.4398256780510221,1.3105770827973224,0.9756238639186794,0.286755347274842,0.6924166952841362
0.052000000000000005,1.7542569978769822,1.0,3046.423919669395,0.442967810613322,1.3102855874274741,0.9759405899798176,0.28673179391083325,0.6929937953915413
0.0525,1.7536962034958221,1.0,3050.8012762767335,0.4460923152282901,1.3099946769023434,0.9762491855302571,0.28670824054682453,0.693569197360369
0.053,1.753135409114662,1.0,3055.1166475808054,0.44919929210068055,1.3097043259265502,0.9765499319383625,0.2866846871828158,0.6941429544081033
0.0535,1.752574614733502,1.0,3059.372841795544,0.4522888414352474,1.309414509204714,0.976843098339978,0.2866611338188071,0.6947151195586925
0.054,1.7520138203523419,1.0,3063.572677295161,0.45536106343674465,1.3091252014414545,0.977128942274322,0.28663758045479837,0.6952857456434317
0.0545,1.7514530259711818,1.0,3067.715565676172,0.4584160289822057,1.3088364066354556,0.97740770919224,0.28661402709078965,0.6958548276036336
0.055,1.7508922315900217,1.0,3071.805984727819,0.4614538603524534,1.3085480853812637,0.9776796365496473,0.2865904737267809,0.6964224458149122
0.0555,1.7503314372088616,1.0,3075.847424357754,0.46447466898042117,1.308260206850667,0.9779449512651441,0.2865669203627722,0.6969886634961224
0.056,1.7497706428277018,1.0,3079.841144245155,0.4674785458511306,1.3079727593922665,0.9782038700194543,0.2865433669987635,0.6975535059703862
0.0565,1.7492098484465417,1.0,3083.7884088602796,0.47046558194960303,1.3076857313546637,0.9784566005780198,0.28651981363475476,0.6981169984717657
0.057,1.7486490540653816,1.0,3087.6904873544363,0.47343586826086,1.30739911108646,0.9787033422302208,0.28649626027074604,0.6986791661455811
0.0575,1.7480882596842215,1.0,3091.5486534533143,0.476389495769923,1.3071128869362565,0.9789442862035244,0.2864727069067373,0.6992400340487186
0.058,1.7475274653030615,1.0,3095.3641853530803,0.47932655546181346,1.3068270472526549,0.9791796160541816,0.2864491535427286,0.6997996271499269
0.0585,1.7469666709219014,1.0,3099.138365619555,0.48224713832155297,1.3065415803842562,0.9794095080359837,0.2864256001787199,0.7003579703301104
0.059000000000000004,1.7464058765407413,1.0,3102.8724810903645,0.4851513353341629,1.3062564746796617,0.9796341314484688,0.28640204681471115,0.7009150883826076
0.059500000000000004,1.7458450821595812,1.0,3106.567822780136,0.48803923748466477,1.305971718487473,0.9798536489658776,0.28637849345070243,0.7014710060134648
0.06,1.7452842877784214,1.0,3110.2256857888774,0.4909109357580801,1.3056873001562914,0.9800682169480679,0.2863549400866937,0.7020257478417009
0.0605,1.7447234933972613,1.0,3113.847369212984,0.49376652113943026,1.305403208034718,0.9802779857345064,0.286331386722685,0.7025793383995624
0.061,1.7441626990161012,1.0,3117.434176059431,0.4966060846137369,1.3051194304713545,0.9804830999223841,0.28630783335867627,0.7031318021327688
0.0615,1.7436019046349411,1.0,3120.987413163285,0.49942971716602136,1.304835955814802,0.9806836986298283,0.28628427999466755,0.703683163400753
0.062,1.743041110253781,1.0,3124.508391107638,0.5022375097813052,1.3045527724136616,0.980879915745115,0.2862607266306588,0.7042334464768891
0.0625,1.742480315872621,1.0,3127.998424147105,0.5050295534446099,1.304269868616535,0.9810718801627281,0.2862371732666501,0.7047826755487133
0.063,1.741919521491461,1.0,3131.4588301339177,0.5078059391409568,1.3039872327720234,0.9812597160070539,0.2862136199026414,0.7053308747181366
0.0635,1.7413587271103008,1.0,3134.889445172083,0.5105667274870002,1.3037048658261925,0.9814435413004313,0.28619006653863266,0.7058780436017041
0.064,1.740797932729141,1.0,3138.2909395130932,0.5133120051552273,1.30342276165606,0.9816234712959409,0.28616651317462394,0.7064241955006689
0.0645,1.7402371383479809,1.0,3141.666484019949,0.5160419097699003,1.3031408929696362,0.9817996195862873,0.2861429598106152,0.7069693845968481
0.065,1.7396763439668208,1.0,3145.0166178142786,0.5187565223547503,1.3028592548222704,0.9819720928271463,0.2861194064466065,0.7075136217107751
0.0655,1.7391155495856607,1.0,3148.3418816206863,0.5214559239335091,1.302577842269312,0.9821409938906598,0.2860958530825978,0.7080569176264266
0.066,1.7385547552045006,1.0,3151.6428177415764,0.524140195529908,1.3022966503661104,0.9823064220268151,0.28607229971858905,0.7085992830912934
0.0665,1.7379939608233406,1.0,3154.9199700330787,0.5268094181676785,1.3020156741680153,0.9824684730168282,0.28604874635458033,0.7091407288164515
0.067,1.7374331664421805,1.0,3158.1738838807764,0.529463672870552,1.3017349087303758,0.9826272393189857,0.2860251929905716,0.709681265476632
0.0675,1.7368723720610204,1.0,3161.4051061766136,0.5321030406622601,1.3014543491085415,0.9827828102073649,0.2860016396265629,0.7102209037102856
0.068,1.7363115776798606,1.0,3164.614185295668,0.5347276025665344,1.301173990357862,0.9829352719038263,0.28597808626255417,0.7107596541196506
0.0685,1.7357507832987005,1.0,3167.80167107443,0.5373374396071061,1.3008938275336865,0.9830847077036498,0.28595453289854544,0.7112975272708166
0.069,1.7351899889175404,1.0,3170.9681147884453,0.539932632807707,1.3006138556913647,0.9832311980951625,0.2859309795345367,0.7118345336937864
0.0695,1.7346291945363803,1.0,3174.114069131605,0.5425132631920683,1.3003340698862458,0.9833748208736864,0.285907426170528,0.7123706838825372
0.07,1.7340684001552202,1.0,3177.2400881951226,0.5450794117839216,1.3000544651736794,0.9835156512501082,0.2858838728065193,0.7129059882950805
