Time [s],Phi [rad],STIM [ ],Fsee [N],Gamma [ ],Lcerel [ ],q [ ],Lmtc [m],fisomrel [ ]
0.0,1.8,1.0,18.089399304441343,0.0003553375720076904,1.3793260743393316,0.005032714670983194,0.288653,0.5411726062701272
0.0005,1.79999375,1.0,18.509294091016816,0.005962553718080671,1.3792766376683046,0.013926999042625916,0.2886527375,0.5412921942570971
0.001,1.799975,1.0,22.10722098330953,0.011538317814892634,1.378888653459025,0.03743080454318624,0.28865195,0.5422301922194097
0.0015,1.79994375,1.0,32.11733580097394,0.01708280628457882,1.3779576498572426,0.07308121202777822,0.2886506375,0.5444770883749682
0.002,1.7999,1.0,55.74011463029489,0.022596194557408546,1.3762295310587904,0.11764481374766707,0.2886488,0.5486330993599575
0.0025,1.79984375,1.0,100.66217872953354,0.028078657081083737,1.373765956454397,0.16775292834228908,0.28864643749999996,0.5545249036853632
0.003,1.7997750000000001,1.0,165.51505445744095,0.03353036732581076,1.371044965565058,0.2205551732156309,0.28864354999999997,0.5609873518138548
0.0035,1.79969375,1.0,242.80267085802612,0.03895149778621659,1.3684278851138272,0.27386723545078007,0.2886401375,0.5671584613219152
0.004,1.7996,1.0,326.89611655215356,0.04434221999125943,1.366012891886079,0.32606496328023654,0.2886362,0.5728142951951194
0.0045000000000000005,1.7994937500000001,1.0,414.87858127153345,0.04970270450974749,1.3637915549297626,0.37602254241936894,0.2886317375,0.5779837517914082
0.005,1.799375,1.0,505.1292683221859,0.05503312094163182,1.3617372283831792,0.4230420919691301,0.28862675,0.5827365357195652
0.0055,1.79924375,1.0,596.5507526705178,0.060333637956886545,1.3598265650512074,0.46676049172287715,0.2886212375,0.5871327904446724
0.006,1.7991000000000001,1.0,688.2783711533742,0.06560442326239206,1.3580419284971128,0.5070568477310046,0.2886152,0.5912180402999629
0.006500000000000001,1.79894375,1.0,779.6013590814114,0.07084564361164736,1.356369787508685,0.5439738266142815,0.2886086375,0.5950273423182866
0.007,1.798775,1.0,869.9348583914305,0.07605746490893786,1.3547992934024748,0.5776569886076681,0.28860155,0.5985888437535223
0.0075,1.79859375,1.0,958.7896821806463,0.08124005189532849,1.353321592535617,0.6083109108474759,0.2885939375,0.6019255492605085
0.008,1.7984,1.0,1045.7919048290412,0.08639356883878777,1.3519287539139102,0.6361684198793915,0.2885858,0.6050578831906965
0.0085,1.79819375,1.0,1130.621572887456,0.09151817854901843,1.350614197380383,0.6614709040083849,0.2885771375,0.6080028207758608
0.009000000000000001,1.797975,1.0,1213.0347085154647,0.09661404306224572,1.34937195222772,0.6844552696786161,0.28856795,0.6107756345554581
0.0095,1.79774375,1.0,1292.8731238309326,0.10168132413419745,1.3481962765413105,0.7053462936072311,0.2885582375,0.6133907940139263
0.01,1.7975,1.0,1369.999523593638,0.10672018170675122,1.3470823297890298,0.7243530215941023,0.288548,0.6158605113144745
0.0105,1.79724375,1.0,1444.3245876012556,0.11173077507649318,1.346025606448994,0.7416667450107286,0.2885372375,0.6181960449030803
0.011,1.796975,1.0,1515.810301125061,0.1167132628723505,1.3450217703619145,0.7574606620153803,0.28852595000000003,0.6204080930367677
0.0115,1.79669375,1.0,1584.4504491176838,0.12166780337582235,1.3440667966432862,0.7718905613893008,0.2885141375,0.622506503340649
0.012,1.7964,1.0,1650.229454338968,0.12659455256405322,1.3431573581433507,0.7850960719480651,0.28850180000000003,0.6244994501022837
0.0125,1.79609375,1.0,1713.1719065862142,0.13149366637058288,1.3422901386821846,0.7972016667251495,0.2884889375,0.6263949647988867
0.013000000000000001,1.7957750000000001,1.0,1773.3213920273542,0.13636529963754604,1.3414620296602395,0.8083181693246819,0.28847555,0.6282005175392529
0.0135,1.79544375,1.0,1830.7561359460426,0.14120960797058452,1.3406699023229176,0.8185440657725865,0.2884616375,0.6299235256737685
0.014,1.7951000000000001,1.0,1885.515342113735,0.14602674344499142,1.3399113822441824,0.8279671259282502,0.2884472,0.631569681826688
0.0145,1.79474375,1.0,1937.660026283891,0.15081685804862124,1.3391841118899481,0.8366653321540722,0.2884322375,0.6331445734739387
0.015,1.794375,1.0,1987.2719274770611,0.1555801037201012,1.338485739807644,0.8447080054517146,0.28841675,0.6346537115652805
0.0155,1.79399375,1.0,2034.4343290730426,0.16031663100189583,1.3378141025403991,0.8521568781443783,0.2884007375,0.6361021432551809
0.016,1.7936,1.0,2079.2470613706214,0.16502659140944884,1.337167040078,0.8590669314029864,0.2883842,0.6374948567762766
0.0165,1.7931937500000001,1.0,2121.7745655413923,0.1697101325885972,1.3365429156373594,0.8654873469381822,0.2883671375,0.6388356694333712
0.017,1.792775,1.0,2162.09332694307,0.17436740218517788,1.33594009243539,0.871462036077818,0.28834955,0.6401283619084875
0.0175,1.7923437500000001,1.0,2200.290867536404,0.1789985478450278,1.3353569336890045,0.8770302626289346,0.2883314375,0.6413766805698616
0.018000000000000002,1.7919,1.0,2236.4498019953385,0.18360371569348977,1.3347919531974382,0.8822272284945851,0.2883128,0.6425840180938915
0.0185,1.79144375,1.0,2270.6711012130395,0.1881830537440994,1.3342435689497083,0.8870844845569855,0.2882936375,0.6437539432900561
0.019,1.790975,1.0,2303.0265675714704,0.19273670592352082,1.333710569257489,0.8916304665224455,0.28827395,0.6448892090747531
0.0195,1.79049375,1.0,2333.5861442870128,0.19726481522096823,1.333191824711296,0.8958907798933149,0.2882537375,0.6459923722753733
0.02,1.79,1.0,2362.425530157715,0.2017675246256558,1.3326862059016449,0.8998885015536991,0.288233,0.6470659706720929
0.0205,1.78949375,1.0,2389.6256953858815,0.20624497712679782,1.3321925834190513,0.9036444635413337,0.2882117375,0.6481125239839816
0.021,1.788975,1.0,2415.257455482724,0.2106973136388296,1.3317099725087391,0.907177532347287,0.28818995000000003,0.6491342287571797
0.021500000000000002,1.78844375,1.0,2439.4085613400885,0.21512467802306734,1.3312372649002855,0.9105047693051446,0.2881676375,0.6501335278742923
0.022,1.7879,1.0,2462.1400512239707,0.21952720927540403,1.3307736460176094,0.9136417077504353,0.2881448,0.651112229273652
0.0225,1.78734375,1.0,2483.5097592766824,0.22390504540376105,1.3303183611088194,0.9166024694874885,0.28812143749999997,0.6520720035535191
0.023,1.786775,1.0,2503.5782334876144,0.22825832441605962,1.3298706554220237,0.9193999021590734,0.28809755,0.6530145111334329
0.0235,1.78619375,1.0,2522.4085080815216,0.23258718432022107,1.3294297742053305,0.9220457118411487,0.28807313749999996,0.653941402637197
0.024,1.7856,1.0,2540.060790322651,0.2368917621643577,1.3289950107446569,0.9245505885047651,0.2880482,0.6548542184474588
0.0245,1.78499375,1.0,2556.5940442955475,0.24117219462010475,1.3285656888101383,0.9269243058431229,0.2880227375,0.6557544264563756
0.025,1.784375,1.0,2572.077209295585,0.24542861974106428,1.3281410554775723,0.9291757950232538,0.28799675,0.6566436470346455
0.025500000000000002,1.78374375,1.0,2586.553236231674,0.24966117024214313,1.3277206165055637,0.9313132812315144,0.2879702375,0.6575229512666239
0.026000000000000002,1.7831000000000001,1.0,2600.066335393751,0.2538699788382482,1.3273038776527175,0.9333443111953834,0.2879432,0.6583934045710935
0.0265,1.78244375,1.0,2612.6618713386697,0.25805517824428637,1.3268903446776386,0.9352758183007728,0.2879156375,0.6592560668256846
0.027,1.781775,1.0,2624.386263191824,0.26221690117516444,1.326479523338932,0.9371141806659622,0.28788755,0.6601119924757137
0.0275,1.7810937500000001,1.0,2635.286890364748,0.26635528034578937,1.3260709193952025,0.9388652730095488,0.2878589375,0.660962230627447
0.028,1.7804,1.0,2645.406686560297,0.27047044432837997,1.325664087697886,0.9405345185745229,0.2878298,0.661807723162958
0.0285,1.77969375,1.0,2654.7936117896097,0.27456252896691835,1.3252585436875997,0.9421269219110359,0.2878001375,0.6626494890249421
0.029,1.778975,1.0,2663.4804141827703,0.27863166152701346,1.3248539492858287,0.9436471263663478,0.28776995,0.6634882386269141
0.029500000000000002,1.7782437500000001,1.0,2671.5003028362175,0.2826779692194616,1.3244499671335275,0.9450994289248729,0.2877392375,0.6643246773821843
0.03,1.7775,1.0,2678.8869775219227,0.2867015792550592,1.3240462598716507,0.9464878104047959,0.287708,0.6651595072168196
0.0305,1.77674375,1.0,2685.674583145408,0.2907026188446026,1.3236424901411525,0.947815962733454,0.2876762375,0.66599342657919
0.031,1.775975,1.0,2691.897666726771,0.29468121519888807,1.3232383205829872,0.949087313547351,0.28764395,0.6668271304422513
0.0315,1.7751937500000001,1.0,2697.5845383519986,0.2986374912329263,1.3228334741701875,0.9503050545805097,0.2876111375,0.6676611860816546
0.032,1.7744,1.0,2702.76249990231,0.3025715714415099,1.3224276858097654,0.9514721570437242,0.2875778,0.6684961333653034
0.0325,1.77359375,1.0,2707.4763149086557,0.3064835930038342,1.3220205334544621,0.9525913727156565,0.2875439375,0.6693328317401264
0.033,1.772775,1.0,2711.745808775958,0.31037367611346695,1.3216118251329498,0.953665288645171,0.28750955,0.6701716643324391
0.0335,1.7719437500000002,1.0,2715.590988007876,0.31424194096397606,1.3212013688739006,0.9546963184146378,0.2874746375,0.6710130122242743
0.034,1.7711000000000001,1.0,2719.032023210147,0.3180885077489294,1.3207889727059865,0.9556867158356552,0.2874392,0.6718572544331565
0.0345,1.7702437500000001,1.0,2722.089232911886,0.3219134966618948,1.3203744446578796,0.9566385874095166,0.2874032375,0.6727047678895257
0.035,1.7693750000000001,1.0,2724.7830682029285,0.3257170278964401,1.3199575927582519,0.9575539036768146,0.28736675,0.6735559274118132
0.035500000000000004,1.76849375,1.0,2727.1340981891476,0.3294992216461332,1.3195382250357754,0.9584345095668224,0.2873297375,0.674411105679165
0.036000000000000004,1.7676,1.0,2729.162996264521,0.33326019810454194,1.3191161495191224,0.9592821338452014,0.2872922,0.6752706732018149
0.0365,1.76669375,1.0,2730.8905272001653,0.3370000774652341,1.318691174236965,0.9600983977479113,0.2872541375,0.6761349982891087
0.037,1.765775,1.0,2732.3375350506403,0.3407189799217777,1.3182631072179751,0.9608848228797765,0.28721555,0.6770044470151775
0.0375,1.76484375,1.0,2733.5148485271975,0.3444170182517696,1.3178318480772502,0.9616428458185909,0.2871764375,0.6778791975376268
0.038,1.7639,1.0,2734.4442443359185,0.3480943161461017,1.317397197466722,0.9623738096730668,0.28713679999999997,0.6787596270416795
0.0385,1.76294375,1.0,2735.1449601879867,0.35175099318780695,1.316958979554152,0.963078979249213,0.28709663750000003,0.6796460627550721
0.039,1.761975,1.0,2735.628072317178,0.3553871621454131,1.3165170929750147,0.9637595507546319,0.28705595,0.6805386793834372
0.0395,1.7609937500000001,1.0,2735.90468779615,0.35900293578744796,1.316071436364784,0.9644166510503113,0.2870147375,0.6814376502369333
0.04,1.76,1.0,2735.9859402080688,0.3625984268824394,1.3156219083589344,0.9650513424084416,0.286973,0.6823431472062003
0.0405,1.7589937500000001,1.0,2735.882985546368,0.36617374819891507,1.3151684075929406,0.9656646268951948,0.2869307375,0.6832553407376596
0.041,1.757975,1.0,2735.606998342383,0.3697290125054029,1.3147108327022765,0.9662574504116658,0.28688795,0.6841743998081624
0.0415,1.75694375,1.0,2735.169168020494,0.37326433257043073,1.3142490823224167,0.9668307064229318,0.2868446375,0.6851004918989764
0.042,1.7559,1.0,2734.5806954815394,0.37677982116252623,1.3137830550888354,0.9673852394022922,0.28680079999999997,0.6860337829691228
0.0425,1.75484375,1.0,2733.8527899135743,0.38027559105021724,1.3133126496370073,0.9679218480151408,0.2867564375,0.6869744374280545
0.043000000000000003,1.753775,1.0,2732.9950419917054,0.38375175433941366,1.3128377793530461,0.9684412891582033,0.28671155,0.6879225886781085
0.043500000000000004,1.75269375,1.0,2732.0133776574494,0.3872084198743851,1.312358390952862,0.9689442816938569,0.28666613750000003,0.6888783023001882
0.044,1.7516,1.0,2730.9176574540475,0.39064569626395507,1.3118743954385483,0.9694315038574828,0.2866202,0.6898417138706632
0.0445,1.75049375,1.0,2729.7174988092966,0.39406369201363606,1.3113857060195437,0.9699035987890923,0.2865737375,0.6908129530826221
0.045,1.7493750000000001,1.0,2728.421609431269,0.3974625138345723,1.3108922441578006,0.9703611769156013,0.28652675,0.6917921317682605
0.0455,1.7482459999541624,1.0,2727.142563209712,0.40084227201036304,1.3103940028766374,0.9708048234898583,0.28647933199807485,0.6927792186805422
0.046,1.747115999877766,1.0,2726.3116735404146,0.40420307440976366,1.3098912365738087,0.9712351133379155,0.2864318719948662,0.6937736654807263
0.0465,1.7459859998013694,1.0,2725.945210985002,0.4075450257672512,1.309384247023999,0.971652595525629,0.28638441199165754,0.6947748332059733
0.047,1.7448559997249729,1.0,2726.0099031313875,0.4108682308173027,1.3088733360018927,0.9720577918765181,0.2863369519884489,0.6957820864383351
0.0475,1.7437259996485763,1.0,2726.4725837278925,0.41417279429439524,1.3083588052821746,0.972451198588358,0.28628949198524023,0.6967947933831311
0.048,1.7425959995721798,1.0,2727.300167455115,0.4174588209330058,1.3078409566395288,0.9728332877394846,0.2862420319820316,0.697812325941517
0.0485,1.7414659994957833,1.0,2728.45962671652,0.4207264154676114,1.3073200918486403,0.9732045086932674,0.2861945719788229,0.6988340597772427
0.049,1.7403359994193868,1.0,2729.9226165809305,0.42397568116298384,1.306796470455857,0.9735652863295507,0.28614711197561427,0.699859457002004
0.0495,1.73920599934299,1.0,2731.661100082194,0.4272067223035468,1.3062703494206376,0.9739160254526233,0.2860996519724056,0.7008879880923488
0.05,1.7380759992665935,1.0,2733.653645919804,0.43041964058159743,1.3057419257827043,0.9742571076613022,0.28605219196919696,0.7019192436820259
0.0505,1.736945999190197,1.0,2735.8814230716857,0.4336145366861166,1.3052113730258563,0.9745888952695457,0.2860047319659883,0.7029528628050752
0.051000000000000004,1.7358159991138005,1.0,2738.325601247064,0.436791511306085,1.3046788646338925,0.9749117340386676,0.28595727196277965,0.7039884867519204
0.051500000000000004,1.734685999037404,1.0,2740.967343030765,0.43995066513048353,1.3041445740906121,0.9752259540846042,0.285909811959571,0.7050257590919649
0.052000000000000005,1.7335559989610074,1.0,2743.7892667846972,0.4430920979444833,1.3036086615520903,0.9755318697798148,0.28586235195636234,0.7060643515004729
0.0525,1.732425998884611,1.0,2746.7754587267755,0.44621590928664623,1.3030712737143397,0.9758297806689433,0.2858148919531537,0.7071039638047443
0.053,1.7312959988082144,1.0,2749.9072560082454,0.44932220101837944,1.3025325819898066,0.976119974911399,0.285767431949945,0.7081442501102709
0.0535,1.7301659987318179,1.0,2753.1743516014394,0.4524110697344249,1.3019926818884684,0.9764027228903613,0.2857199719467364,0.7091850130287319
0.054,1.7290359986554213,1.0,2756.566423669553,0.4554826120295248,1.3014516689203035,0.9766782833349731,0.2856725119435277,0.7102260564577925
0.0545,1.7279059985790248,1.0,2760.073133109108,0.4585369244984211,1.3009096385952892,0.9769469039236324,0.28562505194031906,0.7112671855881775
0.055,1.7267759985026283,1.0,2763.6841212943073,0.46157410373585595,1.3003666864234034,0.9772088218512047,0.2855775919371104,0.7123082069101558
0.0555,1.7256459984262318,1.0,2767.3890080239694,0.4645942463365715,1.2998229079146237,0.9774642643625867,0.28553013193390175,0.7133489282194485
0.056,1.7245159983498353,1.0,2771.1796034329386,0.46759744596504577,1.2992783786085553,0.9777134478154731,0.2854826719306931,0.7143891967392673
0.0565,1.7233859982734387,1.0,2775.049780459956,0.4705837948107133,1.2987331552788102,0.9779565784389218,0.28543521192748444,0.7154288964833109
0.057,1.7222559981970422,1.0,2778.9832493757785,0.47355339993783585,1.2981873861198092,0.9781938606180978,0.2853877519242758,0.7164677383897826
0.0575,1.7211259981206457,1.0,2782.9756780478892,0.47650635239288874,1.2976411112872808,0.97842548290046,0.28534029192106714,0.7175056405346701
0.058,1.7199959980442492,1.0,2787.022723334907,0.47944274322234737,1.297094370936953,0.9786516262767762,0.2852928319178585,0.7185425215483936
0.0585,1.7188659979678527,1.0,2791.1200306539276,0.48236266347268697,1.2965472052245532,0.9788724645452939,0.2852453719146498,0.7195783006170495
0.059000000000000004,1.7177359978914561,1.0,2795.2632335840717,0.48526620419038285,1.29599965430581,0.9790881646555911,0.28519791191144117,0.7206128974835488
0.059500000000000004,1.7166059978150596,1.0,2799.4479535056576,0.48815345642191044,1.2954517583364515,0.9792988870333883,0.2851504519082325,0.7216462324486577
0.06,1.715475997738663,1.0,2803.6697992751865,0.49102451121374496,1.2949035574722054,0.9795047858875211,0.28510299190502386,0.7226782263719312
0.0605,1.7143459976622666,1.0,2807.924366935883,0.4938794596123618,1.2943550918687998,0.9797060095001776,0.2850555319018152,0.7237088006725461
0.061,1.71321599758587,1.0,2812.2072394641546,0.49671839266423623,1.2938064016819628,0.9799027005014416,0.28500807189860655,0.724737877330029
0.0615,1.7120859975094735,1.0,2816.513986551928,0.49954140141584363,1.2932575270674225,0.9800949961291002,0.2849606118953979,0.7257653788848852
0.062,1.7109559974330768,1.0,2820.8401644243145,0.5023485769136593,1.2927085081809067,0.980283028474611,0.28491315189218924,0.7267912284391203
0.0625,1.7098259973566803,1.0,2825.1881090148913,0.5051399877687307,1.292159324484094,0.9804669198887794,0.2848656918889806,0.7278154627455288
0.063,1.7086959972802838,1.0,2829.5477003735677,0.5079157531747496,1.2916100667028672,0.9806467976947291,0.28481823188577193,0.7288379113442263
0.0635,1.7075659972038872,1.0,2833.917571720308,0.510675957537652,1.2910607472008648,0.980822777988832,0.2847707718825633,0.7298585505066144
0.064,1.7064359971274907,1.0,2838.2964202643043,0.5134206850057972,1.2905113777334898,0.980994972608974,0.2847233118793546,0.7308773578041761
0.0645,1.7053059970510942,1.0,2842.682939163443,0.5161500197275444,1.2899619700561444,0.9811634893697775,0.28467585187614597,0.7318943109730854
0.065,1.7041759969746977,1.0,2847.075817512878,0.5188640458512526,1.2894125359242306,0.9813284322370913,0.2846283918729373,0.732909387914241
0.0655,1.7030459968983012,1.0,2851.473740336504,0.5215628475252811,1.2888630870931512,0.981489901493696,0.28458093186972866,0.7339225666932861
0.066,1.7019159968219046,1.0,2855.8753885817964,0.5242465088979891,1.2883136353183082,0.9816479938967292,0.28453347186652,0.73493382554063
0.0665,1.7007859967455081,1.0,2860.2794391172756,0.5269151141177357,1.2877641923551042,0.9818028028273005,0.28448601186331135,0.7359431428514496
0.067,1.6996559966691116,1.0,2864.684564733337,0.5295687473328802,1.2872147699589414,0.9819544184327372,0.2844385518601027,0.7369504971856901
0.0675,1.698525996592715,1.0,2869.089434146186,0.5322074926917817,1.2866653798852223,0.9821029277618706,0.28439109185689404,0.7379558672680522
0.068,1.6973959965163186,1.0,2873.4927120046555,0.5348314343427993,1.2861160338893491,0.982248414893752,0.2843436318536854,0.7389592319879745
0.0685,1.696265996439922,1.0,2877.893058900135,0.5374406564342924,1.2855667437267242,0.9823909610601618,0.28429617185047673,0.7399605703996028
0.069,1.6951359963635255,1.0,2882.289131379725,0.54003524311462,1.2850175211527497,0.9825306447622479,0.2842487118472681,0.7409598617217534
0.0695,1.694005996287129,1.0,2886.6795819620115,0.5426152785321414,1.2844683779228285,0.9826675418816183,0.2842012518440594,0.7419570853378661
0.07,1.6928759962107325,1.0,2891.0654709737782,0.545180816308057,1.2839193044912203,0.9828017229252949,0.28415379184085077,0.7429522593661408
0.07050000000000001,1.691745996134336,1.0,2895.444278972599,0.5477319708015953,1.2833703229339999,0.9829332612503817,0.2841063318376421,0.7439453446437521
0.07100000000000001,1.6906159960579394,1.0,2899.8149957856194,0.5502688297534646,1.2828214419511936,0.9830622255831872,0.28405887183443346,0.7449363264433917
0.07150000000000001,1.689485995981543,1.0,2904.177383072585,0.5527914695500254,1.2822726634157635,0.983188681435945,0.2840114118312248,0.7459252024495251
0.07200000000000001,1.6883559959051464,1.0,2908.5312019233697,0.5552999665776385,1.281723989200671,0.9833126922172927,0.28396395182801615,0.7469119703726408
