Time [s],Phi [rad],STIM [ ],Fsee [N],Gamma [ ],Lcerel [ ],q [ ],Lmtc [m],fisomrel [ ]
0.0,1.8,1.0,17.96715714031786,1.3683401372398675e-05,1.379339746334809,0.005000049778234104,0.288653,0.5411395307737334
0.0005,1.79999375,1.0,18.277730302814096,0.0056228159571077695,1.379302278248163,0.012950743577542105,0.2886527375,0.5412301712874783
0.001,1.799975,1.0,21.622094948049885,0.011200485714109277,1.3789379228618261,0.03562777475640933,0.28865195,0.5421111307945303
0.0015,1.79994375,1.0,31.0786850330194,0.016746869154666073,1.3780453987653705,0.07062798482066328,0.2886506375,0.5442655499755487
0.002,1.7999,1.0,53.603204005296064,0.02226214176940954,1.3763667813725224,0.11474896061320679,0.2886488,0.5483037177273211
0.0025,1.79984375,1.0,97.15421077050162,0.027746478064903563,1.3739334676862065,0.16460853493270447,0.28864643749999996,0.5541255157658442
0.003,1.7997750000000001,1.0,161.00437227422597,0.03320005157132732,1.3712126143662813,0.2173151610405516,0.28864354999999997,0.5605905450744597
0.0035,1.79969375,1.0,237.73570734353416,0.03862303484209325,1.3685831210088144,0.2706474087413847,0.2886401375,0.5667936317200308
0.004,1.7996,1.0,321.52261767451273,0.04401559946462261,1.3661546133042777,0.3229492270246863,0.2886362,0.5724834156760041
0.0045000000000000005,1.7994937500000001,1.0,409.32568817968183,0.049377916065531824,1.3639214542033167,0.3730662375185761,0.2886317375,0.5776823187836202
0.005,1.799375,1.0,499.47269276364733,0.05471015430173002,1.3618570846313296,0.42027714720650494,0.28862675,0.5824599818307231
0.0055,1.79924375,1.0,590.8502036394792,0.0600124829077392,1.3599376669842917,0.4642011839388611,0.2886212375,0.586877793003524
0.006,1.7991000000000001,1.0,682.5780269406404,0.0652850696392231,1.3581453256104128,0.5047052219489938,0.2886152,0.5909819060695517
0.006500000000000001,1.79894375,1.0,773.9433684020232,0.07052808132954254,1.3564661933708628,0.5418238300087259,0.2886086375,0.5948082046673682
0.007,1.798775,1.0,864.3473358718725,0.07574168386571906,1.3548894011935184,0.575697804243159,0.28860155,0.5983849264046746
0.0075,1.79859375,1.0,953.302546652758,0.08092604221947479,1.3534058666295248,0.6065290488932915,0.2885939375,0.601735629565799
0.008,1.7984,1.0,1040.4173137565838,0.08608132041589679,1.3520077797742345,0.6345494380274234,0.2885858,0.6048804941913714
0.0085,1.79819375,1.0,1125.3762132539737,0.09120768151324905,1.3506883640204,0.660000188770383,0.2885771375,0.6078369621833402
0.009000000000000001,1.797975,1.0,1207.9424172524662,0.09630528786159362,1.3494414579417189,0.6831186480589161,0.28856795,0.6106207508659627
0.0095,1.79774375,1.0,1287.9336655420032,0.10137430080739808,1.3482615751835247,0.7041306219020477,0.2885582375,0.6132457756718436
0.01,1.7975,1.0,1365.212238729371,0.10641488036020294,1.347143804477298,0.7232461619166958,0.288548,0.6157244228731742
0.0105,1.79724375,1.0,1439.6915071186415,0.11142718586919027,1.3460835457859148,0.7406576123347225,0.2885372375,0.618068173903854
0.011,1.796975,1.0,1511.3544727288536,0.11641137714587704,1.3450761595930918,0.7565391203318145,0.28852595000000003,0.6202884058688873
0.0115,1.79669375,1.0,1580.1603744137067,0.12136761105164844,1.344118012822423,0.7710477031341194,0.2885141375,0.6223941111324831
0.012,1.7964,1.0,1646.0997144700548,0.126296043920838,1.3432056651214797,0.7843238957689357,0.28850180000000003,0.6243937226674834
0.0125,1.79609375,1.0,1709.2035185484797,0.13119683197572368,1.3423356954345167,0.7964930038900515,0.2884889375,0.62629550902859
0.013000000000000001,1.7957750000000001,1.0,1769.5243367801875,0.13607013065636664,1.341504872005184,0.8076665975455843,0.28847555,0.6281072142752642
0.0135,1.79544375,1.0,1827.1157952241947,0.1409160945051536,1.3407103254787207,0.8179439777363806,0.2884616375,0.6298356955107915
0.014,1.7951000000000001,1.0,1882.0235922648676,0.14573487602100038,1.3399495869333835,0.827413506018831,0.2884472,0.631486856963718
0.0145,1.79474375,1.0,1934.3174829394914,0.15052662770282269,1.3392201874474288,0.8361536843076133,0.2884322375,0.6330665319774595
0.015,1.794375,1.0,1984.0677627215591,0.15529150082737808,1.3385198865071053,0.844234368538962,0.28841675,0.634579995023012
0.0155,1.79399375,1.0,2031.3844038002749,0.16002964812728343,1.3378462256514343,0.8517176323679947,0.2884007375,0.6360329330774239
0.016,1.7936,1.0,2076.332868189979,0.16474121836165045,1.3371974002984106,0.8586589599595613,0.2883842,0.6374295702550812
0.0165,1.7931937500000001,1.0,2118.985003699717,0.1694263598275625,1.3365716840942703,0.865107842508171,0.2883671375,0.6387739204909015
0.017,1.792775,1.0,2159.4251553328004,0.17408522082210276,1.3359673506852494,0.871108464803174,0.28834955,0.6400699594181589
0.0175,1.7923437500000001,1.0,2197.742173992604,0.1787179489046142,1.3353827438532986,0.8767003514557279,0.2883314375,0.641321476803038
0.018000000000000002,1.7919,1.0,2234.0292242864525,0.18332469181953817,1.3348162665244037,0.8819189118661639,0.2883128,0.6425321035416438
0.0185,1.79144375,1.0,2268.366530729436,0.18790559534642953,1.3342665415678387,0.8867959597756575,0.2882936375,0.6437049719013914
0.019,1.790975,1.0,2300.8244591185276,0.19246080329183723,1.333732365441276,0.891360114836827,0.28827395,0.6448428196969725
0.0195,1.79049375,1.0,2331.4799214015716,0.19699045946231006,1.3332125346023875,0.8956371261962923,0.2882537375,0.645948363468918
0.02,1.79,1.0,2360.4158261872253,0.20149470766439687,1.3327058455088452,0.899650198453233,0.288233,0.6470242996308815
0.0205,1.78949375,1.0,2387.7027625769542,0.20597368941639319,1.3322112675947817,0.9034203150720075,0.2882117375,0.6480729390403965
0.021,1.788975,1.0,2413.437413005382,0.21042754983061002,1.3317275626378122,0.9069664035179681,0.28818995000000003,0.6490970159004349
0.021500000000000002,1.78844375,1.0,2437.6793205191775,0.214856428251298,1.3312538943382404,0.910305686194533,0.2881676375,0.6500983975948658
0.022,1.7879,1.0,2460.4886585813556,0.2192604636349215,1.3307894531899116,0.9134537874131189,0.2881448,0.6510788828390284
0.0225,1.78734375,1.0,2481.928698056433,0.22363979493794495,1.3303334296866702,0.9164248989119507,0.28812143749999997,0.652040259028832
0.023,1.786775,1.0,2502.0655475466633,0.22799456111683275,1.3298850143223615,0.9192319310415865,0.28809755,0.6529843026962224
0.0235,1.7861954008732828,1.0,2521.0436039874626,0.23232489967789563,1.3294434272143998,0.9218866509231917,0.28807320683667786,0.6539127176824951
0.024,1.7856143251889713,1.0,2539.347141679138,0.23663094935488566,1.3290082049988126,0.9243998540954583,0.2880488016579368,0.6548265339396024
0.0245,1.78503324950466,1.0,2557.064492698316,0.240912847424529,1.3285791090641585,0.9267814425643078,0.2880243964791957,0.6557263044853439
0.025,1.7844521738203487,1.0,2574.2120215208806,0.24517072762206366,1.3281559226727908,0.9290404764091423,0.2879999913004546,0.6566125332103614
0.025500000000000002,1.7838710981360373,1.0,2590.8066397094235,0.2494047236827276,1.327738429087063,0.9311852552004508,0.2879755861217136,0.6574857209806892
0.026000000000000002,1.7832900224517259,1.0,2606.8657780360186,0.25361496934175876,1.3273264115693288,0.9332233921405132,0.28795118094297245,0.6583463657179411
0.0265,1.7827089467674144,1.0,2622.4073596475364,0.2578015983343951,1.3269196533819416,0.935161880077496,0.2879267757642314,0.6591949624765023
0.027,1.7821278710831032,1.0,2637.444120621211,0.2619647375580432,1.3265179900659076,0.9370071554308473,0.28790237058549034,0.6600318946534434
0.0275,1.7815467953987918,1.0,2651.997428145182,0.2661045228383712,1.3261211810702567,0.9387651376755503,0.28787796540674926,0.6608577017134594
0.028,1.7809657197144804,1.0,2666.0936896316844,0.27022109617533663,1.325728943615782,0.9404412809128384,0.2878535602280082,0.6616730079430699
0.0285,1.780384644030169,1.0,2679.7464069628572,0.27431458400263525,1.3253411176294854,0.9420406313487041,0.2878291550492671,0.6624781797818794
0.029,1.7798035683458577,1.0,2692.9693926804953,0.27838511275396294,1.3249575430383693,0.9435678527619231,0.287804749870526,0.6632735817042932
0.029500000000000002,1.7792224926615463,1.0,2705.776754614057,0.2824328088630154,1.3245780597694354,0.9450272604295956,0.28778034469178493,0.6640595762637398
0.03,1.7786414169772349,1.0,2718.1828810758107,0.2864577987634884,1.3242025077496857,0.9464228516389908,0.28775593951304385,0.6648365241352518
0.0305,1.7780603412929237,1.0,2730.202426624863,0.2904602088890779,1.3238307269061225,0.9477583331663016,0.28773153433430276,0.6656047841564169
0.031,1.7774792656086122,1.0,2741.8502983988833,0.2944401656734795,1.3234625571657475,0.9490371460567667,0.28770712915556174,0.666364713366695
0.0315,1.7768981899243008,1.0,2753.1416430136587,0.29839779555038903,1.3230978384555627,0.9502624880004679,0.2876827239768206,0.6671166670450992
0.032,1.7763171142399894,1.0,2764.0918340319204,0.30233322495350234,1.3227364107025703,0.9514373335630996,0.28765831879807957,0.6678609987462432
0.0325,1.7757360385556782,1.0,2774.716459998729,0.3062465803165152,1.3223781138337722,0.9525644525004906,0.2876339136193385,0.6685980603347557
0.033,1.7751549628713668,1.0,2785.0257639591473,0.3101379800303321,1.3220228377099088,0.9536464299089775,0.2876095084405974,0.6693280994682964
0.0335,1.7745738871870553,1.0,2795.0340729851773,0.31400755026051863,1.3216704368805918,0.9546856756482579,0.2875851032618563,0.6700514350671212
0.034,1.773992811502744,1.0,2804.7608252909104,0.3178554248375392,1.3213207216155158,0.9556844370728326,0.28756069808311524,0.6707684753204215
0.0345,1.7734117358184327,1.0,2814.2149563374546,0.3216817216892092,1.320973597967726,0.956644820984039,0.28753629290437416,0.6714794305090964
0.035,1.7728306601341213,1.0,2823.405517931819,0.32548655874334387,1.3206289719902675,0.9575687982269042,0.2875118877256331,0.67218450995046
0.035500000000000004,1.7722495844498098,1.0,2832.341672926261,0.32927005392775843,1.320286749736186,0.9584582140469442,0.287487482546892,0.6728839220134876
0.036000000000000004,1.7716685087654984,1.0,2841.0326901138815,0.33303232517026815,1.3199468372585266,0.959314797544174,0.2874630773681509,0.673577874133501
0.0365,1.7710874330811872,1.0,2849.4879393194774,0.3367734903986882,1.3196091406103347,0.9601401703123663,0.2874386721894099,0.674266572826286
0.037,1.7705063573968758,1.0,2857.7168866860447,0.34049366754083404,1.3192735658446557,0.9609358543421589,0.2874142670106688,0.6749502237016527
0.0375,1.7699252817125644,1.0,2865.729090157705,0.3441929745245208,1.3189400190145348,0.9617032792582692,0.2873898618319277,0.675629031476429
0.038,1.769344206028253,1.0,2873.5341951574137,0.34787152927756376,1.3186084061730172,0.9624437889536864,0.28736545665318664,0.6763031999868931
0.0385,1.7687631303439417,1.0,2881.141930460657,0.35152944972777816,1.3182786333731484,0.9631586476771821,0.28734105147444555,0.6769729322006408
0.039,1.7681820546596303,1.0,2888.562104265237,0.3551668538029793,1.3179506066679736,0.9638490456246628,0.28731664629570447,0.6776384302278939
0.0395,1.7676009789753189,1.0,2895.7971791063273,0.35878384275133485,1.3176242976021872,0.9645161068516053,0.2872922411169634,0.6782997626681033
0.04,1.7670199032910077,1.0,2902.861767671147,0.36238054983246587,1.317299570945643,0.9651608875642768,0.2872678359382223,0.6789572138957618
0.0405,1.7664388276066962,1.0,2909.7639246120225,0.36595709161165635,1.3169763500154044,0.9657843862167237,0.2872434307594812,0.6796109487592853
0.041,1.7658577519223848,1.0,2916.5088074140644,0.3695135775483241,1.3166545841052253,0.9663875463794447,0.28721902558074014,0.6802610789704937
0.0415,1.7652766762380734,1.0,2923.101614663822,0.3730501171018867,1.3163342225088603,0.9669712594390336,0.28719462040199906,0.6809077157835295
0.042,1.7646956005537622,1.0,2929.547584442103,0.3765668197317618,1.3160152145200634,0.9675363680246372,0.28717021522325803,0.6815509699994844
0.0425,1.7641145248694508,1.0,2935.851992773397,0.3800637948973672,1.3156975094325887,0.9680836691755259,0.28714581004451695,0.6821909519708564
0.043000000000000003,1.7635334491851393,1.0,2942.0201521329413,0.38354115205812045,1.3153810565401902,0.9686139172717892,0.28712140486577586,0.6828277716058462
0.043500000000000004,1.762952373500828,1.0,2948.0574100103954,0.3869990006734393,1.3150658051366224,0.9691278267480894,0.2870969996870348,0.6834615383724869
0.044,1.7623712978165167,1.0,2953.9691475303425,0.39043745020274134,1.3147517045156394,0.9696260746085625,0.2870725945082937,0.6840923613026136
0.0445,1.7617902221322053,1.0,2959.760778130345,0.3938566101054444,1.314438703970995,0.9701093027592711,0.2870481893295526,0.6847203489956664
0.045,1.7612091464478938,1.0,2965.43774629556,0.39725658984096607,1.314126752796444,0.9705781201731298,0.28702378415081153,0.6853456096223272
0.0455,1.7606280707635824,1.0,2971.0055263503664,0.4006374988687241,1.31381580028574,0.9710331049008578,0.28699937897207045,0.6859682509279991
0.046,1.7600469950792712,1.0,2976.468889342754,0.40399944344510996,1.3135058021039185,0.9714748059719512,0.28697497379332937,0.686588367497381
0.0465,1.7594659193949598,1.0,2981.827475264006,0.4073425102461734,1.313196758755432,0.9719037457551496,0.28695056861458834,0.687205963983073
0.047,1.7588848437106483,1.0,2987.092898197706,0.41066684048782454,1.3128885667542234,0.9723204206621499,0.2869261634358472,0.6878212525334436
0.0475,1.758303768026337,1.0,2992.2678249928135,0.41397253485454666,1.3125812006983644,0.9727253030918872,0.2869017582571062,0.6884342888072987
0.048,1.7577226923420257,1.0,2997.3549372549755,0.4172596940308231,1.312274635185927,0.9731188426656515,0.2868773530783651,0.6890451282509448
0.0485,1.7571416166577143,1.0,3002.35693088923,0.42052841870113705,1.3119688448149829,0.9735014675364315,0.286852947899624,0.6896538260995062
0.049,1.7565605409734029,1.0,3007.2765156559144,0.4237788095499719,1.3116638041836044,0.9738735856113399,0.28682854272088293,0.6902604373782013
0.0495,1.7559794652890914,1.0,3012.116414741433,0.42701096726181087,1.3113594878898631,0.9742355856936302,0.28680413754214185,0.6908650169035784
0.05,1.7553983896047802,1.0,3016.8793643429153,0.4302249925211373,1.3110558705318316,0.9745878385502849,0.28677973236340076,0.691467619284708
0.0505,1.7548173139204688,1.0,3021.5681132678737,0.4334209860124344,1.310752926707581,0.97493069791065,0.2867553271846597,0.6920682989243392
0.051000000000000004,1.7542362382361574,1.0,3026.1854225471957,0.43659904842018554,1.3104506310151838,0.9752645014011547,0.2867309220059186,0.692667110020007
0.051500000000000004,1.7536551625518462,1.0,3030.734065063276,0.43975928042887397,1.310148958052712,0.9755895714207348,0.2867065168271775,0.6932641065651057
0.052000000000000005,1.7530740868675347,1.0,3035.2168251922467,0.442901782722983,1.3098478824182371,0.9759062159612174,0.2866821116484365,0.6938593423499181
0.0525,1.7524930111832233,1.0,3039.6364984598545,0.44602665598699587,1.3095473787098313,0.976214729376577,0.28665770646969535,0.694452870962603
0.053,1.7519119354989119,1.0,3043.9958912130664,0.44913400090539596,1.3092474215255665,0.9765153931046677,0.2866333012909543,0.6950447457901423
0.0535,1.7513308598146007,1.0,3048.297820304144,0.4522239181626665,1.3089479854635149,0.9768084763447547,0.28660889611221324,0.6956350200192469
0.054,1.7507497841302893,1.0,3052.542811166126,0.45529648816802365,1.3086490649046918,0.9770942358892297,0.28658449093347216,0.6962237076959801
0.0545,1.7501687084459778,1.0,3056.733124100939,0.45835181301728933,1.3083506393596884,0.9773729188250195,0.2865600857547311,0.6968108520614521
0.055,1.7495876327616664,1.0,3060.8736879899493,0.4613900182032698,1.3080526655038653,0.97764476264566,0.28653568057599,0.6973965410585576
0.0555,1.7490065570773552,1.0,3064.9657652592855,0.46441119511294854,1.3077551315921918,0.9779099934675363,0.2865112753972489,0.697980800314645
0.056,1.7484254813930438,1.0,3069.010623302987,0.46741543513330913,1.3074580258796378,0.9781688280210089,0.2864868702185078,0.6985636553641454
0.0565,1.7478444057087323,1.0,3073.0095343701105,0.470402829651335,1.307161336621173,0.9784214741168287,0.28646246503976674,0.6991451316488982
0.057,1.747263330024421,1.0,3076.963775454752,0.4733734700540098,1.3068650520717666,0.978668131085703,0.28643805986102566,0.6997252545184693
0.0575,1.7466822543401097,1.0,3080.8746281892013,0.47632744772831703,1.3065691604863885,0.978908990192763,0.28641365468228464,0.700304049230456
0.058,1.7461011786557983,1.0,3084.7433787395576,0.4792648540612402,1.3062736501200083,0.9791442350285563,0.2863892495035435,0.7008815409507869
0.0585,1.7455201029714869,1.0,3088.5713177059756,0.48218578043976285,1.3059785092275955,0.9793740418780722,0.28636484432480247,0.7014577547540124
0.059000000000000004,1.7449390272871754,1.0,3092.3597400236,0.4850903182508685,1.3056837260641199,0.9795985800691958,0.28634043914606133,0.7020327156235846
0.059500000000000004,1.7443579516028642,1.0,3096.1099448693094,0.48797855888154074,1.3053892888845509,0.979818012301894,0.2863160339673203,0.7026064484521313
0.06,1.7437768759185528,1.0,3099.8232355687323,0.490850593718763,1.3050951859438584,0.98003249495934,0.2862916287885792,0.703178978041717
0.0605,1.7431958002342414,1.0,3103.5009195086564,0.4937065141495189,1.3048014054970116,0.9802421784020988,0.28626722360983814,0.7037503291041017
0.061,1.7426147245499302,1.0,3107.144308051102,0.49654641156079193,1.3045079357989804,0.9804472072464225,0.28624281843109706,0.7043205262609823
0.0615,1.7420336488656187,1.0,3110.754716450838,0.49937037733956563,1.3042147651047344,0.9806477206276253,0.286218413252356,0.7048895940442323
0.062,1.7414525731813073,1.0,3114.3334637762323,0.5021785028728235,1.3039218816692433,0.9808438524494484,0.2861940080736149,0.7054575568961303
0.0625,1.7408714974969959,1.0,3117.881872832713,0.5049708795475492,1.3036292737474764,0.9810357316202613,0.2861696028948738,0.7060244391695792
0.063,1.7402904218126847,1.0,3121.40074623095,0.50774758786394,1.303336934047138,0.9812234817095157,0.2861451977161328,0.7065902565142931
0.0635,1.7397093461283732,1.0,3124.88877464884,0.5105086711059663,1.303044873237649,0.9814072199935588,0.28612079253739164,0.7071549898098766
0.064,1.7391282704440618,1.0,3128.350356112533,0.5132542941150405,1.3027530535110423,0.9815870657321296,0.2860963873586506,0.7077187136152423
0.0645,1.7385471947597504,1.0,3131.7860331872635,0.5159845382687195,1.3024614698631964,0.9817631295582329,0.28607198217990953,0.7082814389291924
0.065,1.7379661190754392,1.0,3135.1963501086207,0.5186994849445603,1.30217011728999,0.9819355181496724,0.28604757700116845,0.7088431767122247
0.0655,1.7373850433911278,1.0,3138.5818527565625,0.5213992155201199,1.3018789907873007,0.9821043343990334,0.28602317182242737,0.7094039378866097
0.066,1.7368039677068163,1.0,3141.94308862981,0.5240838113729551,1.3015880853510076,0.9822696775751822,0.2859987666436863,0.7099637333364585
0.0665,1.736222892022505,1.0,3145.2806068214322,0.5267533538806228,1.3012973959769885,0.9824316434767634,0.2859743614649452,0.7105225739077992
0.067,1.7356418163381937,1.0,3148.594957994204,0.5294079244206801,1.3010069176611219,0.9825903245781478,0.2859499562862041,0.7110804704086435
0.0675,1.7350607406538823,1.0,3151.886694357234,0.5320476043706838,1.300716645399286,0.9827458101682491,0.28592555110746304,0.7116374336090564
0.068,1.7344796649695708,1.0,3155.156369642506,0.5346724751081909,1.3004265741873595,0.9828981864826087,0.28590114592872196,0.7121934742412213
0.0685,1.7338985892852594,1.0,3158.4045390826827,0.5372826180107583,1.3001366990212204,0.983047536829115,0.2858767407499809,0.7127486029995069
0.069,1.7333175136009482,1.0,3161.6317593886897,0.5398781144559428,1.2998470148967474,0.9831939417077116,0.2858523355712398,0.7133028305405287
0.0695,1.7327364379166368,1.0,3164.8385887285604,0.5424590458213016,1.2995575168098186,0.9833374789244161,0.28582793039249876,0.713856167483212
0.07,1.7321553622323254,1.0,3168.0255867061974,0.5450254934843914,1.2992681997563122,0.9834782236999601,0.2858035252137577,0.714408624408852
