Time [s],Phi [rad],STIM [ ],Fsee [N],Gamma [ ],Lcerel [ ],q [ ],Lmtc [m],fisomrel [ ]
0.0,1.8,1.0,17.9677568121324,1.0000201398992973e-05,1.3793396791520693,0.005000026652837385,0.288653,0.5411396933061388
0.0005,1.79999375,1.0,18.277033440376808,0.0056191534169718615,1.3793023556546649,0.012940513865787661,0.2886527375,0.5412299840396114
0.001,1.799975,1.0,21.618620144228565,0.011196843717928057,1.3789382777456736,0.03560857542982865,0.28865195,0.5421102731477767
0.0015,1.79994375,1.0,31.06937953057759,0.016743247587201908,1.3780461915010411,0.07060170277550888,0.2886506375,0.5442636386848156
0.002,1.7999,1.0,53.58227332307559,0.022258540516078736,1.3763681391161993,0.11471783360217024,0.2886488,0.5483004587315348
0.0025,1.79984375,1.0,97.11844270240775,0.0277428970117541,1.3739351911097653,0.16457467112774746,0.28864643749999996,0.5541214057707378
0.003,1.7997750000000001,1.0,160.95750574827468,0.03319649060505506,1.3712143685008733,0.21728022524698615,0.28864354999999997,0.5605863922783731
0.0035,1.79969375,1.0,237.68256900159912,0.038619493850028705,1.3685847577214645,0.27061266091154085,0.2886401375,0.5667897843603614
0.004,1.7996,1.0,321.4659665691312,0.044012078334725174,1.3661561137114564,0.3229155813515201,0.2886362,0.5724799119634025
0.0045000000000000005,1.7994937500000001,1.0,409.26694220585955,0.04937441468638192,1.3639228331471225,0.37303429875771005,0.2886317375,0.5776791183487616
0.005,1.799375,1.0,499.41268827955315,0.05470667256251099,1.3618583596843772,0.4202472660308175,0.28862675,0.5824570393065431
0.0055,1.79924375,1.0,590.7896098160334,0.06000902069838823,1.3599388508111134,0.4641735187216388,0.2886212375,0.5868750754999204
0.006,1.7991000000000001,1.0,682.5173078210123,0.06528162685015462,1.3581464292984897,0.5046797980720347,0.2886152,0.5909793851426719
0.006500000000000001,1.79894375,1.0,773.8805493638309,0.07052465785046935,1.356467265711791,0.5418006106146173,0.2886086375,0.5948057668238499
0.007,1.798775,1.0,864.2850653118837,0.07573827959209224,1.3548904070449137,0.5756766463840388,0.28860155,0.5983826498325748
0.0075,1.79859375,1.0,953.242573260033,0.08092265703762276,1.3534067890680865,0.6065097940009488,0.2885939375,0.6017335505120696
0.008,1.7984,1.0,1040.3436470368233,0.08607795379755068,1.3520088643567836,0.6345320722540659,0.2885858,0.6048780593566567
0.0085,1.79819375,1.0,1125.3136087072658,0.09120433401465938,1.3506892502585226,0.6599843382832963,0.2885771375,0.6078349800800871
0.009000000000000001,1.797975,1.0,1207.9000008426035,0.09630195964134095,1.3494420375064935,0.6831041043984609,0.28856795,0.6106194592580051
0.0095,1.79774375,1.0,1287.8926523740686,0.10137099116583596,1.348262117893,0.7041173937815345,0.2885582375,0.6132445702827873
0.01,1.7975,1.0,1365.1672102365071,0.1064115890763851,1.347144383210347,0.7232341531675566,0.288548,0.6157231415991959
0.0105,1.79724375,1.0,1439.6583712521663,0.11142391335869761,1.3460839605044892,0.7406466005090813,0.2885372375,0.6180672585507881
0.011,1.796975,1.0,1511.3209812280684,0.11640812280003553,1.3450765687041564,0.7565290749464593,0.28852595000000003,0.6202875055209365
0.0115,1.79669375,1.0,1580.120253735569,0.1213643745783044,1.3441184921228506,0.7710385589612198,0.2885141375,0.622393059244565
0.012,1.7964,1.0,1646.0572685316808,0.12629282536185038,1.3432061619405378,0.7843155383274262,0.28850180000000003,0.624392635223359
0.0125,1.79609375,1.0,1709.173826616273,0.13119363187075334,1.342336036494554,0.7964852816010968,0.2884889375,0.6262947644043348
0.013000000000000001,1.7957750000000001,1.0,1769.5061631046995,0.13606694903768146,1.3415050771700507,0.8076594532967523,0.28847555,0.6281067674332834
0.0135,1.79544375,1.0,1827.0906645135037,0.14091293035966418,1.3407106046756296,0.81793743246358,0.2884616375,0.629835088844282
0.014,1.7951000000000001,1.0,1881.9913641232322,0.145731729333731,1.3399499397198928,0.8274075014296987,0.2884472,0.6314860921059988
0.0145,1.79474375,1.0,1934.2803623580155,0.15052349831112025,1.339220588259095,0.8361481592015648,0.2884322375,0.6330656648633721
0.015,1.794375,1.0,1984.0547072525846,0.1552883903343262,1.3385200256952734,0.8442291738691589,0.28841675,0.634579694525738
0.0155,1.79399375,1.0,2031.3740415394527,0.16002655499262666,1.3378463348322651,0.8517128096310904,0.2884007375,0.6360326978329242
0.016,1.7936,1.0,2076.31182736742,0.16473814174535226,1.3371976195802688,0.8586545180144747,0.2883842,0.6374290986906898
0.0165,1.7931937500000001,1.0,2118.955947298748,0.16942330005183362,1.3365719838494836,0.8651037388567328,0.2883671375,0.6387732770651242
0.017,1.792775,1.0,2159.3899014577783,0.17408217774360876,1.3359677109542818,0.8711046636256151,0.28834955,0.6400691874876918
0.0175,1.7923437500000001,1.0,2197.720325502191,0.17871492432735614,1.335382965173737,0.876696772218478,0.2883314375,0.6413210034160457
0.018000000000000002,1.7919,1.0,2234.0143673648317,0.1833216849396937,1.334816415794395,0.8819155521501988,0.2883128,0.6425317848041928
0.0185,1.79144375,1.0,2268.346544700073,0.18790260463676456,1.3342667408453268,0.8867928311960773,0.2882936375,0.6437045470811324
0.019,1.790975,1.0,2300.798912901829,0.19245782847471182,1.3337326183556035,0.8913571990359699,0.28827395,0.6448422813951311
0.0195,1.79049375,1.0,2331.4523784614958,0.19698750044987187,1.3332128054862404,0.8956343971716748,0.2882537375,0.6459477878188422
0.02,1.79,1.0,2360.3957702329744,0.20149176544510133,1.33270604154554,0.8996476201799163,0.288233,0.647023883670591
0.0205,1.78949375,1.0,2387.7058074128418,0.20597076631935898,1.332211238003689,0.9034178428547212,0.2882117375,0.6480730017348735
0.021,1.788975,1.0,2413.444962303099,0.21042464336737665,1.3317274896625655,0.90696406680832,0.28818995000000003,0.6490971702875399
0.021500000000000002,1.78844375,1.0,2437.6796338996683,0.2148535368838862,1.3312538913240473,0.9103034977224158,0.2881676375,0.6500984039626158
0.022,1.7879,1.0,2460.479821806342,0.21925758716361948,1.3307895377900125,0.913451739847488,0.2881448,0.6510787043643811
0.0225,1.78734375,1.0,2481.9142694796506,0.22363693365171478,1.3303335672228174,0.9164229753654306,0.28812143749999997,0.6520399692788533
0.023,1.786775,1.0,2502.0500982011945,0.22799171545986727,1.329885160994894,0.9192301144302424,0.28809755,0.6529839941178981
0.0235,1.78619375,1.0,2520.9601958853336,0.23232207261052226,1.3294434705352451,0.921884914193868,0.28807313749999996,0.6539126266635621
0.024,1.7856,1.0,2538.694338033663,0.2366281402653333,1.329007887849017,0.9243981437738865,0.2880482,0.6548271994041093
0.0245,1.78499375,1.0,2555.3041542626243,0.2409100535859539,1.3285778049413555,0.9267796426870776,0.2880227375,0.6557290373084201
0.025,1.784375,1.0,2570.8429739699936,0.24516794773403763,1.328152613817407,0.9290384138446595,0.28799675,0.6566194580510326
0.025500000000000002,1.78374375,1.0,2585.36568019727,0.249401957871238,1.3277317064823173,0.9311827061139061,0.2879702375,0.6574997722136104
0.026000000000000002,1.7831000000000001,1.0,2598.9224376215557,0.2536122176943146,1.3273145320810618,0.9332200963843319,0.2879432,0.6583711641854452
0.0265,1.78244375,1.0,2611.564255542949,0.25779886155217724,1.3269005433054561,0.9351575462643845,0.2879156375,0.6592348048042016
0.027,1.781775,1.0,2623.347331674726,0.26196202437253147,1.3264891550491862,0.9370014538589523,0.28788755,0.6600919376124632
0.0275,1.7810937500000001,1.0,2634.308512439322,0.2661018358338443,1.3260799708916935,0.9387577384295145,0.2878589375,0.6609434074721694
0.028,1.7804,1.0,2644.4854251309275,0.27021842561458254,1.3256725944124195,0.9404318581150591,0.2878298,0.6617900550021802
0.0285,1.77969375,1.0,2653.916410668462,0.2743119233932132,1.3252666291908062,0.942028851904935,0.2878001375,0.6626327166289878
0.029,1.778975,1.0,2662.640459833174,0.2783824588482033,1.324861678806295,0.9435533772851052,0.28776995,0.6634722246274095
0.029500000000000002,1.7782437500000001,1.0,2670.6971529897683,0.2824301616580197,1.3244573468383276,0.9450097440508936,0.2877392375,0.6643094071512539
0.03,1.7775,1.0,2678.1200547272583,0.28645515872984834,1.324053296958564,0.946401951785095,0.287708,0.6651449640634077
0.0305,1.77674375,1.0,2684.9500398942637,0.2904575808681996,1.323649129930375,0.9477337026762072,0.2876762375,0.6659797216049466
0.031,1.775975,1.0,2691.2178057071014,0.29443755445141423,1.3232445436670863,0.9490084446985861,0.28764395,0.6668143016245445
0.0315,1.7751937500000001,1.0,2696.949496701944,0.29839520368949474,1.322839280846507,0.9502293869546516,0.2876111375,0.6676492306840247
0.032,1.7744,1.0,2702.17154710905,0.3023306527924439,1.3224330841464456,0.9513995146208096,0.2875778,0.6684850326779692
0.0325,1.77359375,1.0,2706.910653239857,0.30624402597026446,1.3220256962447103,0.9525216073155072,0.2875439375,0.6693222288205024
0.033,1.772775,1.0,2711.1937473418798,0.31013544743295907,1.3216168598191103,0.9535982557491799,0.28750955,0.6701613376278532
0.0335,1.7719437500000002,1.0,2715.0479729222934,0.31400504139053037,1.321206317547454,0.9546318768351698,0.2874746375,0.671002874896697
0.034,1.7711000000000001,1.0,2718.494140226281,0.3178529228671222,1.3207938715036502,0.9556247316410462,0.2874392,0.6718472321610317
0.0345,1.7702437500000001,1.0,2721.568369067646,0.32167922773332064,1.3203791857805018,0.9565789236321107,0.2874032375,0.672695080735404
0.035,1.7693750000000001,1.0,2724.2876340422667,0.32548407405329643,1.3199621001686597,0.9574964348769617,0.28736675,0.673546729769326
0.035500000000000004,1.76849375,1.0,2726.6688277401527,0.3292675796782707,1.3195424561828906,0.9583791211156186,0.2873297375,0.6744024830886655
0.036000000000000004,1.7676,1.0,2728.7289387973015,0.3330298624594646,1.319120095337961,0.9592287211401199,0.2872922,0.6752626427024577
0.0365,1.76669375,1.0,2730.485041327585,0.3367710402480991,1.3186948591486378,0.96004686549369,0.2872541375,0.6761275087762433
0.037,1.765775,1.0,2731.9542849115314,0.3404912308953956,1.3182665891296879,0.960835084428646,0.28721555,0.6769973796038089
0.0375,1.76484375,1.0,2733.153885142195,0.34419055225257517,1.3178351267958774,0.9615948151937712,0.2871764375,0.6778725515773231
0.038,1.7639,1.0,2734.101114727431,0.34786912217085886,1.3174003136619736,0.9623274087144504,0.28713679999999997,0.6787533191558698
0.0385,1.76294375,1.0,2734.8132951498505,0.3515270585014678,1.3169619912427428,0.9630341357222846,0.28709663750000003,0.6796399748323834
0.039,1.7619754338978295,1.0,2735.3499008327544,0.3551644697569909,1.3165198146331574,0.9637161732638677,0.2870559682237088,0.68053318541005
0.0395,1.7610037274439032,1.0,2736.1103329932334,0.3587814787536284,1.3160740752943447,0.9643746911221004,0.2870151565526439,0.6814323307615591
0.04,1.760032020989977,1.0,2737.2125513226188,0.3623782077747594,1.3156252344908321,0.9650108066248401,0.286974344881579,0.6823364520172425
0.0405,1.7590603145360506,1.0,2738.635983098693,0.3659547671095253,1.3151734807814075,0.9656255469556855,0.2869335332105141,0.6832451435335833
0.041,1.758088608082124,1.0,2740.360092948145,0.3695112670470676,1.314719002724859,0.9662198814986477,0.2868927215394492,0.6841580016705044
0.0415,1.7571169016281978,1.0,2742.3643710630618,0.3730478178765278,1.3142619888799747,0.966794725697376,0.28685190986838427,0.6850746248252637
0.042,1.7561451951742715,1.0,2744.628322205937,0.3765645298870474,1.3138026278055426,0.9673509446186649,0.2868110981973194,0.685994613464082
0.0425,1.755173488720345,1.0,2747.1314555015733,0.38006151336776794,1.3133411080603508,0.9678893562456862,0.28677028652625447,0.6869175701515038
0.043000000000000003,1.7542017822664187,1.0,2749.8532750197,0.3835388786078308,1.3128776182031874,0.9684107345239742,0.28672947485518957,0.6878430995774889
0.043500000000000004,1.7532300758124924,1.0,2752.773271143363,0.3869967358963775,1.3124123467928406,0.9689158121810153,0.28668866318412467,0.6887708085822383
0.044,1.752258369358566,1.0,2755.870912727448,0.39043519552254957,1.3119454823880983,0.9694052833383565,0.28664785151305977,0.6897003061787521
0.0445,1.7512866629046395,1.0,2759.1256400444777,0.39385436777548855,1.3114772135477486,0.9698798059334018,0.28660703984199487,0.6906312035731194
0.045,1.7503149564507132,1.0,2762.5168585192014,0.3972543629443358,1.3110077288305797,0.970340003966483,0.28656622817092997,0.6915631141825402
0.0455,1.749343249996787,1.0,2766.0419846873697,0.40063527748079647,1.3105370538018128,0.9707864553267148,0.28652541649986507,0.6924959764543686
0.046,1.7483715435428604,1.0,2769.6746122916197,0.40399723474167276,1.3100654290113092,0.9712197285766393,0.2864846048288001,0.6934293039924515
0.0465,1.747399837088934,1.0,2773.4041463701983,0.40734034097342614,1.309592951865742,0.9716403509399638,0.2864437931577352,0.694362895902603
0.047,1.7464281306350078,1.0,2777.2237624338504,0.41066469887384244,1.3091196855805125,0.9720488206612341,0.2864029814866703,0.6952966198552459
0.0475,1.7454564241810813,1.0,2781.1266210625267,0.41397041114070754,1.3086456933710207,0.9724456116577985,0.2863621698156054,0.6962303442714346
0.048,1.744484717727155,1.0,2785.1058668434125,0.4172575804718072,1.3081710384526675,0.972831174936939,0.2863213581445405,0.6971639383259074
0.0485,1.7435130112732287,1.0,2789.1546273976865,0.42052630956492737,1.3076957840408536,0.9732059399177859,0.2862805464734756,0.6980972719498864
0.049,1.7425413048193024,1.0,2793.2660124963127,0.42377670111785387,1.3072199933509794,0.9735703156652364,0.2862397348024107,0.699030215833623
0.0495,1.7415695983653758,1.0,2797.433113263772,0.42700885782837256,1.3067437295984454,0.9739246920424856,0.28619892313134576,0.6999626414286856
0.05,1.7405978919114495,1.0,2801.6490014708907,0.43022288239426926,1.3062670559986527,0.9742694407882314,0.28615811146028086,0.7008944209499941
0.0505,1.7396261854575232,1.0,2805.9067289161408,0.43341887751332986,1.3057900357670014,0.9746049165241133,0.28611729978921596,0.7018254273776021
0.051000000000000004,1.7386544790035967,1.0,2810.1993268953033,0.43659694588334025,1.3053127321188924,0.9749314576974862,0.28607648811815106,0.7027555344582188
0.051500000000000004,1.7376827725496704,1.0,2814.5209019624763,0.43975718758301435,1.3048351984573114,0.9752493865447591,0.28603567644708616,0.7036846357828175
0.052000000000000005,1.736711066095744,1.0,2818.870371063232,0.44289969596291545,1.3043574449990571,0.9755590074152876,0.28599486477602126,0.7046127094185137
0.0525,1.7357393596418178,1.0,2823.238455609975,0.44602458600005307,1.3038795551794837,0.975860618090172,0.28595405310495636,0.7055395916579053
0.053,1.7347676531878913,1.0,2827.623024345516,0.4491319533233812,1.3034015483481587,0.9761544972332715,0.2859132414338914,0.7064652438135839
0.0535,1.733795946733965,1.0,2832.02193939274,0.45222189356185355,1.3029234438546504,0.9764409114040821,0.2858724297628265,0.7073896274337961
0.054,1.7328242402800387,1.0,2836.4330562081554,0.455294502344424,1.3024452610485264,0.9767201156872592,0.2858316180917616,0.7083127043025788
0.0545,1.7318525338261122,1.0,2840.854223544684,0.4583498753000463,1.3019670192793549,0.9769923542842642,0.2857908064206967,0.7092344364398653
0.055,1.7308808273721858,1.0,2845.2832834216783,0.4613881080576744,1.3014887378967037,0.9772578610697036,0.2857499947496318,0.7101547861015711
0.0555,1.7299091209182595,1.0,2849.7180711042433,0.464409296246262,1.3010104362501407,0.9775168601147554,0.2857091830785669,0.7110737157796556
0.056,1.728937414464333,1.0,2854.1564150901954,0.46741353549476305,1.3005321336892337,0.9777695661798795,0.285668371407502,0.7119911882021575
0.0565,1.7279657080104067,1.0,2858.5961371052476,0.47040092143213125,1.3000538495635507,0.9780161851788604,0.28562755973643705,0.712907166333208
0.057,1.7269940015564804,1.0,2863.035052107576,0.47337154968732054,1.2995756032226597,0.9782569146160639,0.2855867480653722,0.7138216133730215
0.0575,1.726022295102554,1.0,2867.470968298634,0.47632551588928473,1.2990974140161287,0.9784919439986666,0.28554593639430725,0.7147344927578588
0.058,1.7250505886486276,1.0,2871.903979659669,0.4792628971755774,1.2986192809786268,0.9787214524894365,0.28550512472324235,0.7156458068488774
0.0585,1.7240788821947013,1.0,2876.332049548736,0.48218379649793064,1.2981412220137531,0.978945615401541,0.28546431305217745,0.7165555221178124
0.059000000000000004,1.723107175740775,1.0,2880.75182835543,0.48508832725696605,1.2976632665871397,0.9791646026189686,0.28542350138111255,0.7174635833057188
0.059500000000000004,1.7221354692868485,1.0,2885.1629146584837,0.48797657710066955,1.2971854180095697,0.9793785737953715,0.28538268971004765,0.7183699850844303
0.06,1.7211637628329222,1.0,2889.5649059654093,0.4908486336770268,1.2967076795918264,0.979587682401506,0.2853418780389827,0.719274722165925
0.0605,1.7201920563789959,1.0,2893.9573987208682,0.4937045846340237,1.2962300546446932,0.9797920760128137,0.28530106636791785,0.7201777893023025
0.061,1.7192203499250693,1.0,2898.339988314103,0.496544517619646,1.2957525464789534,0.9799918965814918,0.2852602546968529,0.7210791812857604
0.0615,1.718248643471143,1.0,2902.712269088332,0.4993685202818796,1.2952751584053905,0.980187280693999,0.285219443025788,0.72197889294857
0.062,1.7172769370172167,1.0,2907.07383434867,0.5021766802687102,1.2947978937347877,0.9803783598148811,0.2851786313547231,0.7228769191630511
0.0625,1.7163052305632904,1.0,2911.4242763714656,0.5049690852281236,1.2943207557779282,0.9805652605177433,0.2851378196836582,0.7237732548415472
0.063,1.715333524109364,1.0,2915.763186413384,0.5077458228081055,1.2938437478455955,0.9807481047041351,0.2850970080125933,0.7246678949363969
0.0635,1.7143618176554376,1.0,2920.0901547207263,0.510506980656642,1.293366873248573,0.98092700981107,0.28505619634152835,0.7255608344399098
0.064,1.7133901112015113,1.0,2924.4047705395024,0.5132526464217186,1.2928901352976438,0.9811020890078438,0.2850153846704635,0.7264520683843363
0.0645,1.7124184047475848,1.0,2928.706622124593,0.5159829077513214,1.2924135373035914,0.9812734513827854,0.28497457299939855,0.7273415918418404
0.065,1.7114466982936585,1.0,2932.99529675072,0.5186978522934358,1.2919370825771992,0.9814412021205182,0.28493376132833365,0.7282293999244693
0.0655,1.7104749918397322,1.0,2937.2703807222583,0.521397567696048,1.2914607744292503,0.9816054426702843,0.28489294965726875,0.7291154877841253
0.066,1.7095032853858059,1.0,2941.531459384151,0.5240821416071434,1.2909846161705283,0.9817662709058406,0.28485213798620385,0.7299998506125329
0.0665,1.7085315789318793,1.0,2945.778192921858,0.5267516577038289,1.290508610448693,0.9819237809791236,0.28481132631513895,0.730882484869801
0.067,1.707559872477953,1.0,2950.0114488952263,0.5294061556356011,1.290032749348669,0.9820780603607742,0.284770514644074,0.7317634065856256
0.0675,1.7065881660240267,1.0,2954.230126497443,0.5320457869680782,1.289557042177083,0.9822292016893021,0.28472970297300915,0.7326425998904942
0.068,1.7056164595701002,1.0,2958.4342881479392,0.5346706302802491,1.2890814880593573,0.9823772891746332,0.2846888913019442,0.7335200677977923
0.0685,1.704644753116174,1.0,2962.6239967079036,0.5372807641511023,1.2886060861209132,0.982522404177697,0.2846480796308793,0.734395813309847
0.069,1.7036730466622476,1.0,2966.7993154764677,0.5398762671596267,1.2881308354871726,0.9826646253266507,0.2846072679598144,0.7352698394179333
0.0695,1.7027013402083213,1.0,2970.9603081881432,0.5424572178848112,1.2876557352835574,0.9828040286275957,0.2845664562887495,0.736142149102283
0.07,1.7017296337543948,1.0,2975.1070390098253,0.5450236949056443,1.2871807846354892,0.9829406875700798,0.2845256446176846,0.7370127453320943
0.07050000000000001,1.7007579273004685,1.0,2979.2395725379183,0.5475757768011149,1.28670598266839,0.983074673227666,0.2844848329466197,0.7378816310655385
0.07100000000000001,1.6997862208465422,1.0,2983.357973795345,0.5501135421502119,1.2862313285076814,0.9832060543538306,0.2844440212755548,0.7387488092497697
0.07150000000000001,1.6988145143926157,1.0,2987.4623082287003,0.5526370695319239,1.2857568212787853,0.9833348974734368,0.28440320960448984,0.7396142828209322
