Time [s],Phi [rad],STIM [ ],Fsee [N],Gamma [ ],Lcerel [ ],q [ ],Lmtc [m],fisomrel [ ]
0.0,1.8,1.0,17.969546425487895,4.206325955245551e-05,1.379339478663856,0.005000466238475445,0.288653,0.5411401783387563
0.0005,1.79999375,1.0,18.289503571938766,0.005651036626735865,1.3793009707129353,0.01302976586121627,0.2886527375,0.5412333342354113
0.001,1.799975,1.0,21.654931008107138,0.011228548088093836,1.3789345707017877,0.0357758440688268,0.28865195,0.5421192319102419
0.0015,1.79994375,1.0,31.15650654081157,0.01677477412093243,1.3780387737927708,0.07083054936973557,0.2886506375,0.5442815226698285
0.002,1.7999,1.0,53.77084739595302,0.022289890210855465,1.3763559161337626,0.1149887890306987,0.2886488,0.5483297971655492
0.0025,1.79984375,1.0,97.43605848297463,0.027774070859550574,1.3739198984174394,0.1648694093564563,0.28864643749999996,0.5541578748963386
0.003,1.7997750000000001,1.0,161.37117085755565,0.033227489592209884,1.3711988945261007,0.21758427386019646,0.28864354999999997,0.5606230251996198
0.0035,1.79969375,1.0,238.15017157136816,0.03865031895735607,1.3685703613794074,0.2709150617655252,0.2886401375,0.5668236247214702
0.004,1.7996,1.0,321.9635571669274,0.044042730537562136,1.3661429395166327,0.3232083823847887,0.2886362,0.5725106755169627
0.0045000000000000005,1.7994937500000001,1.0,409.7822675269731,0.049404894954654055,1.363910740291102,0.37331224009198993,0.2886317375,0.5777071846325962
0.005,1.799375,1.0,499.9385372024043,0.0547369818609272,1.361847188369197,0.42050729847668966,0.28862675,0.5824828197363103
0.0055,1.79924375,1.0,591.3201754370665,0.06003915998504055,1.3599284871647241,0.4644142663749144,0.2886212375,0.586898865201891
0.006,1.7991000000000001,1.0,683.0485908639535,0.06531159707905007,1.3581367738598704,0.5049010412967648,0.2886152,0.5910014388049873
0.006500000000000001,1.79894375,1.0,774.4092382111928,0.0705544599504928,1.356458242183034,0.5420028944101702,0.2886086375,0.5948262805477726
0.007,1.798775,1.0,864.8121380590408,0.07576791457808135,1.3548818944250938,0.5758609417311613,0.28860155,0.5984019164835989
0.0075,1.79859375,1.0,953.7544209692538,0.08095212570270674,1.3533989173752417,0.6066774702902623,0.2885939375,0.601751292085482
0.008,1.7984,1.0,1040.863217236392,0.08610725766508649,1.3520012156328138,0.6346842661227647,0.2885858,0.6048952302073384
0.0085,1.79819375,1.0,1125.8148273249124,0.0912334733698397,1.3506821556336688,0.6601226414972765,0.2885771375,0.6078508473218218
0.009000000000000001,1.797975,1.0,1208.3619911828669,0.096330934836267,1.3494357255606835,0.6832299814692905,0.28856795,0.6106335258350725
0.0095,1.79774375,1.0,1288.3404394357094,0.1013998038991904,1.3482561929886827,0.7042318795771961,0.2885582375,0.6132577297354254
0.01,1.7975,1.0,1365.6118350100348,0.10644024063829234,1.3471386690456526,0.7233383182103339,0.288548,0.6157357922615206
0.0105,1.79724375,1.0,1440.0858919965176,0.11145240424781828,1.3460786101493654,0.7407415821098231,0.2885372375,0.618079067592741
0.011,1.796975,1.0,1511.7169563840375,0.11643645331756208,1.3450717320112182,0.7566158952229748,0.28852595000000003,0.6202981497665115
0.0115,1.79669375,1.0,1580.5053600741066,0.12139254653625264,1.344113891713094,0.771117941062843,0.2885141375,0.6224031553892508
0.012,1.7964,1.0,1646.4376024332068,0.12632083991468399,1.343201710456078,0.784388210916309,0.28850180000000003,0.6244023786352755
0.0125,1.79609375,1.0,1709.530688171627,0.13122148904188108,1.3423319375564746,0.7965520141013105,0.2884889375,0.6263037134210139
0.013000000000000001,1.7957750000000001,1.0,1769.8309704599408,0.13609464909597996,1.3415014105385492,0.807720879610249,0.28847555,0.6281147531893536
0.0135,1.79544375,1.0,1827.4043568107422,0.14094047512153549,1.3407071197577898,0.8179939903861497,0.2884616375,0.6298426611809665
0.014,1.7951000000000001,1.0,1882.3075444812434,0.14575912027967472,1.3399464787707922,0.8274596142590993,0.2884472,0.6314935955718729
0.0145,1.79474375,1.0,1934.5956895651095,0.15055073624789966,1.339217183617409,0.8361962702806419,0.2884322375,0.6330730304166872
0.015,1.794375,1.0,1984.345053478925,0.15531547470371246,1.3385169303374933,0.8442737510142511,0.28841675,0.6345863771520431
0.0155,1.79399375,1.0,2031.6336030270693,0.16005348626874588,1.3378436000748348,0.851754203979875,0.2884007375,0.6360385902055965
0.016,1.7936,1.0,2076.5659747323725,0.16476492249814376,1.3371949709983422,0.8586929419908594,0.2883842,0.6374347944305714
0.0165,1.7931937500000001,1.0,2119.213468438606,0.16944993152615792,1.3365693272498675,0.8651394353491385,0.2883671375,0.6387789794469757
0.017,1.792775,1.0,2159.6496881716635,0.17410866081773918,1.3359650561915024,0.8711378799113467,0.28834955,0.6400748756959205
0.0175,1.7923437500000001,1.0,2197.9592297766717,0.17874125783783837,1.335380545185339,0.8767277903123711,0.2883314375,0.6413261795637268
0.018000000000000002,1.7919,1.0,2234.2286893519235,0.18334786916543566,1.3348142625133936,0.8819445715374332,0.2883128,0.642536382709223
0.0185,1.79144375,1.0,2268.551322167263,0.18792864197610704,1.3342646990836793,0.8868199839216283,0.2882936375,0.643708899701841
0.019,1.790975,1.0,2301.0048585893046,0.19248372103206818,1.3337305794785863,0.8913826153054738,0.28827395,0.6448466209211958
0.0195,1.79049375,1.0,2331.6588680439213,0.1970132493313612,1.3332107747073805,0.895658221203009,0.2882537375,0.6459521033766178
0.02,1.79,1.0,2360.588701119636,0.20151736987202806,1.332704155779327,0.8996700115760788,0.288233,0.6470278849718281
0.0205,1.78949375,1.0,2387.875004070383,0.20599622565211095,1.332209593703692,0.9034389366890924,0.2882117375,0.648076485494987
0.021,1.788975,1.0,2413.586940332656,0.2104499573735499,1.3317261172539496,0.9069839710044856,0.28818995000000003,0.6491000737615398
0.021500000000000002,1.78844375,1.0,2437.816513356171,0.21487870939068174,1.331252574792594,0.9103222603230161,0.2881676375,0.6501011852464187
0.022,1.7879,1.0,2460.6226170396517,0.2192826203808246,1.330788170738488,0.9134694259613393,0.2881448,0.651081588327439
0.0225,1.78734375,1.0,2482.063404993197,0.22366182843797863,1.3303321456518666,0.916439663851953,0.28812143749999997,0.6520429641231951
0.023,1.786775,1.0,2502.199766982139,0.22801647165614386,1.329883740092964,0.9192458880074967,0.28809755,0.6529869834894063
0.0235,1.78619375,1.0,2521.095099183315,0.2323466881293204,1.3294421946220145,0.921899864021206,0.28807313749999996,0.653915307406348
0.024,1.7856,1.0,2538.809597223361,0.23665261489318745,1.3290068015414527,0.9244123359560245,0.2880482,0.6548294787610434
0.0245,1.78499375,1.0,2555.4033751263846,0.2409343888918838,1.328576872836296,0.9267931243978992,0.2880227375,0.6557309905520424
0.025,1.784375,1.0,2570.9434847998186,0.24519214794987376,1.32815167245204,0.929051207449879,0.28799675,0.6566214281470955
0.025500000000000002,1.78374375,1.0,2585.4732337529476,0.24942602485217552,1.3277307019899427,0.9311948492828337,0.2879702375,0.6575018717256995
0.026000000000000002,1.7831000000000001,1.0,2599.037201148511,0.25363615238380705,1.3273134630512629,0.93323163184524,0.2879432,0.658373395744227
0.0265,1.78244375,1.0,2611.6811314341617,0.2578226633297865,1.3268994572372588,0.935168520390482,0.2879156375,0.6592370690624542
0.027,1.781775,1.0,2623.4518334814866,0.26198569047513187,1.3264881861491888,0.9370119219116394,0.28788755,0.6600939550542495
0.0275,1.7810937500000001,1.0,2634.396738430145,0.2661253664073269,1.3260791545970088,0.9387677377285863,0.2878589375,0.6609451050296558
0.028,1.7804,1.0,2644.557923257952,0.27024182012278875,1.325671924927807,0.9404414167373023,0.2878298,0.6617914455159974
0.0285,1.77969375,1.0,2653.9846676733814,0.2743351872585693,1.3252659999915606,0.94203798365815,0.2878001375,0.6626340218414863
0.029,1.778975,1.0,2662.7096218142565,0.27840559507660634,1.3248610423102356,0.9435621021839286,0.28776995,0.6634735433326127
0.029500000000000002,1.7782437500000001,1.0,2670.7659773117816,0.2824531708388376,1.3244567144057975,0.9450180877754607,0.2877392375,0.6643107158067435
0.03,1.7775,1.0,2678.187419075933,0.2864780418072007,1.3240526788002125,0.9464099381218336,0.287708,0.6651462415893059
0.0305,1.77674375,1.0,2685.008079606812,0.2904803352436336,1.3236485980154462,0.9477413605743326,0.2876762375,0.665980819523712
0.031,1.775975,1.0,2691.2624958308115,0.2944601784100739,1.323244134573465,0.9490157968876285,0.28764395,0.666815144974017
0.0315,1.7751937500000001,1.0,2696.9802830294634,0.2984176949786147,1.322838999327568,0.9502364504650274,0.2876111375,0.6676498103098678
0.032,1.7744,1.0,2702.189296136284,0.30235300971974827,1.3224329220009972,0.9514063039224591,0.2875778,0.6684853661029939
0.0325,1.77359375,1.0,2706.9304727787094,0.3062662578097378,1.322025515342794,0.9525281236053404,0.2875439375,0.6693226003450509
0.033,1.772775,1.0,2711.2241891617914,0.31015755972795095,1.3216165821826529,0.9536045059689716,0.28750955,0.6701619070955003
0.0335,1.7719437500000002,1.0,2715.0910065114163,0.31402703595375525,1.3212059253502688,0.9546378732515755,0.2874746375,0.6710036783159361
0.034,1.7711000000000001,1.0,2718.5516535,0.31787480696651826,1.3207933476753362,0.9556304872385497,0.2874392,0.6718483038496521
0.0345,1.7702437500000001,1.0,2721.627009534789,0.32170099324560764,1.3203786519875498,0.9565844617844443,0.2874032375,0.6726961713987261
0.035,1.7693750000000001,1.0,2724.3380889073005,0.32550571527039085,1.319961641116604,0.9575017742178497,0.28736675,0.6735476664986273
0.035500000000000004,1.76849375,1.0,2726.7060258056445,0.3292890935202356,1.3195421178921936,0.9583842757405264,0.2873297375,0.6744031724903428
0.036000000000000004,1.7676,1.0,2728.7520601877177,0.33305124847450945,1.319119885144013,0.9592337009199392,0.2872922,0.6752630704900255
0.0365,1.76669375,1.0,2730.4975245175065,0.3367923006125799,1.318694745701757,0.9600516763635975,0.2872541375,0.676127739356162
0.037,1.765775,1.0,2731.961975108082,0.3405123676256008,1.3182665192601617,0.9608397297216867,0.28721555,0.6769975214222612
0.0375,1.76484375,1.0,2733.1599706344896,0.34421156412082443,1.3178350715180698,0.9615992996770649,0.2871764375,0.6778726636259678
0.038,1.7639,1.0,2734.112617242765,0.34789001837829436,1.3174002091965773,0.9623317356868766,0.28713679999999997,0.6787535306185235
0.0385,1.76294375,1.0,2734.8317039811136,0.35154784356064994,1.3169618240763297,0.9630383120072419,0.28709663750000003,0.6796403127493809
0.039,1.761975,1.0,2735.3290571704706,0.35518515283053054,1.3165198079379714,0.9637202281267974,0.28705595,0.6805331989250947
0.0395,1.7609937500000001,1.0,2735.616535442194,0.35880205935057546,1.3160740525621482,0.9643786139568015,0.2870147375,0.6814323765846314
0.04,1.76,1.0,2735.706025035023,0.36239867628342415,1.3156244497295044,0.9650145346074804,0.286973,0.6823380316739398
0.0405,1.7589937500000001,1.0,2735.6094353519547,0.3659751167917159,1.3151708912206859,0.9656289947876389,0.2869307375,0.683250348619766
0.041,1.757975,1.0,2735.3386947767917,0.3695314940380901,1.314713268816337,0.9662229428609103,0.28688795,0.6841695103027297
0.0415,1.75694375,1.0,2734.905746749813,0.3730679211851861,1.314251474297103,0.9667972745887599,0.2868446375,0.6850956980296468
0.042,1.7559,1.0,2734.3225461040297,0.37658451139564325,1.313785399443629,0.9673528365874274,0.28680079999999997,0.686029091505109
0.0425,1.75484375,1.0,2733.600990300919,0.38008137766567657,1.3133149366302086,0.9678904295453272,0.2867564375,0.6869698676160982
0.043000000000000003,1.753775,1.0,2732.742938638122,0.3835586078095124,1.3128400694643723,0.9684108145775291,0.28671155,0.6879180195711949
0.043500000000000004,1.75269375,1.0,2731.77102061342,0.3870163479936581,1.3123605929220923,0.9689147064150764,0.28666613750000003,0.6888739157823947
0.044,1.7516,1.0,2730.690771680618,0.39045470318113995,1.3118764572519626,0.9694027880595507,0.2866202,0.6898376129208061
0.0445,1.75049375,1.0,2729.507729652615,0.3938737783349845,1.3113876127025779,0.9698757069965285,0.2865737375,0.6908091666307059
0.045,1.7493750000000001,1.0,2728.2274336411538,0.39727367841821803,1.3108940095225319,0.9703340773873668,0.28652675,0.6917886315146807
0.0455,1.74824375,1.0,2726.855423051018,0.40065450839386696,1.3103955979604194,0.9707784821051088,0.2864792375,0.6927760611186025
0.046,1.7471,1.0,2725.3972366303,0.4040163732249577,1.309892328264834,0.9712094746269948,0.2864312,0.6937715079164553
0.0465,1.7459437500000001,1.0,2723.858411574126,0.4073593778745166,1.3093841506843706,0.9716275807949646,0.28638263750000004,0.6947750232949956
0.047,1.744775,1.0,2722.2444826842498,0.41068362730557006,1.3088710154676229,0.9720333004545259,0.28633355,0.6957866575382636
0.0475,1.74359375,1.0,2720.560981583493,0.4139892264811445,1.3083528728631855,0.9724271089814729,0.28628393750000003,0.6968064598119266
0.048,1.7424,1.0,2718.8134359842084,0.4172762803642662,1.3078296731196524,0.9728094587051045,0.2862338,0.6978344781474743
0.0485,1.74119375,1.0,2717.0073690128734,0.42054489391796174,1.307301366485618,0.9731807802358621,0.2861831375,0.6988707594262499
0.049,1.739975,1.0,2715.1482985883104,0.42379517210525736,1.3067679032096764,0.9735414837046271,0.28613195,0.6999153493633247
0.0495,1.73874375,1.0,2713.241736855707,0.42702721988917947,1.3062292335404218,0.9738919599203202,0.2860802375,0.7009682924912176
0.05,1.7375,1.0,2711.29219867975,0.4302411366795727,1.3056853167644171,0.9742325814126147,0.286028,0.702029614523718
0.0505,1.73624375,1.0,2709.30148861018,0.4334370084364577,1.3051361368473637,0.9745637036075395,0.2859752375,0.7030992920595246
0.051000000000000004,1.734975,1.0,2707.278815820368,0.4366149691868969,1.3045816101595773,0.9748856666550958,0.28592195,0.704177432246809
0.051500000000000004,1.73369375,1.0,2705.2263601149893,0.43977511508749334,1.3040217171332256,0.9751987951556543,0.2858681375,0.7052640162989955
0.052000000000000005,1.7324,1.0,2703.1462985894277,0.4429175422948501,1.3034564382004756,0.9755033991320861,0.2858138,0.7063590246003856
0.0525,1.73109375,1.0,2701.0408055131816,0.4460423469655702,1.302885753793495,0.9757997748086651,0.28575893750000003,0.7074624366994462
0.053,1.729775,1.0,2698.912052221401,0.44914962525625685,1.3023096443444508,0.9760882053418375,0.28570355000000003,0.708574231302078
0.0535,1.72844375,1.0,2696.762207015246,0.4522394733235131,1.3017280902855104,0.9763689615062154,0.2856476375,0.7096943862648561
0.054,1.7271,1.0,2694.593435070728,0.455311987323942,1.3011410720488412,0.9766423023389005,0.2855912,0.7108228785882482
0.0545,1.7257437500000001,1.0,2692.407898355784,0.45836726341414663,1.3005485700666104,0.9769084757450003,0.2855342375,0.711959684409808
0.055,1.724375,1.0,2690.207755555969,0.46140539775073014,1.2999505647709855,0.977167719066978,0.28547675,0.7131047789973433
0.0555,1.72299375,1.0,2687.995162008965,0.46442648649029555,1.2993470365941335,0.9774202596202821,0.2854187375,0.7142581367420615
0.056,1.7216,1.0,2685.772269646924,0.46743062578944594,1.298737965968222,0.9776663151975146,0.2853602,0.7154197311516881
0.0565,1.72019375,1.0,2683.541226947829,0.4704179118047845,1.2981233333254185,0.9779060945432297,0.28530113749999997,0.7165895348435631
0.057,1.718775,1.0,2681.3041788954324,0.4733884406929142,1.2975031190978898,0.9781397978012982,0.28524155,0.7177675195377129
0.0575,1.71734375,1.0,2679.0632669468155,0.47634230861043814,1.2968773037178036,0.978367616936634,0.2851814375,0.7189536560498948
0.058,1.7159,1.0,2676.8200667786045,0.4792796072151924,1.2962458727778359,0.9785897360318546,0.2851208,0.7201479045347522
0.0585,1.71444375,1.0,2674.571801925045,0.48220039394172615,1.2956088518100541,0.9788063310729886,0.2850596375,0.7213501490163949
0.059000000000000004,1.7129750000000001,1.0,2672.3268903946328,0.48510481855617316,1.2949661635532292,0.9790175732150427,0.28499795,0.7225604667050052
0.059500000000000004,1.71149375,1.0,2670.085801835559,0.4879929679935372,1.2943178036633132,0.9792236255024436,0.2849357375,0.723778796067613
0.06,1.71,1.0,2667.8490051070903,0.4908649291888222,1.2936637677962568,0.9794246445974615,0.284873,0.7250050748842671
0.0605,1.7084937500000001,1.0,2665.6169682819746,0.493720789077032,1.293004051608012,0.9796207810775619,0.2848097375,0.7262392402464588
0.061,1.7069750000000001,1.0,2663.390158649909,0.4965606345931703,1.2923386507545296,0.9798121797166842,0.28474595,0.7274812285555523
0.0615,1.7054437500000001,1.0,2661.1690427207473,0.499384552672241,1.2916675608917614,0.9799989797514372,0.2846816375,0.7287309755212075
0.062,1.7039,1.0,2658.9540862291274,0.502192630249248,1.2909907776756588,0.9801813151331213,0.2846168,0.7299884161598065
0.0625,1.70234375,1.0,2656.74575413829,0.5049849542591949,1.290308296762173,0.9803593147664394,0.2845514375,0.7312534847928764
0.063,1.7007750000000001,1.0,2654.5445106453185,0.5077616116370858,1.2896201138072556,0.9805331027356889,0.28448555,0.7325261150455112
0.0635,1.69919375,1.0,2652.3508191862775,0.5105226893179242,1.2889262244668578,0.9807027985191817,0.28441913750000003,0.7338062398447924
0.064,1.6976,1.0,2650.1651424416405,0.5132682742367143,1.2882266243969311,0.9808685171925859,0.2843522,0.7350937914182092
0.0645,1.69599375,1.0,2647.98794234311,0.5159984533284595,1.287521309253427,0.981030369621838,0.2842847375,0.7363887012920765
0.065,1.694375,1.0,2645.819680079364,0.518713313528164,1.2868102746922967,0.9811884626462347,0.28421675,0.7376909002899532
0.0655,1.69274375,1.0,2643.6608161033873,0.5214129417708314,1.2860935163694915,0.9813428992522665,0.2841482375,0.739000318531057
0.066,1.6911,1.0,2641.5118101397684,0.5240974249914656,1.285371029940963,0.9814937787387307,0.2840792,0.7403168854286797
0.0665,1.6894437500000001,1.0,2639.3731211926065,0.5267668501250704,1.2846428110626629,0.981641196873614,0.2840096375,0.7416405296886008
0.067,1.687775,1.0,2637.245207553324,0.5294213041066496,1.283908855390542,0.9817852460432145,0.28393955,0.742971179307501
0.0675,1.68609375,1.0,2635.1285268097663,0.532060873871207,1.283169158580552,0.981926015393937,0.2838689375,0.7443087615713717
0.068,1.6844000000000001,1.0,2633.0237795172343,0.5346855951551597,1.2824237140336354,0.9820635874996737,0.2837978,0.7456532071155846
0.0685,1.68269375,1.0,2630.9318429531854,0.537295610203325,1.2816725135046505,0.9821980489503737,0.2837261375,0.7470044487754225
0.069,1.680975,1.0,2628.852607868724,0.5398910037747047,1.2809155578732585,0.9823294800562419,0.28365395,0.7483624022473085
0.0695,1.67924375,1.0,2626.785937169691,0.5424718535086471,1.280152848279264,0.982457957951324,0.28358123749999997,0.7497269821460961
0.07,1.6775,1.0,2624.731694034778,0.5450382370445002,1.2793843858624718,0.9825835571634238,0.283508,0.7510981024752853
0.07050000000000001,1.67574375,1.0,2622.6897419128272,0.547590232021612,1.2786101717626868,0.9827063497183612,0.2834342375,0.7524756766274432
0.07100000000000001,1.673975,1.0,2620.659944519931,0.5501279160793302,1.2778302071197134,0.9828264052393704,0.28335995,0.753859617384621
0.07150000000000001,1.67219375,1.0,2618.642165836945,0.5526513668570032,1.2770444930733564,0.9829437910418988,0.2832851375,0.7552498369187722
0.07200000000000001,1.6704,1.0,2616.636270106877,0.5551606619939788,1.2762530307634206,0.9830585722240437,0.2832098,0.7566462467921704
0.0725,1.66859375,1.0,2614.6421218320042,0.5576558791296051,1.2754558213297107,0.9831708117528596,0.2831339375,0.7580487579578269
0.073,1.6667750000000001,1.0,2612.659585771543,0.5601370959032301,1.2746528659120315,0.9832805705467467,0.28305755,0.7594572807599096
0.0735,1.66494375,1.0,2610.6885269390186,0.5626043899542018,1.2738441656501875,0.9833879075541236,0.2829806375,0.7608717249341602
0.074,1.6631,1.0,2608.728810599576,0.5650578389218681,1.2730297216839834,0.9834928798285764,0.2829032,0.7622919996083117
0.0745,1.6612437500000001,1.0,2606.780302267631,0.5674975204455772,1.272209535153224,0.9835955426006606,0.2828252375,0.7637180133025053
0.075,1.659375,1.0,2604.842867704527,0.569923512164677,1.2713836071977145,0.9836959493465276,0.28274675,0.7651496739297086
0.0755,1.65749375,1.0,2602.9163729157626,0.5723358917185154,1.2705519389572588,0.9837941518535327,0.2826677375,0.7665868887961342
