Time [s],Phi [rad],STIM [ ],Fsee [N],Gamma [ ],Lcerel [ ],q [ ],Lmtc [m],fisomrel [ ]
0.0,1.8,1.0,18.953922259250064,0.0010133004969822082,1.379230673209373,0.005263717733862201,0.288653,0.5414033689322886
0.0005,1.79999375,1.0,19.558499581065785,0.006616825991331636,1.3791624220942484,0.01595876390015763,0.2886527375,0.5415684236977774
0.001,1.799975,1.0,23.645903702173957,0.012188920139077682,1.3787358607974995,0.041026418191335984,0.28865195,0.5425993231695697
0.0015,1.79994375,1.0,34.79916253839344,0.01772975924289934,1.377737431389802,0.07789260939956147,0.2886506375,0.5450077580581459
0.002,1.7999,1.0,60.63929730901307,0.02323951862123692,1.375924471809354,0.12327211482020096,0.2886488,0.5493647687973796
0.0025,1.79984375,1.0,108.16384233989868,0.028718372605587943,1.3734172678584067,0.17382984365383203,0.28864643749999996,0.5553556889833003
0.003,1.7997750000000001,1.0,174.81627011920455,0.034166494552018305,1.3707063306863634,0.22679485422770448,0.28864354999999997,0.5617883175671321
0.0035,1.79969375,1.0,253.06455445644508,0.03958405684192667,1.368118378444798,0.280052380001113,0.2886401375,0.5678853936580759
0.004,1.7996,1.0,337.671204962856,0.044971230891378444,1.3657321753477891,0.3320389815885571,0.2886362,0.5734693109546366
0.0045000000000000005,1.7994937500000001,1.0,425.941938368912,0.05032818715076867,1.363535314853612,0.3816831076064452,0.2886317375,0.5785780448159605
0.005,1.799375,1.0,516.3461171505752,0.05565509512543859,1.3615015249891882,0.4283310178151518,0.28862675,0.5832801257349851
0.0055,1.79924375,1.0,607.8178080325591,0.06095212336275719,1.3596085242092082,0.471652593053934,0.2886212375,0.5876330016456484
0.006,1.7991000000000001,1.0,699.5099178553997,0.06621943944957508,1.3578394476776345,0.5115498407578991,0.2886152,0.5916802604775684
0.006500000000000001,1.79894375,1.0,790.7299964138676,0.07145721004579761,1.3561811832735373,0.5480802367970675,0.2886086375,0.5954558822763483
0.007,1.798775,1.0,880.9057377425895,0.07666560094980895,1.3546232082885992,0.5813982403148253,0.28860155,0.5989871815787654
0.0075,1.79859375,1.0,969.550877723608,0.08184477672494318,1.353157014178936,0.6117132020181232,0.2885939375,0.6022963116588611
0.008,1.7984,1.0,1056.3084173975512,0.08699490165556258,1.351774708504616,0.6392597384549148,0.2885858,0.6054035537515705
0.0085,1.79819375,1.0,1140.8651308384497,0.09211613842985603,1.3504698532231643,0.6642792914741564,0.2885771375,0.6083255165233855
0.009000000000000001,1.797975,1.0,1222.982784684373,0.09720864892158852,1.3492365885386308,0.6870077028154706,0.28856795,0.6110771850315659
0.0095,1.79774375,1.0,1302.5069748292633,0.10227259449229596,1.3480692768796845,0.7076680618465538,0.2885582375,0.6136727630499157
0.01,1.7975,1.0,1379.3187274806419,0.10730813564647618,1.3469629669044874,0.7264673186236603,0.288548,0.6161246798368483
0.0105,1.79724375,1.0,1453.3216202987833,0.11231543111786002,1.3459133582145277,0.743594742141509,0.2885372375,0.618443713675854
0.011,1.796975,1.0,1524.4724060496399,0.11729463921561104,1.3449162662777336,0.7592215057333699,0.28852595000000003,0.6206402080900113
0.0115,1.79669375,1.0,1592.7772758559477,0.1222459184233587,1.34396758603668,0.7735013683561928,0.2885141375,0.6227241701406223
0.012,1.7964,1.0,1658.2399418692914,0.12716942530604722,1.3430638287576353,0.7865720485982158,0.28850180000000003,0.6247041116012497
0.0125,1.79609375,1.0,1720.8683897229628,0.13206531479810252,1.3422019338704723,0.7985564566814575,0.2884889375,0.6265874886967759
0.013000000000000001,1.7957750000000001,1.0,1780.7059230290133,0.13693374183395055,1.3413788408050642,0.8095639216948828,0.28847555,0.628381655135812
0.0135,1.79544375,1.0,1837.8100455560045,0.1417748605351065,1.340591688360611,0.8196916746138266,0.2884616375,0.6300934369249631
0.014,1.7951000000000001,1.0,1892.2658658350679,0.14658882531954354,1.3398376221239474,0.8290260948103756,0.2884472,0.6317295618276184
0.0145,1.79474375,1.0,1944.13123881112,0.15137578774179616,1.3391143574107256,0.8376441318092037,0.2884322375,0.6332954483351743
0.015,1.794375,1.0,1993.4695102890475,0.15613589858992832,1.338419770357967,0.8456142450557199,0.28841675,0.6347961066035105
0.0155,1.79399375,1.0,2040.3621413874569,0.16086930865200413,1.337751737102693,0.8529973445854483,0.2884007375,0.6362364926151574
0.016,1.7936,1.0,2084.889872957761,0.16557616766067373,1.3371083133879578,0.8598477386926182,0.2883842,0.6376211257803777
0.0165,1.7931937500000001,1.0,2127.157826110536,0.17025662602163205,1.3364874520502177,0.8662138297470271,0.2883671375,0.638954702209032
0.017,1.792775,1.0,2167.238613325108,0.17491083086658446,1.335887575235536,0.8721389780228985,0.28834955,0.6402408699055875
0.0175,1.7923437500000001,1.0,2205.206940349701,0.17953892876593772,1.3353071916875954,0.8776619845993536,0.2883314375,0.6414830586816906
0.018000000000000002,1.7919,1.0,2241.1469874547024,0.18414106629009871,1.3347448101500783,0.8828176026780505,0.2883128,0.6426846686147578
0.0185,1.79144375,1.0,2275.1420857481908,0.1887173889212803,1.3341990341191796,0.887637033307785,0.2882936375,0.6438488698782125
0.019,1.790975,1.0,2307.2847184554785,0.19326804316983928,1.333668452168772,0.8921483092985643,0.28827395,0.6449788393727547
0.0195,1.79049375,1.0,2337.6479005148162,0.19779317240206584,1.3331519129900016,0.8963767211800762,0.2882537375,0.646077177522648
0.02,1.79,1.0,2366.300914083249,0.20229291878388664,1.3326483577172903,0.9003450871866434,0.288233,0.6471462694770079
0.0205,1.78949375,1.0,2393.318074357985,0.20676742448122837,1.3321567274850594,0.9040740092986131,0.2882117375,0.6481884833750509
0.021,1.788975,1.0,2418.778304657804,0.21121683166001776,1.331675963427731,0.9075821187191027,0.28818995000000003,0.6492061711871377
0.021500000000000002,1.78844375,1.0,2442.746292402805,0.21564127976539751,1.3312051838951633,0.9108863272288531,0.2881676375,0.6502012951561578
0.022,1.7879,1.0,2465.3136711027937,0.22004091277379087,1.3307432829232577,0.9140019336524725,0.2881448,0.6511762780648785
0.0225,1.78734375,1.0,2486.534161609878,0.22441586795700935,1.330289549875658,0.9169429140386427,0.28812143749999997,0.6521326952899722
0.023,1.786775,1.0,2506.4638059943572,0.228766282543328,1.3298432766667192,0.9197219859276013,0.28809755,0.6530721072632721
0.0235,1.78619375,1.0,2525.161020409591,0.23309229376102197,1.329403755210797,0.9223507386478783,0.28807313749999996,0.6539960652201064
0.024,1.7856,1.0,2542.686394910992,0.23739403883836635,1.3289702774222458,0.9248397489832262,0.2880482,0.654906111520187
0.0245,1.78499375,1.0,2559.096988468063,0.2416716538891697,1.3285421869954077,0.9271986921614541,0.2880227375,0.655803671442202
0.025,1.784375,1.0,2574.4497572079813,0.24592527495043578,1.3281188448795247,0.929436426105638,0.28799675,0.6566901263868827
0.025500000000000002,1.78374375,1.0,2588.809456638224,0.25015503909915915,1.327699553831188,0.9315610596789343,0.2879702375,0.6575669719988531
0.026000000000000002,1.7831000000000001,1.0,2602.2173100833966,0.25436107819281895,1.3272838495102768,0.933580070227175,0.2879432,0.6584352099800208
0.0265,1.78244375,1.0,2614.7156419105536,0.25854352408889436,1.3268712675766712,0.9355003283505643,0.2879156375,0.6592958368393502
0.027,1.781775,1.0,2626.347784876522,0.2627025086448647,1.326461343690251,0.9373281552651567,0.28788755,0.660149843992206
0.0275,1.7810937500000001,1.0,2637.1579922549176,0.26683816371820906,1.3260536135108962,0.9390693740435785,0.2878589375,0.660998217845941
0.028,1.7804,1.0,2647.191354743735,0.2709506211664066,1.3256476126984864,0.9407293554541961,0.2878298,0.6618419398717366
0.0285,1.77969375,1.0,2656.4863404837274,0.2750400087713989,1.325242944925272,0.9423130671711901,0.2878001375,0.6626818455878076
0.029,1.778975,1.0,2665.0928908783926,0.27910646153394875,1.3248391141900284,0.943825090562534,0.28776995,0.6635189728706559
0.029500000000000002,1.7782437500000001,1.0,2673.04193304548,0.2831501062742465,1.324435805043994,0.9452696876439445,0.2877392375,0.6643539808847435
0.03,1.7775,1.0,2680.3637844038903,0.2871710692795336,1.3240327119072017,0.9466508084200822,0.287708,0.6651875051468891
0.0305,1.77674375,1.0,2687.0891811540646,0.2911694768370515,1.323629529199685,0.9479721166375568,0.2876762375,0.6660201780293058
0.031,1.775975,1.0,2693.249239602876,0.29514545523404173,1.3232259513414761,0.949237014127028,0.28764395,0.6668526287608345
0.0315,1.7751937500000001,1.0,2698.875419558448,0.2990991307577457,1.3228216727526085,0.9504486627897771,0.2876111375,0.6676854834222186
0.032,1.7744,1.0,2703.9992881272315,0.3030306294923203,1.3224163896948282,0.95161000464475,0.2875778,0.668519361148446
0.0325,1.77359375,1.0,2708.6437895012027,0.3069400678617466,1.3220098796266573,0.9527237865023905,0.2875439375,0.6693547111697248
0.033,1.772775,1.0,2712.8503119087427,0.31082758506544705,1.3216017538307956,0.9537925560813622,0.28750955,0.6701923212147842
0.0335,1.7719437500000002,1.0,2716.638178858571,0.31469330074030627,1.3211918268791012,0.9548187083968096,0.2874746375,0.6710325585014844
0.034,1.7711000000000001,1.0,2720.0268721543785,0.3185373345232086,1.3207799133434333,0.9558044801568958,0.2874392,0.6718757882505723
0.0345,1.7702437500000001,1.0,2723.0360164730578,0.32235980605103864,1.3203658277956496,0.9567519620912895,0.2874032375,0.6727223736632915
0.035,1.7693750000000001,1.0,2725.685364703798,0.3261608349606808,1.3199493848076094,0.9576631101821141,0.28736675,0.6735726758967867
0.035500000000000004,1.76849375,1.0,2727.9947840512177,0.3299405408890197,1.3195303989511709,0.9585397559065234,0.2873297375,0.6744270540373265
0.036000000000000004,1.7676,1.0,2729.9842428993275,0.3336990434729397,1.3191086847981925,0.9593836155881531,0.2872922,0.6752858650713259
0.0365,1.76669375,1.0,2731.673798438946,0.33743646234932534,1.318684056920533,0.9601962989441751,0.2872541375,0.676149463854179
0.037,1.765775,1.0,2733.0835850565263,0.3411529171550612,1.318256329890051,0.9609793169054027,0.28721555,0.6770182030768976
0.0375,1.76484375,1.0,2734.233890211523,0.3448485272237136,1.3178253174909889,0.9617340886374082,0.2871764375,0.6778924348270158
0.038,1.7639,1.0,2735.1388663242874,0.3485234089351523,1.317390889726621,0.9624619530358046,0.28713679999999997,0.6787723951484179
0.0385,1.76294375,1.0,2735.8097721968206,0.3521776778449559,1.3169529432700533,0.9631641720081596,0.28709663750000003,0.6796582645167424
0.039,1.761975,1.0,2736.2604237334663,0.3558114489278034,1.3165113519128064,0.9638419313049346,0.28705595,0.6805502682089528
0.0395,1.7609937500000001,1.0,2736.5046691859566,0.3594248371583738,1.3160659894464013,0.9644963480299855,0.2870147375,0.6814486298318474
0.04,1.76,1.0,2736.555420862638,0.36301794940036114,1.3156167384031874,0.9651284746270229,0.286973,0.6823535536981313
0.0405,1.7589939081720534,1.0,2736.4369721708526,0.3665909108777919,1.3151634496285243,0.965739304553657,0.2869307441432262,0.6832653061806397
0.041,1.7579833967145684,1.0,2736.522593966947,0.3701438368629329,1.314706312338873,0.9663298030795278,0.2868883026620119,0.6841834724938385
0.0415,1.7569728852570832,1.0,2737.0060700352665,0.37367683683828107,1.3142455635473456,0.9669008848636957,0.28684586118079747,0.685107543975801
0.042,1.755962373799598,1.0,2737.8613906979313,0.37719002028633325,1.3137814402670556,0.9674534142663087,0.2868034196995831,0.6860370144895799
0.0425,1.754951862342113,1.0,2739.0626093710807,0.3806834966895863,1.3133141795111154,0.9679882086347972,0.28676097821836877,0.6869713804760094
0.043000000000000003,1.7539413508846278,1.0,2740.583825454988,0.3841573755305371,1.3128440182926377,0.968506041343631,0.28671853673715436,0.6879101410029201
0.043500000000000004,1.7529308394271428,1.0,2742.39916846979,0.3876117662916825,1.3123711936247355,0.9690076446083921,0.28667609525594,0.6888527978107717
0.044,1.7519203279696576,1.0,2744.482783435988,0.39104677845551933,1.3118959425205217,0.9694937120929855,0.2866336537747256,0.6897988553547049
0.0445,1.7509098165121726,1.0,2746.808817501622,0.3944625215045445,1.3114185019931086,0.9699649013270788,0.28659121229351125,0.6907478208430109
0.045,1.7498993050546874,1.0,2749.35140781342,0.3978591049212549,1.3109391090556093,0.9704218359492902,0.28654877081229685,0.6916992042720151
0.0455,1.7488887935972024,1.0,2752.088539435601,0.4012366356811792,1.3104579656998039,0.9708651048001085,0.2865063293310825,0.6926525877982761
0.046,1.7478782821397172,1.0,2755.0095550932665,0.40459521687595823,1.3099751709572947,0.9712952588470913,0.2864638878498681,0.6936077595344259
0.0465,1.7468677706822322,1.0,2758.083530095162,0.40793496625377385,1.3094910070862555,0.9717128370097673,0.28642144636865374,0.6945641471069366
0.047,1.745857259224747,1.0,2761.3006196041574,0.41125598644420663,1.3090055653438886,0.9721183357133255,0.2863790048874394,0.695521557992678
0.0475,1.744846747767262,1.0,2764.6509666437755,0.41455838007683704,1.3085189369873949,0.97251222716873,0.286336563406225,0.6964798007658415
0.048,1.7438362363097768,1.0,2768.124699604949,0.41784224978124573,1.3080312132739764,0.9728949607823725,0.28629412192501064,0.6974386851051086
0.0485,1.7428257248522918,1.0,2771.711929937257,0.42110769818701327,1.3075424854608346,0.9732669644711095,0.28625168044379623,0.6983980218002944
0.049,1.7418152133948066,1.0,2775.4027500252655,0.4243548279237202,1.307052844805171,0.9736286458898433,0.2862092389625819,0.6993576227584553
0.0495,1.7408047019373214,1.0,2779.1872312490395,0.4275837416209471,1.3065623825641874,0.9739803935782128,0.28616679748136753,0.7003173010094668
0.05,1.7397941904798364,1.0,2783.055422229439,0.43079454190827454,1.3060711899950856,0.974322578032406,0.2861243560001531,0.701276870711072
0.0505,1.7387836790223512,1.0,2786.9973472584807,0.4339873314152831,1.3055793583550668,0.9746555527076198,0.2860819145189387,0.7022361471533982
0.051000000000000004,1.7377731675648662,1.0,2791.00300491368,0.43716221277155337,1.3050869789013329,0.9749796549562249,0.28603947303772437,0.703194946762939
0.051500000000000004,1.736762656107381,1.0,2795.0682398096405,0.44031928049301094,1.3045940901379993,0.9752952026238431,0.28599703155651,0.7041531895822843
0.052000000000000005,1.735752144649896,1.0,2799.1826340354037,0.44345864324692563,1.3041007866844794,0.9756025044680541,0.2859545900752956,0.7051106873019157
0.0525,1.7347416331924108,1.0,2803.3397631772755,0.44658040187831727,1.3036071270759941,0.975901852458396,0.28591214859408126,0.7060673226679246
0.053,1.7337311217349258,1.0,2807.5359978762417,0.4496846525927997,1.3031131446322537,0.9761935237157757,0.28586970711286686,0.7070230279054415
0.0535,1.7327206102774406,1.0,2811.7676983994156,0.4527714915959867,1.3026188726729682,0.9764777833373718,0.2858272656316525,0.7079777356573402
0.054,1.7317100988199556,1.0,2816.0312144136774,0.455841015093492,1.3021243445178476,0.9767548850215798,0.28578482415043815,0.7089313789848881
0.0545,1.7306995873624704,1.0,2820.322884783942,0.4588933192909294,1.3016295934866022,0.9770250716553902,0.28574238266922375,0.7098838913683262
0.055,1.7296890759049854,1.0,2824.639037396796,0.4619285003939127,1.301134652898942,0.9772885758667441,0.2856999411880094,0.7108352067073779
0.0555,1.7286785644475002,1.0,2828.9759890073624,0.46494665460805557,1.3006395560745774,0.9775456205442365,0.285657499706795,0.711785259321687
0.056,1.7276680529900152,1.0,2833.3300451122354,0.46794787813897193,1.3001443363332181,0.9777964193263491,0.28561505822558064,0.7127339839511864
0.0565,1.72665754153253,1.0,2837.697499846037,0.47093226719227543,1.2996490269945746,0.9780411770622376,0.2855726167443663,0.7136813157563925
0.057,1.725647030075045,1.0,2842.0759533256414,0.4738999119866252,1.2991536496430414,0.9782800890422308,0.2855301752631519,0.7146272127080627
0.0575,1.7246365186175598,1.0,2846.4651290608367,0.47685089721502033,1.2986582068967423,0.9785133411181924,0.2854877337819375,0.7155716691748173
0.058,1.7236260071600746,1.0,2850.8575241061812,0.4797853428253432,1.2981627656384118,0.978741118351321,0.28544529230072313,0.716514557356038
0.0585,1.7226154957025896,1.0,2855.252145759714,0.48270333776041124,1.2976673346869552,0.9789635925463961,0.2854028508195088,0.7174558605241206
0.059000000000000004,1.7216049842451044,1.0,2859.6479982643923,0.4856049709630421,1.297171922861277,0.9791809287507508,0.2853604093382944,0.7183955620629184
0.059500000000000004,1.7205944727876195,1.0,2864.0440828107025,0.4884903313760533,1.2966765389802823,0.979393285573456,0.28531796785708,0.7193336454677328
0.06,1.7195839613301342,1.0,2868.439397541227,0.4913595079422623,1.2961811918628758,0.9796008154870266,0.2852755263758656,0.7202700943453009
0.0605,1.7185734498726493,1.0,2872.8329375571725,0.4942125896044868,1.2956858903279627,0.979803665112734,0.28523308489465127,0.7212048924137756
0.061,1.717562938415164,1.0,2877.223694926084,0.4970496653055442,1.2951906431944478,0.9800019754905371,0.2851906434134369,0.7221380235027048
0.0615,1.716552426957679,1.0,2881.610658691991,0.4998708239882521,1.2946954592812356,0.9801958823345704,0.2851482019322225,0.7230694715530026
0.062,1.7155419155001939,1.0,2885.992814886667,0.502676154595428,1.2942003474072314,0.9803855162750689,0.2851057604510081,0.7239992206169144
0.0625,1.7145314040427089,1.0,2890.36914654296,0.5054657460698897,1.29370531639134,0.9805710030875411,0.28506331896979376,0.7249272548579813
0.063,1.7135208925852237,1.0,2894.7386337097364,0.5082396873544544,1.293210375052466,0.9807524639099624,0.2850208774885794,0.7258535585509958
0.0635,1.7125103811277387,1.0,2899.100253468351,0.5109980673919398,1.2927155322095147,0.9809300154486883,0.28497843600736505,0.7267781160819533
0.064,1.7114998696702535,1.0,2903.4529799512825,0.5137409751251634,1.2922207966813908,0.9811037701737618,0.28493599452615065,0.7277009119480016
0.0645,1.7104893582127685,1.0,2907.795784362386,0.5164684994969427,1.291726177286999,0.9812738365042307,0.28489355304493624,0.7286219307573802
0.065,1.7094788467552833,1.0,2912.1291253881254,0.5191807027323837,1.291231669729831,0.981440316472574,0.2848511115637219,0.729541181589205
0.0655,1.7084683352977983,1.0,2916.451992958459,0.5218776902203457,1.2907372826423658,0.98160331213218,0.28480867008250754,0.7304586494953225
0.066,1.707457823840313,1.0,2920.7631292822557,0.5245595667374863,1.2902430268090284,0.9817629219836286,0.28476622860129314,0.7313743156528496
0.0665,1.7064473123828279,1.0,2925.062436787303,0.5272264128263602,1.2897489027960576,0.9819192389507896,0.2847237871200788,0.7322881802566351
0.067,1.7054368009253429,1.0,2929.349817826623,0.5298783090295219,1.2892549111696927,0.9820723527452453,0.2846813456388644,0.7332002435083329
0.0675,1.7044262894678577,1.0,2933.6251746809135,0.5325153358895262,1.2887610524961726,0.9822223500001391,0.28463890415765003,0.7341105056163988
0.068,1.7034157780103727,1.0,2937.888409559531,0.5351375739489274,1.288267327341736,0.9823693143975487,0.2845964626764357,0.7350189667960856
0.0685,1.7024052665528875,1.0,2942.139424602504,0.5377451037502801,1.2877737362726223,0.9825133267897341,0.2845540211952213,0.7359256272694364
0.069,1.7013947550954025,1.0,2946.3781218821136,0.540338005836139,1.2872802798550702,0.9826544653145979,0.28451157971400687,0.7368304872652823
0.0695,1.7003842436379173,1.0,2950.604403404816,0.5429163607490588,1.2867869586553191,0.9827928055056735,0.2844691382327925,0.7377335470192357
0.07,1.6993737321804323,1.0,2954.8181711124944,0.5454802490315938,1.2862937732396076,0.982928420396932,0.28442669675157817,0.7386348067736868
0.07050000000000001,1.698363220722947,1.0,2959.0193268843987,0.5480297512262988,1.2858007241741747,0.9830613806226898,0.28438425527036376,0.7395342667777977
0.07100000000000001,1.6973527092654621,1.0,2963.207772539058,0.5505649478757283,1.2853078120252597,0.9831917545128738,0.2843418137891494,0.7404319272874971
0.07150000000000001,1.696342197807977,1.0,2967.383409835519,0.5530859195224369,1.2848150373591014,0.983319608183891,0.284299372307935,0.7413277885654772
0.07200000000000001,1.695331686350492,1.0,2971.546140475684,0.5555927467089792,1.284322400741939,0.9834450056253347,0.28425693082672066,0.7422218508811871
