Time [s],Phi [rad],STIM [ ],Fsee [N],Gamma [ ],Lcerel [ ],q [ ],Lmtc [m],fisomrel [ ]
0.0,1.8,1.0,17.96902086621825,4.540283867974225e-05,1.379339537540588,0.005000542883292433,0.288653,0.5411400359008065
0.0005,1.79999375,1.0,18.29016137291757,0.005654357473466508,1.3793008976701997,0.013039091339644933,0.2886527375,0.5412335109265967
0.001,1.799975,1.0,21.65811576314181,0.011231850307499895,1.3789342457125031,0.03579329434404665,0.28865195,0.5421200173032408
0.0015,1.79994375,1.0,31.165001909562434,0.016778057817500188,1.3780380510801595,0.0708544107592171,0.2886506375,0.5442832651004934
0.002,1.7999,1.0,53.78991473169897,0.022293155488478805,1.376354681422368,0.11501703187717792,0.2886488,0.5483327607508544
0.0025,1.79984375,1.0,97.46857570853227,0.027777317821550483,1.3739183341724293,0.16490012399572698,0.28864643749999996,0.5541616051330215
0.003,1.7997750000000001,1.0,161.4137228945224,0.03323071834131974,1.3711973039072296,0.2176159530987225,0.28864354999999997,0.560626790727053
0.0035,1.79969375,1.0,238.19838930813032,0.03865352959573408,1.3685688776771092,0.2709465650480906,0.2886401375,0.5668271122698856
0.004,1.7996,1.0,322.01494852133817,0.04404592316679619,1.366141579460748,0.32323888247499816,0.2886362,0.5725138513711374
0.0045000000000000005,1.7994937500000001,1.0,409.835551609103,0.04940806967576868,1.3639094903367028,0.3733411900924448,0.2886317375,0.5777100855959223
0.005,1.799375,1.0,499.9929656358512,0.05474013877442274,1.3618460324084545,0.42053438145426986,0.28862675,0.5824854873413894
0.0055,1.79924375,1.0,591.3751141509533,0.06004229919066395,1.3599274143013218,0.46443933991460146,0.2886212375,0.5869013279157037
0.006,1.7991000000000001,1.0,683.1036337437934,0.06531471867618913,1.3581357737355755,0.5049240827456405,0.2886152,0.5910037231212395
0.006500000000000001,1.79894375,1.0,774.4650428546593,0.07055756405000634,1.3564572899031082,0.5420239499615399,0.2886086375,0.594828445392001
0.007,1.798775,1.0,864.8665660944307,0.07577100123901173,1.3548810155193247,0.5758801366101457,0.28860155,0.5984039056886888
0.0075,1.79859375,1.0,953.8069655311502,0.08095519504577332,1.3533981094133267,0.6066949371140286,0.2885939375,0.6017531130838213
0.008,1.7984,1.0,1040.915131740713,0.08611030983497824,1.352000451491213,0.6347001328853705,0.2885858,0.6048969456313209
0.0085,1.79819375,1.0,1125.864247161174,0.09123650838473135,1.3506814561937224,0.6601370652425138,0.2885771375,0.6078524116130433
0.009000000000000001,1.797975,1.0,1208.4076346299642,0.09633395287031495,1.3494351020223114,0.6832431079581771,0.28856795,0.6106349154166353
0.0095,1.79774375,1.0,1288.3856082033165,0.10140280503207817,1.348255595394318,0.7042438115689298,0.2885582375,0.6132590570043018
0.01,1.7975,1.0,1365.657417724594,0.10644322482009075,1.347138083284855,0.7233491692736799,0.288548,0.6157370890730776
0.0105,1.79724375,1.0,1440.13243890073,0.11145537160927282,1.3460780276700968,0.7407514592480009,0.2885372375,0.6180803532014534
0.011,1.796975,1.0,1511.774953807036,0.11643940444105931,1.3450710236469154,0.7566248387578951,0.28852595000000003,0.6202997086711414
0.0115,1.79669375,1.0,1580.5617481097547,0.12139548098445688,1.3441132181589945,0.7711261182518953,0.2885141375,0.6224046335722584
0.012,1.7964,1.0,1646.486308033083,0.1263237575588325,1.3432011404356436,0.7843957307747877,0.28850180000000003,0.6244036262872246
0.0125,1.79609375,1.0,1709.5736837651652,0.13122438993570792,1.342331443734803,0.796558933220713,0.2884889375,0.626304791551165
0.013000000000000001,1.7957750000000001,1.0,1769.8836762615524,0.13609753431868926,1.3415008155937502,0.8077271899273792,0.28847555,0.6281160489438884
0.0135,1.79544375,1.0,1827.4622527515744,0.14094334464700703,1.3407064766041585,0.8179997722339201,0.2884616375,0.6298440586734055
0.014,1.7951000000000001,1.0,1882.3555002181472,0.14576197337710017,1.3399459538667837,0.827464979906251,0.2884472,0.6314947335765388
0.0145,1.79474375,1.0,1934.633584094576,0.1505535729654077,1.3392167744823817,0.8362012601760056,0.2884322375,0.6330739155286
0.015,1.794375,1.0,1984.3766126747394,0.15531829507200864,1.338516593901089,0.8442783870525753,0.28841675,0.6345871034872614
0.0155,1.79399375,1.0,2031.6783788796934,0.16005629177756395,1.337843128331084,0.8517584535346772,0.2884007375,0.6360396066309524
0.016,1.7936,1.0,2076.612856731069,0.16476771251154862,1.3371944824380366,0.8586968766695838,0.2883842,0.6374358450680633
0.0165,1.7931937500000001,1.0,2119.251645840157,0.16945270544212504,1.3365689334238215,0.865143116941507,0.2883671375,0.6387798247893852
0.017,1.792775,1.0,2159.678821245581,0.17411141873745553,1.3359647584903138,0.8711413320658912,0.28834955,0.6400755135604117
0.0175,1.7923437500000001,1.0,2197.9828850106783,0.17874399983278616,1.3353803055760547,0.8767310229401364,0.2883314375,0.6413266920654088
0.018000000000000002,1.7919,1.0,2234.2573089722205,0.18335059645175644,1.334813974981488,0.8819475762812983,0.2883128,0.6425369966744117
0.0185,1.79144375,1.0,2268.5858945335535,0.18793135476425116,1.3342643543842816,0.8868227776670302,0.2882936375,0.6437096345282507
0.019,1.790975,1.0,2301.037282404042,0.19248641840740996,1.333730258488818,0.8913852350055383,0.28827395,0.6448473041102893
0.0195,1.79049375,1.0,2331.6865976781282,0.1970159310183724,1.3332105019994789,0.8956606869639275,0.2882537375,0.645952682899411
0.02,1.79,1.0,2360.6149090706313,0.20152003623427805,1.3327038996206462,0.8996723287677245,0.288233,0.6470284284987724
0.0205,1.78949375,1.0,2387.8970555299843,0.20599887606077427,1.3322093794057888,0.9034411223742124,0.2882117375,0.6480769395243007
0.021,1.788975,1.0,2413.621609153458,0.21045259465767027,1.3317257821392987,0.9069860017730795,0.28818995000000003,0.6491007827298167
0.021500000000000002,1.78844375,1.0,2437.8560023925825,0.2148813325445754,1.3312521949867453,0.9103241631818918,0.2881676375,0.6501019876162732
0.022,1.7879,1.0,2460.6592627614086,0.2192852284491897,1.3307878199167185,0.9134712250043834,0.2881448,0.6510823284271194
0.0225,1.78734375,1.0,2482.0934886029136,0.22366442109921345,1.3303318588978088,0.9164413736792774,0.28812143749999997,0.6520435682306063
0.023,1.786775,1.0,2502.2235932715657,0.22801904922234673,1.3298835138986063,0.9192475147919957,0.28809755,0.6529874593683294
0.0235,1.78619375,1.0,2521.114101450665,0.2323492510393629,1.3294420149016175,0.9219014114458217,0.28807313749999996,0.6539156850049823
0.024,1.7856,1.0,2538.821458001375,0.23665516307690604,1.3290066897560788,0.9244138135953238,0.2880482,0.6548297133155208
0.0245,1.78499375,1.0,2555.423764180007,0.2409369250099836,1.3285766812987814,0.9267945123427326,0.2880227375,0.6557313919218082
0.025,1.784375,1.0,2570.965358392319,0.24519467031053102,1.32815146759056,0.9290525222013102,0.28799675,0.6566218568818932
0.025500000000000002,1.78374375,1.0,2585.492003552656,0.24942853245048388,1.327730526692248,0.9311961024141988,0.2879702375,0.6575022381186919
0.026000000000000002,1.7831000000000001,1.0,2599.050769291392,0.2536386449017776,1.3273133366646803,0.9332328304879747,0.2879432,0.6583736595708981
0.0265,1.78244375,1.0,2611.689920202223,0.2578251411363477,1.3268993755686909,0.935169667670565,0.2879156375,0.6592372393265307
0.027,1.781775,1.0,2623.4588101297845,0.26198815462612973,1.3264881214651139,0.937013017341659,0.28788755,0.6600940897390979
0.0275,1.7810937500000001,1.0,2634.4011174334078,0.2661278149993846,1.3260791140814459,0.9387687848468995,0.2878589375,0.660945189285266
0.028,1.7804,1.0,2644.569785050858,0.27024425838455235,1.3256718153908464,0.940442406970834,0.2878298,0.6617916730230562
0.0285,1.77969375,1.0,2653.998925418453,0.27433761290090003,1.3252658685633982,0.9420389261948161,0.2878001375,0.6626342944760784
0.029,1.778975,1.0,2662.723142088475,0.27840800660775417,1.3248609178844413,0.9435630033230753,0.28776995,0.6634738011201478
0.029500000000000002,1.7782437500000001,1.0,2670.7775962366986,0.2824555675644414,1.3244566076393152,0.9450189511770791,0.2877392375,0.664310936732103
0.03,1.7775,1.0,2678.197955687142,0.28648042383028827,1.3240525821133597,0.9464107650328695,0.287708,0.6651464414083681
0.0305,1.77674375,1.0,2685.0203467416595,0.2904827034646214,1.3236484855919148,0.9477421500342025,0.2876762375,0.6659810515754467
0.031,1.775975,1.0,2691.265351619893,0.2944625335885655,1.3232441084316724,0.9490165642690644,0.28764395,0.6668151988654758
0.0315,1.7751937500000001,1.0,2696.9931205901303,0.2984200409780188,1.3228388819377352,0.9502371761597316,0.2876111375,0.6676500520063554
0.032,1.7744,1.0,2702.228848665707,0.30235535056686597,1.32243256067254,0.9514069726460657,0.2875778,0.668486109113995
0.0325,1.7735996567140682,1.0,2707.255238655906,0.3062685858708633,1.3220252187000163,0.9525287727149742,0.28754418558199085,0.6693232095701743
0.033,1.7727993085802503,1.0,2712.389876557437,0.3101598704057671,1.3216169300840939,0.953605203107759,0.2875105709603705,0.670161193505367
0.0335,1.7719989604464323,1.0,2717.625166517816,0.31402932768733355,1.3212077688887025,0.9546387137433436,0.28747695633875014,0.6709999018033861
0.034,1.7711986123126142,1.0,2722.95133298865,0.3178770799591827,1.3207978265967641,0.9556315933461661,0.2874433417171298,0.6718391404680881
0.0345,1.7703982641787963,1.0,2728.3463083979295,0.3217032506074526,1.320387306126782,0.9565859929983924,0.28740972709550944,0.6726784887526267
0.035,1.7695979160449784,1.0,2733.7984287720587,0.32550795975477115,1.3199763151304211,0.9575039131348788,0.28737611247388906,0.6735177224348132
0.035500000000000004,1.7687975679111603,1.0,2739.2971466706645,0.32929132702811664,1.3195649507151088,0.9583872249680282,0.28734249785226873,0.6743566399057719
0.036000000000000004,1.7679972197773424,1.0,2744.8318727736632,0.3330534720544675,1.3191533099882724,0.9592376814855262,0.2873088832306484,0.6751950405724799
0.0365,1.7671968716435245,1.0,2750.393117379966,0.33679451309196234,1.3187414797146975,0.9600569249103608,0.287275268609028,0.6760327458841999
0.037,1.7663965235097063,1.0,2755.976160674337,0.34051456331361263,1.3183295031637312,0.96084649079102,0.28724165398740764,0.6768696665036098
0.0375,1.7655961753758884,1.0,2761.562223621816,0.3442137544264843,1.3179175504798948,0.9616078376525696,0.2872080393657873,0.6777054563037741
0.038,1.7647958272420705,1.0,2767.147645524877,0.3478922002327823,1.317505654638025,0.9623423190984886,0.287174424744167,0.6785400487017831
0.0385,1.7639954791082524,1.0,2772.728750948542,0.35155001453471135,1.3170938486129589,0.9630512083519441,0.2871408101225466,0.6793733774611669
0.039,1.7631951309744345,1.0,2778.3018497738967,0.35518731113447644,1.3166821653795333,0.963735703907717,0.2871071955009262,0.6802053766917409
0.0395,1.7623947828406166,1.0,2783.863237275943,0.3588042038342823,1.3162706379125853,0.964396934728194,0.2870735808793059,0.6810359808493827
0.04,1.7615944347067984,1.0,2789.409194225026,0.36240080643633393,1.3158592991869518,0.9650359650246901,0.2870399662576855,0.6818651247357388
0.0405,1.7607940865729805,1.0,2794.93598701327,0.3659772327428361,1.3154481821774697,0.9656537986612599,0.2870063516360652,0.6826927434978631
0.041,1.7599937384391626,1.0,2800.4398678042176,0.36953359655599366,1.3150373198589762,0.9662513832144596,0.2869727370144448,0.6835187726277843
0.0415,1.7591933903053445,1.0,2805.9170747072862,0.37307001167801146,1.3146267452063078,0.9668296137192678,0.2869391223928245,0.6843431479620059
0.042,1.7583930421715266,1.0,2811.3642347711543,0.376586590279495,1.3142164875867441,0.9673893355538585,0.2869055077712041,0.6851658129102343
0.0425,1.7575926940377087,1.0,2816.7821756154467,0.38008343243829873,1.3138065386740427,0.967931343182029,0.2868718931495838,0.6859867866244149
0.043000000000000003,1.7567923459038906,1.0,2822.1646576014477,0.3835606706246905,1.3133969533549847,0.9684563988425797,0.2868382785279634,0.686805961823385
0.043500000000000004,1.7559919977700726,1.0,2827.5113531280385,0.38701841108361723,1.3129877335155862,0.9689652158666275,0.28680466390634307,0.6876233375917615
0.044,1.7551916496362547,1.0,2832.821934680132,0.3904567600600257,1.3125788810418633,0.9694584701955656,0.2867710492847227,0.6884389130313033
0.0445,1.7543913015024366,1.0,2838.096074844766,0.393875823798863,1.3121703978198318,0.9699368027123139,0.2867374346631023,0.6892526872608673
0.045,1.7535909533686187,1.0,2843.3334463257993,0.3972757085450758,1.3117622857355076,0.9704008214051034,0.286703820041482,0.690064659416364
0.0455,1.7527906052348008,1.0,2848.5337219597286,0.4006565205436111,1.3113545466749068,0.9708511033773481,0.28667020541986166,0.690874828650712
0.046,1.7519902571009827,1.0,2853.6965747310437,0.40401836603941577,1.310947182524045,0.9712881967159464,0.2866365907982413,0.6916831941337953
0.0465,1.7511899089671648,1.0,2858.821677788205,0.40736135127743667,1.3105401951689388,0.9717126222292534,0.2866029761766209,0.6924897550524152
0.047,1.7503895608333466,1.0,2863.908704459153,0.41068558250262066,1.3101335864956036,0.972124875064978,0.28656936155500057,0.6932945106102486
0.0475,1.7495892126995287,1.0,2868.9573282668734,0.4139911659599147,1.3097273583900557,0.972525426217365,0.2865357469333802,0.6940974600277997
0.048,1.7487888645657108,1.0,2873.967222945841,0.4172782078942656,1.3093215127383107,0.9729147239322081,0.28650213231175986,0.6948986025423569
0.0485,1.7479885164318927,1.0,2878.938140439127,0.42054681145005895,1.308916050736201,0.9732931945879657,0.2864685176901395,0.6956979387676943
0.049,1.7471881682980748,1.0,2883.8713649181896,0.4237970396410066,1.3085109600345814,0.9736612386200565,0.28643490306851915,0.69649549597749
0.0495,1.7463878201642569,1.0,2888.7659385180864,0.42702905952502557,1.3081062481443335,0.9740192514940572,0.28640128844689877,0.6972912622908878
0.05,1.7455874720304387,1.0,2893.622397381042,0.4302429679279837,1.3077019093699922,0.9743676010404336,0.2863676738252784,0.6980852518177969
0.0505,1.7447871238966208,1.0,2898.441280751201,0.4334388616757492,1.3072979380160925,0.9747066382051675,0.28633405920365806,0.6988774786066894
0.051000000000000004,1.743986775762803,1.0,2903.2231309277313,0.43661683759418995,1.3068943283871701,0.9750366979753974,0.28630044458203774,0.6996679566447315
0.051500000000000004,1.7431864276289848,1.0,2907.968493219097,0.43977699250917396,1.3064910747877596,0.9753581002463976,0.28626682996041736,0.7004566998579207
0.052000000000000005,1.7423860794951669,1.0,2912.677915897567,0.4429194232465693,1.3060881715223964,0.9756711506340905,0.286233215338797,0.7012437221112118
0.0525,1.741585731361349,1.0,2917.3519501547867,0.4460442266322439,1.3056856128956156,0.9759761412369673,0.28619960071717665,0.7020290372086475
0.053,1.7407853832275308,1.0,2921.9911500575936,0.4491514994920659,1.305283393211952,0.9762733513509776,0.2861659860955563,0.7028126588934842
0.0535,1.739985035093713,1.0,2926.596072504993,0.45224133865190325,1.3048815067759414,0.9765630481406725,0.28613237147393594,0.7035946008483152
0.054,1.739184686959895,1.0,2931.1672771859203,0.4553138409376239,1.304479947892118,0.9768454872696305,0.28609875685231556,0.7043748766951947
0.0545,1.738384338826077,1.0,2935.705326537281,0.45836910317509594,1.3040787108650178,0.9771209134929633,0.28606514223069524,0.7051534999957554
0.055,1.737583990692259,1.0,2940.210785703016,0.46140722219018737,1.3036777899991756,0.977389561214479,0.2860315276090749,0.7059304842513285
0.0555,1.736783642558441,1.0,2944.6842224936486,0.46442829480876613,1.3032771795991265,0.9776516550108957,0.28599791298745453,0.7067058429030586
0.056,1.735983294424623,1.0,2949.1262073471958,0.4674324178567003,1.3028768739694054,0.9779074101253071,0.28596429836583415,0.7074795893320183
0.0565,1.735182946290805,1.0,2953.537313289847,0.47041968815985785,1.3024768674145477,0.9781570329319449,0.2859306837442138,0.708251736859318
0.057,1.7343825981569871,1.0,2957.9181158979395,0.47339020254410685,1.3020771542390885,0.9784007213741281,0.28589706912259344,0.7090222987462178
0.0575,1.733582250023169,1.0,2962.269193260896,0.47634405783531525,1.301677728747563,0.9786386653771556,0.2858634545009731,0.7097912881942342
0.058,1.732781901889351,1.0,2966.5908563839157,0.47928133715036614,1.301278587594755,0.978871046189621,0.28582983987935273,0.7105587138294309
0.0585,1.7319815537555332,1.0,2970.883108740824,0.4822020980637603,1.3008797301292958,0.9790980358599937,0.2857962252577324,0.7113245790730935
0.059000000000000004,1.731181205621715,1.0,2975.1479945021792,0.4851065023893695,1.3004811379394634,0.979319807429073,0.285762610636112,0.7120889213731032
0.059500000000000004,1.7303808574878972,1.0,2979.385957867382,0.48799463644354546,1.3000828065904737,0.9795365215931207,0.2857289960144917,0.7128517512397461
0.06,1.7295805093540793,1.0,2983.597444943592,0.49086658654264026,1.2996847316475437,0.9797483328266433,0.2856953813928713,0.7136130791369251
0.0605,1.7287801612202611,1.0,2987.7829037214665,0.4937224390030057,1.2992869086758891,0.9799553896714736,0.285661766771251,0.7143729154822385
0.061,1.7279798130864432,1.0,2991.942784049272,0.4965622801409938,1.2988893332407265,0.98015783501027,0.2856281521496306,0.715131270647047
0.0615,1.7271794649526253,1.0,2996.077537608878,0.49938619627295633,1.2984920009072725,0.980355806325394,0.28559453752801023,0.7158881549565461
0.062,1.7263791168188072,1.0,3000.1876178913626,0.5021942737152452,1.298094907240743,0.9805494359440428,0.2855609229063899,0.7166435786898367
0.0625,1.7255787686849893,1.0,3004.2734801733577,0.5049865987842124,1.2976980478063544,0.9807388512704749,0.2855273082847696,0.717397552079992
0.063,1.7247784205511714,1.0,3008.3355814937704,0.5077632577962096,1.2973014181693234,0.9809241750060922,0.2854936936631492,0.7181500853141234
0.0635,1.7239780724173532,1.0,3012.3743806311704,0.5105243370675889,1.2969050138948661,0.9811055253581051,0.2854600790415288,0.7189011885334482
0.064,1.7231777242835353,1.0,3016.390338081316,0.5132699229147022,1.2965088305481989,0.9812830162374486,0.2854264644199085,0.719650871833353
0.0645,1.7223773761497172,1.0,3020.383916034968,0.5160001016539013,1.296112863694538,0.9814567574465803,0.2853928497982881,0.7203991452634564
0.065,1.7215770280158993,1.0,3024.3555783568686,0.5187149596015381,1.2957171088990997,0.9816268548577481,0.2853592351766678,0.7211460188276722
0.0655,1.7207766798820814,1.0,3028.305790564051,0.5214145830739646,1.2953215617271008,0.9817934105822744,0.2853256205550474,0.7218915024842673
0.066,1.7199763317482633,1.0,3032.235019805935,0.5240990583875327,1.294926217743757,0.9819565231313728,0.2852920059334271,0.7226356061459247
0.0665,1.7191759836144453,1.0,3036.1437348433965,0.526768471858594,1.2945310725142851,0.9821162875689795,0.2852583913118067,0.7233783396797988
0.067,1.7183756354806274,1.0,3040.0324060296753,0.5294229098035008,1.2941361216039011,0.9822727956570465,0.28522477669018637,0.7241197129075736
0.0675,1.7175752873468093,1.0,3043.9015052903824,0.5320624585386047,1.2937413605778219,0.982426135993722,0.285191162068566,0.7248597356055168
0.068,1.7167749392129914,1.0,3047.751506105379,0.5346872043802577,1.2933467850012632,0.9825763941448125,0.28515754744694566,0.7255984175045366
0.0685,1.7159745910791735,1.0,3051.5828834895633,0.5372972336448117,1.2929523904394415,0.9827236527688974,0.2851239328253253,0.7263357682902327
0.069,1.7151742429453554,1.0,3055.395331480476,0.5398925877506325,1.2925581791801397,0.9828679892521546,0.2850903182037049,0.7270717850599531
0.0695,1.7143738948115375,1.0,3059.189797319646,0.5424733868603507,1.2921641427474937,0.9830094827844099,0.28505670358208457,0.7278064849892287
0.07,1.7135735466777196,1.0,3062.966921362806,0.5450397307602548,1.2917702753217142,0.9831482087692267,0.28502308896046424,0.728539880225418
0.07050000000000001,1.7127731985439014,1.0,3066.7269553071187,0.5475916959391385,1.291376574431897,0.9832842388620103,0.28498947433884386,0.7292719766337155
0.07100000000000001,1.7119728504100835,1.0,3070.470151742841,0.5501293588857953,1.2909830376071376,0.98341764237976,0.2849558597172235,0.7300027800539641
