Time [s],Phi [rad],STIM [ ],Fsee [N],Gamma [ ],Lcerel [ ],q [ ],Lmtc [m],fisomrel [ ]
0.0,1.8,1.0,17.96700191262142,1.3902690263557098e-05,1.3793397637255402,0.005000051380056721,0.288653,0.5411394887010565
0.0005,1.79999375,1.0,18.277663351383946,0.005623034015961805,1.3793022856849697,0.012951353073444645,0.2886527375,0.5412301532976966
0.001,1.799975,1.0,21.622199933534212,0.011200702549825498,1.378937912140038,0.035628918794543406,0.28865195,0.5421111567058317
0.0015,1.79994375,1.0,31.07913801338349,0.016747084774105525,1.3780453601790068,0.07062955106256887,0.2886506375,0.544265643007414
0.002,1.7999,1.0,53.604347290912976,0.02226235617939418,1.3763667072168415,0.11475081558649905,0.2886488,0.5483038957230623
0.0025,1.79984375,1.0,97.1562392664729,0.027746691272217888,1.3739333699560832,0.16461055281404588,0.28864643749999996,0.5541257488306347
0.003,1.7997750000000001,1.0,161.00706908889907,0.03320026358271715,1.37121251343685,0.21731724254324603,0.28864354999999997,0.5605907840175269
0.0035,1.79969375,1.0,237.73878731241027,0.03862324566426664,1.368583026148384,0.2706494788218367,0.2886401375,0.5667938547043996
0.004,1.7996,1.0,321.5259160974608,0.04401580910425021,1.3661545259494636,0.32295123127678077,0.2886362,0.5724836196642971
0.0045000000000000005,1.7994937500000001,1.0,409.3291194631032,0.04937812452924736,1.363921373663885,0.37306813996807686,0.2886317375,0.5776825057097925
0.005,1.799375,1.0,499.47620651272223,0.05471036159613207,1.3618570099690088,0.4202789269968182,0.28862675,0.5824601541335735
0.0055,1.79924375,1.0,590.8537582309373,0.06001268903937836,1.359937597539813,0.46420283167655024,0.2886212375,0.5868779524147566
0.006,1.7991000000000001,1.0,682.581595006497,0.06528527461462469,1.3581452607554045,0.5047067361310946,0.2886152,0.5909820542042197
0.006500000000000001,1.79894375,1.0,773.9469091291667,0.07052828515508813,1.356466132930822,0.541825214566194,0.2886086375,0.594808342070617
0.007,1.798775,1.0,864.351078872162,0.07574188654810818,1.3548893407342875,0.5756990635318298,0.28860155,0.5983850632435677
0.0075,1.79859375,1.0,953.3059921973479,0.08092624376536289,1.3534058136351854,0.6065301964340661,0.2885939375,0.6017357490078208
0.008,1.7984,1.0,1040.4198991268638,0.08608152082971922,1.3520077417109664,0.6345504876494842,0.2885858,0.6048805796414081
0.0085,1.79819375,1.0,1125.3801130008485,0.09120788085001234,1.3506883088158905,0.6600011311938354,0.2885771375,0.6078370856500339
0.009000000000000001,1.797975,1.0,1207.9455317489262,0.09630548605193912,1.3494414153865983,0.6831195095759912,0.28856795,0.6106208457034785
0.0095,1.79774375,1.0,1287.934520395155,0.10137449783865345,1.3482615638717155,0.704131420718024,0.2885582375,0.6132458007960047
0.01,1.7975,1.0,1365.212057389495,0.10641507630010592,1.347143806807967,0.7232468959121845,0.288548,0.6157244177132425
0.0105,1.79724375,1.0,1439.6895063984473,0.1114273805260573,1.3460835708261938,0.7406582921174013,0.2885372375,0.6180681186358128
0.011,1.796975,1.0,1511.3596224903476,0.11641157089985367,1.3450760966872533,0.7565396999349361,0.28852595000000003,0.620288544308321
0.0115,1.79669375,1.0,1580.1700421250302,0.1213678038620461,1.3441178973283217,0.7710482079604184,0.2885141375,0.6223943645992815
0.012,1.7964,1.0,1646.110405759942,0.12629623567904041,1.343205539983624,0.7843243516212945,0.28850180000000003,0.6243939965706284
0.0125,1.79609375,1.0,1709.2125331836642,0.13119702261724253,1.3423355918873854,0.7964934287865785,0.2884889375,0.626295735099214
0.013000000000000001,1.7957750000000001,1.0,1769.5282895511266,0.13607032010785808,1.3415048273820045,0.8076670098238065,0.28847555,0.6281073114629698
0.0135,1.79544375,1.0,1827.1162060523816,0.14091628282422358,1.3407103209145221,0.8179443719581553,0.2884616375,0.629835705428327
0.014,1.7951000000000001,1.0,1882.0232940941803,0.14573506332264094,1.3399495901973058,0.8274138724632454,0.2884472,0.6314868498873849
0.0145,1.79474375,1.0,1934.3175667964658,0.15052681398893353,1.3392201865419824,0.8361540214066392,0.2884322375,0.6330665339362969
0.015,1.794375,1.0,1984.0695746786125,0.15529168618043868,1.338519867189338,0.8442346742931637,0.28841675,0.6345800367286768
0.0155,1.79399375,1.0,2031.3858347582202,0.1600298323859405,1.3378462105743238,0.8517179168228561,0.2884007375,0.636032965563041
0.016,1.7936,1.0,2076.333678653684,0.1647414014919231,1.3371973918519955,0.858659225813851,0.2883842,0.6374295884190428
0.0165,1.7931937500000001,1.0,2118.9856049215964,0.1694265418628938,1.336571677891893,0.8651080901914343,0.2883671375,0.6387739338043235
0.017,1.792775,1.0,2159.4266350617354,0.17408540186335988,1.335967335563557,0.8711086927952224,0.28834955,0.640069991818636
0.0175,1.7923437500000001,1.0,2197.7436412709126,0.17871812891085462,1.335382728990129,0.8767005639888693,0.2883314375,0.6413215085941764
0.018000000000000002,1.7919,1.0,2234.031395297062,0.18332487106368833,1.3348162447119365,0.881919108616643,0.2883128,0.642532150117974
0.0185,1.79144375,1.0,2268.3662556245895,0.1879057735541597,1.334266544310859,0.8867961500395309,0.2882936375,0.6437049660538156
0.019,1.790975,1.0,2300.8207702981867,0.1924609803546186,1.33373240196149,0.891360301474028,0.28827395,0.6448427419675207
0.0195,1.79049375,1.0,2331.4741017399315,0.19699063543741474,1.3332125918384228,0.895637306467092,0.2882537375,0.6459482418377573
0.02,1.79,1.0,2360.4088690544095,0.20149488234602983,1.3327059135111659,0.8996503703839934,0.288233,0.6470241553402444
0.0205,1.78949375,1.0,2387.7014566884013,0.20597386359041728,1.332211280286003,0.9034204648792485,0.2882117375,0.6480729121515775
0.021,1.788975,1.0,2413.4367898394844,0.21042772331504717,1.331727568661647,0.9069665433610353,0.28818995000000003,0.649097003156353
0.021500000000000002,1.78844375,1.0,2437.674654711498,0.21485660068175588,1.3312539392154794,0.9103058262873477,0.2881676375,0.6500983027877152
0.022,1.7879,1.0,2460.478282699463,0.21926063485237984,1.3307895525248832,0.9134539309619089,0.2881448,0.651078673279297
0.0225,1.78734375,1.0,2481.914065495303,0.22363996498875546,1.3303335691672407,0.9164250429435356,0.28812143749999997,0.6520399651824995
0.023,1.786775,1.0,2502.0512858162588,0.22799473025271919,1.329885149719934,0.9192320671352845,0.28809755,0.6529840178388289
0.0235,1.78619375,1.0,2520.95088452085,0.23232506721932558,1.329443558603241,0.9218867792076014,0.28807313749999996,0.6539124416289317
0.024,1.7856,1.0,2538.6812404127195,0.23663111660854033,1.3290080112944842,0.9243999168543775,0.2880482,0.654826940382808
0.0245,1.78499375,1.0,2555.2950563863023,0.24091301409221313,1.3285778904099361,0.9267813184977615,0.2880227375,0.6557288582071301
0.025,1.784375,1.0,2570.840414028545,0.2451708934789859,1.3281526377935728,0.9290399953527375,0.28799675,0.65661940787347
0.025500000000000002,1.78374375,1.0,2585.366878642094,0.24940488857750057,1.3277316952893718,0.9311842037371656,0.2879702375,0.6574997956082727
0.026000000000000002,1.7831000000000001,1.0,2598.925372593705,0.253615133196399,1.327314504741309,0.9332215185667849,0.2879432,0.6583712212562232
0.0265,1.78244375,1.0,2611.5680555693502,0.2578017611443231,1.3269005079933618,0.9351588987980987,0.2879156375,0.659234878423731
0.027,1.781775,1.0,2623.339157613748,0.26196490391893895,1.3264892308367056,0.9370027578049714,0.28788755,0.6600917798075778
0.0275,1.7810937500000001,1.0,2634.285168913735,0.2661046951094798,1.326080186875639,0.9387590013561291,0.2878589375,0.6609429583136106
0.028,1.7804,1.0,2644.459834651288,0.27022126893375303,1.3256728307301275,0.9404330668829226,0.2878298,0.661789564171638
0.0285,1.77969375,1.0,2653.8961722012423,0.2743147532769279,1.325266815752383,0.942030000715989,0.2878001375,0.6626323296246981
0.029,1.778975,1.0,2662.62780225088,0.2783852760241735,1.3248617952946173,0.9435544670270566,0.28776995,0.6634719832843053
0.029500000000000002,1.7782437500000001,1.0,2670.688896436541,0.28243296506065924,1.3244574227090424,0.9450107817033414,0.2877392375,0.6643092501562684
0.03,1.7775,1.0,2678.114127645531,0.28645794827155413,1.3240533513478698,0.9464029428147971,0.287708,0.6651448516588458
0.0305,1.77674375,1.0,2684.9386229815486,0.2904603535420275,1.323649234563312,0.9477346580539944,0.2876762375,0.6659795056332343
0.031,1.775975,1.0,2691.1979193950956,0.2944403087572486,1.3232447257075803,0.9490093694823509,0.28764395,0.6668139263464004
0.0315,1.7751937500000001,1.0,2696.9203859345207,0.29839793710268603,1.3228395470451257,0.9502302830005371,0.2876111375,0.667648682601078
0.032,1.7744,1.0,2702.1427622177252,0.3023333697816436,1.3224333471106717,0.9514003743141227,0.2875778,0.6684844919356157
0.0325,1.77359375,1.0,2706.8895171020918,0.3062467301008996,1.3220258891645515,0.9525224256686556,0.2875439375,0.6693218326140944
0.033,1.772775,1.0,2711.1832775978223,0.310138139947971,1.3216169553059645,0.9535990319995911,0.28750955,0.6701611417720703
0.0335,1.7719437500000002,1.0,2715.0468661748673,0.3140077212103749,1.3212063276341093,0.954632614129235,0.2874746375,0.6710028542340856
0.034,1.7711000000000001,1.0,2718.503281146914,0.31785559577562833,1.3207937882481855,0.955625432523477,0.2874392,0.6718474024916401
0.0345,1.7702437500000001,1.0,2721.575678108107,0.32168188553124827,1.3203791192473917,0.9565795998066904,0.2874032375,0.6726952166781428
0.035,1.7693750000000001,1.0,2724.287352422247,0.3254867123647517,1.319962102730927,0.9574970921599711,0.28736675,0.6735467245408283
0.035500000000000004,1.76849375,1.0,2726.6571591220386,0.32927019370188554,1.319542562301383,0.9583797630196675,0.2873297375,0.6744022668299323
0.036000000000000004,1.7676,1.0,2728.7048089710497,0.33303244885460603,1.3191203147004342,0.9592293487832866,0.2872922,0.6752621962547699
0.0365,1.76669375,1.0,2730.4602853254587,0.33677360895927516,1.3186950841312595,0.9600474710443835,0.2872541375,0.6761270515005404
0.037,1.765775,1.0,2731.936939226984,0.3404937889216537,1.3182667467248195,0.9608356632128555,0.28721555,0.6769970597232131
0.0375,1.76484375,1.0,2733.148180742033,0.34419310364750255,1.3178351786120757,0.9615953654976956,0.2871764375,0.6778724465453763
0.038,1.7639,1.0,2734.1074721603054,0.34787166804258246,1.3174002559239886,0.9623279316014086,0.28713679999999997,0.6787534360312071
0.0385,1.76294375,1.0,2734.8283215341794,0.35152959701265424,1.3169618547915196,0.9630346348628968,0.28709663750000003,0.679640250660458
0.039,1.761975,1.0,2735.324276557568,0.3551670054634787,1.3165198513456298,0.9637166738997704,0.28705595,0.6805331113014683
0.0395,1.7609937500000001,1.0,2735.60891878614,0.3587840083008166,1.31607412171728,0.9643751777958386,0.2870147375,0.6814322371831953
0.04,1.76,1.0,2735.695858196392,0.36238072043042874,1.3156245420374315,0.9650112108749245,0.286973,0.682337845866268
0.0405,1.7589937500000001,1.0,2735.598728085821,0.36595725675807605,1.3151709884370455,0.9656257770980433,0.2869307375,0.6832501532130604
0.041,1.757975,1.0,2735.3311803129673,0.3695137321895192,1.3147133370470827,0.966219824117324,0.28688795,0.68416937335679
0.0415,1.75694375,1.0,2734.9010845239786,0.37305025353028515,1.3142515166330897,0.9667942501170148,0.2868446375,0.6850956131817696
0.042,1.7559,1.0,2734.3215658650556,0.3765669380683891,1.3137854083457712,0.9673499017790714,0.28680079999999997,0.6860290736902986
0.0425,1.75484375,1.0,2733.607211245834,0.38006390477603913,1.3133148801266337,0.9678875789875114,0.2867564375,0.686969980520514
0.043000000000000003,1.753775,1.0,2732.7648253251778,0.38354126096424634,1.3128398706411326,0.9684080425459997,0.28671155,0.6879184162539522
0.043500000000000004,1.75269375,1.0,2731.8012179352913,0.3869991139440219,1.3123603185547232,0.9689120128469411,0.28666613750000003,0.6888744623481882
0.044,1.7516,1.0,2730.723202540013,0.390437571026377,1.3118761625328608,0.9694001724176761,0.2866202,0.6898381991191858
0.0445,1.75049375,1.0,2729.5375947780203,0.3938567395223228,1.3113873412410002,0.9698731682818774,0.2865737375,0.6908097057234085
0.045,1.7493750000000001,1.0,2728.251211087872,0.3972567267428706,1.3108937933445972,0.970331614151254,0.28652675,0.6917890601396903
0.0455,1.74824375,1.0,2726.8708674173736,0.40063763999903146,1.310395457509107,0.970776092461295,0.2864792375,0.6927763391508679
0.046,1.7471,1.0,2725.40337801645,0.40399958660181656,1.3098922723999846,0.9712071562635622,0.2864312,0.6937716183251714
0.0465,1.7459437500000001,1.0,2723.8555543127704,0.4073426738622371,1.3093841766826853,0.9716253309859224,0.28638263750000004,0.6947749719973757
0.047,1.744775,1.0,2722.234203871108,0.41066700909130427,1.3088711090226646,0.9720311160711058,0.28633355,0.6957864732497108
0.0475,1.74359375,1.0,2720.5455430915194,0.4139726977577466,1.308353013423797,0.972424986647147,0.28628393750000003,0.6968061833943355
0.048,1.7424,1.0,2718.791273120981,0.41725983087730817,1.307829874967641,0.9728073958801076,0.2862338,0.6978340818794853
0.0485,1.74119375,1.0,2716.9843820303195,0.4205285373538595,1.3073015759088487,0.9731787727516096,0.2861831375,0.6988703489921497
0.049,1.739975,1.0,2715.1281064087852,0.4237789167633961,1.3067680872337357,0.9735395283023048,0.28613195,0.6999149893334028
0.0495,1.73874375,1.0,2713.2256799341867,0.42701106868191374,1.3062293799286182,0.973890054226311,0.2860802375,0.7009680065960906
0.05,1.7375,1.0,2711.280333089281,0.4302250926854081,1.3056854249798113,0.9742307239538998,0.286028,0.7020294035552046
0.0505,1.73624375,1.0,2709.295292896337,0.43342108834987486,1.3051361933736312,0.9745618936641779,0.2859752375,0.7030991820581951
0.051000000000000004,1.734975,1.0,2707.2737826712064,0.4365991552513097,1.3045816560963932,0.9748839032328733,0.28592195,0.7041773430152374
0.051500000000000004,1.73369375,1.0,2705.2190217951857,0.43975939296570826,1.304021784134413,0.9751970771199224,0.2858681375,0.7052638863894399
0.052000000000000005,1.7324,1.0,2703.1342255062204,0.44290190106906624,1.3034565484740068,0.9755017252011838,0.2858138,0.7063588111869985
0.0525,1.73109375,1.0,2701.022604708483,0.4460267791373793,1.3028859201014897,0.9757981435482459,0.28575893750000003,0.7074621154473022
0.053,1.729775,1.0,2698.8873658005464,0.44913412674664316,1.3023098700031777,0.9760866151599964,0.28570355000000003,0.7085737962329778
0.0535,1.72844375,1.0,2696.731710522454,0.45222404347285344,1.3017283691653863,0.9763674106493229,0.2856476375,0.7096938496198865
0.054,1.7271,1.0,2694.558835821254,0.4552966288920059,1.3011413885744312,0.9766407888880586,0.2855912,0.7108222706870646
0.0545,1.7257437500000001,1.0,2692.371507307817,0.45835197603193534,1.3005489031193265,0.9769069972070801,0.2855342375,0.7119590460260514
0.055,1.724375,1.0,2690.1712073432527,0.461390164733549,1.2999508993988385,0.9771662718373901,0.28547675,0.7131041388706247
0.0555,1.72299375,1.0,2687.96194351796,0.46441132805956475,1.2993473408608016,0.9774188427388112,0.2854187375,0.7142575558659664
0.056,1.7216,1.0,2685.7448853336323,0.46741555714809496,1.2987382169000483,0.9776649277624628,0.2853602,0.7154192530720016
0.0565,1.72019375,1.0,2683.5212004278583,0.4704029431372518,1.2981235169114105,0.9779047357225508,0.28530113749999997,0.7165891857920024
0.057,1.718775,1.0,2681.292054556884,0.47337357716514766,1.2975032302897207,0.9781384668426096,0.28524155,0.7177673085688183
0.0575,1.71734375,1.0,2679.058611580017,0.4763275503698949,1.2968773464298113,0.9783663131762156,0.2851814375,0.7189535751811027
0.058,1.7159,1.0,2676.822033447663,0.47926495388960566,1.2962458547265148,0.978588459003817,0.2851208,0.7201479386395304
0.0585,1.71444375,1.0,2674.5834801911465,0.48218587886239234,1.2956087445746631,0.9788050812072273,0.2850596375,0.7213503511830088
0.059000000000000004,1.7129750000000001,1.0,2672.3441099150136,0.48509041642636724,1.294966005369089,0.9790163496231976,0.28499795,0.7225607642748806
0.059500000000000004,1.71149375,1.0,2670.1050787922622,0.48797865771964266,1.2943176265046246,0.9792224273773921,0.2849357375,0.7237791285991209
0.06,1.71,1.0,2667.867541061574,0.4908506938803308,1.2936635973761021,0.9794234712000026,0.284873,0.7250053940565261
0.0605,1.7084937500000001,1.0,2665.6326490274923,0.49370661604654414,1.2930039073783541,0.9796196317241395,0.2848097375,0.7262395097608957
0.061,1.7069750000000001,1.0,2663.4015530625798,0.49654651535639494,1.2923385459062129,0.9798110537680693,0.28474595,0.7274814240352074
0.0615,1.7054437500000001,1.0,2661.175401612485,0.4993704829479954,1.2916675023545108,0.9799978766022853,0.2846816375,0.7287310844077852
0.062,1.7039,1.0,2658.9553412038013,0.5021786099594578,1.29099076611808,0.980180234202339,0.2846168,0.7299884376084596
0.0625,1.70234375,1.0,2656.7425164530837,0.5049709875288947,1.290308326591753,0.9803582554882895,0.2845514375,0.7312534295647197
0.063,1.7007750000000001,1.0,2654.5369456968165,0.5077476941133837,1.2896201835338827,0.9805320641360262,0.28448555,0.7325259862557401
0.0635,1.69919375,1.0,2652.336182774159,0.5105087853940246,1.2889263594274958,0.9807017787231349,0.28441913750000003,0.7338059911606298
0.064,1.6976,1.0,2650.1463275172937,0.5132544139828566,1.2882267979587356,0.9808675165696511,0.2843522,0.7350934723802749
0.0645,1.69599375,1.0,2647.967429144096,0.5159846615067674,1.2875214985590921,0.9810293883090656,0.2842847375,0.7363883541656058
0.065,1.694375,1.0,2645.7995368279608,0.5186996095926442,1.286810460660055,0.9811875005652999,0.28421675,0.7376905601274459
0.0655,1.69274375,1.0,2643.642699699104,0.5213993398673742,1.286093683693114,0.9813419561253821,0.2841482375,0.7390000132363024
0.066,1.6911,1.0,2641.4969668457784,0.5240839339578451,1.285371167089759,0.9814928541034819,0.2840792,0.7403166358221585
0.0665,1.6894437500000001,1.0,2639.3623873154893,0.5267534734909441,1.2846429102814796,0.981640290096792,0.2840096375,0.7416403495742652
0.067,1.687775,1.0,2637.2390101159,0.5294080400935587,1.2839089126997658,0.9817843563337171,0.28393955,0.7429710755409336
0.0675,1.68609375,1.0,2635.12688421655,0.5320477153925761,1.283169173776107,0.9819251418148011,0.2838689375,0.7443087341293269
0.068,1.6844000000000001,1.0,2633.026058549645,0.5346725810148838,1.2824236929419932,0.9820627324467969,0.2837978,0.7456532451052511
0.0685,1.68269375,1.0,2630.9365820113017,0.5372827185873692,1.2816724696289141,0.9821972111702553,0.2837261375,0.7470045275929479
0.069,1.680975,1.0,2628.858503463034,0.5398782097369197,1.2809155032683597,0.9823286580809921,0.28365395,0.7483625000748859
0.0695,1.67924375,1.0,2626.791871732721,0.5424591360904226,1.2801527932918193,0.9824571505457639,0.28358123749999997,0.7497270803915534
0.07,1.6775,1.0,2624.7367356159425,0.5450255792747654,1.279384339130783,0.9825827633124669,0.283508,0.7510981857412486
0.07050000000000001,1.67574375,1.0,2622.6931438773536,0.5475776209168354,1.2786101402167405,0.9827055686151538,0.2834342375,0.7524757326798732
0.07100000000000001,1.673975,1.0,2620.66114525158,0.5501153426435199,1.2778301959811815,0.9828256362741453,0.28335995,0.7538596371207216
0.07150000000000001,1.67219375,1.0,2618.640788444834,0.5526388260817064,1.277044505855596,0.9829430337914944,0.2832851375,0.7552498143342752
0.07200000000000001,1.6704,1.0,2616.632122136113,0.5551481528582823,1.2762530692714733,0.9830578264420533,0.2832098,0.7566461789479929
0.0725,1.66859375,1.0,2614.635194978314,0.557643404600135,1.2754558856603035,0.9831700773603659,0.2831339375,0.7580486449461026
0.073,1.6667750000000001,1.0,2612.6500555996413,0.5601246629341518,1.2746529544535763,0.9832798476236106,0.28305755,0.7594571256693934
0.0735,1.66494375,1.0,2610.676752604864,0.5625920094872201,1.2738442750827816,0.9833871963307921,0.2829806375,0.7608715338150058
0.074,1.6631,1.0,2608.7005623870486,0.5650455218960131,1.2730299843265165,0.9834921865349623,0.2829032,0.7622915422788973
0.0745,1.6612438608182176,1.0,2606.759469402681,0.5674852728503529,1.2722097789694873,0.9835948596678127,0.2828252421543651,0.7637175900299199
0.075,1.6593830252867336,1.0,2605.192527670834,0.5699113387910516,1.271383978192009,0.9836952831977196,0.2827470870620428,0.7651490318261452
