Time [s],Phi [rad],STIM [ ],Fsee [N],Gamma [ ],Lcerel [ ],q [ ],Lmtc [m],fisomrel [ ]
0.0,1.8,1.0,18.288688844904954,0.0005770542308302313,1.3793038837633291,0.005085937777960501,0.288653,0.5412262875065527
0.0005,1.79999375,1.0,18.774426276264784,0.00618302672178434,1.3792474762964082,0.014589470224054383,0.2886527375,0.541362728707925
0.001,1.799975,1.0,22.53692575629644,0.011757554139381763,1.378845462254137,0.03862448041199678,0.28865195,0.5423345527087029
0.0015,1.79994375,1.0,32.91876350613731,0.017300812866507573,1.3778909080858688,0.074689959973688,0.2886506375,0.5446379514860888
0.002,1.7999,1.0,57.275236057177075,0.02281297829478369,1.3761325501146362,0.11953381948913945,0.2886488,0.5488657676794028
0.0025,1.79984375,1.0,103.08748182426456,0.028294224832502952,1.3736518454200028,0.16979755350635412,0.28864643749999996,0.5547968699433237
0.003,1.7997750000000001,1.0,168.5620794018001,0.03374472591296666,1.370933006432216,0.22265782924247768,0.28864354999999997,0.5612522472549668
0.0035,1.79969375,1.0,246.1865381702819,0.03916465399171225,1.3683251145679793,0.27595384021470054,0.2886401375,0.5673999042681279
0.004,1.7996,1.0,330.4633424002137,0.044554180559309264,1.3659194518230893,0.3280819820940909,0.2886362,0.5730323813057713
0.0045000000000000005,1.7994937500000001,1.0,418.55254714756285,0.04991347614425695,1.363706086900413,0.37793484305045094,0.2886317375,0.5781820228048127
0.005,1.799375,1.0,508.85808175251407,0.05524271029585967,1.3616585858497419,0.4248296519111674,0.28862675,0.5829179441363677
0.0055,1.79924375,1.0,600.3089042363233,0.0605420517154182,1.3597536099627832,0.4684143474098903,0.2886212375,0.587300191705184
0.006,1.7991000000000001,1.0,692.0264236812616,0.06581166797051843,1.3579741766801416,0.5085761242208012,0.2886152,0.5913727322390776
0.006500000000000001,1.79894375,1.0,783.3219399593897,0.07105172585671445,1.3563065835034318,0.5453625347766231,0.2886086375,0.5951709775258673
0.007,1.798775,1.0,873.6081946854335,0.07626239117854938,1.3547402125206591,0.5789222821946789,0.28860155,0.5987225179234618
0.0075,1.79859375,1.0,962.3938843795775,0.08144382865006443,1.353266368609074,0.6094616239393852,0.2885939375,0.602049977071932
0.008,1.7984,1.0,1049.3189322037676,0.08659620263188006,1.3518770042112813,0.6372139397290203,0.2885858,0.605174023939075
0.0085,1.79819375,1.0,1134.0581921468315,0.09171967572266955,1.3505656986331316,0.6624207215260768,0.2885771375,0.608111259380945
0.009000000000000001,1.797975,1.0,1216.3744637585764,0.09681440998853924,1.3493264464244035,0.6853184852219266,0.28856795,0.6108770211367933
0.0095,1.79774375,1.0,1296.1091431300736,0.10188056712924363,1.348153564628055,0.7061314589787479,0.2885582375,0.6134856359591161
0.01,1.7975,1.0,1373.1280921937428,0.10691830712740485,1.3470422130962545,0.7250680032247769,0.288548,0.6159493058968555
0.0105,1.79724375,1.0,1447.344121223232,0.1119277891708663,1.34598789545002,0.7423186960451007,0.2885372375,0.618279260848425
0.011,1.796975,1.0,1518.717427356233,0.11690917178772141,1.3449863281546988,0.7580560540703764,0.28852595000000003,0.6204860758492937
0.0115,1.79669375,1.0,1587.2457963531785,0.12186261344393978,1.3440334622628762,0.77243518283723,0.2885141375,0.6225796455466139
0.012,1.7964,1.0,1652.9155320770924,0.12678827000338652,1.3431259706111773,0.785595088899338,0.28850180000000003,0.6245681386866628
0.0125,1.79609375,1.0,1715.7505715695017,0.13168629717927893,1.3422605641082874,0.7976596898173549,0.2884889375,0.6264595225008829
0.013000000000000001,1.7957750000000001,1.0,1775.7929907080047,0.1365568498947111,1.3414341671424475,0.8087393112540522,0.28847555,0.6282611910323446
0.0135,1.79544375,1.0,1833.1204491374556,0.14140008360415404,1.3406436699857553,0.8189319875829005,0.2884616375,0.6299805168961601
0.014,1.7951000000000001,1.0,1887.7819111900917,0.14621615077457378,1.3398866016996742,0.8283250446155006,0.2884472,0.6316233991870122
0.0145,1.79474375,1.0,1939.8341456126636,0.15100520310863283,1.3391606636530464,0.8369961271020727,0.2884322375,0.6331952941021209
0.015,1.794375,1.0,1989.354822266635,0.15576739230899378,1.3384635572147145,0.8450142550506315,0.28841675,0.6347015957830411
0.0155,1.79399375,1.0,2036.4227415989067,0.1605028690753011,1.3377931726982988,0.8524408954607717,0.2884007375,0.6361472336684225
0.016,1.7936,1.0,2081.1416708686256,0.16521178461536745,1.337147313346131,0.8593307656284129,0.2883842,0.6375372739269318
0.0165,1.7931937500000001,1.0,2123.5830389202897,0.16989428699097545,1.3365242751455446,0.8657328065810069,0.2883671375,0.6388756767785899
0.017,1.792775,1.0,2163.8211898479403,0.1745505237030272,1.3359224494246331,0.8716907452040068,0.28834955,0.6401661606267692
0.0175,1.7923437500000001,1.0,2201.941351018177,0.17918064225242492,1.3353402275114896,0.877243682419221,0.2883314375,0.6414124101165255
0.018000000000000002,1.7919,1.0,2238.026395346914,0.1837847890044568,1.334776124288801,0.8824266691720977,0.2883128,0.6426178144329378
0.0185,1.79144375,1.0,2272.1742824652897,0.1883631113502542,1.334228591090134,0.8872711304669848,0.2882936375,0.6437858702101533
0.019,1.790975,1.0,2304.458141592976,0.19291575329099026,1.3336964053122644,0.8918053798689515,0.28827395,0.6449193529390082
0.0195,1.79049375,1.0,2334.949379864833,0.19744285799757566,1.3331784253851422,0.8960549144858747,0.2882537375,0.6460208445723126
0.02,1.79,1.0,2363.7251726129284,0.201944568640921,1.3326735097387177,0.9000427150806499,0.288233,0.647092907902179
0.0205,1.78949375,1.0,2390.8639616747305,0.2064210277349109,1.3321805557841195,0.9037895366785051,0.2882117375,0.6481380049711527
0.021,1.788975,1.0,2416.4431545518382,0.21087237756151642,1.3316985166710937,0.9073141589648038,0.28818995000000003,0.6491584631320031
0.021500000000000002,1.78844375,1.0,2440.5410642794404,0.21529876054488317,1.331226377252896,0.9106335971532263,0.2881676375,0.6501565274614866
0.022,1.7879,1.0,2463.215775914942,0.2197003151158988,1.3307633520046662,0.9137633304647661,0.2881448,0.651133944421675
0.0225,1.78734375,1.0,2484.5283911746874,0.22407717970545094,1.3303086554015433,0.9167174209132825,0.28812143749999997,0.6520924495115579
0.023,1.786775,1.0,2504.542778221745,0.22842949274442717,1.3298615019186666,0.9195086626744831,0.28809755,0.6530337677039589
0.0235,1.78619375,1.0,2523.325335134661,0.23275739266371512,1.3294211060311756,0.9221487139465357,0.28807313749999996,0.6539596138431026
0.024,1.7856,1.0,2540.932315969863,0.23706101468569224,1.3289867995140967,0.9246482331352368,0.2880482,0.6548714468924475
0.0245,1.78499375,1.0,2557.4353034299497,0.24134049967193053,1.3285577883831807,0.9270169410831108,0.2880227375,0.6557709811631156
0.025,1.784375,1.0,2572.8811231776617,0.24559598134249486,1.3281335284938918,0.9292637733909712,0.28799675,0.6566593988461362
0.025500000000000002,1.78374375,1.0,2587.316010340988,0.24982759283565634,1.327713494692073,0.9313969210509341,0.2879702375,0.6575378360864435
0.026000000000000002,1.7831000000000001,1.0,2600.7875003029862,0.25403546728968607,1.327297161823569,0.9334238999325515,0.2879432,0.6584074230300909
0.0265,1.78244375,1.0,2613.344316823565,0.258219737842855,1.326884004734223,0.9353516155395653,0.2879156375,0.6592692839570042
0.027,1.781775,1.0,2625.0362662760717,0.26238053763343444,1.3264734982698791,0.9371864207654365,0.28788755,0.6601245373961327
0.0275,1.7810937500000001,1.0,2635.9038527738703,0.26651799635999635,1.326065212410421,0.9389341803809779,0.2878589375,0.6609740983920503
0.028,1.7804,1.0,2645.997853472728,0.2706322492316338,1.325658629779812,0.940600292459937,0.2878298,0.6618190588327019
0.0285,1.77969375,1.0,2655.360315388198,0.2747234274764244,1.325253320870807,0.9421897523991973,0.2878001375,0.6626603229034178
0.029,1.778975,1.0,2664.0234733381235,0.27879165832107095,1.3248489525357428,0.9437071899687188,0.28776995,0.663498590677394
0.029500000000000002,1.7782437500000001,1.0,2672.020096290968,0.2828370689922761,1.3244451916269548,0.945156889685772,0.2877392375,0.6643345587696063
0.03,1.7775,1.0,2679.383439951349,0.28685978671674267,1.3240417049967796,0.9465428209777222,0.287708,0.6651689203532527
0.0305,1.77674375,1.0,2686.1472018066133,0.29085993872117344,1.3236381594975535,0.9478686653514982,0.2876762375,0.6660023651691204
0.031,1.775975,1.0,2692.3454786338507,0.29483765223227115,1.3232342219816122,0.9491378408993132,0.28764395,0.6668355795278758
0.0315,1.7751937500000001,1.0,2698.0127264675953,0.29879305447673854,1.3228295593012924,0.9503535244306894,0.2876111375,0.667669246305272
0.032,1.7744,1.0,2703.176889370228,0.3027262670781025,1.3224239007259655,0.951518677392819,0.2875778,0.6685039165837141
0.0325,1.77359375,1.0,2707.872224204956,0.30663742178345826,1.3220169203138035,0.9526360540447742,0.2875439375,0.6693402520140739
0.033,1.772775,1.0,2712.120243985863,0.31052663996236124,1.321608410652904,0.9537082325882059,0.28750955,0.6701786677210237
0.0335,1.7719437500000002,1.0,2715.942503812921,0.3143940428502054,1.3211981656595462,0.9547376185612343,0.2874746375,0.6710195739060674
0.034,1.7711000000000001,1.0,2719.360727811742,0.3182397516823845,1.3207859792500083,0.9557264583506382,0.2874392,0.6718633785606289
0.0345,1.7702437500000001,1.0,2722.396791739978,0.3220638876942924,1.320371645340569,0.9566768515979766,0.2874032375,0.6727104874418901
0.035,1.7693750000000001,1.0,2725.072706534516,0.32586657212132303,1.3199549578475063,0.9575907625000857,0.28736675,0.67356130404592
0.035500000000000004,1.76849375,1.0,2727.410602801279,0.3296479261988701,1.3195357106870989,0.9584700301140532,0.2873297375,0.6744162295780953
0.036000000000000004,1.7676,1.0,2729.424979769138,0.3334080632393232,1.3191137680981917,0.9593163831845969,0.2872922,0.6752755198028493
0.0365,1.76669375,1.0,2731.1389462808283,0.33714710696873645,1.318688916827682,0.9601314374922658,0.2872541375,0.6761395863877511
0.037,1.765775,1.0,2732.580028586726,0.34086518695627926,1.318260904237059,0.9609167069128511,0.28721555,0.6770089184764336
0.0375,1.76484375,1.0,2733.760664970576,0.3445624171326723,1.3178296153903368,0.9616736235153636,0.2871764375,0.6778837231531587
0.038,1.7639,1.0,2734.6933432101964,0.3482389114286364,1.3173949353515304,0.9624035334539148,0.28713679999999997,0.678764206036983
0.0385,1.76294375,1.0,2735.3905946874324,0.35189478377489214,1.3169567491846546,0.9631077030614369,0.28709663750000003,0.6796505712573214
0.039,1.761975,1.0,2735.864988790604,0.3555301481021604,1.316514941953724,0.963787324447437,0.28705595,0.6805430214286692
0.0395,1.7609937500000001,1.0,2736.1291276103734,0.35914511834116175,1.3160693987227536,0.9644435206450621,0.2870147375,0.6814417576244802
0.04,1.76,1.0,2736.1956409278478,0.362739808422617,1.3156200045557578,0.9650773503482087,0.286973,0.6823469793502024
0.0405,1.7589937500000001,1.0,2736.0771814961645,0.3663143322772469,1.3151666445167514,0.965689812275325,0.2869307375,0.683258884515471
0.041,1.757975,1.0,2735.7864206144413,0.36986880383577214,1.3147092036697494,0.9662818491929578,0.28688795,0.6841776694054598
0.0415,1.75694375,1.0,2735.3360439950475,0.3734033370289135,1.314247567078766,0.966854351628851,0.2868446375,0.6851035286513916
0.042,1.7559,1.0,2734.738747923502,0.37691804578739163,1.3137816198078167,0.9674081613015271,0.28680079999999997,0.6860366552002002
0.0425,1.75484375,1.0,2733.9983627835063,0.38041303180550995,1.313311327506038,0.9679440789490958,0.2867564375,0.6869770792614931
0.043000000000000003,1.753775,1.0,2733.1311547116466,0.38388841831902004,1.3128365429465976,0.9684628566384297,0.28671155,0.6879250554758343
0.043500000000000004,1.75269375,1.0,2732.1476633273824,0.38734431834377264,1.3123571709234494,0.9689652090504913,0.28666613750000003,0.6888807326935555
0.044,1.7516,1.0,2731.0538789659445,0.3907808379430035,1.3118731575733429,0.9694518155296288,0.2866202,0.689844175973319
0.0445,1.75049375,1.0,2729.855794164384,0.3941980831799485,1.3113844490330269,0.9699233201230463,0.2865737375,0.6908154492997395
0.045,1.7493750000000001,1.0,2728.5594024940683,0.3975961601178433,1.3108909914392513,0.9703803337573571,0.28652675,0.6917946155673451
0.0455,1.74824375,1.0,2727.1706974588888,0.40097517481992384,1.3103927309287648,0.9708234362604414,0.2864792375,0.6927817365643603
0.046,1.7471,1.0,2725.6956714570993,0.40433523334942584,1.309889613638317,0.9712531782409991,0.2864312,0.6937768729562968
0.0465,1.7459437500000001,1.0,2724.1403148075797,0.40767644176958506,1.309381585704657,0.971670082837086,0.28638263750000004,0.6947800842693623
0.047,1.744775,1.0,2722.5106148405225,0.41099890614363727,1.3088685932645339,0.9720746473439276,0.28633355,0.6957914288736862
0.0475,1.74359375,1.0,2720.8125550526115,0.4143027325348183,1.3083505824546973,0.9724673447304122,0.28628393750000003,0.6968109639663551
0.048,1.7424,1.0,2719.05211432593,0.4175880270063639,1.3078274994118964,0.9728486250528469,0.2862338,0.6978387455542696
0.0485,1.74119375,1.0,2717.2352662120816,0.4208548956215099,1.3072992902728804,0.9732189167738333,0.2861831375,0.6988748284368113
0.049,1.739975,1.0,2715.361462844243,0.42410342904863074,1.3067659605511917,0.9735786302110601,0.28613195,0.6999191500226554
0.0495,1.73874375,1.0,2713.4446622445844,0.42733374975776184,1.306227383541819,0.9739281512147249,0.2860802375,0.7009719055138128
0.05,1.7375,1.0,2711.4879437913496,0.43054595717537475,1.3056835315832256,0.9742678515470403,0.286028,0.7020330947666044
0.0505,1.73624375,1.0,2709.494072702051,0.4337401500405094,1.305134379848815,0.9745980859218928,0.2859752375,0.7031027112062469
0.051000000000000004,1.734975,1.0,2707.465811022888,0.43691642709220585,1.3045799035119905,0.9749191928343365,0.28592195,0.704180747374447
0.051500000000000004,1.73369375,1.0,2705.40591744507,0.440074887069504,1.3040200777461552,0.9752314954427213,0.2858681375,0.7052671949209877
0.052000000000000005,1.7324,1.0,2703.3171471354995,0.44321562871144377,1.3034548777247124,0.9755353023953447,0.2858138,0.7063620445952803
0.0525,1.73109375,1.0,2701.2022515808153,0.44633875075706503,1.3028842786210648,0.9758309086055755,0.28575893750000003,0.7074652862378736
0.053,1.729775,1.0,2699.063978444719,0.44944435194540794,1.3023082556086163,0.976118595979074,0.28570355000000003,0.7085769087719245
0.0535,1.72844375,1.0,2696.9050714399427,0.4525325310155123,1.3017267838607696,0.9763986340964599,0.2856476375,0.7096969001946316
0.054,1.7271,1.0,2694.7282702129014,0.4556033867064181,1.3011398385509283,0.9766712808545136,0.2855912,0.7108252475686252
0.0545,1.7257437500000001,1.0,2692.536310242536,0.4586570177571653,1.3005473948524953,0.9769367830687563,0.2855342375,0.7119619370133237
0.055,1.724375,1.0,2690.3247984742134,0.46169352198315367,1.2999494931656042,0.9771953808490969,0.28547675,0.7131068289212283
0.0555,1.72299375,1.0,2688.1006255728307,0.46471299457354975,1.299346070607049,0.9774472978117648,0.2854187375,0.7142599809059937
0.056,1.721603246600603,1.0,2686.0288100302123,0.4677155322742895,1.2987370814698211,0.9776927493639683,0.28536033635722535,0.715421416310247
0.0565,1.720212255763443,1.0,2684.5016491040633,0.47070122862097813,1.2981228872428225,0.9779319652685519,0.28530191474206457,0.7165903829783269
0.057,1.7188212649262828,1.0,2683.503258990746,0.47367017714922066,1.2975038494149547,0.9781651658672507,0.2852434931269039,0.7177661338752679
0.0575,1.7174302740891227,1.0,2682.993915557101,0.47662247139462227,1.2968803294751188,0.9783925625538189,0.28518507151174316,0.7189479272026305
0.058,1.7160392832519626,1.0,2682.9340507376673,0.479558204892788,1.2962526889122168,0.9786143582198422,0.28512664989658243,0.7201350265059991
0.0585,1.7146482924148025,1.0,2683.2842180599223,0.482477471179323,1.2956212892151497,0.9788307476750097,0.2850682282814217,0.721326700774148
0.059000000000000004,1.7132573015776424,1.0,2684.0130318494016,0.48538036171335297,1.2949864188100144,0.9790419138353904,0.28500980666626097,0.7225223619822793
0.059500000000000004,1.7118663107404821,1.0,2685.081678365699,0.48826697099743815,1.2943484348173815,0.979248036474456,0.28495138505110024,0.723721297578309
0.06,1.710475319903322,1.0,2686.4642333847564,0.4911373898510117,1.293707576616487,0.9794492817233125,0.2848929634359395,0.7249230211673166
0.0605,1.709084329066162,1.0,2688.1388017741738,0.49399170793024716,1.2930640469690104,0.9796458072723849,0.28483454182077883,0.7261271185400052
0.061,1.7076933382290018,1.0,2690.0835107783446,0.49683001489131834,1.2924180486366315,0.9798377648073576,0.28477612020561804,0.7273331786720174
0.0615,1.7063023473918417,1.0,2692.276498465197,0.4996524003903988,1.2917697843810292,0.9800253002891162,0.28471769859045737,0.7285407937571675
0.062,1.7049113565546816,1.0,2694.695903083152,0.5024589540836623,1.2911194569638833,0.9802085542186527,0.28465927697529664,0.7297495592380538
0.0625,1.7035203657175215,1.0,2697.321075745064,0.5052497650422166,1.290467257969508,0.9803876612635881,0.2846008553601359,0.7309590945397809
0.063,1.7021293748803614,1.0,2700.134813066042,0.5080249214742362,1.2898133473494366,0.980562749449773,0.2845424337449752,0.732169080670009
0.0635,1.7007383840432013,1.0,2703.1173523393195,0.5107845133753055,1.2891579082880449,0.9807339434512851,0.28448401212981445,0.7333791584007737
0.064,1.6993473932060412,1.0,2706.256887361167,0.5135286266830683,1.288501051087881,0.9809013594527826,0.2844255905146537,0.734589105616033
0.0645,1.6979564023688811,1.0,2709.5415979817717,0.5162573473351677,1.287842886051493,0.9810651094677929,0.284367168899493,0.7357987020074848
0.065,1.6965654115317208,1.0,2712.959646771583,0.5189707612692472,1.2871835234814293,0.9812253015216643,0.28430874728433225,0.7370077290841561
0.0655,1.6951744206945607,1.0,2716.4991759582754,0.5216689544229501,1.2865230736802375,0.9813820398252442,0.2842503256691715,0.7382159701812154
0.066,1.6937834298574006,1.0,2720.1483046325397,0.5243520127339198,1.2858616469504665,0.981535424939821,0.28419190405401085,0.7394232104680066
0.0665,1.6923924390202405,1.0,2723.901846493304,0.5270200155225022,1.285199292447181,0.9816855505076074,0.2841334824388501,0.7406293481748323
0.067,1.6910014481830804,1.0,2727.7428113899086,0.529673055602201,1.284536166570939,0.9818325130254502,0.2840750608236894,0.7418340877331471
0.0675,1.6896104573459203,1.0,2731.661211175919,0.5323112190711653,1.2838723617028827,0.981976402180176,0.28401663920852865,0.7430372521085069
0.068,1.6882194665087602,1.0,2735.6518378758087,0.5349345871305996,1.283207926588677,0.9821173022168946,0.2839582175933679,0.744238744634383
0.0685,1.6868284756716,1.0,2739.709470628206,0.5375432409817086,1.282542909973988,0.9822552945390565,0.2838997959782072,0.745438469462471
0.069,1.68543748483444,1.0,2743.8288750314196,0.5401372618256968,1.28187736060448,0.9823904578252203,0.28384137436304646,0.746636331564579
0.0695,1.68404649399728,1.0,2748.004802540984,0.5427167308637688,1.2812113272258188,0.9825228681402668,0.2837829527478858,0.7478322367343542
0.07,1.6826555031601198,1.0,2752.231989920283,0.5452817292971293,1.2805448585836692,0.9826525990413545,0.283724531132725,0.7490260915888682
0.07050000000000001,1.6812645123229595,1.0,2756.5051587441226,0.5478323383269827,1.2798780034236967,0.9827797216789022,0.2836661095175643,0.7502178035700422
0.07100000000000001,1.6798735214857994,1.0,2760.8190149540587,0.5503686391545338,1.2792108104915665,0.9829043048928633,0.28360768790240354,0.7514072809459265
0.07150000000000001,1.6784825306486393,1.0,2765.1682484676994,0.5528907129809871,1.2785433285329437,0.9830264153045399,0.28354926628724286,0.7525944328118258
0.07200000000000001,1.6770915398114792,1.0,2769.5475328391994,0.5553986410075472,1.2778756062934937,0.9831461174041731,0.28349084467208213,0.7537791690912732
0.0725,1.675700548974319,1.0,2773.9578231370733,0.5578924888409624,1.2772076357315325,0.9832634701749394,0.2834324230569214,0.7549615009315497
0.073,1.674309558137159,1.0,2778.389389461089,0.5603723553503982,1.2765395050984976,0.9833785369555524,0.28337400144176067,0.7561412695149172
0.0735,1.6729185672999989,1.0,2782.83930490682,0.5628383192218231,1.2758712411254567,0.9834913752202777,0.28331557982659994,0.7573184257649876
