Time [s],Phi [rad],STIM [ ],Fsee [N],Gamma [ ],Lcerel [ ],q [ ],Lmtc [m],fisomrel [ ]
0.0,1.8,1.0,19.59473888375296,0.0013030573636496061,1.3791613551333894,0.005435087482393827,0.288653,0.5415710037417467
0.0005,1.79999375,1.0,20.27122762363217,0.006904957551093428,1.3790865748263315,0.01691603124852104,0.2886527375,0.541751813732271
0.001,1.799975,1.0,24.57891287538266,0.01247543550912087,1.3786456261512166,0.04266016500506009,0.28865195,0.5428172506267639
0.0015,1.79994375,1.0,36.270708287394356,0.01801466748777685,1.3776201965595227,0.08004650006416952,0.2886506375,0.5452901375967711
0.002,1.7999,1.0,63.12291876561977,0.023522828756111704,1.3757745324656,0.12577036840795341,0.2886488,0.5497241733107769
0.0025,1.79984375,1.0,111.7650295840911,0.02900009359499832,1.37325418004405,0.1765143919363984,0.28864643749999996,0.5557439957896807
0.003,1.7997750000000001,1.0,179.1557134762061,0.03444663530906458,1.3705514275845652,0.22954232054784432,0.28864354999999997,0.5621544627392883
0.0035,1.79969375,1.0,257.785391032347,0.03986262622952954,1.3679781037595706,0.2827693888585037,0.2886401375,0.5682146529129806
0.004,1.7996,1.0,342.5860204036795,0.045248237720153704,1.3656056213578214,0.3346587058706774,0.2886362,0.573764443978193
0.0045000000000000005,1.7994937500000001,1.0,430.96089661564685,0.05060364019993627,1.3634201680117146,0.3841622141055394,0.2886317375,0.5788449664615343
0.005,1.799375,1.0,521.4107615073018,0.055929003088206336,1.36139593935986,0.4306452780740147,0.28862675,0.5835235172646823
0.0055,1.79924375,1.0,612.8904714586308,0.06122449493413194,1.3595110177433025,0.47379181236459916,0.2886212375,0.5878565947741545
0.006,1.7991000000000001,1.0,704.5477022387628,0.06649028319690084,1.3577491554879733,0.5135137378254973,0.2886152,0.591886293838144
0.006500000000000001,1.79894375,1.0,795.7117737418895,0.07172653463921984,1.3560971840725478,0.549874638551153,0.2886086375,0.5956466693099555
0.007,1.798775,1.0,885.7954596442698,0.07693341472894,1.3545450805237502,0.5830329303734217,0.28860155,0.5991638580242585
0.0075,1.79859375,1.0,974.3518450263849,0.08211108847089038,1.353083884411687,0.6131995638967561,0.2885939375,0.6024610030891404
0.008,1.7984,1.0,1060.992250546489,0.08725971952671002,1.351706346814673,0.6406102488049752,0.2885858,0.6055569056450157
0.0085,1.79819375,1.0,1145.4133075234226,0.09237947062213801,1.3504059716859846,0.6655063188012965,0.2885771375,0.6084682876492378
0.009000000000000001,1.797975,1.0,1227.4054000792537,0.09747050427422552,1.349176586738328,0.6881229132285517,0.28856795,0.6112108140107488
0.0095,1.79774375,1.0,1306.7895009007523,0.10253298125695506,1.3480129726755752,0.7086825760804583,0.2885582375,0.6137977386782825
0.01,1.7975,1.0,1383.4411862991526,0.10756706150420729,1.3469102940020818,0.7273914039048666,0.288548,0.6162412242199908
0.0105,1.79724375,1.0,1457.2899550879945,0.11257290434989849,1.3458639591579258,0.7444375732801779,0.2885372375,0.6185526841696577
0.011,1.796975,1.0,1528.3091019614553,0.11755066901591643,1.3448696312778725,0.7599912754472662,0.28852595000000003,0.6207427851475263
0.0115,1.79669375,1.0,1596.464861416956,0.12250051218909236,1.3439237328853624,0.7742056503129188,0.2885141375,0.6228203633871108
0.012,1.7964,1.0,1661.7635544143568,0.12742259030690473,1.3430227590781039,0.7872175919829902,0.28850180000000003,0.6247939628649398
0.0125,1.79609375,1.0,1724.2350732593156,0.1323170591258503,1.3421634123351265,0.7991491710105383,0.2884889375,0.6266715537601474
0.013000000000000001,1.7957750000000001,1.0,1783.9447438970587,0.13718407467843932,1.3413424089855581,0.8101089730660788,0.28847555,0.6284609688390816
0.0135,1.79544375,1.0,1840.933343626541,0.14202379024384132,1.3405571050870062,0.8201937351632775,0.2884616375,0.6301685528531819
0.014,1.7951000000000001,1.0,1895.2512154337608,0.14683635835123982,1.3398050444324778,0.8294894590626782,0.2884472,0.6318001651091893
0.0145,1.79474375,1.0,1946.9721988585657,0.15162193152981826,1.3390837708149808,0.8380725568390591,0.2884322375,0.6333615955672628
0.015,1.794375,1.0,1996.1752308014964,0.1563806611617024,1.3383910017914609,0.8460110188771922,0.28841675,0.6348581948551388
0.0155,1.79399375,1.0,2042.9585936340873,0.16111269910786483,1.3377244488335167,0.8533653420743283,0.2884007375,0.6362952699620452
0.016,1.7936,1.0,2087.387098248314,0.1658181939704414,1.3370823492711346,0.8601895778615023,0.2883842,0.6376769445467247
0.0165,1.7931937500000001,1.0,2129.536850937601,0.17049729419893409,1.3364629633848368,0.8665319377365217,0.2883671375,0.6390072521374169
0.017,1.792775,1.0,2169.495850319143,0.17515014819818253,1.3358645556163773,0.8724354795370046,0.28834955,0.6402901794662418
0.0175,1.7923437500000001,1.0,2207.348871011025,0.17977690278680697,1.3352855364630842,0.8779387539477677,0.2883314375,0.6415293655569574
0.018000000000000002,1.7919,1.0,2243.1991305894944,0.1843777065193749,1.3347242294343726,0.883076272187639,0.2883128,0.6427286040483593
0.0185,1.79144375,1.0,2277.112975598534,0.1889527034401274,1.3341794162675633,0.887879113647407,0.2882936375,0.6438906815786691
0.019,1.790975,1.0,2309.163795701943,0.19350203759330575,1.3336498786999775,0.8923752053539956,0.28827395,0.6450183623835788
0.0195,1.79049375,1.0,2339.431442145623,0.19802585302315107,1.3331343984689363,0.8965896828418178,0.2882537375,0.6461143895304208
0.02,1.79,1.0,2367.994687543611,0.20252429273434389,1.3326318255412575,0.9005452214623492,0.288233,0.6471813413172527
0.0205,1.78949375,1.0,2394.937653894896,0.2069975004495609,1.3321410088078873,0.9042622969267877,0.2882117375,0.6482217801915782
0.021,1.788975,1.0,2420.33713270571,0.21144561855861993,1.3316609140826117,0.9077594530021722,0.28818995000000003,0.6492380040493829
0.021500000000000002,1.78844375,1.0,2444.252753953176,0.21586878622593972,1.3311907115368815,0.9110535287865815,0.2881676375,0.6502318641316778
0.022,1.7879,1.0,2466.7475067852615,0.220267142615939,1.3307295713421479,0.9141598011580467,0.2881448,0.6512051997443851
0.0225,1.78734375,1.0,2487.8874612901036,0.22464082689303652,1.330276663669862,0.9170921513139688,0.28812143749999997,0.6521598387599008
0.023,1.786775,1.0,2507.741505532512,0.228989978221651,1.329831158691475,0.9198632116126929,0.28809755,0.6530975980747418
0.0235,1.78619375,1.0,2526.35005896907,0.23331473263515062,1.329392519833461,0.9224845484487603,0.28807313749999996,0.6540196679775605
0.024,1.7856,1.0,2543.8315195420028,0.2376152313879443,1.3289594942921312,0.9249665899018958,0.2880482,0.6549287344230399
0.0245,1.78499375,1.0,2560.2220497898215,0.2418916087757018,1.328531626787344,0.9273190075791532,0.2880227375,0.6558257978331039
0.025,1.784375,1.0,2575.5543327850805,0.24614399868950176,1.3281085078911496,0.929550660556769,0.28799675,0.6567117571729699
0.025500000000000002,1.78374375,1.0,2589.8623111238567,0.2503725350204229,1.3276897281755993,0.9316696675888818,0.2879702375,0.657587506531256
0.026000000000000002,1.7831062116367011,1.0,2603.4824989611834,0.2545773516595438,1.3272748782127433,0.9336834790023949,0.28794346088874145,0.658453935238629
0.0265,1.782468673214351,1.0,2616.759183101534,0.25875858249794315,1.3268635485746327,0.9355989407355503,0.2879166842750027,0.6593119279757612
0.027,1.7818311347920013,1.0,2629.718583716193,0.2629163599562014,1.3264554697164763,0.9374223724279266,0.28788990766126404,0.6601620736358254
0.0275,1.7811935963696512,1.0,2642.346830717102,0.2670508167866697,1.326050745772161,0.9391596517816195,0.28786313104752537,0.6610041810631939
0.028,1.7805560579473012,1.0,2654.6496799304587,0.2711620828528533,1.325649299667347,0.9408161705421617,0.28783635443378663,0.6618384363079286
0.0285,1.7799185195249514,1.0,2666.6344959359863,0.2752502874755266,1.3252510409146065,0.9423969046697135,0.28780957782004796,0.6626650522447861
0.029,1.7792809811026014,1.0,2678.3088007300453,0.279315559975464,1.3248558790265121,0.9439064537986506,0.2877828012063093,0.6634842406310973
0.029500000000000002,1.7786434426802513,1.0,2689.677662597645,0.2833580194525255,1.3244637473671286,0.9453490740884943,0.28775602459257055,0.6642961627693883
0.03,1.7780059042579013,1.0,2700.747488140462,0.28737778673887554,1.3240745682002781,0.9467287080292507,0.28772924797883187,0.6651010020593218
0.0305,1.7773683658355515,1.0,2711.5358601445773,0.2913750242660656,1.3236881630412465,0.9480490132169764,0.2877024713650932,0.665899148938085
0.031,1.7767308274132014,1.0,2722.049748897598,0.29534985316018236,1.3233044519061843,0.9493133840371009,0.28767569475135446,0.6666907888317659
0.0315,1.7760932889908514,1.0,2732.296241880345,0.29930239454731244,1.322923354811242,0.950524975446512,0.28764891813761573,0.6674761062418773
0.032,1.7754557505685016,1.0,2742.282539059832,0.30323276955354267,1.3225447917725706,0.9516867228209334,0.28762214152387705,0.6682552847588938
0.0325,1.7748182121461515,1.0,2752.0159483247103,0.3071410993049597,1.3221686828063202,0.9528013599282412,0.2875953649101384,0.6690285070753847
0.033,1.7741806737238015,1.0,2761.5038810623546,0.31102750492765024,1.3217949479286417,0.9538714352247454,0.28756858829639964,0.6697959549987333
0.0335,1.7735431353014515,1.0,2770.753847877921,0.31489210754770103,1.321423507155686,0.9548993266487964,0.28754181168266096,0.6705578094634526
0.034,1.7729055968791017,1.0,2779.773454455083,0.31873502829119876,1.3210542805036032,0.955887255066235,0.2875150350689223,0.6713142505430921
0.0345,1.7722680584567516,1.0,2788.5703975585384,0.32255638828423017,1.3206871879885445,0.9568372965047917,0.28748825845518355,0.6720654574617346
0.035,1.7716305200344016,1.0,2797.152461178887,0.32635630865288195,1.32032214962666,0.9577513932992553,0.2874614818414449,0.6728116086050883
0.035500000000000004,1.7709929816120518,1.0,2805.5275128183907,0.33013491052324084,1.3199590854341008,0.9586313642557769,0.2874347052277062,0.6735528815311664
0.036000000000000004,1.7703554431897017,1.0,2813.703499919632,0.3338923150213936,1.3195979154270172,0.9594789139318353,0.28740792861396747,0.674289452980565
0.0365,1.7697179047673517,1.0,2821.6884464351824,0.3376286432734268,1.3192385596215601,0.9602956411179594,0.28738115200022873,0.6750214988863252
0.037,1.7690803663450017,1.0,2829.490449539846,0.3413440164054273,1.3188809380338802,0.9610830465980665,0.28735437538649006,0.6757491943833951
0.0375,1.7684428279226518,1.0,2837.112320780463,0.3450385381036778,1.3185250184292525,0.9618425412044493,0.2873275987727514,0.6764726168196568
0.038,1.7678052895003018,1.0,2844.562621975237,0.3487123327991816,1.3181707177199922,0.9625754508888651,0.28730082215901265,0.6771919463824779
0.0385,1.7671677510779518,1.0,2851.853151744217,0.35236553574771023,1.3178179246305723,0.9632830226563269,0.28727404554527397,0.6779074195902929
0.039,1.766530212655602,1.0,2858.988378750294,0.35599825778539224,1.3174665936953756,0.9639664318038761,0.2872472689315353,0.6786191386717326
0.0395,1.765892674233252,1.0,2865.972811744003,0.3596106097483563,1.3171166794487834,0.964626785776312,0.28722049231779656,0.6793272054061784
0.04,1.7652551358109019,1.0,2872.810998112562,0.36320270247273095,1.3167681364251782,0.9652651288101043,0.2871937157040579,0.6800317211279328
0.0405,1.7646175973885518,1.0,2879.5075224744037,0.3667746467946449,1.3164209191589422,0.9658824462121044,0.2871669390903192,0.6807327867302619
0.041,1.763980058966202,1.0,2886.067005320176,0.37032655355022676,1.3160749821844573,0.966479668305332,0.2871401624765805,0.6814305026693082
0.0415,1.763342520543852,1.0,2892.494101699175,0.37385853357560517,1.3157302800361055,0.9670576740709511,0.2871133858628418,0.6821249689678648
0.042,1.762704982121502,1.0,2898.7934999513695,0.3773706977069087,1.315386767248269,0.9676172945127395,0.28708660924910306,0.6828162852190247
0.0425,1.7620674436991521,1.0,2904.969920486098,0.38086315678026605,1.31504439835533,0.9681593157678384,0.2870598326353644,0.6835045505896945
0.043000000000000003,1.761429905276802,1.0,2911.0281146054226,0.3843360216318058,1.3147031278916703,0.968684481985313,0.28703305602162565,0.6841898638239764
0.043500000000000004,1.760792366854452,1.0,2916.9728633746913,0.3877894030976566,1.314362910391672,0.9691934979920324,0.287006279407887,0.6848723232464208
0.044,1.760154828432102,1.0,2922.8089765373807,0.391223412013947,1.3140237003897177,0.9696870317635653,0.2869795027941483,0.6855520267651429
0.0445,1.7595172900097522,1.0,2928.541291477156,0.3946381592168058,1.3136854524201889,0.9701657167161527,0.28695272618040957,0.6862290718748133
0.045,1.7588797515874022,1.0,2934.174672225222,0.3980337555423614,1.3133481210174678,0.970630153834364,0.2869259495666709,0.6869035556595101
0.0455,1.7582422131650521,1.0,2939.708758198055,0.40141028470422724,1.3130117067013796,0.9710809133016234,0.2868991729529322,0.6875754829970968
0.046,1.7576046747427023,1.0,2945.151283448111,0.4047678792662448,1.3126761392064534,0.9715185382738641,0.2868723963391935,0.6882449999073551
0.0465,1.7569671363203523,1.0,2950.5073599803864,0.40810665559040926,1.3123413714943244,0.9719435443546428,0.2868456197254548,0.6889122055262897
0.047,1.7563295978980022,1.0,2955.7793458600354,0.41142671475851555,1.3120073807910126,0.9723564215199004,0.28681884311171607,0.6895771502931507
0.0475,1.7556920594756522,1.0,2960.9696125525347,0.4147281578523586,1.3116741443225393,0.9727576359378929,0.2867920664979774,0.690239884441368
0.048,1.7550545210533024,1.0,2966.080544537165,0.4180110859537334,1.3113416393149246,0.9731476313481263,0.2867652898842387,0.6909004579996664
0.0485,1.7544169826309524,1.0,2971.1145389316484,0.42127560014443494,1.3110098429941897,0.9735268303480719,0.2867385132705,0.6915589207931425
0.049,1.7537794442086023,1.0,2976.0740051291045,0.4245218015062581,1.310678732586355,0.9738956355946253,0.2867117366567613,0.6922153224443117
0.0495,1.7531419057862525,1.0,2980.9613644452097,0.4277497911209979,1.310348285317441,0.9742544309266902,0.2866849600430226,0.6928697123741205
0.05,1.7525043673639025,1.0,2985.7790497784276,0.43095967007044933,1.3100184784134687,0.9746035824147332,0.2866581834292839,0.6935221398029261
0.0505,1.7518668289415524,1.0,2990.5295052803003,0.43415153943640733,1.3096892891004586,0.9749434393426842,0.2866314068155452,0.6941726537514432
0.051000000000000004,1.7512292905192024,1.0,2995.2151860378576,0.4373255003006668,1.3093606946044314,0.9752743351271029,0.2866046302018065,0.6948213030416573
0.051500000000000004,1.7505917520968526,1.0,2999.8385577682084,0.44048165374502274,1.3090326721514076,0.9755965881781492,0.2865778535880678,0.695468136297706
0.052000000000000005,1.7499542136745025,1.0,3004.402096523092,0.4436201008512701,1.3087051989674081,0.9759105027065217,0.28655107697432913,0.6961132019467251
0.0525,1.7493166752521525,1.0,3008.9082884062273,0.4467409427012039,1.3083782522784535,0.9762163694801964,0.2865243003605904,0.6967565482196636
0.053,1.7486791368298027,1.0,3013.3596293017895,0.44984428037661905,1.3080518093105644,0.9765144665345029,0.2864975237468517,0.6973982231520652
0.0535,1.7480415984074527,1.0,3017.758624613971,0.4529302149593105,1.3077258472897615,0.9768050598387887,0.286470747133113,0.6980382745848164
0.054,1.7474040599851026,1.0,3022.103235206076,0.4559988021362173,1.3074003827796543,0.9770884018336234,0.2864439705193743,0.698676673045032
0.0545,1.7467665215627526,1.0,3026.39993560725,0.45905019347010223,1.3070753588179649,0.9773647391874214,0.2864171939056356,0.6993135331850068
0.055,1.7461289831404028,1.0,3030.650418749986,0.46208448643243516,1.3067507598632495,0.9776343053206481,0.2863904172918969,0.6999488881483388
0.0555,1.7454914447180527,1.0,3034.8558103094615,0.4651017723337959,1.3064265753181372,0.9778973235998417,0.2863636406781582,0.7005827612844324
0.056,1.7448539062957027,1.0,3039.0172405310936,0.4681021424847646,1.3061027945852572,0.9781540081396718,0.2863368640644195,0.7012151758517086
0.0565,1.7442163678733529,1.0,3043.1358441346933,0.4710856881959212,1.3057794070672388,0.9784045642617798,0.2863100874506808,0.7018461550178823
0.057,1.7435788294510028,1.0,3047.212760220241,0.4740525007778457,1.305456402166711,0.978649188927254,0.28628331083694214,0.7024757218602313
0.0575,1.7429412910286528,1.0,3051.249132177122,0.47700267154111814,1.305133769286303,0.9788880711444607,0.2862565342232034,0.7031038993658585
0.058,1.7423037526063028,1.0,3055.246107595614,0.4799362917963184,1.304811497828644,0.979121392353816,0.28622975760946473,0.7037307104319468
0.0585,1.741666214183953,1.0,3059.2048381803015,0.48285345285402664,1.3044895771963632,0.9793493267909833,0.28620298099572605,0.7043561778660077
0.059000000000000004,1.741028675761603,1.0,3063.126479666543,0.48575424602482276,1.3041679967920898,0.9795720418298611,0.2861762043819873,0.70498032438612
0.059500000000000004,1.7403911373392529,1.0,3067.0121917395986,0.4886387626192868,1.3038467460184529,0.9797896983066406,0.2861494277682486,0.7056031726211665
0.06,1.739753598916903,1.0,3070.863137955654,0.4915070939479987,1.3035258142780815,0.9800024508261146,0.2861226511545099,0.7062247451110575
0.0605,1.739116060494553,1.0,3074.680485665447,0.49435933132153853,1.303205190973605,0.9802104480513422,0.28609587454077123,0.7068450643069505
0.061,1.738478522072203,1.0,3078.4654059408954,0.4971955660504863,1.3028848655076526,0.980413832977693,0.2860690979270325,0.7074641525714643
0.0615,1.737840983649853,1.0,3082.219073503735,0.500015889445422,1.3025648272828534,0.9806127431922301,0.2860423213132938,0.708082032178881
0.062,1.7372034452275031,1.0,3085.94266665682,0.5028203928169255,1.3022450657018365,0.9808073111193151,0.28601554469955515,0.7086987253153461
0.0625,1.736565906805153,1.0,3089.637367217632,0.505609167475577,1.3019255701672314,0.9809976642532737,0.2859887680858164,0.7093142540790569
0.063,1.735928368382803,1.0,3093.3043604550835,0.5083823047319564,1.3016063300816667,0.9811839253788887,0.28596199147207774,0.7099286404804488
0.0635,1.7352908299604533,1.0,3096.9426351647394,0.5111398523860452,1.3012873536200225,0.9813662105995105,0.28593521485833906,0.7105418703719502
0.064,1.7346532915381032,1.0,3100.5551016197264,0.5138819493693163,1.3009686154978914,0.9815446366392089,0.2859084382446003,0.7111539938943954
0.0645,1.7340157531157532,1.0,3104.142432341713,0.5166086809137342,1.3006501095666385,0.9817193131383876,0.28588166163086165,0.7117650242907152
0.065,1.7333782146934031,1.0,3107.705159251037,0.5193201290948155,1.3003318308926675,0.9818903456620489,0.2858548850171229,0.7123749724255682
0.0655,1.7327406762710533,1.0,3111.2438159452918,0.5220163759880766,1.3000137745423819,0.9820578360357138,0.28582810840338424,0.7129838491225537
0.066,1.7321031378487033,1.0,3114.7589376738997,0.5246975036690341,1.2996959355821855,0.9822218825047456,0.2858013317896455,0.713591665164281
0.0665,1.7314655994263533,1.0,3118.2510613147647,0.5273635942132047,1.2993783090784825,0.982382579885793,0.28577455517590683,0.7141984312924381
0.067,1.7308280610040034,1.0,3121.720725350337,0.5300147296961046,1.2990608900976761,0.9825400197107896,0.28574777856216815,0.7148041582078626
0.0675,1.7301905225816534,1.0,3125.1684698446843,0.5326509921932507,1.2987436737061706,0.9826942903639313,0.2857210019484294,0.7154088565706029
0.068,1.7295529841593034,1.0,3128.594836421514,0.5352724637801594,1.2984266549703694,0.9828454772120168,0.28569422533469074,0.7160125369999877
0.0685,1.7289154457369533,1.0,3132.0003682416527,0.5378792265323471,1.2981098289566764,0.9829936627285168,0.28566744872095207,0.7166152100746848
0.069,1.7282779073146035,1.0,3135.3856099819745,0.5404713625253305,1.2977931907314952,0.9831389266117169,0.28564067210721333,0.7172168863327657
0.0695,1.7276403688922535,1.0,3138.7511078146986,0.5430489538346259,1.29747673536123,0.983281345897254,0.28561389549347466,0.7178175762717627
0.07,1.7270028304699034,1.0,3142.097409386938,0.5456120825357502,1.2971604579122844,0.9834209950653501,0.2855871188797359,0.7184172903487291
0.07050000000000001,1.7263652920475536,1.0,3145.4250638011476,0.5481608307042197,1.296844353451062,0.9835579461430258,0.28556034226599725,0.7190160389802963
