Time [s],Phi [rad],STIM [ ],Fsee [N],Gamma [ ],Lcerel [ ],q [ ],Lmtc [m],fisomrel [ ]
0.0,1.8,1.0,17.965629086108496,1.4662536597792438e-05,1.3793399175316277,0.0050000571258798955,0.288653,0.5411391166042664
0.0005,1.79999375,1.0,18.276673588166666,0.005623789600159784,1.379302395627121,0.012953466869982902,0.2886527375,0.5412298873454302
0.001,1.799975,1.0,21.62185142775676,0.011201453895793117,1.378937947731774,0.03563288858264103,0.28865195,0.5421110706914263
0.0015,1.79994375,1.0,31.080000656407847,0.016747831905617155,1.3780452866970019,0.07063498767313126,0.2886506375,0.5442658201727733
0.002,1.7999,1.0,53.60758832689357,0.022263099120087653,1.3763664970013778,0.11475725485847442,0.2886488,0.5483044003026527
0.0025,1.79984375,1.0,97.16256044887847,0.027747430045602234,1.3739330654168227,0.16461755656944038,0.28864643749999996,0.5541264750892163
0.003,1.7997750000000001,1.0,161.01575938661117,0.03320099821216673,1.3712121882045274,0.21732446551860826,0.28864354999999997,0.5605915539808882
0.0035,1.79969375,1.0,237.74887381151996,0.03862397617302499,1.368582715497063,0.2706566607393434,0.2886401375,0.5667945849388112
0.004,1.7996,1.0,321.5368248512082,0.04401653551543155,1.3661542370472695,0.32295818373442897,0.2886362,0.5724842942995281
0.0045000000000000005,1.7994937500000001,1.0,409.3405455662732,0.049378846865838495,1.3639211054716698,0.37307473849773065,0.2886317375,0.5776831281641512
0.005,1.799375,1.0,499.48797108059546,0.05471107988100314,1.3618567599900828,0.4202850994529824,0.28862675,0.5824607310251263
0.0055,1.79924375,1.0,590.865704669943,0.06001340329521158,1.3599373641490562,0.4642085457385766,0.2886212375,0.5868784881678244
0.006,1.7991000000000001,1.0,682.5936302659647,0.06528598486403635,1.3581450419975605,0.5047119866351317,0.2886152,0.5909825538665997
0.006500000000000001,1.79894375,1.0,773.958851242015,0.07052899141993421,1.3564659290805532,0.5418300156456564,0.2886086375,0.5948088054998024
0.007,1.798775,1.0,864.3638616520259,0.07574258885263638,1.3548891342599918,0.5757034288955818,0.28860155,0.5983855305618416
0.0075,1.79859375,1.0,953.3205047883494,0.08092694213101115,1.353405590424737,0.6065341483127081,0.2885939375,0.6017362520935683
0.008,1.7984,1.0,1040.4319222535867,0.08608221527113145,1.352007564700387,0.6345540975713488,0.2885858,0.604880977020736
0.0085,1.79819375,1.0,1125.3908401068277,0.09120857142749837,1.3506881569643172,0.6600044189421088,0.2885771375,0.6078374252709515
0.009000000000000001,1.797975,1.0,1207.9555953301115,0.09630617275792551,1.349441277882592,0.6831225001800828,0.28856795,0.6106211521421594
0.0095,1.79774375,1.0,1287.9453823434233,0.10137518060011974,1.3482614201417567,0.704134132346582,0.2885582375,0.6132461200282107
0.01,1.7975,1.0,1365.2196139975308,0.10641575502137597,1.347143709686862,0.7232493837741729,0.288548,0.6157246327322823
0.0105,1.79724375,1.0,1439.7162767599928,0.1114280563626646,1.3460832357796237,0.7406604417969465,0.2885372375,0.6180688581387288
0.011,1.796975,1.0,1511.371643744862,0.11641224257940644,1.3450759498445404,0.7565417433019237,0.28852595000000003,0.6202888674709448
0.0115,1.79669375,1.0,1580.160983928571,0.12136847110344237,1.3441180055409196,0.7710501881293126,0.2885141375,0.62239412711269
0.012,1.7964,1.0,1646.0938018394627,0.12629689885858167,1.343205734326953,0.7843262042253435,0.28850180000000003,0.6243935711897224
0.0125,1.79609375,1.0,1709.210291466107,0.13119768269230855,1.3423356176369792,0.7964950621489854,0.2884889375,0.6262956788810842
0.013000000000000001,1.7957750000000001,1.0,1769.537843353366,0.1360709770610078,1.3415047195284944,0.8076684584339757,0.28847555,0.6281075463640446
0.0135,1.79544375,1.0,1827.1180964795683,0.14091693568276198,1.3407102999123537,0.8179457366133143,0.2884616375,0.6298357510638839
0.014,1.7951000000000001,1.0,1882.0174503242686,0.14573571200376548,1.3399496541661235,0.8274151611825544,0.2884472,0.6314867112000415
0.0145,1.79474375,1.0,1934.316036751281,0.15052745907723308,1.3392202030626594,0.8361551957659158,0.2884322375,0.6330664981955616
0.015,1.794375,1.0,1984.0888680529147,0.1552923288877186,1.3385196614979713,0.8442356868391118,0.28841675,0.6345804808013359
0.0155,1.79399375,1.0,2031.4013902924958,0.16003047122430733,1.3378460466757145,0.8517188662020878,0.2884007375,0.6360333187040528
0.016,1.7936,1.0,2076.3352189441753,0.1647420358760846,1.3371973757995443,0.858660150948547,0.2883842,0.6374296229397349
0.0165,1.7931937500000001,1.0,2118.9759421275808,0.16942717167865248,1.3365717775761534,0.865108984112862,0.2883671375,0.6387737198317229
0.017,1.792775,1.0,2159.422505314686,0.1740860284843614,1.33596737776641,0.8711095096963591,0.28834955,0.640069901392737
0.0175,1.7923437500000001,1.0,2197.7574144503405,0.17871875378197621,1.33538258947144,0.8767012768873123,0.2883314375,0.6413218070134936
0.018000000000000002,1.7919,1.0,2234.0501019283174,0.1833254928579667,1.334816056764062,0.8819197605121488,0.2883128,0.642532551444402
0.0185,1.79144375,1.0,2268.3783503118475,0.18790639099880257,1.3342664237170943,0.8867967750323404,0.2882936375,0.6437052231357909
0.019,1.790975,1.0,2300.8275941877046,0.19246159349095365,1.3337323344033556,0.8913608985142928,0.28827395,0.64484288575793
0.0195,1.79049375,1.0,2331.478724350222,0.19699124419733388,1.3332125463753122,0.8956378704131753,0.2882537375,0.6459483384505116
0.02,1.79,1.0,2360.4229848077343,0.2014954885091048,1.332705775537193,0.8996508784433521,0.288233,0.6470244481001116
0.0205,1.78949375,1.0,2387.7319240441,0.20597446855517945,1.3322109841912284,0.9034209073244953,0.2882117375,0.6480735394856358
0.021,1.788975,1.0,2413.4690236227943,0.2104283247453083,1.3317272570747072,0.9069669545250126,0.28818995000000003,0.6490976623523315
0.021500000000000002,1.78844375,1.0,2437.7017167257536,0.21485719748924173,1.331253678924918,0.9103062220615371,0.2881676375,0.6500988526744493
0.022,1.7879,1.0,2460.5010583604335,0.2192612271967301,1.330789334479149,0.9134543109420179,0.2881448,0.6510791332743675
0.0225,1.78734375,1.0,2481.935415641677,0.22364055298214253,1.330333365653409,0.9164254029552948,0.28812143749999997,0.652040393928862
0.023,1.786775,1.0,2502.0749665817507,0.22799531495244876,1.3298849249004305,0.9192324023976572,0.28809755,0.6529844908272874
0.0235,1.78619375,1.0,2520.9846636425973,0.23232565205434938,1.3294432391170548,0.9218870796855744,0.28807313749999996,0.6539131128828543
0.024,1.7856,1.0,2538.715769156228,0.23663169956510502,1.3290076858607351,0.9244001998726374,0.2880482,0.6548276232288388
0.0245,1.78499375,1.0,2555.3214255960047,0.2409135927619764,1.3285776426889249,0.926781598846129,0.2880227375,0.6557293773118279
0.025,1.784375,1.0,2570.8564973335183,0.24517146692222422,1.3281524871590777,0.9290402762742718,0.28799675,0.6566197231228039
0.025500000000000002,1.78374375,1.0,2585.3774209861454,0.24940545732310915,1.3277315968286465,0.9311844781252443,0.2879702375,0.6575000014035253
0.026000000000000002,1.7831000000000001,1.0,2598.932602790269,0.2536156968149839,1.327314437390894,0.9332217833107003,0.2879432,0.6583713618478396
0.0265,1.78244375,1.0,2611.5772508472555,0.2578023214829775,1.3269004225455037,0.9351591476103266,0.2879156375,0.6592350565675101
0.027,1.781775,1.0,2623.361893075031,0.26196546521881986,1.326489020040404,0.9370029768949457,0.28788755,0.6600922187278593
0.0275,1.7810937500000001,1.0,2634.3235890947126,0.26610525766524135,1.3260798313967557,0.9387591895349645,0.2878589375,0.6609436975646155
0.028,1.7804,1.0,2644.500182380625,0.2702218284649722,1.3256724581357193,0.9404332428628249,0.2878298,0.6617903380479533
0.0285,1.77969375,1.0,2653.9302325872095,0.27431530726074294,1.3252665017784555,0.9420301751371126,0.2878001375,0.6626329809336926
0.029,1.778975,1.0,2662.6529513964606,0.2783858236952838,1.3248615638461247,0.9435546431810331,0.28776995,0.6634724628043693
0.029500000000000002,1.7782437500000001,1.0,2670.7081418852804,0.2824335074113253,1.3244572458598882,0.9450109561882283,0.2877392375,0.6643096161001787
0.03,1.7775,1.0,2678.128330652635,0.2864584851629292,1.3240532210154174,0.9464031147035872,0.287708,0.6651451210125415
0.0305,1.77674375,1.0,2684.9517507835017,0.29046088719624136,1.323649114250554,0.9477348235674008,0.2876762375,0.6659797539694894
0.031,1.775975,1.0,2691.215583231856,0.2944408422140284,1.3232445640117247,0.9490095234276925,0.28764395,0.6668142596838966
0.0315,1.7751937500000001,1.0,2696.945356387384,0.29839847389776725,1.3228393187068441,0.9502304239151397,0.2876111375,0.6676491527324641
0.032,1.7744,1.0,2702.166884255252,0.30233390592893483,1.3224331267438272,0.9514005106987381,0.2875778,0.6684849450835431
0.0325,1.77359375,1.0,2706.9062395456067,0.3062472619890081,1.3220257365305887,0.9525225638562663,0.2875439375,0.6693221460839663
0.033,1.772775,1.0,2711.189728165916,0.31013866575946386,1.3216168964750437,0.9535991745265326,0.28750955,0.6701612624418402
0.0335,1.7719437500000002,1.0,2715.0438651172567,0.31400824092177915,1.3212063549851067,0.954632760022473,0.2874746375,0.6710027982052984
0.034,1.7711000000000001,1.0,2718.4953517935714,0.3178561111574308,1.3207938604686926,0.955625577563727,0.2874392,0.6718472547372225
0.0345,1.7702437500000001,1.0,2721.56604101513,0.3216823953354634,1.3203792069724374,0.9565797405467554,0.2874032375,0.6726950374353067
0.035,1.7693750000000001,1.0,2724.282192216683,0.3254872206820167,1.3199621496801195,0.9574972237983967,0.28736675,0.6735466287374898
0.035500000000000004,1.76849375,1.0,2726.661589695763,0.32927070619970944,1.3195425220081698,0.958379882416746,0.2873297375,0.6744023489434258
0.036000000000000004,1.7676,1.0,2728.7210482478226,0.33303296972267254,1.3191201670702584,0.9592294553195019,0.2872922,0.6752624967125331
0.0365,1.76669375,1.0,2730.477467438627,0.33677412908503684,1.318694927980055,0.9600475731667742,0.2872541375,0.6761273688768735
0.037,1.765775,1.0,2731.9478217273477,0.3404943021209333,1.31826664785123,0.9608357663196814,0.28721555,0.6769972604130778
0.0375,1.76484375,1.0,2733.1491511357053,0.3441936066644928,1.3178351697974533,0.9615954721283618,0.2871764375,0.6778724644127042
0.038,1.7639,1.0,2734.0985524623698,0.3478721605498461,1.317400336932395,0.9623280416126994,0.28713679999999997,0.6787532720510272
0.0385,1.76294375,1.0,2734.8090137693275,0.35153008120951507,1.3169620301210665,0.9630347490749943,0.28709663750000003,0.6796398962421306
0.039,1.761975,1.0,2735.301428566325,0.3551674844897659,1.3165200588044474,0.9637167870726487,0.28705595,0.6805326925205011
0.0395,1.7609937500000001,1.0,2735.599443397217,0.35878448562396326,1.3160742077488392,0.9643752766730719,0.2870147375,0.6814320637625755
0.04,1.76,1.0,2735.69952365866,0.3623811980710264,1.3156245087575265,0.9650112965328511,0.286973,0.682337912855772
0.0405,1.7589951862489674,1.0,2735.66959510469,0.3659577352898745,1.3151709936337939,0.9656258640043304,0.2869307978224566,0.6832501427674971
0.041,1.7579886784292202,1.0,2735.97221646022,0.3695142107394267,1.3147136941809254,0.9662199392642217,0.28688852449402724,0.6841686565529176
0.0415,1.756982170609473,1.0,2736.6791241791016,0.3730507368606636,1.3142527247574078,0.9667944359886605,0.28684625116559787,0.6850931919086252
0.042,1.755975662789726,1.0,2737.7413856343355,0.37656742686657113,1.3137885308921649,0.9673502454987145,0.2868039778371685,0.6860228248741611
0.0425,1.7549691549699789,1.0,2739.130712439722,0.38006439121615554,1.3133213711391971,0.9678881944770615,0.2867617045087391,0.6869570101640736
0.043000000000000003,1.7539626471502316,1.0,2740.821104085978,0.38354173993764623,1.312851483600239,0.9684090632987782,0.28671943118030974,0.6878952462025811
0.043500000000000004,1.7529561393304847,1.0,2742.786580178668,0.3869995830592727,1.312379106377025,0.9689135907302726,0.28667715785188036,0.6888370341170005
0.044,1.7519496315107375,1.0,2745.0022482242707,0.39043803016571593,1.3119044677681357,0.9694024757290443,0.286634884523451,0.6897818972776657
0.0445,1.7509431236909903,1.0,2747.4445681807115,0.39385719074288245,1.3114277837805868,0.9698763798138358,0.2865926111950216,0.6907293861272708
0.045,1.7499366158712433,1.0,2750.09316109667,0.3972571731953035,1.3109492416827748,0.9703359280005968,0.28655033786659223,0.6916791106406484
0.0455,1.748930108051496,1.0,2752.9315280828905,0.40063808422425373,1.3104689934871032,0.9707817104983953,0.2865080645381628,0.6926307528160238
0.046,1.7479236002317489,1.0,2755.9431561704027,0.4040000305310074,1.3099871912059757,0.971214287726072,0.2864657912097335,0.6935839964548145
0.0465,1.7469170924120017,1.0,2759.1115128157267,0.40734311881683916,1.3095039868517957,0.9716341921055289,0.28642351788130405,0.6945385271774346
0.047,1.7459105845922547,1.0,2762.4293963020664,0.41066744850378867,1.309019447908369,0.9720419226477288,0.2863812445528747,0.695494199025532
0.0475,1.7449040767725075,1.0,2765.869003481603,0.41397313651523565,1.308533827831762,0.9724379695506599,0.2863389712244453,0.6964505009039562
0.048,1.7438975689527603,1.0,2769.420080569121,0.4172602862765182,1.3080472211668028,0.9728227862622851,0.2862966978960159,0.6974072370261826
0.0485,1.7428910611330133,1.0,2773.074577880556,0.4205289994496143,1.3075597024018102,0.9731968028942969,0.28625442456758654,0.6983642520998404
0.049,1.741884553313266,1.0,2776.8244298009913,0.42377937769650204,1.3070713460251024,0.9735604291691342,0.28621215123915716,0.6993213917421295
0.0495,1.7408780454935189,1.0,2780.661553339423,0.4270115226791595,1.3065822265249987,0.9739140555747574,0.2861698779107278,0.7002785024839746
0.05,1.739871537673772,1.0,2784.5778468073318,0.4302255360595647,1.3060924183898175,0.9742580544439499,0.2861276045822984,0.7012354317738294
0.0505,1.7388650298540247,1.0,2788.565188619518,0.43342151949969576,1.3056019961078775,0.9745927809637156,0.28608533125386904,0.7021920279811251
0.051000000000000004,1.7378585220342775,1.0,2792.6154362185816,0.4365995746615307,1.3051110341674974,0.9749185741198854,0.28604305792543966,0.703148140399363
0.051500000000000004,1.7368520142145305,1.0,2796.7204251219914,0.43975980320704755,1.3046196070569962,0.9752357575816277,0.2860007845970103,0.704103619248856
0.052000000000000005,1.7358455063947833,1.0,2800.873292399723,0.4429023042185922,1.3041277773816007,0.9755446394952584,0.2859585112685809,0.7050583387274476
0.0525,1.734838998575036,1.0,2805.072111713404,0.446027170064487,1.3036355633085073,0.9758455108436506,0.28591623794015153,0.7060122598671092
0.053,1.7338324907552891,1.0,2809.3037593570834,0.4491345169785407,1.3031430832833326,0.9761386585774087,0.28587396461172215,0.7069651500557221
0.0535,1.732825982935542,1.0,2813.565438735348,0.45222443995816863,1.3026503629441042,0.9764243492295809,0.2858316912832928,0.7079169573016646
0.054,1.7318194751157947,1.0,2817.8543449871017,0.45529703400078636,1.3021574279288501,0.9767028378603428,0.28578941795486335,0.7088676299343806
0.0545,1.7308129672960477,1.0,2822.16766485665,0.45835239410380935,1.3016643038755977,0.9769743686486045,0.285747144626434,0.7098171166047547
0.055,1.7298064594763005,1.0,2826.502576578157,0.4613906152646531,1.301171016422375,0.9772391754483216,0.2857048712980046,0.7107653662854384
0.0555,1.7287999516565533,1.0,2830.8562497764788,0.464411792480733,1.3006775912072097,0.9774974823118915,0.2856625979695752,0.7117123282711418
0.056,1.727793443836806,1.0,2835.225845380698,0.4674160207494646,1.3001840538681295,0.9777495039828392,0.28562032464114584,0.7126579521788773
0.0565,1.7267869360170591,1.0,2839.608515553739,0.4704033950682634,1.2996904300431622,0.9779954463598324,0.28557805131271646,0.7136021879481649
0.057,1.725780428197312,1.0,2844.0014036354155,0.4733740104345448,1.2991967453703355,0.9782355069339179,0.2855357779842871,0.7145449858411947
0.0575,1.7247739203775647,1.0,2848.4016441009603,0.47632796184572435,1.298703025487677,0.9784698752007269,0.2854935046558577,0.715486296442947
0.058,1.7237674125578177,1.0,2852.8063625334876,0.4792653442992175,1.2982092960332146,0.978698733049275,0.28545123132742833,0.7164260706612711
0.0585,1.7227609047380705,1.0,2857.2137053535725,0.48218624632274965,1.297715573496588,0.9789222540704778,0.28540895799899896,0.7173642770969315
0.059000000000000004,1.7217543969183233,1.0,2861.6242357636866,0.4850907471992352,1.2972218528620776,0.9791406030619855,0.2853666846705696,0.718300925322811
0.059500000000000004,1.7207478890985763,1.0,2866.0318395238032,0.48797897098302984,1.2967281883614707,0.9793539453165676,0.2853244113421402,0.7192359127286976
0.06,1.7197413812788291,1.0,2870.4358749897715,0.4908510049232247,1.296234585552647,0.9795624340429087,0.28528213801371083,0.7201692293445521
0.0605,1.718734873459082,1.0,2874.8356986163903,0.4937069362689112,1.2957410499934863,0.9797662165658301,0.28523986468528145,0.7211008652702495
0.061,1.717728365639335,1.0,2879.2306649653583,0.4965468522691805,1.2952475872418685,0.9799654345978142,0.2851975913568521,0.7220308106755589
0.0615,1.7167218578195877,1.0,2883.6201267140673,0.4993708401731239,1.2947542028556736,0.9801602244959959,0.2851553180284227,0.7229590558001162
0.062,1.7157153499998405,1.0,2888.003434664681,0.5021789872298326,1.2942609023927816,0.9803507175055032,0.2851130446999933,0.7238855909533989
0.0625,1.7147088421800936,1.0,2892.3799377544406,0.5049713806883978,1.293767691411072,0.9805370399899703,0.28507077137156395,0.7248104065146975
0.063,1.7137023343603464,1.0,2896.7489830660747,0.5077481077979108,1.293274575468425,0.9807193136499909,0.28502849804313457,0.7257334929330839
0.0635,1.7126958265405992,1.0,2901.109915839173,0.510509255807463,1.2927815601227202,0.9808976557302262,0.28498622471470514,0.7266548407273788
0.064,1.7116893187208522,1.0,2905.4620794827083,0.5132549119661454,1.2922886509318379,0.9810721792158403,0.2849439513862758,0.7275744404861169
0.0645,1.710682810901105,1.0,2909.804815586866,0.5159851635230494,1.2917958534536575,0.9812429930188814,0.2849016780578464,0.7284922828675116
0.065,1.7096763030813578,1.0,2914.1374639375135,0.5187000977272661,1.2913031732460591,0.9814102021551988,0.284859404729417,0.7294083585994147
0.0655,1.7086697952616108,1.0,2918.4593625294656,0.5213998018278869,1.2908106158669228,0.9815739079124388,0.28481713140098763,0.7303226584792764
0.066,1.7076632874418636,1.0,2922.769847581782,0.5240843630740031,1.290318186874128,0.981734208009632,0.28477485807255826,0.7312351733741036
0.0665,1.7066567796221164,1.0,2927.068253552978,0.5267538687147058,1.289825891825555,0.9818911967488452,0.2847325847441289,0.7321458942204137
0.067,1.7056502718023694,1.0,2931.355020180724,0.5294083743814388,1.2893337265692901,0.9820449625994102,0.2846903114156995,0.7330548299410946
0.0675,1.7046437639826222,1.0,2935.629561398161,0.5320479870840741,1.2888416959574236,0.9821955948091166,0.2846480380872701,0.7339619728202783
0.068,1.703637256162875,1.0,2939.891071050522,0.5346728126143797,1.2883498067565566,0.98234317956078,0.28460576475884075,0.7348673116819402
0.0685,1.7026307483431278,1.0,2944.13954043798,0.5372829295109985,1.2878580587354675,0.9824877980270259,0.2845634914304114,0.7357708482814034
0.069,1.7016242405233808,1.0,2948.3749610698733,0.5398784163125736,1.2873664516629342,0.982629528654559,0.284521218101982,0.7366725843707096
0.0695,1.7006177327036336,1.0,2952.597324663677,0.5424593515577478,1.2868749853077346,0.9827684472745997,0.2844789447735526,0.7375725216986195
0.07,1.6996112248838864,1.0,2956.8066231443117,0.5450258137851642,1.2863836594386473,0.9829046272081209,0.2844366714451232,0.7384706620106152
0.07050000000000001,1.6986047170641394,1.0,2961.002848644005,0.5475778815334656,1.28589247382445,0.9830381393661622,0.28439439811669387,0.7393670070489038
0.07100000000000001,1.6975982092443922,1.0,2965.1859935003426,0.5501156333412953,1.285401428233921,0.9831690523454868,0.28435212478826444,0.7402615585524173
0.07150000000000001,1.696591701424645,1.0,2969.356050257121,0.552639147747296,1.2849105224358384,0.9832974325198253,0.2843098514598351,0.7411543182568165
