Time [s],Phi [rad],STIM [ ],Fsee [N],Gamma [ ],Lcerel [ ],q [ ],Lmtc [m],fisomrel [ ]
0.0,1.8,1.0,17.97112502758709,7.252499660648931e-05,1.3793393018232645,0.0050013800987475715,0.288653,0.5411406061614741
0.0005,1.79999375,1.0,18.301326840253413,0.005681327497543573,1.3792996580482721,0.013115008990737479,0.2886527375,0.5412365095805607
0.001,1.799975,1.0,21.689494894101323,0.011258669051067245,1.3789310448963203,0.03593513702992838,0.28865195,0.5421277525949708
0.0015,1.79994375,1.0,31.23956598463133,0.016804726129131628,1.3780317120342331,0.0710482493791968,0.2886506375,0.5442985481392432
0.002,1.7999,1.0,53.9505623600619,0.022319674211945764,1.3763442873109497,0.11524639284663717,0.2886488,0.5483577085727467
0.0025,1.79984375,1.0,97.73834252965243,0.027803687795963768,1.3739053670559709,0.16514952183007192,0.28864643749999996,0.5541925270623076
0.003,1.7997750000000001,1.0,161.76447152495535,0.033256940401022665,1.3711842007063626,0.21787316541294321,0.28864354999999997,0.5606578097767179
0.0035,1.79969375,1.0,238.59455123729762,0.038679604570398984,1.3685566931061088,0.2712023379705921,0.2886401375,0.5668557524448008
0.004,1.7996,1.0,322.43634761756323,0.0440718518814612,1.3661304313583746,0.3234865032643597,0.2886362,0.5725398827593449
0.0045000000000000005,1.7994937500000001,1.0,410.2718669772576,0.04943385295089219,1.3638992581717866,0.37357622137232477,0.2886317375,0.577733832595738
0.005,1.799375,1.0,500.438147407072,0.054765777426126205,1.361836579919798,0.42075425290404644,0.28862675,0.5825073004845142
0.0055,1.79924375,1.0,591.8241168074003,0.06006779402929048,1.359918647879689,0.46464289628857114,0.2886212375,0.5869214506009455
0.006,1.7991000000000001,1.0,683.5530382726793,0.06534007050880292,1.3581276096017778,0.5051111431770904,0.2886152,0.5910223700284332
0.006500000000000001,1.79894375,1.0,774.9102399212652,0.07058277369032244,1.3564496940534065,0.542194998072902,0.2886086375,0.5948457130396456
0.007,1.798775,1.0,865.2841848150761,0.07579606906774997,1.3548742727179781,0.5760362352813079,0.28860155,0.5984191663357337
0.0075,1.79859375,1.0,954.2350344252637,0.08098012249837687,1.3533915279557802,0.606836745407765,0.2885939375,0.6017679463299714
0.008,1.7984,1.0,1041.3557459688097,0.08613509783094246,1.3519939667554732,0.6348287946264366,0.2885858,0.6049115030859273
0.0085,1.79819375,1.0,1126.295367946138,0.09126115738879229,1.350675355183454,0.6602539351732656,0.2885771375,0.6078660563359641
0.009000000000000001,1.797975,1.0,1208.820724619041,0.09635846349527197,1.3494294593061198,0.683349362652784,0.28856795,0.6106474903349259
0.0095,1.79774375,1.0,1288.7819882289002,0.10142717795685402,1.3482503516343052,0.7043404796358306,0.2885582375,0.6132707034010931
0.01,1.7975,1.0,1366.0387525894253,0.10646746108490365,1.3471331833230584,0.7234372017026373,0.288548,0.6157479369770406
0.0105,1.79724375,1.0,1440.499186390772,0.11147947207166264,1.3460734385897142,0.7408317314765743,0.2885372375,0.6180904818325617
0.011,1.796975,1.0,1512.112312153496,0.11646336909389064,1.3450669035157905,0.756698228837502,0.28852595000000003,0.620308775822781
0.0115,1.79669375,1.0,1580.8946653509809,0.12141931155622887,1.3441092417132219,0.7711931951491094,0.2885141375,0.6224133602281615
0.012,1.7964,1.0,1646.81965243252,0.1263474549907744,1.3431972394037657,0.7844571149132216,0.28850180000000003,0.6244121647501095
0.0125,1.79609375,1.0,1709.8993999266318,0.13124795485531626,1.3423277029554739,0.7966152414197802,0.2884889375,0.6263129585115716
0.013000000000000001,1.7957750000000001,1.0,1770.1828448899207,0.13612096660764353,1.341497438736399,0.8077790168356414,0.28847555,0.6281234034964269
0.0135,1.79544375,1.0,1827.7313398110493,0.14096664447611712,1.340703487507238,0.8180475763303234,0.2884616375,0.6298505535727212
0.014,1.7951000000000001,1.0,1882.617638279026,0.14578514285303312,1.3399430847282543,0.827509063394757,0.2884472,0.6315009539076497
0.0145,1.79474375,1.0,1934.8927910627804,0.15057661309364043,1.3392139760156851,0.8362419680756595,0.2884322375,0.6330799696289229
0.015,1.794375,1.0,1984.6277067507745,0.15534120648447117,1.3385139172112086,0.844316060147922,0.28841675,0.63459288218853
0.0155,1.79399375,1.0,2031.906253376528,0.16007907380391534,1.3378407276003952,0.8517934270778048,0.2884007375,0.6360447792552155
0.016,1.7936,1.0,2076.819981151948,0.16479036571252512,1.3371923240472072,0.8587293914947088,0.2883842,0.6374404866187602
0.0165,1.7931937500000001,1.0,2119.4594834593763,0.1694752321927275,1.3365667894986422,0.8651733311086,0.2883671375,0.6387844266791349
0.017,1.792775,1.0,2159.8916420672417,0.17413382010614745,1.3359625838060583,0.8711694388958225,0.28834955,0.6400801730942516
0.0175,1.7923437500000001,1.0,2198.1940375418076,0.17876627631440997,1.3353781668208142,0.8767572264912195,0.2883314375,0.6413312666451215
0.018000000000000002,1.7919,1.0,2234.45405445003,0.18337274767914002,1.3348119983942688,0.8819720747048369,0.2883128,0.6425412172552174
0.0185,1.79144375,1.0,2268.75594236367,0.1879533797351577,1.3342626589821662,0.8868457462246108,0.2882936375,0.6437132487569261
0.019,1.790975,1.0,2301.1953778422217,0.1925083193913404,1.3337286934056183,0.8914067660330441,0.28827395,0.6448506351969989
0.0195,1.79049375,1.0,2331.8465062597134,0.19703771026734201,1.3332089294054763,0.8956808667332691,0.2882537375,0.6459560247591082
0.02,1.79,1.0,2360.7767665812717,0.2015416944602565,1.3327023176434547,0.89969126590226,0.288233,0.6470317851870975
0.0205,1.78949375,1.0,2388.0586774061367,0.20602041406717791,1.3322078087812679,0.9034589202921671,0.2882117375,0.6480802671707544
0.021,1.788975,1.0,2413.769411845348,0.21047401118520018,1.3317243534806305,0.9070027767507758,0.28818995000000003,0.6491038051908729
0.021500000000000002,1.78844375,1.0,2437.979701400356,0.2149026261722603,1.3312510052686686,0.9103400133158489,0.2881676375,0.6501045009837261
0.022,1.7879,1.0,2460.7711251756496,0.21930640167840065,1.3307867490365135,0.91348619712185,0.2881448,0.6510845875696896
0.0225,1.78734375,1.0,2482.2073008722027,0.22368547677990866,1.3303307740659902,0.9164555079552266,0.28812143749999997,0.6520458536510323
0.023,1.786775,1.0,2502.3433363479203,0.2280399885488683,1.3298823771366346,0.9192608651672485,0.28809755,0.6529898509396785
0.0235,1.78619375,1.0,2521.23673938611,0.23237007405736373,1.3294408550279826,0.9219140390460654,0.28807313749999996,0.6539181219337749
0.024,1.7856,1.0,2538.9472170086774,0.2366758703774789,1.3290055045195706,0.9244257688870406,0.2880482,0.6548322002417821
0.0245,1.78499375,1.0,2555.536485753494,0.24095751458129785,1.3285756223909342,0.9268058675090326,0.2880227375,0.6557336108750327
0.025,1.784375,1.0,2571.057532505547,0.24521514024649618,1.3281506043251468,0.9290633291902889,0.28799675,0.6566236635237277
0.025500000000000002,1.78374375,1.0,2585.575826271068,0.2494488870574258,1.3277297438504605,0.9312063809733444,0.2879702375,0.65750387434857
0.026000000000000002,1.7831000000000001,1.0,2599.1344792575023,0.25365888716075513,1.3273125569177642,0.9332426041958327,0.2879432,0.6583752872575108
0.0265,1.78244375,1.0,2611.7763994740585,0.25784527222790166,1.3268985719778081,0.9351789653412343,0.2879156375,0.6592389146647634
0.027,1.781775,1.0,2623.5455264056905,0.26200817393028264,1.3264873174813419,0.9370218725174424,0.28788755,0.6600957637877471
0.0275,1.7810937500000001,1.0,2634.4867409809112,0.2661477239393156,1.3260783218791157,0.9387772276509962,0.2878589375,0.6609468367362877
0.028,1.7804,1.0,2644.645780470398,0.2702640539264178,1.3256711136218795,0.9404504731681954,0.2878298,0.661793130587643
0.0285,1.77969375,1.0,2654.057305372625,0.27435729222737804,1.3252653304195645,0.9420466482116439,0.2878001375,0.662635410800547
0.029,1.778975,1.0,2662.7667975249296,0.2784275717285797,1.3248605161297782,0.9435703989552189,0.28776995,0.6634746334818054
0.029500000000000002,1.7782437500000001,1.0,2670.821330379979,0.28247502415995157,1.3244562057676734,0.9450260232289288,0.2877392375,0.6643117682998889
0.03,1.7775,1.0,2678.249204486199,0.2864997750900926,1.3240521118429465,0.9464175242327244,0.287708,0.6651474132975974
0.0305,1.77674375,1.0,2685.0791304833565,0.2905019500876016,1.3236479468652935,0.9477486143568261,0.2876762375,0.6659821635519138
0.031,1.775975,1.0,2691.3401926563934,0.2944816747210773,1.3232434233444108,0.9490227399656022,0.28764395,0.6668166111753381
0.0315,1.7751937500000001,1.0,2697.061814321717,0.29843907455911856,1.3228382537899945,0.9502431037784562,0.2876111375,0.6676513453119486
0.032,1.7744,1.0,2702.2737250459154,0.3023742751703242,1.3224321507117411,0.9514126851066756,0.2875778,0.6684869521281922
0.0325,1.77359375,1.0,2707.0059296975483,0.30628740212329314,1.3220248266193466,0.9525342581747425,0.2875439375,0.6693240147984049
0.033,1.772775,1.0,2711.2821224611025,0.310178578319272,1.3216160538218331,0.9536104149629601,0.28750955,0.6701629908293105
0.0335,1.7719437500000002,1.0,2715.129034666461,0.3140479283700905,1.3212055787739234,0.9546435710699774,0.2874746375,0.6710043882796839
0.034,1.7711000000000001,1.0,2718.5803696710436,0.3178955784506943,1.320793086131814,0.9556359756091085,0.2874392,0.6718488389350337
0.0345,1.7702437500000001,1.0,2721.6543733183557,0.3217216478709958,1.3203784029022312,0.9565897445867889,0.2874032375,0.6726966803374224
0.035,1.7693750000000001,1.0,2724.369416489128,0.32552625594090706,1.3199613560919012,0.9575068573308788,0.28736675,0.6735482481117079
0.035500000000000004,1.76849375,1.0,2726.74398218321,0.32930952197034064,1.3195417727075505,0.958389166901876,0.2873297375,0.6744038759404214
0.036000000000000004,1.7676,1.0,2728.7966532645564,0.3330715652692086,1.3191194797559052,0.9592384095966086,0.2872922,0.6752638955367362
0.0365,1.76669375,1.0,2730.5461008701677,0.3368125051474234,1.3186943042436916,0.9600562136328752,0.2872541375,0.6761286366155272
0.037,1.765775,1.0,2732.011073481982,0.3405324609148973,1.3182660731776363,0.9608441070940464,0.28721555,0.6769984268625238
0.0375,1.76484375,1.0,2733.2075179671956,0.3442315499435274,1.3178346396221288,0.9616035273398565,0.2871764375,0.6778735390824986
0.038,1.7639,1.0,2734.1511628441767,0.3479098894081347,1.3173998591285283,0.9623358256013206,0.28713679999999997,0.6787542392384898
0.0385,1.76294375,1.0,2734.8644395921683,0.35156760035593737,1.3169615268130759,0.9630422679772083,0.28709663750000003,0.6796409136489917
0.039,1.761975,1.0,2735.3587361494024,0.35520479615011147,1.3165195384555968,0.9637240541274452,0.28705595,0.6805337429077041
0.0395,1.7609937500000001,1.0,2735.6454718633545,0.3588215901538331,1.3160737898359167,0.9643823141217579,0.2870147375,0.6814329061822728
0.04,1.76,1.0,2735.7360930144337,0.3624180957302781,1.3156241767338612,0.965018113217141,0.286973,0.682338581189644
0.0405,1.7589937500000001,1.0,2735.642068581352,0.36599442624262274,1.3151705949292556,0.9656324562584978,0.2869307375,0.6832509441707242
0.041,1.757975,1.0,2735.374886246424,0.36955069505404287,1.3147129402019253,0.9662262917358387,0.28688795,0.6841701698643476
0.0415,1.75694375,1.0,2734.9460486422254,0.37308701552771467,1.3142511083316961,0.9668005155281532,0.2868446375,0.6850964314805503
0.042,1.7559,1.0,2734.365502215522,0.37660349815677074,1.3137850093348162,0.9673559750764213,0.28680079999999997,0.6860298721835119
0.0425,1.75484375,1.0,2733.642087889363,0.380100249899626,1.3133145633503793,0.9678934720983907,0.2867564375,0.6869706134966873
0.043000000000000003,1.753775,1.0,2732.793345544651,0.3835773960091898,1.3128396115586924,0.968413761775147,0.28671155,0.6879189331626481
0.043500000000000004,1.75269375,1.0,2731.825684588748,0.387035043140919,1.312360096256276,0.9689175643286257,0.28666613750000003,0.6888749051874044
0.044,1.7516,1.0,2730.7455179957974,0.39047329795027064,1.3118759597396497,0.9694055621314787,0.2866202,0.6898386024759963
0.0445,1.75049375,1.0,2729.5592609607484,0.3938922670927016,1.3113871443053338,0.9698784020670899,0.2865737375,0.6908100968155908
0.045,1.7493750000000001,1.0,2728.2733296255387,0.3972920572236688,1.3108935922498481,0.9703366977200341,0.28652675,0.6917894588583711
0.0455,1.74824375,1.0,2726.8941398801494,0.40067277499862913,1.3103952458697128,0.9707810314107002,0.2864792375,0.692776758104211
0.046,1.7471,1.0,2725.4281062371524,0.40403452707303955,1.3098920474614477,0.9712119560865744,0.2864312,0.6937720628831372
0.0465,1.7459437500000001,1.0,2723.8816407798904,0.407377420102357,1.3093839393215732,0.9716299970815587,0.28638263750000004,0.6947754403375802
0.047,1.744775,1.0,2722.2611521847393,0.41070156074203834,1.308870863746609,0.97203565375371,0.28633355,0.6957869564044121
0.0475,1.74359375,1.0,2720.5730448175937,0.41400705564754053,1.3083527630330753,0.9724294010108732,0.28628393750000003,0.6968066757967732
0.048,1.7424,1.0,2718.8229869971033,0.41729400652640875,1.3078295861341804,0.9728116905778961,0.2862338,0.6978346489172806
0.0485,1.74119375,1.0,2717.014874791075,0.42056250279226187,1.3073012981043113,0.9731829521081126,0.2861831375,0.698870893441981
0.049,1.739975,1.0,2715.1579433196116,0.4238126802077996,1.3067678153114024,0.9735435971483,0.28613195,0.6999155213299404
0.0495,1.73874375,1.0,2713.2552827872355,0.42704463723948044,1.3062291100448264,0.9738940171082466,0.2860802375,0.7009685336771478
0.05,1.7375,1.0,2711.309980378471,0.4302584723537625,1.305685154593956,0.9742345851541977,0.286028,0.702029930678792
0.0505,1.73624375,1.0,2709.325120006369,0.43345428401710434,1.305135921248164,0.9745656572200027,0.2859752375,0.7030997116200074
0.051000000000000004,1.734975,1.0,2707.303782078643,0.43663217069596416,1.3045813822968226,0.9748875729534954,0.28592195,0.7041778748665715
0.051500000000000004,1.73369375,1.0,2705.249043280248,0.4397922308568004,1.3040215100293053,0.975200656602791,0.2858681375,0.7052644178555516
0.052000000000000005,1.7324,1.0,2703.1639763735657,0.44293456296607125,1.303456276734984,0.9755052178468111,0.2858138,0.7063593370859083
0.0525,1.73109375,1.0,2701.0516500151607,0.44605926549023517,1.302885654703232,0.9758015525740047,0.28575893750000003,0.7074626281090388
0.053,1.729775,1.0,2698.9151285896933,0.44916643689575053,1.3023096162234216,0.9760899436129111,0.28570355000000003,0.7085742855192844
0.0535,1.72844375,1.0,2696.7574720610182,0.45225617564907555,1.3017281335849253,0.9763706614179409,0.2856476375,0.7096943029443796
0.054,1.7271,1.0,2694.581735840114,0.45532858021666867,1.3011411790771166,0.9766439647134708,0.2855912,0.7108226730358547
0.0545,1.7257437500000001,1.0,2692.3909706701984,0.4583837490649882,1.3005487249893672,0.9769101010991214,0.2855342375,0.7119593874593932
0.055,1.724375,1.0,2690.188222528418,0.46142178066049244,1.2999507436110505,0.9771693076188674,0.28547675,0.7131044368851336
0.0555,1.72299375,1.0,2687.976532545368,0.4644427734696398,1.299347207231539,0.977421811296417,0.2854187375,0.7142578109779273
0.056,1.7216,1.0,2685.755703905287,0.46744679930548505,1.298738117765624,0.9776678288953002,0.2853602,0.7154194419446815
0.0565,1.72019375,1.0,2683.5269684111727,0.47043396437107066,1.298123464035407,0.9779075706199685,0.28530113749999997,0.7165892863250302
0.057,1.718775,1.0,2681.294816977985,0.47340439437778725,1.2975032049556434,0.9781412380279052,0.28524155,0.7177673566362259
0.0575,1.71734375,1.0,2679.0601041194377,0.4763581783264344,1.2968773327360732,0.9783690230171214,0.2851814375,0.718953601108147
0.058,1.7159,1.0,2676.8236829410043,0.4792954052178116,1.296245839586436,0.9785911097253518,0.2851208,0.7201479672440294
0.0585,1.71444375,1.0,2674.5864051353587,0.4822161640527184,1.2956087177164715,0.9788076749036205,0.2850596375,0.7213504018176771
0.059000000000000004,1.7129750000000001,1.0,2672.349120978373,0.4851205438319543,1.2949659593359193,0.9790188882689578,0.28499795,0.7225608508706658
0.059500000000000004,1.71149375,1.0,2670.1126793274348,0.48800863355631885,1.294317556654519,0.9792249128375888,0.2849357375,0.723779259709547
0.06,1.71,1.0,2667.877927620243,0.4908805222266115,1.2936635018820104,0.9794259052398203,0.284873,0.7250055729030436
0.0605,1.7084937500000001,1.0,2665.6457118755848,0.4937362988436318,1.293003787228133,0.9796220160177586,0.2848097375,0.7262397342792442
0.061,1.7069750000000001,1.0,2663.416876695144,0.4965760524081793,1.2923384049026265,0.9798133899069255,0.28474595,0.7274816869227934
0.0615,1.7054437500000001,1.0,2661.1922652663916,0.49939987192105356,1.2916673471152307,0.9800001661027569,0.2846816375,0.7287313731720777
0.062,1.7039,1.0,2658.9727193679246,0.502207846383054,1.290990606075685,0.9801824785129027,0.2846168,0.7299887346164078
0.0625,1.70234375,1.0,2656.7590793744957,0.5050000647949803,1.290308173993729,0.9803604559961867,0.2845514375,0.7312537120931977
0.063,1.7007750000000001,1.0,2654.5521842647545,0.5077766161576318,1.2896200430791027,0.9805342225890262,0.28448555,0.7325262456851361
0.0635,1.69919375,1.0,2652.3528716299393,0.510537589471808,1.2889262055415454,0.9807038977200575,0.28441913750000003,0.7338062747173619
0.064,1.6976,1.0,2650.1619776832035,0.5132830737383087,1.288226653590797,0.9808695964136632,0.2843522,0.7350937377546262
0.0645,1.69599375,1.0,2647.9803372717847,0.5160131579579332,1.287521379436597,0.9810314294830529,0.2842847375,0.736388572598458
0.065,1.694375,1.0,2645.8087838889196,0.5187279311314811,1.286810375288685,0.9811895037135048,0.28421675,0.7376907162843229
0.0655,1.69274375,1.0,2643.64814968815,0.5214274822597518,1.2860936333568007,0.9813439220363379,0.2841482375,0.7390001050787771
0.066,1.6911,1.0,2641.49874470136,0.5241118445407459,1.2853711506627412,0.9814947800787585,0.2840792,0.7403166657188236
0.0665,1.6894437500000001,1.0,2639.3616369818196,0.5267811692115593,1.284642917217212,0.9816421778284148,0.2840096375,0.7416403369836588
0.067,1.687775,1.0,2637.2367908808656,0.5294355403065505,1.2839089332215927,0.981786207643624,0.28393955,0.7429710383832182
0.0675,1.68609375,1.0,2635.1241208549404,0.5320750372061995,1.2831691993398504,0.9819269583619888,0.2838689375,0.7443086879630998
0.068,1.6844000000000001,1.0,2633.023541548517,0.5346997392909865,1.2824237162359526,0.9820645157364531,0.2837978,0.7456532031488332
0.0685,1.68269375,1.0,2630.934967792981,0.5373097259413911,1.281672484573866,0.9821989625623421,0.2837261375,0.7470045007461262
0.069,1.680975,1.0,2628.8583146050373,0.5399050765378937,1.2809155050175582,0.9823303787983163,0.28365395,0.748362496941104
0.0695,1.67924375,1.0,2626.7934971850027,0.542485870460974,1.280152778230996,0.982458841681566,0.28358123749999997,0.749727107300556
0.07,1.6775,1.0,2624.740430915488,0.5450521870911121,1.279384304878147,0.9825844258375589,0.283508,0.7510982467721766
0.07050000000000001,1.67574375,1.0,2622.699031359906,0.547604105808788,1.278610085622978,0.9827072033846354,0.2834342375,0.7524758296848113
0.07100000000000001,1.673975,1.0,2620.6692142606526,0.5501417059944816,1.2778301211294565,0.9828272440337231,0.28335995,0.7538597697486975
0.07150000000000001,1.67219375,1.0,2618.650895538186,0.5526650670286731,1.2770444120615496,0.9829446151834302,0.2832851375,0.7552499800557089
0.07200000000000001,1.6704,1.0,2616.6439912891974,0.5551742682918424,1.2762529590832243,0.9830593820107629,0.2832098,0.7566463730795995
0.0725,1.66859375,1.0,2614.648417785091,0.5576693891644693,1.275455762858448,0.9831716075576907,0.2831339375,0.7580488606762451
0.073,1.6667750000000001,1.0,2612.664091470791,0.560150509027034,1.2746528240511878,0.9832813528137833,0.28305755,0.7594573540838879
0.0735,1.66494375,1.0,2610.6909289632067,0.5626177072600165,1.2738441433254108,0.9833886767951118,0.2829806375,0.7608717639233796
0.074,1.6631,1.0,2608.7288470495478,0.5650710632438967,1.2730297213450845,0.9834936366196141,0.2829032,0.7622920001984231
0.0745,1.6612437500000001,1.0,2606.77776268632,0.5675106563591545,1.2722095587741757,0.9835962875791019,0.2828252375,0.7637179722958181
0.075,1.659375,1.0,2604.8375929977865,0.5699365659862702,1.2713836562766518,0.9836966832080766,0.28274675,0.7651495889857018
0.0755,1.65749375,1.0,2602.9082552743153,0.5723488715057234,1.27055201451648,0.9837948753495183,0.2826677375,0.7665867584217936
