Time [s],Phi [rad],STIM [ ],Fsee [N],Gamma [ ],Lcerel [ ],q [ ],Lmtc [m],fisomrel [ ]
0.0,1.8,1.0,17.96665856094098,1.4082820265601356e-05,1.379339802192762,0.005000052714741568,0.288653,0.5411393956388908
0.0005,1.79999375,1.0,18.277412462572624,0.00562321313557718,1.379302313553228,0.012951854183830679,0.2886527375,0.5412300858838286
0.001,1.799975,1.0,21.622102035061427,0.011200880664721346,1.3789379221380544,0.03562985997370569,0.28865195,0.5421111325436665
0.0015,1.79994375,1.0,31.079327335685747,0.01674726188991784,1.3780453440519909,0.07063084005722953,0.2886506375,0.5442656818897063
0.002,1.7999,1.0,53.60510012901634,0.02226253230172656,1.376366658386761,0.11475234232677432,0.2886488,0.548304012929793
0.0025,1.79984375,1.0,97.1577225608409,0.027746866406643412,1.373933298493663,0.16461221337695287,0.28864643749999996,0.5541259192527077
0.003,1.7997750000000001,1.0,161.00911516705054,0.03320043773477697,1.3712124368620722,0.2173189550524936,0.28864354999999997,0.5605909653026853
0.0035,1.79969375,1.0,237.7411658575092,0.03862341883947089,1.3685829528916316,0.2706511815692784,0.2886401375,0.5667940269058842
0.004,1.7996,1.0,321.5284909734592,0.04401598130807837,1.3661544577572426,0.32295287960122027,0.2886362,0.5724837789046544
0.0045000000000000005,1.7994937500000001,1.0,409.3318182068789,0.04937829576714872,1.3639213103189354,0.37306970436611286,0.2886317375,0.5776826527287919
0.005,1.799375,1.0,499.47898662529064,0.054710531873528395,1.3618569508956382,0.42028039036756515,0.28862675,0.5824602904608154
0.0055,1.79924375,1.0,590.856582334567,0.06001285836164635,1.3599375423667,0.4642041863623377,0.2886212375,0.5868780790657528
0.006,1.7991000000000001,1.0,682.5844410891069,0.06528544298712591,1.358145209023658,0.5047079809083165,0.2886152,0.5909821723641591
0.006500000000000001,1.79894375,1.0,773.9497343043012,0.07052845258300765,1.3564660847053183,0.5418263527840016,0.2886086375,0.5948084517055512
0.007,1.798775,1.0,864.3541578638205,0.07574205303713075,1.354889291000628,0.5757000978991762,0.28860155,0.5983851758069884
0.0075,1.79859375,1.0,953.3090816350398,0.080926409320877,1.353405766118044,0.6065311365993831,0.2885939375,0.6017358561049692
0.008,1.7984,1.0,1040.4218304170652,0.08608168545453038,1.352007713277462,0.6345513515287369,0.2885858,0.6048806434731255
0.0085,1.79819375,1.0,1125.3829912801828,0.09120804457504872,1.3506882680712564,0.6600019079180883,0.2885771375,0.6078371767767303
0.009000000000000001,1.797975,1.0,1207.9479247381516,0.09630564884546378,1.3494413826898752,0.6831202184892925,0.28856795,0.6106209185707532
0.0095,1.79774375,1.0,1287.9372299794206,0.10137465968721254,1.3482615280172774,0.7041320625495009,0.2885582375,0.6132458804307115
0.01,1.7975,1.0,1365.2127648797332,0.1064152370957567,1.347143797714956,0.7232474925396591,0.288548,0.6157244378445079
0.0105,1.79724375,1.0,1439.695549501127,0.1114275405205806,1.3460834951929934,0.7406588028627185,0.2885372375,0.6180682855707951
0.011,1.796975,1.0,1511.369683138797,0.11641173012479743,1.3450759737938076,0.7565401421665603,0.28852595000000003,0.6202888147648451
0.0115,1.79669375,1.0,1580.1802113369718,0.12136796221935701,1.3441177758434872,0.7710486103534043,0.2885141375,0.6223946312134294
0.012,1.7964,1.0,1646.1186346042136,0.12629639311520913,1.3432054436681207,0.7843247287097077,0.28850180000000003,0.6243942073870168
0.0125,1.79609375,1.0,1709.2188269533094,0.1311971791233036,1.342335519593796,0.7964937829685619,0.2884889375,0.6262958929350947
0.013000000000000001,1.7957750000000001,1.0,1769.5336481346,0.13607047572377398,1.3415047668885627,0.8076673388182894,0.28847555,0.6281074432155245
0.0135,1.79544375,1.0,1827.1205552170857,0.14091643756412112,1.3407102725964173,0.8179446785795381,0.2884616375,0.6298358104186066
0.014,1.7951000000000001,1.0,1882.0270490041805,0.14573521720687385,1.3399495490942417,0.8274141572142284,0.2884472,0.6314869390007072
0.0145,1.79474375,1.0,1934.3209874287625,0.15052696701108936,1.339220149607698,0.8361542853677316,0.2884322375,0.6330666138397032
0.015,1.794375,1.0,1984.0737935985485,0.15529183836721894,1.3385198222103187,0.8442349153350343,0.28841675,0.6345801338351218
0.0155,1.79399375,1.0,2031.3897621724668,0.16002998368814542,1.3378461691936394,0.8517181408283446,0.2884007375,0.6360330547231594
0.016,1.7936,1.0,2076.3373304611305,0.1647415519315981,1.3371973537939499,0.8586594343355072,0.2883842,0.6374296702626205
0.0165,1.7931937500000001,1.0,2118.9890316918268,0.16942669145866363,1.3365716425403653,0.8651082845008352,0.2883671375,0.6387740096864813
0.017,1.792775,1.0,2159.4299231344144,0.17408555063042866,1.3359673019620006,0.8711088739209069,0.28834955,0.6400700638149678
0.0175,1.7923437500000001,1.0,2197.746498980407,0.1787182768371336,1.3353827000422467,0.8767007339092645,0.2883314375,0.6413215705113915
0.018000000000000002,1.7919,1.0,2234.034118374126,0.18332501817882488,1.3348162173527902,0.881919267520557,0.2883128,0.642532208538167
0.0185,1.79144375,1.0,2268.3688942672024,0.18790591984748037,1.3342665180014412,0.8867962987170499,0.2882936375,0.6437050221402811
0.019,1.790975,1.0,2300.8233628185285,0.1924611258228287,1.3337323762949085,0.8913604406774195,0.28827395,0.6448427965961532
0.0195,1.79049375,1.0,2331.476674049292,0.19699078008459836,1.3332125665399006,0.8956374369135962,0.2882537375,0.6459482955991465
0.02,1.79,1.0,2360.41143690886,0.20149502617407003,1.332705888411725,0.8996504927435939,0.288233,0.647024208597464
0.0205,1.78949375,1.0,2387.7043696079495,0.2059740066478189,1.3322112519769251,0.9034205790548923,0.2882117375,0.6480729721298596
0.021,1.788975,1.0,2413.4394535636225,0.21042786556968457,1.3317275429127553,0.906966651233001,0.28818995000000003,0.6490970576309505
0.021500000000000002,1.78844375,1.0,2437.676702892701,0.21485674211787006,1.3312539195154085,0.910305929082739,0.2881676375,0.650098344405865
0.022,1.7879,1.0,2460.4795824967678,0.21926077547057846,1.3307895400810783,0.9134540293312653,0.2881448,0.6510786995310864
0.0225,1.78734375,1.0,2481.9147223501,0.22364010480601282,1.3303335629059574,0.9164251370285451,0.28812143749999997,0.652039978373265
0.023,1.786775,1.0,2502.0516474945084,0.22799486930237622,1.3298851462862393,0.9192321566286085,0.28809755,0.6529840250628396
0.0235,1.78619375,1.0,2520.950902810188,0.2323252054104529,1.329443558430258,0.9218868644679642,0.28807313749999996,0.6539124419923763
0.024,1.7856,1.0,2538.681436616387,0.23663125409308408,1.3290080094452565,0.9243999973679207,0.2880482,0.6548269442629783
0.0245,1.78499375,1.0,2555.295333369949,0.24091315084808407,1.3285778878078542,0.9267813947385112,0.2880227375,0.6557288636598506
0.025,1.784375,1.0,2570.840688033911,0.24517102948851716,1.3281526352272643,0.9290400677348751,0.28799675,0.6566194132442666
0.025500000000000002,1.78374375,1.0,2585.3670795800454,0.2494050238274477,1.3277316934127004,0.931184272620806,0.2879702375,0.6574997995307519
0.026000000000000002,1.7831000000000001,1.0,2598.9254442976603,0.25361526767794007,1.327314504073375,0.933221584263161,0.2879432,0.6583712226505123
0.0265,1.78244375,1.0,2611.5679560126027,0.2578018948530585,1.3269005089185018,0.9351589615742159,0.2879156375,0.6592348764949763
0.027,1.781775,1.0,2623.3388992675928,0.26196503690330175,1.326489233232018,0.9370028178515745,0.28788755,0.6600917748200541
0.0275,1.7810937500000001,1.0,2634.2842463647225,0.2661048272643611,1.3260801954114638,0.9387590595081087,0.2878589375,0.6609429405625689
0.028,1.7804,1.0,2644.4586837812667,0.27022140032104164,1.3256728413579724,0.9404331226950264,0.2878298,0.6617895420976562
0.0285,1.77969375,1.0,2653.895131943639,0.2743148839411701,1.325266825341671,0.9420300538996733,0.2878001375,0.6626323097326239
0.029,1.778975,1.0,2662.627113559119,0.27838540599257305,1.3248618016326876,0.9435545174361928,0.28776995,0.6634719701529475
0.029500000000000002,1.7782437500000001,1.0,2670.6887014124363,0.28243309434307695,1.32445742450115,0.945010829321299,0.2877392375,0.664309246447961
0.03,1.7775,1.0,2678.114468812074,0.28645807686050845,1.3240533482171855,0.9464029877427689,0.287708,0.6651448581289272
0.0305,1.77674375,1.0,2684.9394426872677,0.2904604814126941,1.3236492270509217,0.947734700500446,0.2876762375,0.6659795211394801
0.031,1.775975,1.0,2691.199059334721,0.29444043586746044,1.3232447152724864,0.9490094097534778,0.28764395,0.6668139478584476
0.0315,1.7751937500000001,1.0,2696.921564335741,0.29839806352517756,1.3228395362694019,0.950230321559002,0.2876111375,0.6676487047874922
0.032,1.7744,1.0,2702.143602272879,0.3023334953670645,1.3224333394363321,0.9514004116283677,0.2875778,0.6684845077166296
0.0325,1.77359375,1.0,2706.8900824400325,0.3062468549490022,1.3220258840044268,0.9525224617699162,0.2875439375,0.669321843211631
0.033,1.772775,1.0,2711.18359148921,0.3101382641275146,1.3216169524431884,0.9535990669500971,0.28750955,0.6701611476439919
0.0335,1.7719437500000002,1.0,2715.046911380026,0.3140078447591256,1.3212063272221195,0.9546326480201268,0.2874746375,0.6710028550780507
0.034,1.7711000000000001,1.0,2718.5029997963734,0.31785571870035906,1.3207937908107228,0.9556254654728702,0.2874392,0.6718473972489994
0.0345,1.7702437500000001,1.0,2721.574971613799,0.3216820078077389,1.3203791256785005,0.9565796319578829,0.2874032375,0.6726952035378815
0.035,1.7693750000000001,1.0,2724.286081414524,0.32548683393778916,1.3199621142949556,0.9574971236797856,0.28736675,0.6735467009435644
0.035500000000000004,1.76849375,1.0,2726.6561880097624,0.329270315386972,1.319542571133028,0.9583797933114182,0.2873297375,0.6744022488319317
0.036000000000000004,1.7676,1.0,2728.703471281802,0.33303256958085675,1.3191203268612972,0.9592293782786905,0.2872922,0.675262171504907
0.0365,1.76669375,1.0,2730.458650285324,0.33677372876524736,1.3186950989905448,0.9600474997307794,0.2872541375,0.676127021299129
0.037,1.765775,1.0,2731.9350750713015,0.34049390784728767,1.318266763661734,0.9608356910789849,0.28721555,0.6769970253452996
0.0375,1.76484375,1.0,2733.1461546904684,0.3441932217341212,1.3178351970158273,0.9615953925336199,0.2871764375,0.6778724092407853
0.038,1.7639,1.0,2734.1053503941694,0.34787178533289165,1.3174002751937877,0.9623279577984292,0.28713679999999997,0.6787533970245787
0.0385,1.76294375,1.0,2734.8261691759953,0.3515297135507427,1.3169618743365779,0.9630346602134808,0.28709663750000003,0.6796402111512865
0.039,1.761975,1.0,2735.322157652866,0.3551671212948179,1.3165198705851606,0.9637166983974805,0.28705595,0.6805330724641364
0.0395,1.7609937500000001,1.0,2735.606896286935,0.35878412347226113,1.316074140080499,0.9643752014352673,0.2870147375,0.6814322001670061
0.04,1.76,1.0,2735.693993947141,0.36238083499021584,1.3156245589635553,0.9650112336516303,0.286973,0.6823378117954757
0.0405,1.7589937500000001,1.0,2735.5970828112163,0.36595737075582574,1.3151710033752926,0.9656257990084937,0.2869307375,0.6832501231868984
0.041,1.757975,1.0,2735.329813607307,0.3695138456762346,1.3147133494566738,0.9662198451588396,0.28688795,0.6841693484494946
0.0415,1.75694375,1.0,2734.8993059222894,0.3730503657622862,1.314251532783938,0.9667942707312265,0.2868446375,0.6850955808129643
0.042,1.7559,1.0,2734.3198342266564,0.3765670498279863,1.3137854240718285,0.967349921769145,0.28680079999999997,0.6860290422195878
0.0425,1.75484375,1.0,2733.605653800456,0.38006401607589246,1.3133148942725867,0.967887598285301,0.2867564375,0.6869699522543298
0.043000000000000003,1.753775,1.0,2732.7635264163064,0.3835413718086158,1.31283988244067,0.968408061116612,0.28671155,0.6879183927120784
0.043500000000000004,1.75269375,1.0,2731.8002190338193,0.38699922432876754,1.3123603276305358,0.968912030686772,0.28666613750000003,0.6888744442683175
0.044,1.7516,1.0,2730.7225022682023,0.39043768093895864,1.3118761688966416,0.9694001895525909,0.2866202,0.6898381864615863
0.0445,1.75049375,1.0,2729.53714894293,0.3938568489418004,1.311387345293445,0.969873184765525,0.2865737375,0.6908096976757042
0.045,1.7493750000000001,1.0,2728.250932723447,0.39725683563990377,1.3108937958754039,0.970331630063506,0.28652675,0.691789055121756
0.0455,1.74824375,1.0,2726.870626833758,0.40063774833587995,1.3103954596969751,0.9707761079067982,0.2864792375,0.6927763348198454
0.046,1.7471,1.0,2725.403002855623,0.4039996943323401,1.3098922758126168,0.9712071713703984,0.2864312,0.6937716115806027
0.0465,1.7459437500000001,1.0,2723.854829609493,0.40734278093189524,1.3093841832767863,0.9716253459043644,0.28638263750000004,0.6947749589864666
0.047,1.744775,1.0,2722.2328721181493,0.41066711543715656,1.308871121143941,0.9720311309724667,0.28633355,0.6957864493727198
0.0475,1.74359375,1.0,2720.543758583359,0.4139728045591987,1.3083530296709769,0.9724250015883183,0.28628393750000003,0.6968061514436532
0.048,1.7424,1.0,2718.7905533429457,0.4172599367387062,1.3078298815230238,0.9728074097105434,0.2862338,0.6978340690099526
0.0485,1.74119375,1.0,2716.9844663562644,0.42052864232000586,1.3073015751405945,0.9731787856751992,0.2861831375,0.6988703504977982
0.049,1.739975,1.0,2715.128769431562,0.4237790208787742,1.3067680811911806,0.9735395404928439,0.28613195,0.6999150011552335
0.0495,1.73874375,1.0,2713.2267314326227,0.4270111719906879,1.3062293703422743,0.973890065829056,0.2860802375,0.7009680253181576
0.05,1.7375,1.0,2711.281617990843,0.4302251952314234,1.305685413261367,0.9742307350870206,0.286028,0.7020294264005974
0.0505,1.73624375,1.0,2709.2966912356947,0.43342119017665726,1.3051361806159507,0.9745619044201134,0.2859752375,0.7030992068849168
0.051000000000000004,1.734975,1.0,2707.275209545376,0.4365992564020661,1.304581643073517,0.974883913679596,0.28592195,0.7041773683119792
0.051500000000000004,1.73369375,1.0,2705.2204273157263,0.4397594934833265,1.3040217713015578,0.9751970873021223,0.2858681375,0.7052639112712477
0.052000000000000005,1.7324,1.0,2703.135594748306,0.442902000996115,1.3034565359675652,0.9755017351413703,0.2858138,0.706358835390835
0.0525,1.73109375,1.0,2701.0239576581835,0.44602687851610806,1.3028859077390305,0.9757981532477815,0.28575893750000003,0.7074621393274985
0.053,1.729775,1.0,2698.8887572999083,0.4491342256189824,1.3023098572834457,0.9760866246000582,0.28570355000000003,0.7085738207565775
0.0535,1.72844375,1.0,2696.7332302131863,0.45222414188041454,1.3017283552683028,0.976367419791804,0.2856476375,0.7096938763618778
0.054,1.7271,1.0,2694.5606080874663,0.455296726876081,1.3011413723610934,0.9766407976764082,0.2855912,0.7108223018255015
0.0545,1.7257437500000001,1.0,2692.374470024212,0.45835207999186395,1.3005488760043118,0.9769070057594221,0.2855342375,0.7119590979991863
0.055,1.724375,1.0,2690.177429067796,0.4613902965548017,1.2999508424338586,0.9771662811266862,0.28547675,0.7131042478418959
0.0555,1.72299375,1.0,2687.9689506455065,0.4644114712857065,1.2993472766784597,0.9774188524970008,0.2854187375,0.7142576783966508
0.056,1.7216,1.0,2685.750687076177,0.4674156994184966,1.2987381637365907,0.9776649378858409,0.2853602,0.7154193543599807
0.0565,1.72019375,1.0,2683.525278240405,0.4704030759728407,1.29812347952946,0.9779047457075531,0.28530113749999997,0.7165892568662233
0.057,1.718775,1.0,2681.294429797483,0.47337369592340783,1.297503208506463,0.9781384762772497,0.28524155,0.7177673498991071
0.0575,1.71734375,1.0,2679.056885218821,0.476327653437732,1.2968773622688206,0.9783663231995214,0.2851814375,0.718953545192307
0.058,1.7159,1.0,2676.8157461347914,0.47926504137418047,1.2962459124354362,0.9785884698727217,0.2851208,0.7201478296087241
0.0585,1.71444375,1.0,2674.57410901779,0.4821859525911205,1.2956088306252131,0.9788050923265147,0.2850596375,0.7213501889553382
0.059000000000000004,1.7129750000000001,1.0,2672.332018063491,0.4850904796302302,1.2949661164487343,0.9790163610940635,0.28499795,0.7225605553161727
0.059500000000000004,1.711496503800453,1.0,2670.222458655442,0.48797871496852885,1.2943177914282529,0.9792224411632995,0.284935853159619,0.7237788190331487
0.06,1.7100173010898492,1.0,2668.658980489733,0.4908507498596737,1.2936641348044737,0.9794235049418144,0.28487372664577365,0.7250043875304206
0.0605,1.7085380983792453,1.0,2667.633188483508,0.493706674657876,1.2930055384295511,0.9796197241660319,0.2848116001319283,0.7262364618928854
0.061,1.7070588956686414,1.0,2667.1021583739594,0.49654657971734667,1.2923423941556405,0.979811264025049,0.28474947361808295,0.7274742492963908
0.0615,1.7055796929580376,1.0,2667.026439778788,0.499370554676706,1.2916750633878302,0.9799982818068309,0.2846873471042376,0.7287170197630907
0.062,1.7041004902474337,1.0,2667.363867465869,0.5021786900926143,1.2910039336507262,0.9801809303549,0.2846252205903922,0.7299640006371293
0.0625,1.7026212875368298,1.0,2668.0816563230096,0.5049710746382999,1.2903293070789381,0.980359352274004,0.28456309407654684,0.7312145837087489
0.063,1.701142084826226,1.0,2669.1519755504746,0.5077477959008211,1.2896514408979622,0.9805336825322132,0.2845009675627015,0.7324682486789997
0.0635,1.699662882115622,1.0,2670.5470455526383,0.5105089414672357,1.2889705923332944,0.9807040511763498,0.28443884104885614,0.7337244794851563
0.064,1.6981836794050182,1.0,2672.239120195543,0.5132545989246019,1.2882870186104305,0.9808705835548069,0.2843767145350108,0.7349827643517517
0.0645,1.6967044766944146,1.0,2674.2084127539074,0.5159848528082406,1.2876009040205163,0.9810333966409795,0.2843145880211654,0.7362427296128246
0.065,1.6952252739838107,1.0,2676.4221566178635,0.5186997935342196,1.2869125521435125,0.9811926096176212,0.28425246150732003,0.7375037864237762
0.0655,1.6937460712732069,1.0,2678.8565962402395,0.5213995084437099,1.2862221837144634,0.9813483331667506,0.2841903349934747,0.7387655023907014
0.066,1.692266868562603,1.0,2681.4973127853355,0.5240840812138181,1.285529933710962,0.981500669640261,0.28412820847962933,0.7400276050861405
0.0665,1.6907876658519991,1.0,2684.3298831357006,0.5267535955216509,1.2848359371106017,0.9816497178348121,0.284066081965784,0.74128982439517
0.067,1.6893084631413953,1.0,2687.3398744635538,0.5294081350443149,1.2841403288909752,0.9817955731440035,0.2840039554519386,0.7425518925310219
0.0675,1.6878292604307914,1.0,2690.512839205692,0.532047783458917,1.283443244029676,0.9819383277030393,0.2839418289380932,0.7438135440495331
0.068,1.6863500577201875,1.0,2693.8343104421797,0.5346726244425637,1.2827448175042966,0.9820780705263035,0.28387970242424787,0.7450745158624427
0.0685,1.6848708550095837,1.0,2697.2897976795266,0.5372827416723616,1.2820451842924305,0.9822148876382367,0.2838175759104025,0.7463345472495182
0.069,1.6833916522989798,1.0,2700.8647830374557,0.5398782188254174,1.2813444793716708,0.982348862197886,0.28375544939655717,0.7475933798695265
0.0695,1.681912449588376,1.0,2704.5544607631405,0.5424591327536418,1.280642748752558,0.9824800700276013,0.28369332288271176,0.7488509170044917
0.07,1.680433246877772,1.0,2708.338586133296,0.5450255746392059,1.2799401792673337,0.9826085918814766,0.2836311963688664,0.7501068113258069
0.07050000000000001,1.6789540441671682,1.0,2712.2108726083707,0.5475776235581493,1.2792368299975405,0.9827344992582407,0.28356906985502106,0.7513609463422343
0.07100000000000001,1.6774748414565643,1.0,2716.1650789358046,0.5501153585372326,1.2785327594822136,0.9828578613087949,0.2835069433411757,0.7526132075740541
0.07150000000000001,1.6759956387459605,1.0,2720.194948805752,0.5526388586032162,1.2778280262603878,0.9829787449571872,0.28344481682733036,0.753863481582453
0.07200000000000001,1.6745164360353568,1.0,2724.2942099525476,0.5551482027828604,1.2771226888710985,0.9830972149886492,0.28338269031348495,0.7551116559721057
0.0725,1.673037233324753,1.0,2728.4565733331874,0.5576434701029256,1.2764168058533802,0.9832133341336152,0.2833205637996396,0.7563576193935417
0.073,1.671558030614149,1.0,2732.6757323804836,0.5601247395901725,1.2757104357462685,0.9833271631479201,0.28325843728579425,0.7576012615452894
0.0735,1.6700788279035452,1.0,2736.9453623334407,0.5625920902713614,1.275003637088798,0.9834387608893819,0.2831963107719489,0.7588424731758057
