Time [s],Phi [rad],STIM [ ],Fsee [N],Gamma [ ],Lcerel [ ],q [ ],Lmtc [m],fisomrel [ ]
0.0,1.8,1.0,17.967059566531223,1.2133823896056424e-05,1.3793397572663513,0.005000039179477311,0.288653,0.5411395043275055
0.0005,1.79999375,1.0,18.27711945748588,0.00562127507153509,1.3793023460999252,0.012946439712080197,0.2886527375,0.5412300071527186
0.001,1.799975,1.0,21.62033430222354,0.01119895347168638,1.3789381026741012,0.03561969895610785,0.28865195,0.5421106962428326
0.0015,1.79994375,1.0,31.074473169533416,0.016745345506911,1.3780457575592797,0.07061693101689093,0.2886506375,0.5442646849216528
0.002,1.7999,1.0,53.59409504670421,0.022260626668114958,1.3763673722251655,0.11473586957393694,0.2886488,0.5483022995035833
0.0025,1.79984375,1.0,97.13886491319742,0.02774497146212834,1.3739342070613907,0.16459429264804037,0.28864643749999996,0.5541237525171205
0.003,1.7997750000000001,1.0,160.984379938141,0.0331985534194026,1.3712133626142897,0.21730046736448433,0.28864354999999997,0.5605887736498465
0.0035,1.79969375,1.0,237.71310541693254,0.03862154509361724,1.3685838171477944,0.27063279361917825,0.2886401375,0.5667919953340601
0.004,1.7996,1.0,321.4985654093229,0.04401411807245818,1.3661552503134995,0.3229350750919656,0.2886362,0.5724819281500592
0.0045000000000000005,1.7994937500000001,1.0,409.30077854034334,0.049376442982803345,1.363922038895011,0.373052803257845,0.2886317375,0.5776809617554147
0.005,1.799375,1.0,499.4472757801095,0.054708689481817625,1.3618576247149872,0.4202645781839039,0.28862675,0.5824587354452408
0.0055,1.79924375,1.0,590.8245557857134,0.06001102630433111,1.3599381680612417,0.46418954686421193,0.2886212375,0.5868766427701446
0.006,1.7991000000000001,1.0,682.5523442138876,0.06528362120621753,1.3581457924379245,0.5046945275095664,0.2886152,0.590980839792765
0.006500000000000001,1.79894375,1.0,773.9177371382882,0.07052664102150637,1.3564666308994173,0.5418140527333363,0.2886086375,0.5948072099975084
0.007,1.798775,1.0,864.3216541686323,0.0757402516341129,1.3548898160236351,0.5756888976976863,0.28860155,0.598383987508643
0.0075,1.79859375,1.0,953.2780374499487,0.08092461802230687,1.3534062435970848,0.6065209413656439,0.2885939375,0.6017347799317536
0.008,1.7984,1.0,1040.3937121435138,0.08607990421081929,1.3520081272525775,0.6345420678968235,0.2885858,0.6048797141203228
0.0085,1.79819375,1.0,1125.3486932138828,0.09120627317594607,1.350688753594638,0.659993530080772,0.2885771375,0.6078360908872428
0.009000000000000001,1.797975,1.0,1207.9174259689105,0.09630388754339647,1.349441799413697,0.6831125837702907,0.28856795,0.610619989867722
0.0095,1.79774375,1.0,1287.9086966278567,0.10137290830728729,1.3482619055853144,0.7041251115016465,0.2885582375,0.6132450418306299
0.01,1.7975,1.0,1365.187571870809,0.10641349564875734,1.3471441215092954,0.7232411478633756,0.288548,0.6157237209870521
0.0105,1.79724375,1.0,1439.6784646017188,0.11142580920266952,1.3460837090215783,0.7406529744020168,0.2885372375,0.6180678136156491
0.011,1.796975,1.0,1511.3438930420127,0.11641000809446503,1.3450762888273882,0.756534873946557,0.28852595000000003,0.6202881214576434
0.0115,1.79669375,1.0,1580.1434785186282,0.12136624933866828,1.344118214667964,0.7710438559636004,0.2885141375,0.6223936681560365
0.012,1.7964,1.0,1646.0803588242757,0.12629468974827487,1.3432058916736622,0.7843203872381969,0.28850180000000003,0.6243932267872654
0.0125,1.79609375,1.0,1709.1891756136897,0.13119548540620096,1.3423358601860345,0.7964897634496044,0.2884889375,0.6262951493325506
0.013000000000000001,1.7957750000000001,1.0,1769.5189104946164,0.13606879225940358,1.3415049332630817,0.8076635821122462,0.28847555,0.6281070808577107
0.0135,1.79544375,1.0,1827.1030041468568,0.14091476345464937,1.3407104675846593,0.8179412339733987,0.2884616375,0.6298353867290907
0.014,1.7951000000000001,1.0,1882.0023163488972,0.14573355213870512,1.3399498198306226,0.8274110112624175,0.2884472,0.6314863520316558
0.0145,1.79474375,1.0,1934.290850042155,0.15052531064931962,1.3392204750173176,0.8361514015315137,0.2884322375,0.6330659098502087
0.015,1.794375,1.0,1984.0598617238786,0.1552901920330351,1.3385199707418949,0.8442321916376251,0.28841675,0.6345798131661564
0.0155,1.79399375,1.0,2031.3839211244479,0.1600283469821956,1.3378462307370893,0.8517155902031872,0.2884007375,0.6360329221197112
0.016,1.7936,1.0,2076.3284471246016,0.16473992425739836,1.3371974463734861,0.8586570769399262,0.2883842,0.6374294711709182
0.0165,1.7931937500000001,1.0,2118.9728939924626,0.1694250726192406,1.33657180902167,0.8651061158179134,0.2883671375,0.6387736523338026
0.017,1.792775,1.0,2159.4095605528746,0.17408394082831966,1.3359675100522264,0.8711068682545363,0.28834955,0.6400696179505969
0.0175,1.7923437500000001,1.0,2197.719334592775,0.1787166758767041,1.3353829752114592,0.8766988841053747,0.2883314375,0.6413209819461407
0.018000000000000002,1.7919,1.0,2234.008982838211,0.18332342656684986,1.3348164698937626,0.8819175364992855,0.2883128,0.6425316692853291
0.0185,1.79144375,1.0,2268.346320049146,0.18790433725533529,1.3342667430852904,0.886794674658853,0.2882936375,0.6437045423059711
0.019,1.790975,1.0,2300.803515742422,0.19245955204247972,1.333732572786156,0.8913589140523818,0.28827395,0.6448423783849908
0.0195,1.79049375,1.0,2331.459342351702,0.1969892150286023,1.3332127369964726,0.8956360001825537,0.2882537375,0.6459479333651773
0.02,1.79,1.0,2360.3956032688284,0.2014934698698422,1.3327060431775328,0.8996491410629032,0.288233,0.6470238802077477
0.0205,1.78949375,1.0,2387.691168291519,0.2059724593597348,1.3322113802734648,0.9034193034084096,0.2882117375,0.6480727003086715
0.021,1.788975,1.0,2413.4294740806386,0.2104263269125562,1.3317276393795094,0.9069654441368507,0.28818995000000003,0.6490968535449558
0.021500000000000002,1.78844375,1.0,2437.6700400061104,0.21485521186994838,1.3312539836012427,0.9103047849361093,0.2881676375,0.6500982090188381
0.022,1.7879,1.0,2460.4758260243825,0.21925925357355333,1.33078957604424,0.9134529441818587,0.2881448,0.6510786236622191
0.0225,1.78734375,1.0,2481.912948563836,0.2236385913650131,1.3303335798140772,0.9164241083678336,0.28812143749999997,0.6520399427526042
0.023,1.786775,1.0,2502.0495069543754,0.22799336441478954,1.3298851666080647,0.9192311847786272,0.28809755,0.6529839823085759
0.0235,1.78619375,1.0,2520.9422796396752,0.23232370925622947,1.3294436399893776,0.9218859564592387,0.28807313749999996,0.6539122706331293
0.024,1.7856,1.0,2538.6733860025342,0.23662976709686945,1.3290080853226869,0.9243991368180695,0.2880482,0.6548267850519758
0.0245,1.78499375,1.0,2555.2888892830324,0.24091167212704148,1.328577948345913,0.9267805761367076,0.2880227375,0.6557287368009902
0.025,1.784375,1.0,2570.8364631681525,0.24516955853707767,1.3281526747969763,0.929039286961545,0.28799675,0.6566193304323658
0.025500000000000002,1.78374375,1.0,2585.3652592481585,0.24940356051731,1.3277317104137967,0.93118352678528,0.2879702375,0.6574997639963244
0.026000000000000002,1.7831000000000001,1.0,2598.925781283758,0.2536138122580705,1.3273145009342948,0.9332208715610599,0.2879432,0.658371229203232
0.0265,1.78244375,1.0,2611.569766284657,0.2578004479496913,1.326900492096391,0.9351582811620595,0.2879156375,0.6592349115661271
0.027,1.781775,1.0,2623.307402751142,0.2619635978367469,1.326489525259689,0.9370022175093217,0.28788755,0.6600911667592565
0.0275,1.7810937500000001,1.0,2634.2768257059097,0.2661033990925996,1.3260802640706781,0.9387584554448313,0.2878589375,0.6609427977793266
0.028,1.7804,1.0,2644.490771727688,0.27021998065851127,1.3256725450389097,0.9404324928321446,0.2878298,0.6617901575506355
0.0285,1.77969375,1.0,2653.958735196916,0.2743134712250488,1.3252662390385213,0.9420294093892163,0.2878001375,0.662633525962167
0.029,1.7789776626062734,1.0,2662.821308661617,0.27838399948277903,1.32486121694365,0.9435538994102228,0.28777006182946346,0.6634731815238863
0.029500000000000002,1.7782608213535325,1.0,2671.535909950756,0.28243169412226876,1.3244573496284333,0.9450103059777823,0.28773995449684836,0.6643094013778463
0.03,1.7775439801007915,1.0,2680.1529336700323,0.2864566838340849,1.3240545079670085,0.9464026517320242,0.28770984716423326,0.6651424613082271
0.0305,1.7768271388480503,1.0,2688.6859716623376,0.2904590960004054,1.323652562537795,0.9477346660972813,0.2876797398316181,0.66597263636071
0.031,1.7761102975953094,1.0,2697.1217651789216,0.2944390579565744,1.3232516303156565,0.9490098422874478,0.287649632499003,0.6667996922776471
0.0315,1.7753934563425684,1.0,2705.4471904301445,0.2983966981440755,1.3228518263699376,0.9502314256811785,0.2876195251663879,0.6676233999030474
0.032,1.7746766150898274,1.0,2713.660887762589,0.3023321398128876,1.3224531578912313,0.9514024195891656,0.28758941783377273,0.66844375308027
0.0325,1.7739597738370863,1.0,2721.7615012839715,0.3062455062129894,1.3220556320701307,0.952525620083165,0.28755931050115763,0.6692607457012393
0.033,1.7732429325843453,1.0,2729.747679044441,0.31013692059435977,1.3216592560972282,0.9536036328160936,0.28752920316854247,0.6700743717059239
0.0335,1.7725260913316043,1.0,2737.6180732196844,0.3140065062069774,1.3212640371631168,0.9546388882858329,0.28749909583592737,0.6708846250818097
0.034,1.7718092500788634,1.0,2745.3713402942567,0.31785438630082113,1.3208699824583894,0.9556336557032207,0.28746898850331226,0.6716914998633703
0.0345,1.7710924088261222,1.0,2753.0083585029906,0.32168067457103366,1.3204770791058504,0.9565900509455925,0.28743888117069716,0.6724950311472655
0.035,1.7703755675733812,1.0,2760.5275379873747,0.3254855032239371,1.3200853366875904,0.9575100602193541,0.287408773838082,0.6732952080280354
0.035500000000000004,1.7696587263206403,1.0,2767.9288909496972,0.3292689974474195,1.3196947503533203,0.9583955394731984,0.2873786665054669,0.6740920490960721
0.036000000000000004,1.7689418850678993,1.0,2775.214257640333,0.33303127354235207,1.3193052988801874,0.9592482237635209,0.28734855917285174,0.6748856062086549
0.0365,1.768225043815158,1.0,2782.3854993532645,0.33677244780960586,1.3189169610453388,0.9600697401389661,0.28731845184023663,0.6756759309872635
0.037,1.7675082025624171,1.0,2789.4444978963784,0.34049263655005213,1.3185297156259213,0.9608616155876194,0.28728834450762153,0.6764630748191
0.0375,1.7667913613096762,1.0,2796.3931550731086,0.3441919560645621,1.3181435413990816,0.9616252843142983,0.2872582371750064,0.6772470888585804
0.038,1.7660745200569352,1.0,2803.233392172804,0.34787052265400686,1.3177584171419674,0.9623620944112043,0.28722812984239127,0.6780280240287992
0.0385,1.765357678804194,1.0,2809.967149472377,0.35152845261925764,1.317374321631725,0.9630733139786158,0.28719802250977616,0.6788059310229666
0.039,1.764640837551453,1.0,2816.5963857464417,0.35516586226118557,1.3169912336455019,0.9637601367464652,0.287167915177161,0.6795808603058127
0.0395,1.763923996298712,1.0,2823.1230777889405,0.3587828678806618,1.3166091319604447,0.964423687242467,0.2871378078445459,0.6803528621149673
0.04,1.7632071550459711,1.0,2829.5492199435835,0.36237958577855767,1.3162279953537006,0.9650650255478479,0.2871077005119308,0.6811219864623084
0.0405,1.76249031379323,1.0,2835.8750313198866,0.3659561021524147,1.3158478185854985,0.965685147653847,0.28707759317931564,0.6818882509399937
0.041,1.761773472540489,1.0,2842.104525288691,0.3695125484139107,1.3154685626959266,0.9662849990259729,0.28704748584670053,0.6826517409137953
0.0415,1.761056631287748,1.0,2848.2421884079204,0.3730490683263647,1.3150901847369247,0.9668654743958993,0.28701737851408543,0.6834125493700595
0.042,1.760339790035007,1.0,2854.2900097630636,0.3765657680976985,1.3147126641918077,0.9674274148749533,0.28698727118147027,0.6841707238434136
0.0425,1.7596229487822659,1.0,2860.2499931951115,0.3800627539358335,1.3143359805438903,0.9679716160685254,0.28695716384885517,0.684926311656604
0.043000000000000003,1.758906107529525,1.0,2866.124156914896,0.3835401320486914,1.3139601132764873,0.9684988310012312,0.28692705651624006,0.6856793599216048
0.043500000000000004,1.758189266276784,1.0,2871.9145331272325,0.38699800864419376,1.3135850418729136,0.969009772825605,0.2868969491836249,0.6864299155406985
0.044,1.757472425024043,1.0,2877.6231676644943,0.3904364899302622,1.313210745816484,0.9695051173323546,0.2868668418510098,0.6871780252075317
0.0445,1.7567555837713018,1.0,2883.2521196285797,0.39385568211481836,1.3128372045905132,0.9699855052785589,0.28683673451839464,0.6879237354081421
0.045,1.7560387425185608,1.0,2888.8034610436916,0.39725569140578376,1.3124643976783164,0.9704515445486738,0.28680662718577954,0.6886670924219611
0.0455,1.7553219012658199,1.0,2894.2792765169343,0.40063662401108,1.3120923045632078,0.9709038121618817,0.28677651985316444,0.6894081423227869
0.046,1.754605060013079,1.0,2899.6816629093546,0.40399858613862877,1.3117209047285028,0.971342856138101,0.28674641252054933,0.6901469309797312
0.0465,1.7538882187603377,1.0,2905.0127290157466,0.40734168399635157,1.311350177657516,0.9717691972338739,0.2867163051879342,0.6908835040581416
0.047,1.7531713775075968,1.0,2910.2745952543223,0.41066602379217004,1.310980102833562,0.9721833305583731,0.28668619785531907,0.6916179070204951
0.0475,1.7524545362548558,1.0,2915.4693933646067,0.41397171173400577,1.3106106597399558,0.9725857270788594,0.2866560905227039,0.6923501851272621
0.048,1.7517376950021148,1.0,2920.599266116114,0.41725885402978036,1.3102418278600125,0.9729768350241333,0.2866259831900888,0.6930803834377499
0.0485,1.7510208537493737,1.0,2925.6663670253793,0.42052755688741544,1.3098735866770463,0.9733570811937793,0.2865958758574737,0.6938085468109154
0.049,1.7503040124966327,1.0,2930.6728600824918,0.42377792651483254,1.3095059156743725,0.9737268721803398,0.2865657685248586,0.6945347199061487
0.0495,1.7495871712438917,1.0,2935.6209194870926,0.4270100691199533,1.3091387943353059,0.9740865955109653,0.28653566119224344,0.6952589471840352
0.05,1.7488703299911508,1.0,2940.509502990964,0.4302240475713725,1.3087722303981142,0.974436617592803,0.28650555385962834,0.6959812172671362
0.0505,1.7481534887384096,1.0,2945.3426005806878,0.43341999562839817,1.3084061875600286,0.9747772932645858,0.2864754465270132,0.6967016054677566
0.051000000000000004,1.7474366474856686,1.0,2950.123755515912,0.4365980410947782,1.3080406335597219,0.9751089606879071,0.2864453391943981,0.6974201788141745
0.051500000000000004,1.7467198062329277,1.0,2954.8541028381846,0.4397582789184456,1.3076755572934236,0.9754319404634282,0.28641523186178297,0.6981369625133331
0.052000000000000005,1.7460029649801867,1.0,2959.534783202047,0.4429008040473334,1.307310947657364,0.975746538889062,0.28638512452916787,0.6988519816643266
0.0525,1.7452861237274455,1.0,2964.1669427587844,0.4460257114293745,1.3069467935477732,0.9760530487225063,0.2863550171965527,0.6995652612587395
0.053,1.7445692824747046,1.0,2968.751733042987,0.4491330960125022,1.306583083860881,0.9763517498967451,0.2863249098639376,0.7002768261809695
0.0535,1.7438524412219636,1.0,2973.290310861462,0.45222305274464925,1.3062198074929172,0.976642910191806,0.28629480253132245,0.7009867012085482
0.054,1.7431355999692226,1.0,2977.7838381855995,0.4552956765737488,1.3058569533401123,0.9769267858657916,0.28626469519870734,0.7016949110124502
0.0545,1.7424187587164814,1.0,2982.2334820457545,0.45835106244773377,1.3054945102986961,0.9772036222479855,0.28623458786609224,0.7024014801573975
0.055,1.7417019174637405,1.0,2986.6404144286357,0.4613893053145373,1.3051324672648985,0.9774736542966104,0.2862044805334771,0.7031064331021545
0.0555,1.7409850762109995,1.0,2991.005812177975,0.4644105001220923,1.3047708131349496,0.9777371071236235,0.286174373200862,0.7038097941998139
0.056,1.7402682349582586,1.0,2995.330856896627,0.4674147418183318,1.3044095368050792,0.9779941964887559,0.28614426586824687,0.7045115876980776
0.0565,1.7395513937055174,1.0,2999.616734852817,0.4704021253511889,1.3040486271715177,0.9782451292648351,0.2861141585356317,0.7052118377395262
0.057,1.7388345524527764,1.0,3003.8646368882833,0.47337274566859655,1.303688073130495,0.9784901038762849,0.2860840512030166,0.7059105683618851
0.0575,1.7381177112000354,1.0,3008.0757583294426,0.47632669771848773,1.3033278635782406,0.9787293107125529,0.2860539438704015,0.706607803498279
0.058,1.7374008699472945,1.0,3012.2512989008005,0.47926407644879554,1.3029679874109852,0.9789629325180877,0.28602383653778635,0.7073035669774781
0.0585,1.7366840286945533,1.0,3016.3924626423686,0.482184976807453,1.3026084335249584,0.9791911447603786,0.28599372920517124,0.7079978825241418
0.059000000000000004,1.7359671874418123,1.0,3020.5004578279595,0.48508949374239296,1.3022491908163902,0.9794141159774495,0.2859636218725561,0.7086907737590475
0.059500000000000004,1.7352503461890714,1.0,3024.5764968881062,0.48797772220154867,1.301890248181511,0.9796320081061167,0.285933514539941,0.7093822641993168
0.06,1.7345335049363304,1.0,3028.621796334098,0.49084975713285295,1.3015315945165502,0.9798449767922067,0.2859034072073259,0.7100723772586313
0.0605,1.7338166636835894,1.0,3032.6346516997787,0.4937056290242512,1.3011732439409875,0.980053167921,0.2858732998747108,0.710761087799944
0.061,1.7330998224308483,1.0,3036.618916537308,0.4965455058965256,1.3008151626446027,0.9802567301159408,0.2858431925420956,0.7114484627649911
0.0615,1.7323829811781073,1.0,3040.575220419669,0.49936947413758337,1.3004573446756453,0.9804558014171958,0.2858130852094805,0.7121345154032541
0.062,1.7316661399253663,1.0,3044.50411231324,0.5021776181499135,1.300099784795622,0.9806505145747368,0.28578297787686535,0.7128192575434356
0.0625,1.7309492986726251,1.0,3048.406143205167,0.5049700223360049,1.2997424777660387,0.9808409974023512,0.28575287054425025,0.7135027009651652
0.063,1.7302324574198842,1.0,3052.2818660733465,0.5077467710983463,1.299385418348402,0.9810273729981213,0.28572276321163514,0.7141848573990828
0.0635,1.7295156161671432,1.0,3056.131835857534,0.510507948839427,1.2990286013042183,0.981209759953477,0.28569265587902004,0.7148657385269225
0.064,1.7287987749144023,1.0,3059.956609430718,0.5132536399617355,1.2986720213949938,0.9813882725514869,0.2856625485464049,0.7155453559815956
0.0645,1.728081933661661,1.0,3063.7567455718267,0.5159839288677609,1.298315673382235,0.9815630209550251,0.2856324412137898,0.7162237213472695
0.065,1.72736509240892,1.0,3067.53280493759,0.5186988999599921,1.297959552027448,0.9817341113853936,0.2856023338811746,0.7169008461594466
0.0655,1.7266482511561791,1.0,3071.285350036671,0.521398637640918,1.2976036520921397,0.9819016462919549,0.2855722265485595,0.7175767419050405
0.066,1.7259314099034382,1.0,3075.014945203371,0.5240832263130275,1.2972479683378157,0.9820657245132858,0.2855421192159444,0.7182514200224518
0.0665,1.725214568650697,1.0,3078.7221565720038,0.5267527503788095,1.2968924955259828,0.9822264414303352,0.28551201188332925,0.7189248919016398
0.067,1.724497727397956,1.0,3082.407552052582,0.5294072942407531,1.2965372284181473,0.9823838891120354,0.28548190455071415,0.7195971688841949
0.0675,1.723780886145215,1.0,3086.071701306132,0.5320469423013467,1.2961821617758156,0.9825381564537905,0.28545179721809905,0.7202682622634076
0.068,1.7230640448924741,1.0,3089.715175721351,0.5346717789630798,1.2958272903604937,0.9826893293092372,0.2854216898854839,0.7209381832843371
0.0685,1.722347203639733,1.0,3093.338548391733,0.537281888628441,1.2954726089336883,0.9828374906156493,0.2853915825528688,0.7216069431438765
0.069,1.721630362386992,1.0,3096.94239409292,0.5398773556999192,1.2951181122569058,0.9829827205133341,0.2853614752202537,0.7222745529908176
0.0695,1.720913521134251,1.0,3100.5272892610415,0.5424582645800035,1.2947637950916522,0.9831250964593502,0.2853313678876385,0.7229410239259135
0.07,1.72019667988151,1.0,3104.0938119717744,0.5450246996711825,1.2944096521994342,0.9832646933358492,0.2853012605550234,0.7236063670019395
0.07050000000000001,1.7194798386287689,1.0,3107.642541919445,0.5475767453759454,1.2940556783417576,0.9834015835533343,0.28527115322240826,0.7242705932237525
