Time [s],Phi [rad],STIM [ ],Fsee [N],Gamma [ ],Lcerel [ ],q [ ],Lmtc [m],fisomrel [ ]
0.0,1.8,1.0,17.967566028053557,1.0034697857216727e-05,1.3793397005259673,0.005000026836308719,0.288653,0.5411396415971602
0.0005,1.79999375,1.0,18.2768719171996,0.005619187719932319,1.3793023735966432,0.012940610020422981,0.2886527375,0.5412299406376037
0.001,1.799975,1.0,21.618494724708945,0.011196877828475968,1.3789382905553795,0.03560875644105506,0.28865195,0.5421102421905828
0.0015,1.79994375,1.0,31.06930988121849,0.0167432815064167,1.378046197434917,0.07060195099482684,0.2886506375,0.5442636243781881
0.002,1.7999,1.0,53.58230950544099,0.022258574245033455,1.3763681367688716,0.11471812770142888,0.2886488,0.5483004643658418
0.0025,1.79984375,1.0,97.11862069093503,0.027742930551516113,1.3739351825329051,0.16457499087305666,0.28864643749999996,0.5541214262247542
0.003,1.7997750000000001,1.0,160.9577995475817,0.03319652395668549,1.3712143575036682,0.2172805547697054,0.28864354999999997,0.5605864183135806
0.0035,1.79969375,1.0,237.682936770554,0.0386195270145828,1.368584746393194,0.27061298835338765,0.2886401375,0.5667898109893652
0.004,1.7996,1.0,321.46638173397815,0.044012111313252306,1.366156102715315,0.32291589817406574,0.2886362,0.5724799376413637
0.0045000000000000005,1.7994937500000001,1.0,409.2673896348973,0.04937444747992577,1.36392282264425,0.3730345993357861,0.2886317375,0.577679142725261
0.005,1.799375,1.0,499.4131591851017,0.05470670517211071,1.3618583496776675,0.4202475471060003,0.28862675,0.5824570623997287
0.0055,1.79924375,1.0,590.7900952319744,0.06000905312507111,1.3599388413272586,0.4641737788594997,0.2886212375,0.586875097270378
0.006,1.7991000000000001,1.0,682.5178038054573,0.06528165909494835,1.3581464202828089,0.5046800370437814,0.2886152,0.5909794057353625
0.006500000000000001,1.79894375,1.0,773.881051970702,0.07052468991439521,1.3564672571319594,0.5418008290255772,0.2886086375,0.5948057863291376
0.007,1.798775,1.0,864.2855631660611,0.07573831147616727,1.3548903990029713,0.5756768454197849,0.28860155,0.5983826680341577
0.0075,1.79859375,1.0,953.2430638292277,0.0809226887428578,1.3534067815226238,0.6065099750190516,0.2885939375,0.60173356751856
0.008,1.7984,1.0,1040.344581167808,0.08607798534530456,1.3520088506034922,0.6345322328387594,0.2885858,0.6048780902321694
0.0085,1.79819375,1.0,1125.3146742021677,0.0912043653909041,1.3506892351750317,0.6599844829218643,0.2885771375,0.6078350138148958
0.009000000000000001,1.797975,1.0,1207.9003235761743,0.09630199081304915,1.3494420330967227,0.6831042411874423,0.28856795,0.6106194690855515
0.0095,1.79774375,1.0,1287.8922265821122,0.10137102213718026,1.3482621235273657,0.7041175233574984,0.2885582375,0.6132445577685264
0.01,1.7975,1.0,1365.167022306142,0.10641161988873808,1.34714438562576,0.7232342696621363,0.288548,0.6157231362516377
0.0105,1.79724375,1.0,1439.6595544801369,0.111423944018071,1.3460839456954803,0.7406466982308336,0.2885372375,0.6180672912367597
0.011,1.796975,1.0,1511.3224446618135,0.11640815329013371,1.3450765508276774,0.756529162342669,0.28852595000000003,0.620287544862479
0.0115,1.79669375,1.0,1580.1210742894243,0.12136440488282839,1.3441184823200687,0.7710386421443148,0.2885141375,0.6223930807580758
0.012,1.7964,1.0,1646.0569452882985,0.12629285543072835,1.343206165724045,0.7843156201167878,0.28850180000000003,0.6243926269419622
0.0125,1.79609375,1.0,1709.1739694790485,0.1311936618067729,1.3423360348535363,0.796485354496812,0.2884889375,0.6262947679871123
0.013000000000000001,1.7957750000000001,1.0,1769.5068619822873,0.13606697886456454,1.341505069280316,0.8076595178586387,0.28847555,0.6281067846168575
0.0135,1.79544375,1.0,1827.0919177420112,0.14091296005217402,1.3407105907524792,0.8179374894971244,0.2884616375,0.6298351190978846
0.014,1.7951000000000001,1.0,1881.993072581301,0.145731758817672,1.3399499210181196,0.827407551956529,0.2884472,0.6314861326523413
0.0145,1.79474375,1.0,1934.2787679665737,0.15052352758846507,1.3392206054747167,0.836148218392008,0.2884322375,0.6330656276191537
0.015,1.794375,1.0,1984.0502702439626,0.15528841938417212,1.3385200729996227,0.8442292390798803,0.28841675,0.6345795923990118
0.0155,1.79399375,1.0,2031.3706375073084,0.1600265839457106,1.3378463706985393,0.8517128669500232,0.2884007375,0.6360326205542894
0.016,1.7936,1.0,2076.311213355108,0.16473817061149526,1.3371976259793585,0.8586545623750415,0.2883842,0.637429084929479
0.0165,1.7931937500000001,1.0,2118.9576532800374,0.1694233287199409,1.336571966249973,0.8651037727910998,0.2883671375,0.6387733148425605
0.017,1.792775,1.0,2159.3908004541563,0.17408220640181854,1.3359677017671543,0.8711046977214623,0.28834955,0.6400692071725016
0.0175,1.7923437500000001,1.0,2197.7178291774258,0.17871495266848583,1.335382990461032,0.8766968135009996,0.2883314375,0.6413209493284929
0.018000000000000002,1.7919,1.0,2234.010406154464,0.18332171301321631,1.3348164555934259,0.881915594754062,0.2883128,0.6425316998209678
0.0185,1.79144375,1.0,2268.342681743037,0.18790263251593964,1.3342667793623524,0.886792870981176,0.2882936375,0.6437044649704096
0.019,1.790975,1.0,2300.796326087832,0.19245785625658543,1.333732643965827,0.8913572333674343,0.28827395,0.6448422268864111
0.0195,1.79049375,1.0,2331.451470106081,0.19698752821663681,1.3332128144199116,0.8956344255934325,0.2882537375,0.6459477688340611
0.02,1.79,1.0,2360.396843604881,0.20149179345084364,1.3327060310538577,0.89964764267916,0.288233,0.6470239059323646
0.0205,1.78949375,1.0,2387.703566741303,0.20597079400492893,1.3322112597795468,0.9034178711918343,0.2882117375,0.6480729555984901
0.021,1.788975,1.0,2413.437182790183,0.21042467050046157,1.331727564863188,0.9069641051282756,0.28818995000000003,0.6490970111924086
0.021500000000000002,1.78844375,1.0,2437.6672360136436,0.21485356355901047,1.3312540105709907,0.9103035434736174,0.2881676375,0.6500981520428379
0.022,1.7879,1.0,2460.4669344530453,0.21925761380214445,1.3307896611691636,0.9134517845932998,0.2881448,0.651078444080325
0.0225,1.78734375,1.0,2481.898876443839,0.22363695933054314,1.3303337139528257,0.9164230224059189,0.28812143749999997,0.6520396601598619
0.023,1.786775,1.0,2502.0452520571785,0.22799174256950258,1.3298852070031641,0.9192301409876812,0.28809755,0.6529838973229578
0.0235,1.78619375,1.0,2520.959994967407,0.23232209999178724,1.3294434724355493,0.9218849314542806,0.28807313749999996,0.6539126226709423
0.024,1.7856,1.0,2538.694717871482,0.23662816719415164,1.3290078842690387,0.9243981589530409,0.2880482,0.654827206915851
0.0245,1.78499375,1.0,2555.302921463055,0.2409100797733503,1.32857781652269,0.9267796594433737,0.2880227375,0.6557290130394817
0.025,1.784375,1.0,2570.839835121686,0.24516797332613774,1.3281526432155608,0.9290384326487603,0.28799675,0.6566193965262783
0.025500000000000002,1.78374375,1.0,2585.3622662909384,0.2494019834492685,1.3277317383667089,0.9311827245795383,0.2879702375,0.6574997055712215
0.026000000000000002,1.7831000000000001,1.0,2598.9182353101655,0.25361224204561333,1.3273145712263164,0.9332201147240047,0.2879432,0.6583710824710864
0.0265,1.78244375,1.0,2611.5693119373686,0.25779888756023145,1.3269004963184525,0.9351575509425585,0.2879156375,0.6592349027638693
0.027,1.781775,1.0,2623.35543335917,0.26196205087809693,1.3264890799328375,0.9370014540712966,0.28788755,0.6600920940198
0.0275,1.7810937500000001,1.0,2634.315194057292,0.26610186205041486,1.326079909070779,0.9387577403430302,0.2878589375,0.6609435360344147
0.028,1.7804,1.0,2644.4879892822137,0.27021845112839055,1.3256725707335848,0.9404318651519945,0.2878298,0.6617901041829662
0.0285,1.77969375,1.0,2653.9139446909144,0.2743119481632291,1.325266651922562,0.9420288649987635,0.2878001375,0.6626326694741291
0.029,1.778975,1.0,2662.6338497659103,0.27838248320613584,1.3248617396390188,0.9435533951113433,0.28776995,0.6634720985928265
0.029500000000000002,1.7782437500000001,1.0,2670.6867873439373,0.28243018500253836,1.3244574420898316,0.945009765664042,0.2877392375,0.66430921005269
0.03,1.7775,1.0,2678.1042765882366,0.28645517842726426,1.3240534417452994,0.9464019781130384,0.287708,0.665144664837455
0.0305,1.77674375,1.0,2684.9363090907473,0.29045760093262857,1.3236492557695263,0.9477337259450497,0.2876762375,0.6659794618617083
0.031,1.775975,1.0,2691.2078820395172,0.29443757611843596,1.323244634508851,0.9490084633977629,0.28764395,0.6668141143534416
0.0315,1.7751937500000001,1.0,2696.9443062525106,0.2983952275844912,1.322839328309612,0.9502294004257094,0.2876111375,0.6676491329610923
0.032,1.7744,1.0,2702.1711780309456,0.30233067893059906,1.322433087518148,0.9513995229942362,0.2875778,0.6684850257446247
0.0325,1.77359375,1.0,2706.914352394617,0.30624405375656416,1.3220256624807976,0.9525216114525854,0.2875439375,0.6693222981626386
0.033,1.772775,1.0,2711.199917698707,0.31013547566219135,1.3216168035438989,0.9535982571884947,0.28750955,0.6701614530555011
0.0335,1.7719437500000002,1.0,2715.0541716328385,0.31400506824728536,1.321206261053791,0.9546318777434138,0.2874746375,0.6710029906245023
0.034,1.7711000000000001,1.0,2718.5035986015837,0.31785295511165085,1.3207937853568121,0.9556247305469956,0.2874392,0.6718474084070394
0.0345,1.7702437500000001,1.0,2721.571748900339,0.32167925751577836,1.3203791550143755,0.9565789279104077,0.2874032375,0.6726951435978148
0.035,1.7693750000000001,1.0,2724.2781812002895,0.3254840942927826,1.3199621861736541,0.9574964491795515,0.28736675,0.6735465542696936
0.035500000000000004,1.76849375,1.0,2726.6552839040633,0.3292675953819833,1.3195425793552922,0.9583791379099039,0.2873297375,0.674402232075787
0.036000000000000004,1.7676,1.0,2728.717713067783,0.3330298774411633,1.3191201973901205,0.9592287352119232,0.2872922,0.6752624350053906
0.0365,1.76669375,1.0,2730.4802041358316,0.3367710571281053,1.3186949031089705,0.9600468737887679,0.2872541375,0.6761274194271808
0.037,1.765775,1.0,2731.9575634211096,0.3404912511005921,1.3182665593426723,0.9608350859066168,0.28721555,0.6769974400643406
0.0375,1.76484375,1.0,2733.164660002097,0.3441905760164065,1.3178350289220573,0.9615948106934732,0.2871764375,0.677872749968479
0.038,1.7639,1.0,2734.1164180374417,0.34786914853333123,1.3174001746779562,0.9623274008298238,0.28713679999999997,0.6787536004923562
0.0385,1.76294375,1.0,2734.82780949794,0.3515270853091491,1.3169618594411996,0.9630341286879456,0.28709663750000003,0.6796402412614071
0.039,1.761975,1.0,2735.313847314505,0.3551645030016428,1.316519946042619,0.9637161919708102,0.28705595,0.6805329201440613
0.0395,1.760993894167194,1.0,2735.5967498039954,0.35878151826859517,1.3160742973130444,0.9643747188963376,0.28701474355502216,0.6814318832208713
0.04,1.7600082926349587,1.0,2736.0916335698876,0.3623782408084905,1.3156246938558422,0.9650107643080607,0.2869733482906683,0.6823375402691514
0.0405,1.7590226911027231,1.0,2736.9598863279903,0.36595479217496174,1.3151717015345377,0.9656253946963591,0.28693195302631436,0.6832487198718888
0.041,1.7580370895704875,1.0,2738.165439625435,0.3695112865232402,1.314715649289829,0.9662195942616462,0.2868905577619605,0.6841647324364838
0.0415,1.757051488038252,1.0,2739.686319457256,0.37304783381220596,1.3142567385055357,0.9667942806860156,0.2868491624976066,0.6850851476526255
0.042,1.7560658865060166,1.0,2741.5005841641655,0.37656454400073897,1.3137951705654773,0.9673503211353427,0.2868077672332527,0.6860095374036448
0.0425,1.755080284973781,1.0,2743.5863121192683,0.38006152704771934,1.3133311468534734,0.9678885355626579,0.2867663719688988,0.6869374758019359
0.043000000000000003,1.7540946834415454,1.0,2745.9215903127074,0.38353889291202714,1.3128648687533437,0.9684096997634721,0.2867249767045449,0.6878685392217889
0.043500000000000004,1.7531090819093098,1.0,2748.4845038371573,0.3869967515525424,1.3123965376489077,0.9689145482039822,0.286683581440191,0.6888023063296382
0.044,1.7521234803770744,1.0,2751.2531262709495,0.3904352129281451,1.311926354923985,0.9694037766411252,0.28664218617583714,0.6897383581117223
0.0445,1.7511378788448388,1.0,2754.2055109612293,0.39385438699771536,1.3114545219623952,0.9698780445517088,0.2866007909114832,0.6906762778991578
0.045,1.7501522773126033,1.0,2757.3222348347276,0.3972543819105536,1.310981217071925,0.970337975356937,0.28655939564712934,0.6916156971570926
0.0455,1.7491666757803677,1.0,2760.5922903655473,0.4006353024964955,1.3105065422365807,0.9707841544366612,0.2865180003827754,0.6925564006003908
0.046,1.7481810742481323,1.0,2763.9910973997144,0.40399726459137225,1.310030721915141,0.9712171483013241,0.28647660511842155,0.6934979319795169
0.0465,1.7471954727158967,1.0,2767.50973808602,0.40734037183983596,1.3095538387210275,0.9716374830275463,0.2864352098540677,0.6944401177712887
0.047,1.746209871183661,1.0,2771.1392792130628,0.4106647278865386,1.3090759752676615,0.9720456587287188,0.28639381458971375,0.6953827854347701
0.0475,1.7452242696514255,1.0,2774.8707703383784,0.4139704363761323,1.3085972141684639,0.972442151083442,0.2863524193253599,0.6963257634166558
0.048,1.7442386681191901,1.0,2778.695242067869,0.41725760095326897,1.3081176380368562,0.9728274127602383,0.286311024061006,0.6972688811562144
0.0485,1.7432530665869546,1.0,2782.6037044878726,0.4205263252626007,1.3076373294862593,0.9732018747464702,0.2862696287966521,0.6982119690898045
0.049,1.742267465054719,1.0,2786.58714574779,0.4237767129487795,1.3071563711300944,0.9735659475887338,0.2862282335322982,0.6991548586549481
0.0495,1.7412818635224834,1.0,2790.6365307940027,0.4270088676564574,1.306674845581783,0.9739200225513822,0.28618683826794433,0.700097382293972
0.05,1.740296261990248,1.0,2794.7428002556044,0.43022289303028644,1.306192835454746,0.9742644726992765,0.2861454430035904,0.7010393734572156
0.0505,1.7393106604580124,1.0,2798.9010436050216,0.43341888674730455,1.3057103858945254,0.9745996507535778,0.28610404773923653,0.701980739656315
0.051000000000000004,1.7383250589257768,1.0,2803.1023352249354,0.43659695639807694,1.3052275779382267,0.9749258968207478,0.2860626524748826,0.7029213190878946
0.051500000000000004,1.7373394573935412,1.0,2807.3407600125956,0.4397572037525626,1.3047444654066702,0.9752435332254507,0.28602125721052873,0.7038610038392946
0.052000000000000005,1.7363538558613059,1.0,2811.6127960163717,0.4428997265037707,1.3042610805316106,0.9755528660558703,0.28597986194617486,0.7047997285514566
0.0525,1.7353682543290703,1.0,2815.914910878649,0.44602462234471063,1.3037774555448023,0.975854187848149,0.28593846668182094,0.7057374282612425
0.053,1.7343826527968347,1.0,2820.2435616524176,0.4491319889683918,1.3032936226780003,0.9761477783045975,0.28589707141746706,0.7066740384019604
0.0535,1.733397051264599,1.0,2824.595194641202,0.4522219240678234,1.3028096141629593,0.9764339049678966,0.28585567615311314,0.7076094948038257
0.054,1.7324114497323637,1.0,2828.9662452622206,0.4552945253360149,1.3023254622314338,0.9767128238543311,0.28581428088875926,0.7085437336943556
0.0545,1.7314258482001281,1.0,2833.3531379321116,0.45834989046597546,1.3018411991151788,0.9769847800488809,0.2857728856244054,0.7094766916986958
0.055,1.7304402466678925,1.0,2837.7522859760957,0.46138811715071454,1.3013568570459486,0.9772500082647622,0.28573149036005147,0.7104083058398842
0.0555,1.729454645135657,1.0,2842.1610459604626,0.46440929870793196,1.3008724597540364,0.977508732456338,0.2856900950956976,0.7113385298518997
0.056,1.7284690436034216,1.0,2846.5797737474045,0.46741351771198286,1.30038800420045,0.977761164722046,0.2856486998313437,0.7122673690448673
0.0565,1.727483442071186,1.0,2851.0002347994678,0.4704008988911222,1.2999035637573058,0.9780075167040676,0.2856073045669898,0.7131946825435831
0.057,1.7264978405389504,1.0,2855.4214605121065,0.4733715327752187,1.2994191469974055,0.9782479845659611,0.2855659093026359,0.7141204541178129
0.0575,1.725512239006715,1.0,2859.8424792951487,0.47632550989414124,1.298934762493551,0.9784827565423314,0.28552451403828205,0.7150446676432534
0.058,1.7245266374744794,1.0,2864.2623165783816,0.47926292077775856,1.2984504188185442,0.9787120133233362,0.2854831187739281,0.7159673071015165
0.0585,1.7235410359422438,1.0,2868.679994818568,0.48218385595593954,1.2979661245451872,0.9789359284175833,0.28544172350957425,0.7168883565801083
0.059000000000000004,1.7225554344100082,1.0,2873.0945335075444,0.48508840595855296,1.297481888246282,0.9791546684947979,0.2854003282452203,0.7178078002724063
0.059500000000000004,1.7215698328777727,1.0,2877.5049491831724,0.48797666131546763,1.29699771849463,0.9793683937095381,0.28535893298086645,0.7187256224776293
0.06,1.7205842313455373,1.0,2881.910255440426,0.4908487125565523,1.2965136238630337,0.979577258007146,0.2853175377165126,0.7196418076008015
0.0605,1.7195986298133017,1.0,2886.309462945401,0.493704650211676,1.2960296129242945,0.9797814094130411,0.28527614245215865,0.720556340152718
0.061,1.718613028281066,1.0,2890.7015794501967,0.49654456481070725,1.2955456942512147,0.9799809903063849,0.2852347471878048,0.7214692047498965
0.0615,1.7176274267488307,1.0,2895.085609809446,0.49936854688351506,1.295061876416596,0.980176137679071,0.28519335192345086,0.7223803861145327
0.062,1.7166418252165951,1.0,2899.460555999131,0.5021766869599682,1.2945781679932404,0.9803669833809394,0.285151956659097,0.7232898690744458
0.0625,1.7156562236843595,1.0,2903.825417136097,0.5049690755699353,1.2940945775539499,0.9805536543520414,0.2851105613947431,0.7241976385630222
0.063,1.714670622152124,1.0,2908.1791894999315,0.5077458032432854,1.293611113671526,0.980736272842733,0.2850691661303892,0.7251036796191526
0.0635,1.7136850206198886,1.0,2912.522275367055,0.5105069345457359,1.2931277725220884,0.9809149541006343,0.2850277708660353,0.7260080005619859
0.064,1.712699419087653,1.0,2916.8538104153286,0.5132525746559422,1.292644561431074,0.9810898127018126,0.28498637560168144,0.7269105888546377
0.0645,1.7117138175554174,1.0,2921.172541591623,0.515982831081517,1.292161491118653,0.9812609593981665,0.2849449803373275,0.7278114257248893
0.065,1.7107282160231818,1.0,2925.478397388204,0.5186977858351711,1.2916785619005748,0.9814284986552719,0.28490358507297364,0.7287105118865196
0.0655,1.7097426144909464,1.0,2929.7713063235174,0.5213975209296151,1.2911957740925888,0.9815925312375027,0.28486218980861977,0.7296078480568176
0.066,1.7087570129587109,1.0,2934.0511969433114,0.5240821183775598,1.290713128010444,0.9817531543659465,0.28482079454426584,0.7305034349565791
0.0665,1.7077714114264753,1.0,2938.3179978218022,0.5267516601917156,1.2902306239698902,0.9819104618684986,0.28477939927991197,0.7313972733101026
0.067,1.7067858098942397,1.0,2942.571637562286,0.5294062283847935,1.289748262286676,0.9820645443225703,0.28473800401555804,0.73228936384519
0.0675,1.7058002083620043,1.0,2946.812044798549,0.5320459049695037,1.2892660432765513,0.982215489190825,0.28469660875120417,0.733179707293139
0.068,1.7048146068297687,1.0,2951.0391481954525,0.5346707719585572,1.288783967255265,0.9823633809503308,0.2846552134868503,0.7340683043887437
0.0685,1.7038290052975331,1.0,2955.252876450244,0.5372809113646645,1.2883020345385667,0.9825083012154915,0.2846138182224964,0.7349551558702905
0.069,1.7028434037652975,1.0,2959.453158293519,0.5398764052005364,1.2878202454422052,0.9826503288550957,0.2845724229581425,0.735840262479556
0.0695,1.7018578022330622,1.0,2963.6399224899587,0.5424573354788833,1.2873386002819303,0.982789540103808,0.2845310276937886,0.7367236249618021
0.07,1.7008722007008266,1.0,2967.8130978398435,0.545023784212416,1.286857099373491,0.9829260086683945,0.2844896324294347,0.7376052440657754
0.07050000000000001,1.699886599168591,1.0,2971.9726131794846,0.5475758334138452,1.2863757430326364,0.9830598058289747,0.28444823716508083,0.7384851205437035
0.07100000000000001,1.6989009976363554,1.0,2976.1183973825064,0.5501135650958815,1.285894531575116,0.9831910005355582,0.2844068419007269,0.7393632551512914
0.07150000000000001,1.69791539610412,1.0,2980.2503793611686,0.5526370612712355,1.285413465316679,0.9833196595001177,0.28436544663637303,0.7402396486477194
