Time [s],Phi [rad],STIM [ ],Fsee [N],Gamma [ ],Lcerel [ ],q [ ],Lmtc [m],fisomrel [ ]
0.0,1.8,1.0,18.274229956068627,0.0005636379411756676,1.3793054896573242,0.005082004070701416,0.288653,0.5412224027927854
0.0005,1.79999375,1.0,18.756068712147897,0.00616968568690518,1.3792494887473234,0.014548739013572239,0.2886527375,0.5413578612400951
0.001,1.799975,1.0,22.50858207238078,0.011744287937158818,1.3788482984286496,0.038551725199179175,0.28865195,0.542327700184046
0.0015,1.79994375,1.0,32.867500683620165,0.017287621077195087,1.3778951526911598,0.07459224308695,0.2886506375,0.5446277218511639
0.002,1.7999,1.0,57.179175923147426,0.02279986050097451,1.3761385802815451,0.11941929801864541,0.2886488,0.5488513023717592
0.0025,1.79984375,1.0,102.93829068770268,0.028281180619123988,1.373658825889782,0.16967372901433747,0.28864643749999996,0.5547802354421864
0.003,1.7997750000000001,1.0,168.37540280870434,0.033731754867330335,1.3709398363833383,0.2225305910234083,0.28864354999999997,0.5612360898721372
0.0035,1.79969375,1.0,245.97974410843648,0.03915175570339,1.3683313747148222,0.27582764299343365,0.2886401375,0.5673851989817895
0.004,1.7996,1.0,330.2457029319384,0.04454135462018779,1.3659251381904292,0.32796004198023304,0.2886362,0.5730191110979443
0.0045000000000000005,1.7994937500000001,1.0,418.3287020909462,0.04990072214845562,1.3637112834846181,0.3778192665635425,0.2886317375,0.5781699689603692
0.005,1.799375,1.0,508.63105007117895,0.05523002784030727,1.3616633658063537,0.4247216376275312,0.28862675,0.5829069191123073
0.0055,1.79924375,1.0,600.0806264497027,0.06052944039791656,1.3597580348777705,0.4683144223124569,0.2886212375,0.5872900393523115
0.006,1.7991000000000001,1.0,691.798696604116,0.06579912739263091,1.3579782879543565,0.5084843417045507,0.2886152,0.591363346152002
0.006500000000000001,1.79894375,1.0,783.096223407022,0.071039255621741,1.3563104136194555,0.5452786430829373,0.2886086375,0.5951622740635605
0.007,1.798775,1.0,873.385636003691,0.07624999089152348,1.3547437885513,0.5788458468161963,0.28860155,0.5987144275646381
0.0075,1.79859375,1.0,962.1754798320981,0.08143149791900903,1.3532697120778299,0.6093921125263447,0.2885939375,0.6020424442871404
0.008,1.7984,1.0,1049.1054569010018,0.08658394106661045,1.3518801339159088,0.6371507812881814,0.2885858,0.6051670004952874
0.0085,1.79819375,1.0,1133.8501823050865,0.09170748293464641,1.3505686320481258,0.6623633443352956,0.2885771375,0.6081047009690873
0.009000000000000001,1.797975,1.0,1216.1723581293263,0.09680228559214267,1.3493291984355096,0.6852663386949751,0.28856795,0.6108708900523099
0.0095,1.79774375,1.0,1295.9133052443765,0.10186851074192976,1.3481561479569923,0.7060840266938321,0.2885582375,0.6134798999991993
0.01,1.7975,1.0,1372.9387409795852,0.10690631836666097,1.3470446397897105,0.7250248099364102,0.288548,0.6159439349273921
0.0105,1.79724375,1.0,1447.1613776154434,0.11191586765744792,1.3459901766186009,0.7422793094764703,0.2885372375,0.6182742273068539
0.011,1.796975,1.0,1518.5413831167145,0.11689731714629922,1.3449884734312934,0.7580200839913084,0.28852595000000003,0.6204813558658986
0.0115,1.79669375,1.0,1587.0764466659039,0.12185082529672389,1.3440354809140047,0.7724022794296119,0.2885141375,0.6225752164294308
0.012,1.7964,1.0,1652.7528146143404,0.1267765479763257,1.343127871281966,0.7855649396868711,0.28850180000000003,0.6245639794308244
0.0125,1.79609375,1.0,1715.5944119915753,0.1316746409036642,1.342262354461874,0.7976320161940241,0.2884889375,0.626455614535123
0.013000000000000001,1.7957750000000001,1.0,1775.643113505634,0.13654525900232764,1.341435856166955,0.8087138660635241,0.28847555,0.6282575131490382
0.0135,1.79544375,1.0,1832.9768449209714,0.1413885577319329,1.3406452628089622,0.8189085497432583,0.2884616375,0.6299770565236387
0.014,1.7951000000000001,1.0,1887.6443656838262,0.1462046895510501,1.3398881050693472,0.8283034183216906,0.2884472,0.631620140409338
0.0145,1.79474375,1.0,1939.7024739268877,0.1509938061698555,1.3391620833800537,0.8369761380325378,0.2884322375,0.6331922232056808
0.015,1.794375,1.0,1989.2288783630786,0.15575605929852546,1.3384648981730254,0.8449957478737168,0.28841675,0.6346987012267971
0.0155,1.79399375,1.0,2036.3021889058653,0.1604915996382964,1.3377944413334861,0.8524237324284565,0.2884007375,0.6361445006511416
0.016,1.7936,1.0,2081.0264678443427,0.16520057839538663,1.3371485125870703,0.8593148228592538,0.2883842,0.6375346953454275
0.0165,1.7931937500000001,1.0,2123.4729583082326,0.16988314362338103,1.3365254095533812,0.8657179740223093,0.2883671375,0.6388732421075545
0.017,1.792775,1.0,2163.7160399453696,0.17453944283431738,1.335923522896938,0.8716769243363651,0.28834955,0.6401638608562195
0.0175,1.7923437500000001,1.0,2201.8409804788776,0.17916962354023339,1.3353412432822596,0.8772307849003577,0.2883314375,0.6414102377356774
0.018000000000000002,1.7919,1.0,2237.9303262448543,0.18377383210581075,1.334777088657638,0.882414616651309,0.2883128,0.6426157554525382
0.0185,1.79144375,1.0,2272.0826416615187,0.18835221592555165,1.3342295040671128,0.8872598509535113,0.2882936375,0.6437839241423846
0.019,1.790975,1.0,2304.3708191419664,0.19290491897098752,1.3336972691516427,0.8917948091712312,0.28827395,0.6449175145431638
0.0195,1.79049375,1.0,2334.866315907869,0.19743208443280652,1.333179241713948,0.8960449946599767,0.2882537375,0.6460191099837964
0.02,1.79,1.0,2363.6463600281327,0.20193385550169685,1.3326742795567488,0.9000333937268244,0.288233,0.6470912746218054
0.0205,1.78949375,1.0,2390.78888781742,0.20641037465247195,1.33218128490928,0.9037807675182838,0.2882117375,0.6481364603189406
0.021,1.788975,1.0,2416.372392835119,0.21086178433386274,1.3316992002688468,0.9073058978973834,0.28818995000000003,0.6491570170312738
0.021500000000000002,1.78844375,1.0,2440.474511445164,0.21528822674648102,1.3312270170081109,0.9106258054256665,0.2881676375,0.6501551760328719
0.022,1.7879,1.0,2463.153174889682,0.21968984036303804,1.3307639509957458,0.9137559732222204,0.2881448,0.6511326808727164
0.0225,1.78734375,1.0,2484.469329184728,0.22406676365624528,1.3303092181004255,0.916710466777173,0.28812143749999997,0.6520912641514208
0.023,1.786775,1.0,2504.486685286501,0.2284191350988141,1.3298620341908238,0.9195020833708664,0.28809755,0.6530326479575631
0.0235,1.78619375,1.0,2523.2714828896983,0.2327470931634558,1.3294216151356146,0.9221424839782618,0.28807313749999996,0.6539585442648055
0.024,1.7856,1.0,2540.8791212424057,0.23705077302270713,1.3289873006571227,0.9246423306410521,0.2880482,0.6548703954283801
0.0245,1.78499375,1.0,2557.3845648249176,0.2413303156088871,1.3285582648423915,0.9270113404216063,0.2880227375,0.6557699827925924
0.025,1.784375,1.0,2572.8332768253076,0.24558585436915986,1.328133976442685,0.929258453160895,0.28799675,0.6566584614282892
0.025500000000000002,1.78374375,1.0,2587.2712871136655,0.24981752253152717,1.3277139122316552,0.93139186200175,0.2879702375,0.6575369634241803
0.026000000000000002,1.7831000000000001,1.0,2600.745923306443,0.2540254533239909,1.327297548982955,0.9334190847494276,0.2879432,0.658406614890785
0.0265,1.78244375,1.0,2613.3056993096156,0.25820977997455286,1.3268843634702365,0.9353470286521302,0.2879156375,0.6592685360926605
0.027,1.781775,1.0,2625.000209932267,0.26237063571121483,1.326473832467152,0.9371820481774584,0.28788755,0.6601238415631698
0.0275,1.7810937500000001,1.0,2635.869461448707,0.26650814991048133,1.3260655305171987,0.9389300097411097,0.2878589375,0.66097343688947
0.028,1.7804,1.0,2645.968392962693,0.27062245881444147,1.3256589017580178,0.9405963071299874,0.2878298,0.6618184939596994
0.0285,1.77969375,1.0,2655.334895022523,0.2747136921427948,1.3252535551363858,0.9421859419111052,0.2878001375,0.66265983696155
0.029,1.778975,1.0,2664.001596396135,0.2787819773351584,1.3248491538181701,0.9437035442192433,0.28776995,0.663498173672254
0.029500000000000002,1.7782437500000001,1.0,2672.00166324325,0.28282744183114966,1.3244453609692393,0.9451533989019477,0.2877392375,0.6643342083722579
0.03,1.7775,1.0,2679.368751154874,0.2868502130703856,1.324041839755461,0.9465394756862854,0.287708,0.6651686418619138
0.0305,1.77674375,1.0,2686.1369597082225,0.29085041849248355,1.3236382533427034,0.9478654563517417,0.2876762375,0.6660021714709317
0.031,1.775975,1.0,2692.3407895371565,0.2948281855370606,1.323234264896834,0.9491347592389159,0.28764395,0.6668354910605974
0.0315,1.7751937500000001,1.0,2698.007978554391,0.29878363780965084,1.3228296027091493,0.9503505682942802,0.2876111375,0.6676691569344797
0.032,1.7744,1.0,2703.1705485919924,0.30271690297663395,1.3224239586412194,0.9515158424230666,0.2875778,0.6685037974940218
0.0325,1.77359375,1.0,2707.865120482672,0.3066281110315789,1.3220169851413452,0.9526333330642635,0.2875439375,0.6693401188790773
0.033,1.772775,1.0,2712.1127390829924,0.3105173828673534,1.3216084790879061,0.9537056192527098,0.28750955,0.6701785273557521
0.0335,1.7719437500000002,1.0,2715.934635345581,0.31438483937682565,1.3211982373592814,0.9547351071846786,0.2874746375,0.671019427032177
0.034,1.7711000000000001,1.0,2719.352208255427,0.31823060145286336,1.3207860568338508,0.9557240438576314,0.2874392,0.6718632198373389
0.0345,1.7702437500000001,1.0,2722.3870076810394,0.32205478998833453,1.3203717343899934,0.9566745294802182,0.2874032375,0.6727103054972816
0.035,1.7693750000000001,1.0,2725.060718139576,0.3258575258761071,1.319955066906089,0.9575885287763202,0.28736675,0.6735610815086737
0.035500000000000004,1.76849375,1.0,2727.3951434781443,0.32963893000904904,1.3195358512605173,0.9584678812932579,0.2873297375,0.6744159431097467
0.036000000000000004,1.7676,1.0,2729.4121924683564,0.33339912328002824,1.3191138843316572,0.9593143108122484,0.2872922,0.6752752832486024
0.0365,1.76669375,1.0,2731.130105356361,0.33713822317026076,1.318688997164294,0.9601294366411267,0.2872541375,0.6761394231071955
0.037,1.765775,1.0,2732.565685051979,0.340856348214697,1.3182610345410428,0.9609147802213764,0.28721555,0.6770086539951057
0.0375,1.76484375,1.0,2733.7425132461663,0.34455362354545416,1.3178297802543029,0.9616717660686065,0.2871764375,0.6778833889780025
0.038,1.7639,1.0,2734.6729197548434,0.3482301632113195,1.3173951208170123,0.9624017407801915,0.28713679999999997,0.6787638306172009
0.0385,1.76294375,1.0,2735.3692774288675,0.35188608126108034,1.3169569427421093,0.9631059711004842,0.28709663750000003,0.6796501799986456
0.039,1.761975,1.0,2735.843996660243,0.35552149174352404,1.3165151325425324,0.9637856495211894,0.28705595,0.6805426367078544
0.0395,1.7609937500000001,1.0,2736.109520174842,0.35913650870743796,1.3160695767312194,0.9644418994308123,0.2870147375,0.6814413988040429
0.04,1.76,1.0,2736.1783181092615,0.3627312462016094,1.315620161821109,0.9650757798539386,0.286973,0.6823466627934216
0.0405,1.7589937500000001,1.0,2736.062883374719,0.3663058182748257,1.315166774325139,0.9656882898170195,0.2869307375,0.6832586236016802
0.041,1.757975,1.0,2735.7757273051166,0.3698603389758742,1.3147093007562478,0.9662803723737257,0.28688795,0.6841774745456428
0.0415,1.75694375,1.0,2735.3293755916807,0.3733949223535422,1.3142476276273738,0.9668529183197007,0.2868446375,0.6851034073041053
0.042,1.7559,1.0,2734.728238766941,0.3769096686085651,1.3137817152406321,0.96740677349869,0.28680079999999997,0.6860364642240014
0.0425,1.75484375,1.0,2733.9916114982607,0.38040470586551806,1.313311388822202,0.9679427313397041,0.2867564375,0.6869769567420373
0.043000000000000003,1.753775,1.0,2733.1295485352575,0.3838801468549228,1.3128365575364345,0.9684615470183268,0.28671155,0.6879250263671974
0.043500000000000004,1.75269375,1.0,2732.14857508703,0.38733609814440156,1.312357162639916,0.9689639372328555,0.28666613750000003,0.6888807491949652
0.044,1.7516,1.0,2731.055219789408,0.39077266630157653,1.3118731453892332,0.969450581052997,0.2866202,0.6898442002073542
0.0445,1.75049375,1.0,2729.8560133356777,0.39418995789406985,1.3113844470409723,0.969922122263929,0.2865737375,0.6908154532557012
0.045,1.7493750000000001,1.0,2728.5574871816857,0.3975880794895038,1.3108910088517205,0.9703791715420987,0.28652675,0.6917945810432381
0.0455,1.74824375,1.0,2727.166172329025,0.40096713765550046,1.310392772078064,0.970822308476369,0.2864792375,0.6927816551074459
0.046,1.7471,1.0,2725.6885981841065,0.40432723895968203,1.3098896779765896,0.971252083446893,0.2864312,0.6937767458021862
0.0465,1.7459437500000001,1.0,2724.1312914936448,0.4076684899696707,1.3093816678038839,0.971669019373009,0.28638263750000004,0.6947799222796149
0.047,1.744775,1.0,2722.500775356879,0.41099099725308863,1.3088686828165332,0.9720736133404473,0.28633355,0.6957912524718743
0.0475,1.74359375,1.0,2720.8035683144994,0.41429486737755805,1.3083506642711247,0.9724663381172474,0.28628393750000003,0.6968108030725644
0.048,1.7424,1.0,2719.046183513268,0.41758020691070113,1.3078275534242443,0.9728476435669698,0.2862338,0.6978386395179976
0.0485,1.74119375,1.0,2717.2299963636024,0.42084710594977365,1.307299338281818,0.9732179591870529,0.2861831375,0.6988747343480763
0.049,1.739975,1.0,2715.3638517996515,0.42409568434125183,1.3067659387800354,0.9735776930413136,0.28613195,0.6999191926160828
0.0495,1.73874375,1.0,2713.453645502,0.42732605118820116,1.306227301646255,0.9739272344740828,0.2860802375,0.7009720654542526
0.05,1.7375,1.0,2711.502208702101,0.4305383050013035,1.3056834014907952,0.9742669552971157,0.286028,0.7020333483833461
0.0505,1.73624375,1.0,2709.51236964042,0.433732544291241,1.3051342129239756,0.9745972101653191,0.2859752375,0.7031030360435777
0.051000000000000004,1.734975,1.0,2707.486953358666,0.43690886756869535,1.3045797105561154,0.97491833751835,0.28592195,0.7041811221860744
0.051500000000000004,1.73369375,1.0,2705.42878150631,0.4400673733443486,1.3040198689975333,0.9752306604624786,0.2858681375,0.7052675996642943
0.052000000000000005,1.7324,1.0,2703.3406721606043,0.4432081601288827,1.3034546628585488,0.9755344875969962,0.2858138,0.7063624604253969
0.0525,1.73109375,1.0,2701.2254396623166,0.44633132643297957,1.302884066749481,0.9758301137891112,0.28575893750000003,0.7074656955015814
0.053,1.729775,1.0,2699.0858944642337,0.4494369707673212,1.3023080552806485,0.9761178209009623,0.28570355000000003,0.7085772950013787
0.0535,1.72844375,1.0,2696.924842994955,0.4525251916425895,1.301726603062371,0.9763978784720926,0.2856476375,0.7096972481009004
0.054,1.7271,1.0,2694.745087536771,0.45559608756946635,1.3011396847049674,0.9766705443604686,0.2855912,0.7108255430350536
0.0545,1.7257437500000001,1.0,2692.549426117479,0.45864975705863376,1.300547274818757,0.9769360653448984,0.2855342375,0.7119621670887072
0.055,1.724375,1.0,2690.3406524169204,0.46168629862077365,1.2999493480140585,0.9771946776914684,0.28547675,0.7131071065878228
0.0555,1.72299375,1.0,2688.1215763323053,0.46470580744134543,1.2993458787121006,0.9774466073610553,0.2854187375,0.7142603472515318
0.056,1.7216,1.0,2685.8954715804216,0.4677083527029177,1.2987368370426033,0.977692068191617,0.2853602,0.7154218819954753
0.0565,1.72019375,1.0,2683.6638923267496,0.4706940735426387,1.2981222088491766,0.9779312725068654,0.28530113749999997,0.7165916728025763
0.057,1.718775,1.0,2681.4278825313577,0.4736630598734021,1.297501984631089,0.978164419634806,0.28524155,0.7177696720043474
0.0575,1.71734375,1.0,2679.1884844451833,0.47661540160810156,1.2968761548876089,0.9783917007800004,0.2851814375,0.7189558311835091
0.058,1.7159,1.0,2676.9467386006504,0.47955118865963065,1.296244710118005,0.9786132994176416,0.2851208,0.7201501011705969
0.0585,1.71444375,1.0,2674.7036838046483,0.482470510940883,1.2956076408215462,0.978829391665474,0.2850596375,0.7213524320405604
0.059000000000000004,1.7129750000000001,1.0,2672.4603571325965,0.4853734583647522,1.294964937497501,0.9790401466349606,0.28499795,0.7225627731093602
0.059500000000000004,1.71149375,1.0,2670.2177939256544,0.4882601208441319,1.294316590645138,0.9792457267630182,0.2849357375,0.7237810729305558
0.06,1.71,1.0,2667.977027789082,0.4911305882919157,1.2936625907637256,0.9794462881255305,0.284873,0.7250072792918898
0.0605,1.7084937500000001,1.0,2665.7390905928974,0.4939849506209973,1.2930029283525328,0.9796419807337787,0.2848097375,0.7262413392118638
0.061,1.7069750000000001,1.0,2663.5050124747936,0.4968232977442702,1.2923375939108281,0.9798329488148404,0.28474595,0.727483198936313
0.0615,1.7054437500000001,1.0,2661.2758218442154,0.4996457195746281,1.2916665779378802,0.9800193310769426,0.2846816375,0.7287328039349696
0.062,1.7039,1.0,2659.052545389926,0.5024523060249646,1.2909898709329575,0.9802012609606825,0.2846168,0.7299900988980255
0.0625,1.70234375,1.0,2656.8362080877623,0.5052431470081734,1.2903074633953289,0.9803788668769675,0.2845514375,0.7312550277326844
0.063,1.7007750000000001,1.0,2654.627833211752,0.508018332437148,1.2896193458242629,0.9805522724324749,0.28448555,0.7325275335597132
0.0635,1.69919375,1.0,2652.4284423469408,0.5107779522247821,1.2889255087190281,0.9807215966433673,0.28441913750000003,0.7338075587099835
0.064,1.6976,1.0,2650.2390554034373,0.5135220962839693,1.2882259425788931,0.9808869541379649,0.2843522,0.7350950447210096
0.0645,1.69599375,1.0,2648.056959603132,0.5162508521722076,1.287520672334345,0.9810484569106659,0.2842847375,0.7363898691977238
0.065,1.694375,1.0,2645.88390785434,0.5189643025851608,1.2868096817294286,0.9812062105001177,0.28421675,0.7376919849051782
0.0655,1.69274375,1.0,2643.7219719244904,0.5216625326525074,1.2860929515368311,0.9813603166667283,0.2841482375,0.7390013491101544
0.066,1.6911,1.0,2641.5719535826915,0.5243456275478818,1.2853704742326248,0.9815108741053998,0.2840792,0.7403178967992564
0.0665,1.6894437500000001,1.0,2639.433904476618,0.5270136722664639,1.284642249214916,0.9816579783303073,0.2840096375,0.7416415496233215
0.067,1.687775,1.0,2637.3085530809108,0.5296667516239341,1.2839082696227726,0.9818017211730022,0.28393955,0.7429722399228413
0.0675,1.68609375,1.0,2635.1957876809784,0.5323049494726327,1.2831685363573608,0.9819421915569837,0.2838689375,0.7443098852590243
0.068,1.6844000000000001,1.0,2633.0927333364084,0.5349283489090787,1.2824230758943675,0.9820794764861331,0.2837978,0.7456543565126413
0.0685,1.6826941209078954,1.0,2631.014612537564,0.5375370330297907,1.281671914709479,0.9822136599698648,0.2837261530781316,0.7470055244384437
0.069,1.6809846660183012,1.0,2629.3670128900185,0.540131084435065,1.280915158991261,0.9823448268681452,0.28365435597276867,0.7483631168651611
0.0695,1.6792752111287073,1.0,2628.2761692755557,0.5427105856502444,1.2801532505468212,0.9824730748826204,0.2835825588674057,0.749726263418527
0.07,1.677565756239113,1.0,2627.6997252010115,0.5452756177890383,1.2793865785581164,0.9825984960365188,0.28351076176204276,0.7510941955407826
0.07050000000000001,1.6758563013495191,1.0,2627.5958374406246,0.5478262619215042,1.278615529100354,0.9827211792644311,0.2834389646566798,0.7524661573473527
0.07100000000000001,1.674146846459925,1.0,2627.9289593895023,0.550362597821576,1.277840431202948,0.9828412079908448,0.28336716755131686,0.7538415012403057
0.07150000000000001,1.6724373915703308,1.0,2628.6532577825155,0.5528847078376669,1.277061710157035,0.9829586675579545,0.2832953704459539,0.7552194157042703
0.07200000000000001,1.6707279366807368,1.0,2629.735035768564,0.5553926720442605,1.2762796795063784,0.9830736354768551,0.28322357334059095,0.756599294298
0.0725,1.6690184817911426,1.0,2631.149191141602,0.557886568700747,1.2754945736871195,0.9831861831951206,0.28315177623522797,0.7579806756025265
0.073,1.6673090269015487,1.0,2632.87066069099,0.5603664760665168,1.2747066271353997,0.9832963799541908,0.28307997912986504,0.7593631027037387
0.0735,1.6655995720119545,1.0,2634.87440482649,0.5628324724009597,1.2739160742873603,0.9834042928780004,0.28300818202450206,0.7607461232366113
0.074,1.6638901171223603,1.0,2637.1353934222684,0.5652846359634661,1.2731231495791426,0.9835099870575515,0.28293638491913914,0.7621292894259225
0.0745,1.6621806622327664,1.0,2639.6286994361208,0.5677230449698955,1.2723280864619715,0.9836135255858313,0.2828645878137762,0.7635121598340593
