Time [s],Phi [rad],STIM [ ],Fsee [N],Gamma [ ],Lcerel [ ],q [ ],Lmtc [m],fisomrel [ ]
0.0,1.8,1.0,18.011203888085827,0.00021141132265288133,1.3793348146465418,0.005011628272719641,0.288653,0.5411514617253628
0.0005,1.79999375,1.0,18.386176403398068,0.005819434781156545,1.379290250137312,0.013509122830688267,0.2886527375,0.541259267062421
0.001,1.799975,1.0,21.877340803669938,0.011396001662030576,1.3789119319729433,0.0366658381770773,0.28865195,0.5421739407159809
0.0015,1.79994375,1.0,31.65105793489082,0.016941288412776492,1.3779968644166496,0.07204390746090118,0.2886506375,0.5443825589642253
0.002,1.7999,1.0,54.80667372485383,0.022455470489054982,1.376289154908068,0.11642263921836758,0.2886488,0.548490025186773
0.0025,1.79984375,1.0,99.15229502649974,0.027938722363414246,1.3738376921809865,0.16642733120323316,0.28864643749999996,0.554353890002532
0.003,1.7997750000000001,1.0,163.5882364787211,0.03339121753129294,1.371116296647455,0.21919023605486315,0.28864354999999997,0.5608185406973156
0.0035,1.79969375,1.0,240.6463366652589,0.038813128512068355,1.3684937485203208,0.2725114902868257,0.2886401375,0.567003690374498
0.004,1.7996,1.0,324.6140154731286,0.04420462685935535,1.3660729369527325,0.32475353880326313,0.2886362,0.5726741225471963
0.0045000000000000005,1.7994937500000001,1.0,412.5233616797341,0.049565883166350196,1.3638465439463483,0.3747785665104366,0.2886317375,0.5778561621756952
0.005,1.799375,1.0,502.7327423635187,0.054897067057687605,1.3617879256192014,0.42187886479102366,0.28862675,0.5826195691203929
0.0055,1.79924375,1.0,594.1368918623654,0.06019834722784552,1.3598735453634607,0.4656839347977982,0.2886212375,0.5870249724092257
0.006,1.7991000000000001,1.0,685.8658477938953,0.06546989140717145,1.3580856361930154,0.5060677486137127,0.2886152,0.591118230715062
0.006500000000000001,1.79894375,1.0,777.2064712586997,0.0707118663771613,1.3564105508876503,0.5430696057930655,0.2886086375,0.5949346913774287
0.007,1.798775,1.0,867.5697501110096,0.07592443805296163,1.3548373991532316,0.5768330585539635,0.28860155,0.5985026153130426
0.0075,1.79859375,1.0,956.4661576036481,0.08110777122463393,1.3533572488400225,0.6075615827429032,0.2885939375,0.6018451999113853
0.008,1.7984,1.0,1043.5179749635492,0.08626203015656252,1.351962164037095,0.6354875793267096,0.2885858,0.6049828924946592
0.0085,1.79819375,1.0,1128.4036441132018,0.09138737767594542,1.3506455366942585,0.6608524040409206,0.2885771375,0.6079327410599344
0.009000000000000001,1.797975,1.0,1210.8783288739226,0.09648397590961573,1.3494013672461302,0.6838931805549802,0.28856795,0.6107100910922667
0.0095,1.79774375,1.0,1290.7837047340277,0.10155198657290283,1.3482238829909285,0.7048350431290393,0.2885582375,0.6133294876107147
0.01,1.7975,1.0,1367.9781771108562,0.10659156955922118,1.3471082732680923,0.7238874973808429,0.288548,0.6158030823623831
0.0105,1.79724375,1.0,1442.3735667379613,0.11160288422734316,1.3460499937437271,0.7412422800385744,0.2885372375,0.6181422252231072
0.011,1.796975,1.0,1513.936203264499,0.11658608964948908,1.3450446364311954,0.7570730162951949,0.28852595000000003,0.6203577770091333
0.0115,1.79669375,1.0,1582.6431824605083,0.12154134342323603,1.3440883638637762,0.7715360193660992,0.2885141375,0.6224591768289209
0.012,1.7964,1.0,1648.4878295338685,0.126468801826313,1.3431777231447635,0.7847712618001266,0.28850180000000003,0.6244548799017094
0.0125,1.79609375,1.0,1711.4967075757152,0.13136862066484498,1.342309363379904,0.7969035710202282,0.2884889375,0.6263529966276942
0.013000000000000001,1.7957750000000001,1.0,1771.7280078051772,0.13624095597440605,1.3414800022952034,0.8080440378335804,0.28847555,0.6281613776545534
0.0135,1.79544375,1.0,1829.2298103276487,0.14108596179327798,1.3406868460859935,0.8182915820333805,0.2884616375,0.6298867120662581
0.014,1.7951000000000001,1.0,1884.048473838536,0.1459037905491234,1.3399274275481918,0.8277341981462655,0.2884472,0.6315348979606785
0.0145,1.79474375,1.0,1936.2543376226624,0.1506945946696048,1.3391992794777166,0.8364500629549747,0.2884322375,0.6331117627608354
0.015,1.794375,1.0,1985.9266348148565,0.15545852573894484,1.338500073201038,0.8445087147951386,0.28841675,0.634622769269426
0.0155,1.79399375,1.0,2033.160516559234,0.16019573589302513,1.337827515945719,0.8519720305395218,0.2884007375,0.6360732444832431
0.016,1.7936,1.0,2078.0293601930216,0.16490637446727813,1.3371797235646319,0.8588952428248523,0.2883842,0.6374675829619848
0.0165,1.7931937500000001,1.0,2120.6048038425492,0.16959058961236803,1.3365549769625338,0.8653276472716237,0.2883671375,0.6388097815106772
0.017,1.792775,1.0,2160.9709138997855,0.174248529478959,1.3359515570441813,0.8713132562232698,0.28834955,0.640103798850734
0.0175,1.7923437500000001,1.0,2199.2163487686644,0.17888034150217963,1.3353678133250517,0.8768914417165545,0.2883314375,0.6413534113060373
0.018000000000000002,1.7919,1.0,2235.434335338663,0.18348617334928435,1.334802151379831,0.8820974776225505,0.2883128,0.6425622430849387
0.0185,1.79144375,1.0,2269.708667235046,0.18806617117243335,1.3342531613487156,0.8869630490166692,0.2882936375,0.6437334953073643
0.019,1.790975,1.0,2302.108025454098,0.19262047859120202,1.3337196596008714,0.8915166746148234,0.28827395,0.6448698622317556
0.0195,1.79049375,1.0,2332.707553776821,0.19714923922516564,1.3332004625054634,0.8957840140635417,0.2882537375,0.6459740171752082
0.02,1.79,1.0,2361.588319697554,0.20165259669389954,1.3326943864316574,0.8997881924814575,0.288233,0.6470486136379561
0.0205,1.78949375,1.0,2388.824837948213,0.20613069294495107,1.3322003640361533,0.9035501101499703,0.2882117375,0.6480960399689006
0.021,1.788975,1.0,2414.506070777824,0.21058367218594778,1.3317172335983052,0.9070886446965788,0.28818995000000003,0.6491188677738757
0.021500000000000002,1.78844375,1.0,2438.6989349780674,0.21501167483986605,1.3312440883883252,0.9104209438076739,0.2881676375,0.650119113226363
0.022,1.7879,1.0,2461.462475500456,0.21941483962104774,1.3307801311481344,0.9135625814930994,0.2881448,0.651098548589359
0.0225,1.78734375,1.0,2482.8587987697656,0.2237933052438348,1.3303245646196549,0.916527704509692,0.28812143749999997,0.652058934977154
0.023,1.786775,1.0,2502.9528175335777,0.22814721042256908,1.3298765915448076,0.9193291829173065,0.28809755,0.6530020228022326
0.0235,1.78619375,1.0,2521.808834963645,0.23247669332562668,1.3294354446884495,0.92197874831653,0.28807313749999996,0.6539294891037102
0.024,1.7856,1.0,2539.4837675890476,0.2367818905485701,1.3290004480398703,0.9244871212048343,0.2880482,0.6548428099157035
0.0245,1.78499375,1.0,2556.054984812649,0.24106294165528958,1.3285707519051426,0.9268640681446266,0.2880227375,0.6557438169403356
0.025,1.784375,1.0,2571.5668082291163,0.24531998010209732,1.3281458349338988,0.929118580345152,0.28799675,0.656633644819944
0.025500000000000002,1.78374375,1.0,2586.0649795810464,0.24955313934530557,1.32772517577577,0.9312588960282692,0.2879702375,0.657513422075066
0.026000000000000002,1.7831000000000001,1.0,2599.596543275664,0.2537625528412265,1.3273082530803886,0.9332925737104637,0.2879432,0.6583842712546694
0.0265,1.78244375,1.0,2612.2097349284145,0.25794835404617233,1.326894545497386,0.935226557459615,0.2879156375,0.6592473090690609
0.027,1.781775,1.0,2623.9538759329726,0.2621106764164553,1.3264835316763939,0.9370672350907141,0.28788755,0.66010364650545
0.0275,1.7810937500000001,1.0,2634.87262512926,0.26624964952258023,1.3260747517789124,0.9388204977815997,0.2878589375,0.6609542610086756
0.028,1.7804,1.0,2645.0189769899002,0.27036540952817845,1.3256676675376635,0.9404917693916398,0.2878298,0.6618002880120468
0.0285,1.77969375,1.0,2654.426908135408,0.2744580844910061,1.325261923574997,0.9420860808328241,0.2878001375,0.6626424779090971
0.029,1.778975,1.0,2663.1309679237443,0.2785278024506195,1.324857164850624,0.9436080822783799,0.28776995,0.6634815766747912
0.029500000000000002,1.7782437500000001,1.0,2671.1662612502323,0.28257469144657454,1.324453036324257,0.9450620768540885,0.2877392375,0.6643183265942931
0.03,1.7775,1.0,2678.568397751918,0.28659887951842733,1.3240491829556076,0.9464520509821184,0.287708,0.6651534662812602
0.0305,1.77674375,1.0,2685.3734438068605,0.2906004947057341,1.3236452497043876,0.9477817017110468,0.2876762375,0.6659877306880887
0.031,1.775975,1.0,2691.605755822438,0.29457965945788267,1.323240992482973,0.9490544737015622,0.28764395,0.6668216223808117
0.0315,1.7751937500000001,1.0,2697.304886087354,0.29853650516788793,1.3228360311626206,0.9502735539796487,0.2876111375,0.6676559215024473
0.032,1.7744,1.0,2702.5099081467647,0.3024711621401404,1.3224299931559251,0.9514419080027405,0.2875778,0.6684913887546877
0.0325,1.77359375,1.0,2707.242251568729,0.3063837518105905,1.322022669683575,0.952562314202705,0.2875439375,0.6693284445467573
0.033,1.772775,1.0,2711.5235564857176,0.31027439561518877,1.3216138519662597,0.9536373622258673,0.28750955,0.6701675070900026
0.0335,1.7719437500000002,1.0,2715.3756538971975,0.3141432149898856,1.3212033312246674,0.9546694680289688,0.2874746375,0.6710089923793898
0.034,1.7711000000000001,1.0,2718.8205469381264,0.31799033137063154,1.3207908986794874,0.9556608875969699,0.2874392,0.6718533141722157
0.0345,1.7702437500000001,1.0,2721.8803931146945,0.321815866193377,1.320376345551408,0.9566137294230747,0.2874032375,0.6727008839640461
0.035,1.7693750000000001,1.0,2724.5774875053166,0.32561994089407237,1.3199594630611182,0.9575299658756858,0.28736675,0.6735521109618652
0.035500000000000004,1.76849375,1.0,2726.934246929528,0.32940267690866826,1.319540042429307,0.9584114435632031,0.2873297375,0.6744074020544539
0.036000000000000004,1.7676,1.0,2728.973195081866,0.33316419567311506,1.3191178748766628,0.9592598927954458,0.2872922,0.6752671617799828
0.0365,1.76669375,1.0,2730.708217765715,0.3369046110936506,1.3186928309665389,0.9600769425782055,0.2872541375,0.6761316310284856
0.037,1.765775,1.0,2732.1652697822137,0.3406240503010783,1.3182646722555702,0.9608641138241776,0.28721555,0.6770012703892043
0.0375,1.76484375,1.0,2733.360110828579,0.344322630465434,1.317833253571066,0.9616228420297736,0.2871764375,0.6778763486110666
0.038,1.7639,1.0,2734.305786003052,0.34800046613049185,1.3173984548782498,0.9623544783716699,0.28713679999999997,0.6787570817630728
0.0385,1.76294375,1.0,2735.01538491311,0.35165767184002605,1.316960156142346,0.9630602938454335,0.28709663750000003,0.6796436843693228
0.039,1.761975,1.0,2735.5020358063257,0.3552943621378106,1.316518237328578,0.9637414848927601,0.28705595,0.6805363693826849
0.0395,1.7609937500000001,1.0,2735.7789000217736,0.3589106515676197,1.3160725784021698,0.9643991785753039,0.2870147375,0.6814353481575389
0.04,1.76,1.0,2735.8591667598685,0.3625066546732274,1.3156230593283451,0.9650344373360938,0.286973,0.682340830421607
0.0405,1.7589937500000001,1.0,2735.756048172222,0.3660824859984078,1.3151695600723279,0.9656482633854485,0.2869307375,0.6832530242468601
0.041,1.757975,1.0,2735.4827747709487,0.369638260086935,1.3147119605993416,0.9662416027446525,0.28688795,0.6841721360195104
0.0415,1.75694375,1.0,2735.0460906142816,0.37317408003885666,1.3142501999021123,0.9668153520485055,0.2868446375,0.685098252109319
0.042,1.7559,1.0,2734.461569631413,0.3766900695717082,1.313784136903213,0.967370355525254,0.28680079999999997,0.6860316180736787
0.0425,1.75484375,1.0,2733.741459942027,0.3801863458220853,1.3133136607887508,0.9679074129657657,0.2867564375,0.6869724169743355
0.043000000000000003,1.753775,1.0,2732.892787442429,0.3836630159232825,1.3128387082224486,0.9684272834732962,0.28671155,0.6879207354518804
0.043500000000000004,1.75269375,1.0,2731.922583121455,0.38712018700859424,1.3123592158680295,0.9689306858479865,0.28666613750000003,0.6888766589997122
0.044,1.7516,1.0,2730.837881463113,0.3905579662113149,1.3118751203892165,0.9694183011250879,0.2866202,0.6898402719458282
0.0445,1.75049375,1.0,2729.6457189394455,0.39397646066473896,1.311386358449732,0.9698907749290407,0.2865737375,0.690811657434359
0.045,1.7493750000000001,1.0,2728.3531325912486,0.3973757775021609,1.3108928667132995,0.9703487196584559,0.28652675,0.691790897406845
0.0455,1.74824375,1.0,2726.967158698353,0.4007560238568752,1.3103945818436415,0.9707927165156807,0.2864792375,0.6927780725832619
0.046,1.7471,1.0,2725.4948315387537,0.40411730686217623,1.3098914405044813,0.9712233173934032,0.2864312,0.6937732624427857
0.0465,1.7459437500000001,1.0,2723.943182236542,0.40745973365135846,1.3093833793595415,0.9716410466296479,0.28638263750000004,0.6947765452043049
0.047,1.744775,1.0,2722.3192376986512,0.4107834113577163,1.3088703350725455,0.9720464026415094,0.28633355,0.6957879978066757
0.0475,1.74359375,1.0,2720.6300196413295,0.41408844711454423,1.3083522443072155,0.9724398594470784,0.28628393750000003,0.6968076958887222
0.048,1.7424,1.0,2718.8590239886103,0.41737494611620884,1.307829257930082,0.9728218829480976,0.2862338,0.697835293246859
0.0485,1.74119375,1.0,2717.0555296992857,0.42064301193893017,1.3073009277198737,0.9731928747190578,0.2861831375,0.6988716193319673
0.049,1.739975,1.0,2715.224756051791,0.42389274752630046,1.3067672064108202,0.9735532448291614,0.28613195,0.699916712598537
0.0495,1.7387450553119685,1.0,2713.4010043213,0.42712425456643754,1.3062283710454663,0.9739034059003142,0.28608029232310267,0.7009699769350772
0.05,1.7375132678244816,1.0,2712.017022573072,0.43033763474745923,1.3056846986663562,0.9742437512497185,0.2860285572486282,0.7020308195193209
0.0505,1.7362814803369946,1.0,2711.133347973452,0.43353298975748333,1.3051364663160339,0.9745746559741837,0.28597682217415377,0.703098650906135
0.051000000000000004,1.7350496928495076,1.0,2710.719362054604,0.4367104212846278,1.304583951037044,0.9748964779643947,0.28592508709967934,0.7041728851105342
0.051500000000000004,1.7338179053620206,1.0,2710.7453381793216,0.4398700291901694,1.3040274229845545,0.9752095582089239,0.28587335202520486,0.7052529530400853
0.052000000000000005,1.7325861178745336,1.0,2711.1616957576857,0.44301191580147026,1.3034673344045937,0.9755142342659895,0.2858216169507304,0.7063379367007987
0.0525,1.7313543303870467,1.0,2711.9401582824785,0.4461361795477034,1.3029039439701295,0.9758108160001945,0.28576988187625596,0.7074272982376933
0.053,1.7301225428995597,1.0,2713.054635711329,0.4492429183435894,1.302337490968375,0.9760995983549968,0.28571814680178154,0.7085205406726652
0.0535,1.7288907554120727,1.0,2714.4790821996157,0.45233223010384865,1.3017682146865428,0.9763808634007783,0.28566641172730706,0.7096171702962264
0.054,1.7276589679245857,1.0,2716.1874804872646,0.45540421274320164,1.3011963544118461,0.9766548810128988,0.2856146766528326,0.7107166967124158
0.0545,1.7264271804370988,1.0,2718.1544778348625,0.4584589639017577,1.3006221435083747,0.9769219091237477,0.28556294157835815,0.7118186442360657
0.055,1.7251953929496118,1.0,2720.3589557715068,0.4614965799734285,1.3000457768078901,0.9771821922995385,0.2855112065038837,0.7129226142211409
0.0555,1.7239636054621248,1.0,2722.777224763389,0.464517159011603,1.2994674725243267,0.977435966370982,0.28545947142940925,0.7140281661348585
0.056,1.7227318179746378,1.0,2725.3941736331817,0.4675207952976257,1.2988873706964674,0.9776834524192612,0.28540773635493477,0.7151350116012516
0.0565,1.7215000304871508,1.0,2728.1946842840007,0.4705075831128413,1.2983056113630953,0.9779248624097201,0.28535600128046035,0.7162428642515624
0.057,1.7202682429996639,1.0,2731.1636263347154,0.47347761673859434,1.2977223345629936,0.9781603996456646,0.28530426620598587,0.7173514397396714
0.0575,1.7190364555121769,1.0,2734.285852191958,0.4764309904562295,1.297137680334945,0.9783902591960791,0.28525253113151144,0.7184604557562756
0.058,1.71780466802469,1.0,2737.550893234168,0.47936779468830176,1.2965517460531932,0.9786146255636833,0.28520079605703696,0.7195697127321505
0.0585,1.716572880537203,1.0,2740.943137065756,0.48228812509072333,1.295964675621087,0.9788336789543863,0.28514906098256254,0.7206789246954872
0.059000000000000004,1.715341093049716,1.0,2744.4448681862573,0.4851920799231142,1.2953766317350175,0.9790475937191294,0.28509732590808806,0.7217877724007522
0.059500000000000004,1.714109305562229,1.0,2748.0489846841924,0.488079748641975,1.2947876805928664,0.9792565313814646,0.2850455908336136,0.7228961204422135
0.06,1.712877518074742,1.0,2751.748371224915,0.4909512207038066,1.2941978883925154,0.9794606472065076,0.28499385575913916,0.7240038343921718
0.0605,1.711645730587255,1.0,2755.535897767407,0.4938065855651097,1.2936073213318457,0.9796600904936348,0.28494212068466473,0.7251107808046502
0.061,1.710413943099768,1.0,2759.4044183786305,0.49664593268238505,1.2930160456087396,0.9798550048533378,0.28489038561019026,0.7262168272188043
0.0615,1.709182155612281,1.0,2763.3467701448367,0.49946935151213334,1.2924241274210784,0.980045528469207,0.2848386505357158,0.7273218421620565
0.062,1.707950368124794,1.0,2767.35577218014,0.5022769315108554,1.2918316329667436,0.9802317943459505,0.28478691546124135,0.728425695152946
0.0625,1.706718580637307,1.0,2771.4242247318125,0.5050687621350519,1.2912386284436173,0.9804139305442913,0.28473518038676693,0.7295282567037011
0.063,1.70548679314982,1.0,2775.54490838321,0.5078449328412237,1.2906451800495808,0.9805920604035266,0.28468344531229245,0.7306293983225343
0.0635,1.7042550056623331,1.0,2779.7130735481146,0.5106055280324783,1.29005133155296,0.9807663012386582,0.28463171023781797,0.7317290340062337
0.064,1.7030232181748461,1.0,2783.9249595469764,0.5133506334932498,1.2894571177006977,0.9809367657577672,0.28457997516334355,0.7328270950650652
0.0645,1.7017914306873592,1.0,2788.170254051503,0.5160803494957311,1.2888626320652345,0.9811035665955335,0.28452824008886907,0.7339234049628346
0.065,1.7005596431998722,1.0,2792.4464440000247,0.5187947593972894,1.2882678978509126,0.9812668076662103,0.28447650501439464,0.7350179179483924
0.0655,1.6993278557123852,1.0,2796.751008857174,0.5214939465552919,1.287672938262074,0.9814265892050126,0.28442476993992016,0.7361105886213807
0.066,1.6980960682248982,1.0,2801.0814204925628,0.5241779943271058,1.2870777765030605,0.9815830079255228,0.28437303486544574,0.7372013719325856
0.0665,1.6968642807374112,1.0,2805.4351430701045,0.5268469860700983,1.2864824357782148,0.9817361571692819,0.28432129979097126,0.7382902231842509
0.067,1.6956324932499243,1.0,2809.8096329506684,0.5295010051416366,1.2858869392918786,0.9818861270480097,0.28426956471649684,0.7393770980303627
0.0675,1.6944007057624373,1.0,2814.20233860538,0.532140134899088,1.285291310248394,0.9820330045788681,0.28421782964202236,0.7404619524768961
0.068,1.6931689182749503,1.0,2818.61070054195,0.5347644586998195,1.2846955718521036,0.9821768738131488,0.28416609456754793,0.7415447428820272
0.0685,1.6919371307874633,1.0,2823.0321512419814,0.5373740599011986,1.284099747307349,0.9823178159587553,0.28411435949307345,0.7426254259563152
0.069,1.6907053432999763,1.0,2827.4641151110786,0.5399690218605923,1.2835038598184725,0.9824559094968146,0.284062624418599,0.7437039587628441
0.0695,1.6894735558124894,1.0,2831.9040084403305,0.5425494279353679,1.2829079325898163,0.9825912302927385,0.28401088934412455,0.7447802987173341
0.07,1.6882417683250024,1.0,2836.349239379826,0.5451153614828925,1.2823119888257224,0.9827238517020392,0.2839591542696501,0.7458544035882182
0.07050000000000001,1.6870099808375154,1.0,2840.8011220970598,0.5476668816033783,1.281716016856103,0.9828538415895494,0.28390741919517565,0.7469262941541195
0.07100000000000001,1.6857781933500284,1.0,2845.2548195459685,0.550204095820651,1.281120059810488,0.9829812710434502,0.28385568412070117,0.7479958927683281
0.07150000000000001,1.6845464058625415,1.0,2849.7082175588293,0.5527270906158849,1.2805241364611546,0.9831062064753834,0.28380394904622674,0.7490631660163378
0.07200000000000001,1.6833146183750547,1.0,2854.160675070758,0.5552359422403488,1.279928252427507,0.9832287109650475,0.2837522139717523,0.7501281042502611
0.0725,1.6820828308875677,1.0,2858.6115490532793,0.5577307269453112,1.2793324133289494,0.9833488455818511,0.28370047889727784,0.7511906979076051
