Time [s],Phi [rad],STIM [ ],Fsee [N],Gamma [ ],Lcerel [ ],q [ ],Lmtc [m],fisomrel [ ]
0.0,1.8,1.0,17.9661912044674,1.030151633385061e-05,1.3793398545533855,0.0050000282765697455,0.288653,0.5411392689649757
0.0005,1.79999375,1.0,18.27571408632913,0.005619453041768909,1.3793025022107028,0.012941353559817136,0.2886527375,0.5412296295175376
0.001,1.799975,1.0,21.617610643353537,0.011197141662066418,1.3789383808519642,0.03561015585562015,0.28865195,0.5421100239709559
0.0015,1.79994375,1.0,31.06885651648809,0.016743543860109924,1.37804623606013,0.07060386976608898,0.2886506375,0.5442635312524504
0.002,1.7999,1.0,53.582676377137936,0.022258835127129208,1.3763681129681498,0.1147204010641384,0.2886488,0.5483005214948791
0.0025,1.79984375,1.0,97.12008285325732,0.027743189970270005,1.3739351120749428,0.16457746259103248,0.28864643749999996,0.5541215942522322
0.003,1.7997750000000001,1.0,160.96015100525312,0.03319678192030515,1.3712142694865908,0.2172831022552496,0.28864354999999997,0.560586626688574
0.0035,1.79969375,1.0,237.6858520590852,0.03861978353122996,1.3685846565947961,0.2706155199183221,0.2886401375,0.566790022075562
0.004,1.7996,1.0,321.4696557196456,0.04401236639104359,1.3661560160001083,0.3229183477635651,0.2886362,0.5724801401368892
0.0045000000000000005,1.7994937500000001,1.0,409.270906294591,0.0493747011269336,1.3639227400949836,0.3730369234198639,0.2886317375,0.5776793343168336
0.005,1.799375,1.0,499.4168510572694,0.054706957396371915,1.3618582712258085,0.4202497204679574,0.28862675,0.5824572434485626
0.0055,1.79924375,1.0,590.7938944269584,0.060009303934533485,1.359938767100301,0.4641757903780486,0.2886212375,0.5868752676604443
0.006,1.7991000000000001,1.0,682.5216795704705,0.06528190849755994,1.3581463498318016,0.5046818849449582,0.2886152,0.5909795666522857
0.006500000000000001,1.79894375,1.0,773.8851491430412,0.07052493791905357,1.3564671871906226,0.5418025160784312,0.2886086375,0.5948059453329261
0.007,1.798775,1.0,864.2896160021494,0.0757385580873735,1.354890333536749,0.5756783828274458,0.28860155,0.5983828162059153
0.0075,1.79859375,1.0,953.2465112705003,0.08092293396853055,1.353406728497458,0.6065113783939872,0.2885939375,0.6017336870303699
0.008,1.7984,1.0,1040.362454508506,0.08607822960603977,1.352008587453936,0.6345333823233938,0.2885858,0.6048786809907036
0.0085,1.79819375,1.0,1125.3255247013897,0.09120460811289419,1.3506890815722572,0.659985580394214,0.2885771375,0.6078353573533379
0.009000000000000001,1.797975,1.0,1207.8911756233933,0.09630223168019199,1.3494421580928524,0.6831053873256386,0.28856795,0.6106191905210777
0.0095,1.79774375,1.0,1287.8636828418132,0.10137126099985909,1.348262501239472,0.7041187031829492,0.2885582375,0.6132437188470241
0.01,1.7975,1.0,1365.1669968134433,0.10641185826692111,1.3471443859534102,0.7232351613807155,0.288548,0.6157231355262429
0.0105,1.79724375,1.0,1439.6771983738256,0.11142418166797785,1.3460837248692914,0.7406474028113706,0.2885372375,0.6180677786371066
0.011,1.796975,1.0,1511.329654422995,0.11640838930214648,1.3450764627574388,0.7565298629199336,0.28852595000000003,0.6202877386824426
0.0115,1.79669375,1.0,1580.1158788062703,0.12136463926854421,1.3441185443881747,0.7710393488159449,0.2885141375,0.6223929445413389
0.012,1.7964,1.0,1646.0569777416158,0.12629308874864378,1.3432061653441845,0.7843162416633342,0.28850180000000003,0.6243926277734066
0.0125,1.79609375,1.0,1709.1779272518022,0.13119389395108524,1.3423359893919227,0.7964859059590322,0.2884889375,0.6262948672418795
0.013000000000000001,1.7957750000000001,1.0,1769.5017738689548,0.1360672092606941,1.341505126720833,0.8076600644883063,0.28847555,0.6281066595133538
0.0135,1.79544375,1.0,1827.0788711158077,0.1409131887711655,1.3407107356984593,0.8179380267519315,0.2884616375,0.629834804144817
0.014,1.7951000000000001,1.0,1881.9812660933028,0.1457319861353104,1.3399500502589614,0.8274080433897996,0.2884472,0.631485852451944
0.0145,1.79474375,1.0,1934.291839959809,0.1505237548814384,1.3392204643286023,0.8361485796283511,0.2884322375,0.6330659329741309
0.015,1.794375,1.0,1984.06491151747,0.15528864538226786,1.3385199169045858,0.8442295663724568,0.28841675,0.6345799293970418
0.0155,1.79399375,1.0,2031.3728882192217,0.16002680801051727,1.337846346984115,0.8517132110969198,0.2884007375,0.6360326716501561
0.016,1.7936,1.0,2076.30472836897,0.16473839313890515,1.3371976935643939,0.8586549101399746,0.2883842,0.6374289395881796
0.0165,1.7931937500000001,1.0,2118.9432970182943,0.16942354942908855,1.3365721143545033,0.865104120613183,0.2883671375,0.6387729969353928
0.017,1.792775,1.0,2159.395803165026,0.17408242724440787,1.3359676506429095,0.8711049662468284,0.28834955,0.6400693167139156
0.0175,1.7923437500000001,1.0,2197.728642580525,0.17871517252423225,1.3353828809234192,0.8766970472329386,0.2883314375,0.641321183620879
0.018000000000000002,1.7919,1.0,2234.0166439365016,0.18332193112871284,1.3348163929212642,0.8819158243277007,0.2883128,0.6425318336453879
0.0185,1.79144375,1.0,2268.343183271577,0.1879028489180008,1.3342667743616767,0.8867930998408421,0.2882936375,0.643704475630867
0.019,1.790975,1.0,2300.791881537949,0.1924580708042488,1.3337326879682192,0.8913574594616764,0.28827395,0.644842133231847
0.0195,1.79049375,1.0,2331.452789754022,0.19698774229695157,1.3332128014411813,0.8956346246602982,0.2882537375,0.6459477964149232
0.02,1.79,1.0,2360.4051633107006,0.20149200712814666,1.332705949732906,0.8996478140416992,0.288233,0.6470240784831796
0.0205,1.78949375,1.0,2387.713245390454,0.2059710064149116,1.3322111657181375,0.9034180288129908,0.2882117375,0.6480731548858297
0.021,1.788975,1.0,2413.445726897822,0.21042488127432396,1.331727482271621,0.906964255121517,0.28818995000000003,0.6490971859238884
0.021500000000000002,1.78844375,1.0,2437.6753770179616,0.2148537728234613,1.331253932268101,0.9103036850332932,0.2881676375,0.6500983174646696
0.022,1.7879,1.0,2460.473384447857,0.2192578210951423,1.33078959941906,0.9134519205966323,0.2881448,0.651078574350057
0.0225,1.78734375,1.0,2481.9116045054307,0.22363716661438002,1.3303335926259408,0.9164231393466501,0.28812143749999997,0.652039915761604
0.023,1.786775,1.0,2502.059196708232,0.2279919494119036,1.329885074615706,0.9192302492796931,0.28809755,0.6529841758475448
0.0235,1.78619375,1.0,2520.9691617048397,0.23232230552768893,1.329443385735609,0.921885041902497,0.28807313749999996,0.6539128048311824
0.024,1.7856,1.0,2538.696620906837,0.23662837100171188,1.3290078663329017,0.9243982755178232,0.2880482,0.6548272445506107
0.0245,1.78499375,1.0,2555.298638869536,0.24091028187394833,1.3285778567548376,0.9267797799858952,0.2880227375,0.6557289287321346
0.025,1.784375,1.0,2570.8340553211133,0.24516817418437412,1.3281526973486695,0.9290385495945779,0.28799675,0.6566192832359456
0.025500000000000002,1.78374375,1.0,2585.3533042360305,0.24940218153541938,1.3277318220684808,0.9311828400517097,0.2879702375,0.6574995306239593
0.026000000000000002,1.7831000000000001,1.0,2598.915169013645,0.25361244095154933,1.3273145997894171,0.9332202167447937,0.2879432,0.6583710228465998
0.0265,1.78244375,1.0,2611.5707612894935,0.2577990866224984,1.3269004828502244,0.9351576420339495,0.2879156375,0.6592349308427619
0.027,1.781775,1.0,2623.3588800760617,0.2619622490186233,1.3264890479759643,0.9370015380157558,0.28788755,0.6600921605604224
0.0275,1.7810937500000001,1.0,2634.3192123846006,0.26610205861028063,1.326079871891698,0.9387578192812066,0.2878589375,0.6609436133517024
0.028,1.7804,1.0,2644.4922570632402,0.2702186458678269,1.3256725313224869,0.9404319397318943,0.2878298,0.661790186039553
0.0285,1.77969375,1.0,2653.9192526076567,0.2743121412616188,1.3252666029933922,0.9420289345107915,0.2878001375,0.6626327709730198
0.029,1.778975,1.0,2662.6421089435385,0.2783826752620128,1.3248616636294757,0.9435534576105366,0.28776995,0.663472256071076
0.029500000000000002,1.7782437500000001,1.0,2670.6947087100048,0.28243037457644893,1.324457369299171,0.9450098251509436,0.2877392375,0.6643093606743029
0.03,1.7775,1.0,2678.1213727834115,0.2864553720731613,1.3240532848635544,0.9464020254038161,0.287708,0.6651449890597578
0.0305,1.77674375,1.0,2684.9549830341293,0.2904577951984764,1.3236490846278954,0.9477337695475848,0.2876762375,0.6659798151132825
0.031,1.775975,1.0,2691.222721789612,0.2944377685234528,1.3232444986650755,0.94900850901826,0.28764395,0.6668143943965689
0.0315,1.7751937500000001,1.0,2696.9520992531825,0.298395416619149,1.3228392570479757,0.950229451193581,0.2876111375,0.6676492796833899
0.032,1.7744,1.0,2702.170922835588,0.3023308640566235,1.3224330898494776,0.9513995796674382,0.2875778,0.6684850209506337
0.0325,1.77359375,1.0,2706.9072681022217,0.30624423540693485,1.3220257271424625,0.9525216726051067,0.2875439375,0.6693221653646948
0.033,1.772775,1.0,2711.189451335345,0.3101356552411415,1.3216168989998118,0.9535983193815591,0.28750955,0.670161257263217
0.0335,1.7719437500000002,1.0,2715.043593034913,0.3140052459945336,1.3212063574648074,0.9546319376110327,0.2874746375,0.6710027931256071
0.034,1.7711000000000001,1.0,2718.4917084729436,0.3178531273171497,1.3207938936520724,0.9556247884502291,0.2874392,0.671847186848032
0.0345,1.7702437500000001,1.0,2721.5676435329847,0.3216794318748964,1.320379192384941,0.9565789768559151,0.2874032375,0.6726950672409852
0.035,1.7693750000000001,1.0,2724.2882447847765,0.3254842775767609,1.319962094611933,0.9574964849616117,0.28736675,0.6735467411082412
0.035500000000000004,1.76849375,1.0,2726.6704662674706,0.3292677823317303,1.3195424412815684,0.9583791684380405,0.2873297375,0.6744025134560441
0.036000000000000004,1.7676,1.0,2728.7313583138775,0.3330300640487919,1.3191200733423674,0.9592287660123313,0.2872922,0.6752626874679913
0.0365,1.76669375,1.0,2730.488056935921,0.3367712406369327,1.3186948317428497,0.9600469081668754,0.2872541375,0.6761275644783058
0.037,1.765775,1.0,2731.9577737705504,0.34049143000514004,1.3182665574315355,0.9608351250969464,0.28721555,0.676997443943492
0.0375,1.76484375,1.0,2733.1577865868576,0.34419075006240113,1.317835091356945,0.9615948539978022,0.2871764375,0.6778726234123802
0.038,1.7639,1.0,2734.1054303537526,0.34786931871770305,1.3174002744675977,0.9623274457445727,0.28713679999999997,0.678753398494559
0.0385,1.76294375,1.0,2734.818088869038,0.35152725388003303,1.316961947712014,0.9630341710216378,0.28709663750000003,0.679640062827189
0.039,1.761975,1.0,2735.305302297183,0.3551646635023326,1.3165200236310701,0.9637162306400555,0.28705595,0.6805327635222794
0.0395,1.7609937500000001,1.0,2735.5860475911704,0.35878167129707966,1.3160743293759827,0.9643747510052431,0.2870147375,0.6814318185890396
0.04,1.76,1.0,2735.678120732817,0.36237839925593457,1.315624703081855,0.9650107945399692,0.286973,0.6823375216979937
0.0405,1.7589937500000001,1.0,2735.590635615003,0.3659549576370539,1.3151710619125616,0.9656253682244245,0.2869307375,0.6832500055258555
0.041,1.757975,1.0,2735.3327238392776,0.3695114566985943,1.3147133230319765,0.9662194225681023,0.28688795,0.6841694014865141
0.0415,1.75694375,1.0,2734.913531798265,0.37304800669871246,1.3142514036039736,0.9667938553611533,0.2868446375,0.6850958397096061
0.042,1.7559,1.0,2734.3422179093254,0.37656471789556506,1.3137852207924272,0.9673495151391395,0.28680079999999997,0.686029449018647
0.0425,1.75484375,1.0,2733.6279500010346,0.38006170054730876,1.3133146917612113,0.9678872043858014,0.2867564375,0.6869703569087282
0.043000000000000003,1.753775,1.0,2732.7799028510226,0.38353906491210016,1.3128397336741997,0.9684076824961211,0.28671155,0.6879186895237749
0.043500000000000004,1.75269375,1.0,2731.8072558768904,0.38699692124809604,1.312360263695267,0.9689116685198631,0.28666613750000003,0.6888745716333652
0.044,1.7516,1.0,2730.719190978288,0.3904353798134529,1.3118761989882868,0.9693998437039028,0.2866202,0.6898381266091154
0.0445,1.75049375,1.0,2729.5248905322096,0.3938545508663276,1.3113874567171333,0.9698728538499498,0.2865737375,0.6908094764006232
0.045,1.7493750000000001,1.0,2728.23353553924,0.39725454466487664,1.310893954045681,0.9703313115027666,0.28652675,0.6917887415109758
0.0455,1.74824375,1.0,2726.8471302173652,0.4006354587304989,1.3103956733757445,0.9707758011152738,0.2864792375,0.6927759118291396
0.046,1.7471,1.0,2725.378866033126,0.40399741385905125,1.3098924953725406,0.9712068733206283,0.2864312,0.6937711776523594
0.0465,1.7459437500000001,1.0,2723.835995808746,0.4073405184801187,1.3093843546465198,0.9716250534943837,0.28638263750000004,0.694774620854453
0.047,1.744775,1.0,2722.2227302553138,0.4106648751945658,1.3088712134526927,0.972030842260516,0.28633355,0.695786267539098
0.0475,1.74359375,1.0,2720.5432780454557,0.4139705866032571,1.308353034046069,0.9724247157423026,0.28628393750000003,0.696806142839872
0.048,1.7424,1.0,2718.8018452886263,0.41725775530705717,1.307829778681659,0.9728071269871196,0.2862338,0.6978342709081659
0.0485,1.74119375,1.0,2717.0026350399817,0.4205264839068305,1.3073014096144728,0.973178507295591,0.2861831375,0.6988706749010141
0.049,1.739975,1.0,2715.1498468390128,0.42377687500344174,1.3067678890995202,0.9735392674623371,0.28613195,0.699915376968828
0.0495,1.73874375,1.0,2713.247676280872,0.42700903119775535,1.306229179391812,0.9738897989349593,0.2860802375,0.7009683982430404
0.05,1.7375,1.0,2711.300314619358,0.43022305509063596,1.3056852427463574,0.9742304748973405,0.286028,0.7020297588236624
0.0505,1.73624375,1.0,2709.3119484004715,0.43341904928294805,1.3051360414181672,0.9745616512828463,0.2859752375,0.7030994777667429
0.051000000000000004,1.734975,1.0,2707.286759128737,0.4365971163755562,1.3045815376622512,0.9748836677225479,0.28592195,0.7041775730717432
0.051500000000000004,1.73369375,1.0,2705.228922964324,0.439757358969325,1.3040216937336195,0.9751968484331724,0.2858681375,0.7052640616688177
0.052000000000000005,1.7324,1.0,2703.141705970286,0.4428998565570825,1.303456480148665,0.9755015010937287,0.2858138,0.706358943417675
0.0525,1.73109375,1.0,2701.0316101986728,0.4460247389065989,1.3028858378146726,0.97579792317355,0.28575893750000003,0.7074622743982903
0.053,1.729775,1.0,2698.900584943013,0.44913210283761024,1.3023097491667859,0.9760863980971689,0.28570355000000003,0.7085740292050862
0.0535,1.72844375,1.0,2696.750406223983,0.4522220431288385,1.3017281981994766,0.9763671967823435,0.2856476375,0.7096941786074533
0.054,1.7271,1.0,2694.5828475079747,0.45529465455900553,1.301141168907216,0.9766405784070633,0.2855912,0.7108226925675879
0.0545,1.7257437500000001,1.0,2692.3996796445276,0.4583500319068331,1.300548645284476,0.9769067910150275,0.2855342375,0.7119595402349053
0.055,1.724375,1.0,2690.20267081013,0.46138826995104315,1.2999506113257275,0.9771660720849761,0.28547675,0.7131046899404412
0.0555,1.72299375,1.0,2687.993586457759,0.46440946347035755,1.2993470510254426,0.9774186490663128,0.2854187375,0.7142581091912343
0.056,1.7216,1.0,2685.774189271652,0.4674137072434981,1.2987379483780923,0.9776647398832813,0.2853602,0.7154197646646947
0.0565,1.72019375,1.0,2683.5462391279757,0.47040109604918673,1.2981232873781485,0.9779045534097796,0.28530113749999997,0.7165896222029524
0.057,1.718775,1.0,2681.311493061575,0.47337172466614524,1.2975030520200823,0.9781382899167523,0.28524155,0.7177676468071945
0.0575,1.71734375,1.0,2679.07170523716,0.4763256878730955,1.2968772262983654,0.9783661414939501,0.2851814375,0.7189538026319806
0.058,1.7159,1.0,2676.8286269278683,0.4792630804487594,1.2962457942074694,0.9785882924477229,0.2851208,0.7201480529795461
0.0585,1.71444375,1.0,2674.58400649833,0.48218399717185884,1.2956087397418656,0.978804919676384,0.2850596375,0.7213503602940878
0.059000000000000004,1.7129750000000001,1.0,2672.3395893936454,0.4850885328211156,1.2949660468960258,0.9790161930245825,0.28499795,0.7225606861560316
0.059500000000000004,1.71149375,1.0,2670.0947033029497,0.4879767231743064,1.2943177218571522,0.9792222719332024,0.2849357375,0.7237789496199489
0.06,1.71,1.0,2667.8551087762767,0.49084873528687745,1.293663711678863,0.9794233172231135,0.284873,0.7250051799840359
0.0605,1.7084937500000001,1.0,2665.6213397390616,0.49370465828827953,1.2930040113998196,0.9796194796193446,0.2848097375,0.7262393153814235
0.061,1.7069750000000001,1.0,2663.393732959599,0.4965445775939637,1.2923386178646703,0.9798109038358082,0.28474595,0.7274812898755558
0.0615,1.7054437500000001,1.0,2661.1726246470453,0.4993685786193811,1.2916675279180638,0.9799977290545371,0.2846816375,0.7287310368563951
0.062,1.7039,1.0,2658.958350455899,0.5021767467799828,1.2909907384046484,0.9801800891773034,0.2846168,0.7299884890392777
0.0625,1.70234375,1.0,2656.7512454884995,0.5049691674912201,1.2903082461690725,0.9803581130639505,0.2845514375,0.7312535784637666
0.063,1.7007750000000001,1.0,2654.551644299816,0.507745926168544,1.2896200480559845,0.9805319247582388,0.28448555,0.7325262364925039
0.0635,1.69919375,1.0,2652.3598809013597,0.5105071082274056,1.288926140910033,0.9807016437019437,0.28441913750000003,0.733806393810063
0.064,1.6976,1.0,2650.176288765151,0.5132527990832562,1.2882265215758664,0.980867384937899,0.2843522,0.7350939804218005
0.0645,1.69599375,1.0,2648.0012008290137,0.5159830841515468,1.287521186898133,0.9810292593026358,0.2842847375,0.7363889256527067
0.065,1.694375,1.0,2645.834949500756,0.5186980488477285,1.2868101337214815,0.9811873736092157,0.28421675,0.7376911581462562
0.0655,1.69274375,1.0,2643.677866663453,0.5213977785872526,1.2860933588905599,0.9813418308208322,0.2841482375,0.7390006058632568
0.066,1.6911,1.0,2641.530283680589,0.5240823587855701,1.285370859250017,0.9814927302157017,0.2840792,0.7403171960806982
0.0665,1.6894437500000001,1.0,2639.3925314018734,0.5267518748581322,1.2846426316445012,0.9816401675437476,0.2840096375,0.7416408553906021
0.067,1.687775,1.0,2637.26494016815,0.5294064122203901,1.283908672918661,0.9817842351755304,0.28393955,0.7429715096988672
0.0675,1.68609375,1.0,2635.14783981827,0.5320460562877947,1.2831689799171446,0.981925022243873,0.2838689375,0.7443090842241191
0.068,1.6844000000000001,1.0,2633.041559694404,0.5346708924757974,1.2824235494846008,0.9820626147785744,0.2837978,0.7456535034965537
0.0685,1.68269375,1.0,2630.9464286488765,0.5372810061998491,1.2816723784656776,0.9821970958346036,0.2837261375,0.747004691356786
0.069,1.680975,1.0,2628.8627750505348,0.5398764828754011,1.2809154637050237,0.982328545614129,0.28365395,0.7483625709546923
0.0695,1.67924375,1.0,2626.7911432484416,0.542457403579821,1.280152800041679,0.982457041214271,0.28358123749999997,0.7497270683316549
0.07,1.6775,1.0,2624.735205182396,0.5450237969487771,1.2793843533167533,0.9825826524927455,0.283508,0.7510981604648583
0.07050000000000001,1.67574375,1.0,2622.69153135091,0.5475758199295294,1.2786101551694726,0.9827054579609693,0.2834342375,0.7524757061111045
0.07100000000000001,1.673975,1.0,2620.659998494823,0.5501135481980665,1.2778302066190177,0.9828255270868763,0.28335995,0.7538596182717919
0.07150000000000001,1.67219375,1.0,2618.640483599686,0.5526370574303773,1.2770445086845685,0.9829429270377038,0.2832851375,0.755249809335861
0.07200000000000001,1.6704,1.0,2616.632863893008,0.5551464233024503,1.2762530623853054,0.9830577227700158,0.2832098,0.7566461910801675
0.0725,1.66859375,1.0,2614.6370168421063,0.5576417214902745,1.2754558687404087,0.9831699771156178,0.2831339375,0.7580486746698556
0.073,1.6667750000000001,1.0,2612.652820151721,0.5601230276698386,1.2746529287690587,0.9832797508635797,0.28305755,0.7594571706587321
0.0735,1.66494375,1.0,2610.6801517616527,0.5625904175171312,1.2738442434904353,0.9833871028385596,0.2829806375,0.7608715889896402
0.074,1.6631,1.0,2608.7188898445215,0.5650439667081413,1.2730298139237193,0.9834920899756282,0.2829032,0.7622918389948318
0.0745,1.6612437500000001,1.0,2606.7689128036113,0.5674837509188575,1.2722096410880908,0.9835947673917614,0.2828252375,0.7637178293963419
0.075,1.659375,1.0,2604.830099270705,0.5699098458252685,1.2713837260027296,0.9836951884541766,0.28274675,0.7651494683063628
0.0755,1.65749375,1.0,2602.902328103559,0.5723223271033632,1.2705520696868167,0.9837934048456674,0.2826677375,0.7665866632276145
