Time [s],Phi [rad],STIM [ ],Fsee [N],Gamma [ ],Lcerel [ ],q [ ],Lmtc [m],fisomrel [ ]
0.0,1.8,1.0,17.96715923511041,1.519091829831121e-05,1.379339746100122,0.005000061300105542,0.288653,0.5411395313415018
0.0005,1.79999375,1.0,18.27824052856472,0.005624315018056464,1.3793022215739383,0.012954931895473469,0.2886527375,0.5412303083835299
0.001,1.799975,1.0,21.62372902153449,0.011201976366511237,1.378937755982756,0.035635632878268805,0.28865195,0.5421115340904122
0.0015,1.79994375,1.0,31.082704895352375,0.01674835144568736,1.3780450563500422,0.07063874031506118,0.2886506375,0.5442663755398388
0.002,1.7999,1.0,53.61198719384323,0.02226361574594891,1.3763662116984947,0.11476169804662721,0.2886488,0.5483050851139155
0.0025,1.79984375,1.0,97.16906293163575,0.027747943773600934,1.3739327521532867,0.16462239215745006,0.28864643749999996,0.5541272221526425
0.003,1.7997750000000001,1.0,161.0237501469656,0.03320150905855762,1.3712118891599692,0.21732945711026116,0.28864354999999997,0.5605922619460675
0.0035,1.79969375,1.0,237.75763117838798,0.038624484153971635,1.368582445786666,0.27066162810679567,0.2886401375,0.5667952189346921
0.004,1.7996,1.0,321.54595952781375,0.04401704064700676,1.3661539951326522,0.32296299553898217,0.2886362,0.5724848592104519
0.0045000000000000005,1.7994937500000001,1.0,409.3498703549008,0.049379349164025074,1.363920886604048,0.3730793076578594,0.2886317375,0.577683636139425
0.005,1.799375,1.0,499.4973743094489,0.054711579361687475,1.3618565601880865,0.42028937544771183,0.28862675,0.5824611921200438
0.0055,1.79924375,1.0,590.8751141456984,0.06001389997421386,1.359937180323163,0.4642125054267822,0.2886212375,0.5868789101435294
0.006,1.7991000000000001,1.0,682.6029759170266,0.065286478757066,1.3581448721284792,0.5047156263033663,0.2886152,0.590982941862485
0.006500000000000001,1.79894375,1.0,773.9681133336317,0.0705294825428489,1.3564657709789711,0.5418333437519062,0.2886086375,0.594809164924642
0.007,1.798775,1.0,864.3726875729716,0.07574307722020862,1.3548889916998883,0.5757064650853609,0.28860155,0.5983858532214179
0.0075,1.79859375,1.0,953.3284178190735,0.080927427759347,1.3534054687193333,0.6065369169663588,0.2885939375,0.6017365264007282
0.008,1.7984,1.0,1040.439973697754,0.08608269817734024,1.3520074461635079,0.6345566105692454,0.2885858,0.6048812431296081
0.0085,1.79819375,1.0,1125.4003856130557,0.09120905162137673,1.3506880218399309,0.6600066879168791,0.2885771375,0.6078377274808552
0.009000000000000001,1.797975,1.0,1207.9648322917797,0.09630665025162001,1.3494411516736273,0.6831245624942598,0.28856795,0.6106214334088298
0.0095,1.79774375,1.0,1287.9536950948634,0.10137565544068386,1.3482613101442735,0.7041360127653621,0.2885582375,0.6132463643386292
0.01,1.7975,1.0,1365.2275757060445,0.10641622706738355,1.3471436073595044,0.7232510959872781,0.288548,0.6157248592775197
0.0105,1.79724375,1.0,1439.7248678972144,0.11142852553566972,1.346083128257229,0.7406619964914116,0.2885372375,0.6180690954581964
0.011,1.796975,1.0,1511.3942316399252,0.11641270947684226,1.345075673929178,0.7565430804639177,0.28852595000000003,0.6202894746885319
0.0115,1.79669375,1.0,1580.1929005224292,0.12136893568087763,1.3441176242547477,0.7710513571999857,0.2885141375,0.6223949638943505
0.012,1.7964,1.0,1646.1258586728309,0.12629736093775218,1.343205359113334,0.7843272702395258,0.28850180000000003,0.624394392461376
0.0125,1.79609375,1.0,1709.2256388009,0.13119814142052943,1.3423354413494375,0.7964961152941548,0.2884889375,0.6262960637630288
0.013000000000000001,1.7957750000000001,1.0,1769.5508266177621,0.13607143315860795,1.341504572960024,0.8076694351184294,0.28847555,0.628107865584795
0.0135,1.79544375,1.0,1827.1415773541605,0.14091738973874365,1.340710039046676,0.8179465900852078,0.2884616375,0.6298363178979992
0.014,1.7951000000000001,1.0,1882.046085393775,0.14573616388089722,1.33994934071333,0.8274159255189952,0.2884472,0.631487390779886
0.0145,1.79474375,1.0,1934.3367822113562,0.15052790830502932,1.339219979063923,0.8361559293344578,0.2884322375,0.633066982792958
0.015,1.794375,1.0,1984.0931640511458,0.1552927745534075,1.3385196156974233,0.844236422210948,0.28841675,0.6345805796813421
0.0155,1.79399375,1.0,2031.4109174990492,0.1600309146975931,1.3378459462940073,0.8517195296642189,0.2884007375,0.6360335349894986
0.016,1.7936,1.0,2076.3541814939836,0.16474247749708307,1.3371971781779561,0.8586607358073156,0.2883842,0.6374300479235451
0.0165,1.7931937500000001,1.0,2118.9999064322847,0.16942761162604922,1.3365715303536667,0.8651095118240913,0.2883671375,0.6387742504955064
0.017,1.792775,1.0,2159.436334806706,0.17408646560710292,1.3359672364397488,0.8711100293773245,0.28834955,0.6400702042061159
0.0175,1.7923437500000001,1.0,2197.7493509197097,0.17871918663148167,1.3353826711528336,0.8767018211756362,0.2883314375,0.6413216323035404
0.018000000000000002,1.7919,1.0,2234.0414740740625,0.18332592337391257,1.3348161434491002,0.88192027100165,0.2883128,0.6425323663452538
0.0185,1.79144375,1.0,2268.3788638563055,0.18790682003250844,1.3342664185966497,0.886797230001698,0.2882936375,0.6437052340515604
0.019,1.790975,1.0,2300.834921272136,0.19246202080538224,1.333732261863583,0.891361308146593,0.28827395,0.6448430401512019
0.0195,1.79049375,1.0,2331.4896911130577,0.1969916698906468,1.333212438518001,0.8956382461233119,0.2882537375,0.6459485676558908
0.02,1.79,1.0,2360.4242073396067,0.20149591070689463,1.332705763587614,0.8996512522363648,0.288233,0.6470244734553019
0.0205,1.78949375,1.0,2387.720022387441,0.2059748866109479,1.3322110998563859,0.9034212863979977,0.2882117375,0.6480732944266914
0.021,1.788975,1.0,2413.4573724117904,0.21042874069435355,1.3317273697005636,0.9069673115574554,0.28818995000000003,0.6490974240801837
0.021500000000000002,1.78844375,1.0,2437.6962021538416,0.21485761225216762,1.3312537319656057,0.9103065472647033,0.2881676375,0.6500987406213605
0.022,1.7879,1.0,2460.4999075067835,0.21926164057944614,1.330789345496971,0.9134546100052807,0.2881448,0.651079110030885
0.0225,1.78734375,1.0,2481.93504985867,0.22364096497124522,1.330333369140118,0.9164256846007902,0.28812143749999997,0.65204038658335
0.023,1.786775,1.0,2502.071086122592,0.2279957247226209,1.3298849617405055,0.9192326752899674,0.28809755,0.6529844133209988
0.0235,1.78619375,1.0,2520.9664174779423,0.23232605609226253,1.329443411690771,0.9218873617334484,0.28807313749999996,0.6539127502982947
0.024,1.7856,1.0,2538.696500605204,0.23663210044987967,1.3290078674667463,0.9244004690053901,0.2880482,0.6548272421715049
0.0245,1.78499375,1.0,2555.310339262182,0.24091399243712167,1.328577746837428,0.9267818416110954,0.2880227375,0.6557291590664511
0.025,1.784375,1.0,2570.856049033586,0.24517186607165437,1.3281524913578,0.9290404907287003,0.28799675,0.6566197143356792
0.025500000000000002,1.78374375,1.0,2585.383229178207,0.2494058553711436,1.3277315425828455,0.9311846726337126,0.2879702375,0.6575001147840195
0.026000000000000002,1.7831000000000001,1.0,2598.9428359519616,0.2536160943532552,1.327314342067548,0.933221962195587,0.2879432,0.658371560831914
0.0265,1.78244375,1.0,2611.587062845168,0.25780271703565505,1.3269003313668912,0.935159318321872,0.2879156375,0.6592352466588542
0.027,1.781775,1.0,2623.3582383501207,0.2619658538144314,1.3264890539258436,0.9370031565379879,0.28788755,0.6600921481715804
0.0275,1.7810937500000001,1.0,2634.3131862129694,0.2661056413868629,1.3260799276481232,0.9387593692100665,0.2878589375,0.6609434974011312
0.028,1.7804,1.0,2644.492211929855,0.2702222104283122,1.3256725317392737,0.9404334114226895,0.2878298,0.6617901851738897
0.0285,1.77969375,1.0,2653.929588708921,0.27431568919618593,1.325266507713807,0.9420303274122357,0.2878001375,0.6626329686213772
0.029,1.778975,1.0,2662.660205534321,0.27838620594789076,1.324861497086236,0.943554779443063,0.28776995,0.6634726011189078
0.029500000000000002,1.7782437500000001,1.0,2670.7195128184007,0.2824338889408332,1.3244571413710728,0.9450110816641853,0.2877392375,0.664309832312856
0.03,1.7775,1.0,2678.1434709028385,0.28645886643242,1.3240530820828298,0.9464032305605196,0.287708,0.6651454081397283
0.0305,1.77674375,1.0,2684.9685014095,0.2904612666800578,1.3236489607360196,0.9477349323782893,0.2876762375,0.665980070837036
0.031,1.775975,1.0,2691.2253735676163,0.29444121541130763,1.3232444743906133,0.9490096341272043,0.28764395,0.666814444438572
0.0315,1.7751937500000001,1.0,2696.948083566018,0.2983988410427589,1.3228392937686626,0.9502305366864483,0.2876111375,0.6676492040782882
0.032,1.7744,1.0,2702.169018557747,0.3023342703464508,1.3224331072459568,0.9514006193132551,0.2875778,0.6684849851776702
0.0325,1.77359375,1.0,2706.9117565755996,0.3062476257789107,1.3220256861740476,0.9525226648286342,0.2875439375,0.6693222495029778
0.033,1.772775,1.0,2711.2000974539947,0.3101390297966658,1.3216168019044863,0.9535992669052087,0.28750955,0.6701614564181455
0.0335,1.7719437500000002,1.0,2715.058041049548,0.3140086048562435,1.3212062257888244,0.9546328451979278,0.2874746375,0.6710030628651109
0.034,1.7711000000000001,1.0,2718.5097666195975,0.3178564734141709,1.3207937291786134,0.955625659092779,0.2874392,0.6718475233408114
0.0345,1.7702437500000001,1.0,2721.5796133610997,0.32168275792697537,1.3203790834254046,0.9565798202143468,0.2874032375,0.6726952898708471
0.035,1.7693750000000001,1.0,2724.289101633238,0.3254875781259767,1.3199620868160586,0.957497306039463,0.28736675,0.6735467570163041
0.035500000000000004,1.76849375,1.0,2726.6580779215737,0.32927105337262347,1.3195425539454908,0.9583799695516576,0.2873297375,0.6744022838583964
0.036000000000000004,1.7676,1.0,2728.715102994655,0.3330333127228399,1.319120221118105,0.9592295411385874,0.2872922,0.6752623867140681
0.0365,1.76669375,1.0,2730.4746630663767,0.33677447217238665,1.3186949534661825,0.9600476535816378,0.2872541375,0.6761273170764917
0.037,1.765775,1.0,2731.951314002432,0.3404946477170245,1.3182666161220036,0.9608358392278332,0.28721555,0.6769973248158457
0.0375,1.76484375,1.0,2733.1596734176733,0.34419395535251396,1.317835074217849,0.9615955372877729,0.2871764375,0.6778726581534897
0.038,1.7639,1.0,2734.1144131761403,0.34787251107461575,1.317400192886,0.9623281005255719,0.28713679999999997,0.678753563634981
0.0385,1.76294375,1.0,2734.830252295489,0.3515304308790905,1.3169618372587368,0.963034801397569,0.28709663750000003,0.6796402861019325
0.039,1.761975,1.0,2735.3219502529296,0.35516783076169894,1.3165198724683402,0.963716837690737,0.28705595,0.6805330686627094
0.0395,1.7609937500000001,1.0,2735.6043006965506,0.3587848267182016,1.3160741636470914,0.9643753377065363,0.2870147375,0.6814321526619633
0.04,1.76,1.0,2735.6921255582856,0.36238153474435925,1.3156245759272704,0.9650113650313306,0.286973,0.6823377776490137
0.0405,1.7589937500000001,1.0,2735.59212442333,0.3659580586440502,1.3151710483949315,0.9656259272446539,0.2869307375,0.6832500326965554
0.041,1.757975,1.0,2735.323613104003,0.36951452481828684,1.3147134057568453,0.9662199695208837,0.28688795,0.6841692354493855
0.0415,1.75694375,1.0,2734.8999742525953,0.3730510505320612,1.314251526715068,0.9667943875847733,0.2868446375,0.6850955929759212
0.042,1.7559,1.0,2734.328988133668,0.3765677441940715,1.3137853409397087,0.9673500307906504,0.28680079999999997,0.6860292085821136
0.0425,1.75484375,1.0,2733.618444121544,0.38006471421301585,1.3133147781008758,0.9678877024035768,0.2867564375,0.6869701843864763
0.043000000000000003,1.753775,1.0,2732.7761386675406,0.3835420689975924,1.312839767868678,0.9684081625644546,0.28671155,0.687918621300611
0.043500000000000004,1.75269375,1.0,2731.809873378226,0.3869999169564993,1.312360239913224,0.9689121310355268,0.28666613750000003,0.688874619009417
0.044,1.7516,1.0,2730.727453201627,0.3904383664984347,1.3118761239046226,0.9694002897445788,0.2866202,0.6898382759509838
0.0445,1.75049375,1.0,2729.5366847250134,0.3938575260320969,1.3113873495129822,0.9698732851444573,0.2865737375,0.690809689296173
0.045,1.7493750000000001,1.0,2728.2453745805374,0.3972575039661839,1.310893846408412,0.9703317304030011,0.28652675,0.6917889549278788
0.0455,1.74824375,1.0,2726.86132796186,0.400638408709394,1.31039554426102,0.9707762074371168,0.2864792375,0.6927761674199783
0.046,1.7471,1.0,2725.3923472496513,0.4040003486704253,1.3098923727409155,0.9712072688034957,0.2864312,0.6937714200159614
0.0465,1.7459437500000001,1.0,2723.8462307473833,0.4073434322579759,1.309384261518207,0.9716254394573616,0.28638263750000004,0.6947748046072504
0.047,1.744775,1.0,2722.2265300043755,0.41066775618017237,1.3088711788682872,0.9720312196447889,0.28633355,0.6957863356649061
0.0475,1.74359375,1.0,2720.5412585506615,0.4139734368414142,1.3083530524327092,0.9724250847917343,0.28628393750000003,0.6968061066818587
0.048,1.7424,1.0,2718.796667342789,0.4172605831547494,1.3078298258397603,0.9728074874079908,0.2862338,0.6978341783273689
0.0485,1.74119375,1.0,2716.9964839382505,0.42052929588378846,1.3073014656541342,0.9731788588494275,0.2861831375,0.6988705650727711
0.049,1.739975,1.0,2715.144432850833,0.42377967579214176,1.3067679384405257,0.9735396099713114,0.28613195,0.6999152804367023
0.0495,1.73874375,1.0,2713.2442351842014,0.42701182364341994,1.3062292107636286,0.9738901322865532,0.2860802375,0.7009683369741235
0.05,1.7375,1.0,2711.299608289951,0.43022584020123333,1.3056852491881372,0.9742307990483554,0.286028,0.7020297462652629
0.0505,1.73624375,1.0,2709.314265449973,0.43342182622919256,1.3051360202787459,0.9745619662628325,0.2859752375,0.7030995189044924
0.051000000000000004,1.734975,1.0,2707.2919155843747,0.436599882490908,1.3045814906001485,0.9748839736367251,0.28592195,0.7041776644891315
0.051500000000000004,1.73369375,1.0,2705.2362629833847,0.4397601097499901,1.3040216267170395,0.9751971454649003,0.2858681375,0.7052641916081797
0.052000000000000005,1.7324,1.0,2703.1510070647437,0.44290260877004944,1.303456395194113,0.9755017914619681,0.2858138,0.7063591078309769
0.0525,1.73109375,1.0,2701.0398421555456,0.4460274803146964,1.3028857625960633,0.9757982075419838,0.28575893750000003,0.7074624196957947
0.053,1.729775,1.0,2698.9064572986426,0.4491348251475416,1.3023096954875844,0.9760866765499051,0.28570355000000003,0.7085741326983547
0.0535,1.72844375,1.0,2696.750784795946,0.4522247427709617,1.3017281947375694,0.9763674709401117,0.2856476375,0.7096941852691563
0.054,1.7271,1.0,2694.575467181775,0.45529732900643743,1.3011412364248887,0.9766408494632097,0.2855912,0.7108225628969684
0.0545,1.7257437500000001,1.0,2692.385566197365,0.45835268040309485,1.3005487744513897,0.9769070584814501,0.2855342375,0.7119592926523204
0.055,1.724375,1.0,2690.1845809842516,0.46139089349768475,1.2999507769522924,0.977166334709118,0.28547675,0.7131043731049621
0.0555,1.72299375,1.0,2687.967446848259,0.46441206454060363,1.299347290452603,0.9774189094725421,0.2854187375,0.7142576521003983
0.056,1.7216,1.0,2685.7515365690615,0.4674162895361338,1.2987381559523858,0.9776649923426328,0.2853602,0.7154193691905868
0.0565,1.7201937629198623,1.0,2683.527938579156,0.47040366314142656,1.298123460976508,0.9779047983531565,0.28530113804263424,0.7165892921409073
0.057,1.7187818312477225,1.0,2681.6123811768844,0.4733742797524512,1.2975033777509477,0.9781385385298998,0.28524183691240435,0.7177670287843652
0.0575,1.717369899575583,1.0,2680.2615274313484,0.47632823347903475,1.2968781206503166,0.9783664176694152,0.28518253578217445,0.7189521093084696
0.058,1.7159579679034433,1.0,2679.4248633633406,0.4792656181874653,1.2962481491845175,0.9785886460862331,0.2851232346519446,0.720143603650344
0.0585,1.7145460362313036,1.0,2679.0622804971163,0.48218652642319093,1.2956138291307926,0.9788054203672688,0.2850639335217148,0.7213407653910413
0.059000000000000004,1.713134104559164,1.0,2679.1361658492197,0.4850910504888728,1.294975504691514,0.9790169281186604,0.2850046323914849,0.7225428942346515
0.059500000000000004,1.7117221728870242,1.0,2679.619047275006,0.4879792798383438,1.2943334280565497,0.9792233443275109,0.284945331261255,0.7237494678841833
0.06,1.7103102412148845,1.0,2680.4617179828692,0.49085131057548587,1.2936880515819014,0.9794248485940451,0.28488603013102515,0.7249595929784007
0.0605,1.7088983095427448,1.0,2681.634647513267,0.49370723365797575,1.2930396476283643,0.9796216035345334,0.2848267290007953,0.7261727197635335
0.061,1.7074863778706053,1.0,2683.1160199238284,0.49654713787317795,1.292388418186849,0.9798137616485559,0.2847674278705654,0.7273884340248479
0.0615,1.7060744461984656,1.0,2684.884050662621,0.4993711120084571,1.2917345652482655,0.9800014696732617,0.2847081267403355,0.7286063247430024
0.062,1.704662514526326,1.0,2686.9169743664092,0.5021792448511777,1.2910782908035239,0.9801848688502497,0.2846488256101057,0.7298259841291428
0.0625,1.7032505828541862,1.0,2689.1930335637685,0.5049716251887045,1.2904197968435347,0.9803640951782091,0.28458952447987584,0.731047007657398
0.063,1.7018386511820465,1.0,2691.6904682828485,0.5077483418084019,1.289759285359208,0.9805392796521741,0.28453022334964595,0.732268994094774
0.0635,1.7004267195099068,1.0,2694.387506563859,0.5105094834976346,1.2890969583414535,0.9807105484901936,0.28447092221941606,0.7334915455284434
0.064,1.699014787837767,1.0,2697.270312119306,0.5132551353824653,1.2884329450310943,0.9808780193949364,0.2844116210891862,0.7347144012139342
0.0645,1.6976028561656276,1.0,2700.316067968199,0.5159853889705234,1.287767456645763,0.9810418104220718,0.2843523199589564,0.7359371520906532
0.065,1.6961909244934879,1.0,2703.5122690291464,0.5187003298271013,1.2871006098916835,0.9812020302976099,0.2842930188287265,0.7371595656882123
0.0655,1.6947789928213481,1.0,2706.848396397551,0.5214000424208797,1.2864325031889539,0.981358782924714,0.2842337176984966,0.7383814448881056
0.066,1.6933670611492084,1.0,2710.313915712084,0.524084611220539,1.2857632349576715,0.981512168563362,0.28417441656826675,0.7396025942172405
0.0665,1.6919551294770687,1.0,2713.898274512544,0.5267541206947597,1.2850929036179346,0.9816622839866266,0.2841151154380369,0.7408228198555327
0.067,1.690543197804929,1.0,2717.5908998126715,0.5294086553122227,1.2844216075898411,0.9818092226292098,0.284055814307807,0.7420419296428904
0.0675,1.6891312661327893,1.0,2721.3811958880606,0.5320482995416083,1.2837494452934888,0.981953074728666,0.2839965131775771,0.7432597330855786
0.068,1.6877193344606498,1.0,2725.2585422780817,0.5346731378515972,1.2830765151489754,0.9820939274597248,0.2839372120473473,0.744476041361964
0.0685,1.68630740278851,1.0,2729.221380780253,0.5372832448551207,1.2824028329585637,0.98223186051342,0.28387791091711745,0.7456908161255662
0.069,1.6848954711163704,1.0,2733.2507823603823,0.5398787176133144,1.2817285722989677,0.9823669597595617,0.28381860978688755,0.7469037358111776
0.0695,1.6834835394442307,1.0,2737.34183258144,0.5424596362933047,1.281053779055209,0.9824993012017229,0.28375930865665766,0.7481147107104138
0.07,1.682071607772091,1.0,2741.490193467926,0.5450260803617398,1.2803784937649985,0.9826289580448265,0.2837000075264278,0.7493236614606846
0.07050000000000001,1.6806596760999513,1.0,2745.6915152152064,0.5475781292852676,1.2797027569660464,0.982756001096427,0.283640706396198,0.7505305093928342
0.07100000000000001,1.6792477444278116,1.0,2749.9414357652886,0.5501158625305361,1.2790266091960634,0.9828804988624725,0.2835814052659681,0.7517351765323576
0.07150000000000001,1.677835812755672,1.0,2754.2355804197923,0.5526393595641933,1.2783500909927594,0.9830025176386371,0.2835221041357382,0.7529375856005183
0.07200000000000001,1.6764238810835324,1.0,2758.569561488233,0.5551486998528871,1.2776732428938453,0.9831221215974528,0.28346280300550836,0.7541376600153559
0.0725,1.6750119494113926,1.0,2762.9389779735634,0.5576439628632653,1.2769961054370311,0.9832393728714649,0.2834035018752785,0.755335323892593
0.073,1.673600017739253,1.0,2767.3394152935575,0.5601252280619764,1.2763187191600278,0.9833543316326144,0.2833442007450486,0.7565305020464339
0.0735,1.6721880860671132,1.0,2771.766445039584,0.562592574915668,1.2756411246005455,0.9834670561680438,0.28328489961481873,0.7577231199902633
