Time [s],Phi [rad],STIM [ ],Fsee [N],Gamma [ ],Lcerel [ ],q [ ],Lmtc [m],fisomrel [ ]
0.0,1.8,1.0,17.966823769968105,1.5140454679738922e-05,1.3793397836836112,0.005000060895113855,0.288653,0.5411394404173184
0.0005,1.79999375,1.0,18.27791904279509,0.0056242648374989854,1.3793022572834446,0.012954792354130742,0.2886527375,0.5412302220015421
0.001,1.799975,1.0,21.623388173666495,0.011201926467426916,1.3789377907911815,0.03563537202266575,0.28865195,0.542111449969065
0.0015,1.79994375,1.0,31.082286288334114,0.01674830182649754,1.3780450920063148,0.07063838404272352,0.2886506375,0.5442662895725032
0.002,1.7999,1.0,53.6114036393396,0.022263566405083444,1.3763662495461546,0.1147612763307281,0.2886488,0.5483049942683728
0.0025,1.79984375,1.0,97.16828138314145,0.027747894709498747,1.3739327898046036,0.16462193297367475,0.28864643749999996,0.5541271323627108
0.003,1.7997750000000001,1.0,161.02283858430718,0.03320146026966623,1.3712119232737259,0.21732898275476326,0.28864354999999997,0.5605921811843797
0.0035,1.79969375,1.0,237.75666196503695,0.03862443563874729,1.3685824756363663,0.27066115573443916,0.2886401375,0.5667951487683912
0.004,1.7996,1.0,321.54496909534,0.044016992403914434,1.3661540213622152,0.32296253771862315,0.2886362,0.5724847979600717
0.0045000000000000005,1.7994937500000001,1.0,409.3488746889692,0.04937930119153845,1.3639209099737921,0.37307887274681695,0.2886317375,0.5776835819000227
0.005,1.799375,1.0,499.49638311105264,0.05471153165829061,1.361856581249212,0.42028896829798157,0.28862675,0.5824611435160472
0.0055,1.79924375,1.0,590.8741315052383,0.060013852538392184,1.3599371995202065,0.46421212829944114,0.2886212375,0.5868788660763745
0.006,1.7991000000000001,1.0,682.6020089462463,0.06528643158732053,1.3581448897043478,0.5047152795623542,0.2886152,0.5909829017176677
0.006500000000000001,1.79894375,1.0,773.9671556714004,0.07052943563761413,1.3564657873259816,0.541833026695058,0.2886086375,0.5948091277616967
0.007,1.798775,1.0,864.3718471344474,0.07574303057823811,1.3548890052749845,0.5757061750872065,0.28860155,0.5983858224965946
0.0075,1.79859375,1.0,953.32785965301,0.0809273813789966,1.3534054773041218,0.6065366506738091,0.2885939375,0.6017365070518045
0.008,1.7984,1.0,1040.4392879776497,0.08608265205643839,1.352007456258961,0.634556369827192,0.2885858,0.6048812204658662
0.0085,1.79819375,1.0,1125.3992829261401,0.09120900576040794,1.3506880374493297,0.6600064727885612,0.2885771375,0.6078376925699538
0.009000000000000001,1.797975,1.0,1207.963786929388,0.09630660465006602,1.3494411659568826,0.6831243667899946,0.28856795,0.6106214015774696
0.0095,1.79774375,1.0,1287.952836762004,0.10137561008629664,1.3482613215020431,0.704135833617584,0.2885582375,0.6132463391124061
0.01,1.7975,1.0,1365.226455687555,0.10641618198028553,1.3471436217544537,0.7232509348468835,0.288548,0.6157248274081658
0.0105,1.79724375,1.0,1439.7260426403584,0.11142848081378907,1.3460831135547537,0.7406618358528417,0.2885372375,0.6180691279089523
0.011,1.796975,1.0,1511.3944283997996,0.11641266491350556,1.3450756715257284,0.7565429390827183,0.28852595000000003,0.6202894799778942
0.0115,1.79669375,1.0,1580.1914860308186,0.12136889124665465,1.3441176411526503,0.771051236400727,0.2885141375,0.6223949268097442
0.012,1.7964,1.0,1646.1251061932776,0.12629731678045591,1.3432053679207927,0.784327156461143,0.28850180000000003,0.6243943731835246
0.0125,1.79609375,1.0,1709.226939322533,0.13119809760308926,1.3423354264110001,0.7964960012842865,0.2884889375,0.626296096377547
0.013000000000000001,1.7957750000000001,1.0,1769.5522138165645,0.13607138972375177,1.341504557299926,0.8076693301176819,0.28847555,0.6281078996919055
0.0135,1.79544375,1.0,1827.1356323848906,0.14091734640533038,1.3407101050933947,0.817946524612124,0.2884616375,0.6298361743853569
0.014,1.7951000000000001,1.0,1882.0344780380035,0.1457361206578095,1.3399494677725594,0.8274158885776696,0.2884472,0.6314871153098011
0.0145,1.79474375,1.0,1934.3244581813815,0.15052786498024376,1.3392201121322727,0.8361558984524824,0.2884322375,0.6330666949138022
0.015,1.794375,1.0,1984.090861901662,0.1552927319510089,1.338519640241121,0.8442363588413102,0.28841675,0.63458052669331
0.0155,1.79399375,1.0,2031.4092107017352,0.16003087248641046,1.3378459642773546,0.8517194692957899,0.2884007375,0.6360334962420423
0.016,1.7936,1.0,2076.347806442751,0.16474243544817305,1.3371972446165863,0.8586606952309521,0.2883842,0.6374299050477745
0.0165,1.7931937500000001,1.0,2118.9891195080295,0.16942756969802134,1.3365716416344289,0.8651094883080257,0.2883671375,0.6387740116310765
0.017,1.792775,1.0,2159.423925161552,0.17408642362834262,1.3359673632566578,0.8711100127436683,0.28834955,0.6400699324820439
0.0175,1.7923437500000001,1.0,2197.741632990619,0.17871914511354503,1.3353827493335173,0.8767017933109481,0.2883314375,0.6413214650812855
0.018000000000000002,1.7919,1.0,2234.036628938853,0.18332588220853838,1.3348161921288009,0.8819202377272811,0.2883128,0.6425322623991387
0.0185,1.79144375,1.0,2268.3754504782914,0.18790677913808373,1.3342664526307393,0.8867971954588975,0.2882936375,0.6437051614976459
0.019,1.790975,1.0,2300.8318946742525,0.19246198012694238,1.3337322918275643,0.891361275004293,0.28827395,0.6448429763760253
0.0195,1.79049375,1.0,2331.4864181316902,0.19699162939987544,1.3332124707075068,0.8956382157618586,0.2882537375,0.6459484992506344
0.02,1.79,1.0,2360.421035716048,0.20149587048334022,1.3327057945885015,0.8996512236962109,0.288233,0.6470244076761285
0.0205,1.78949375,1.0,2387.716445421823,0.20597484655484924,1.332211134618854,0.9034212605732153,0.2882117375,0.6480732207756812
0.021,1.788975,1.0,2413.45361619742,0.21042870083375356,1.331727406009882,0.9069672877753643,0.28818995000000003,0.6490973472638868
0.021500000000000002,1.78844375,1.0,2437.69244461562,0.21485757260706462,1.331253768106689,0.9103065250155733,0.2881676375,0.650098664270153
0.022,1.7879,1.0,2460.4962769643435,0.21926160116179383,1.3307893802543789,0.9134545889240867,0.2881448,0.6510790367057524
0.0225,1.78734375,1.0,2481.931623787086,0.22364092578495262,1.3303334017980555,0.9164256644509927,0.28812143749999997,0.6520403177822847
0.023,1.786775,1.0,2502.0678900911166,0.2279956857635524,1.3298849920828224,0.9192326559491069,0.28809755,0.6529843494850645
0.0235,1.78619375,1.0,2520.9634305374852,0.23232601734466027,1.3294434399415573,0.9218873431668985,0.28807313749999996,0.6539126909421987
0.024,1.7856,1.0,2538.6937196078898,0.2366320619212095,1.329007893677691,0.9244004511646191,0.2880482,0.6548271871740088
0.0245,1.78499375,1.0,2555.3077403585717,0.2409139541284686,1.3285777712523779,0.9267818244827232,0.2880227375,0.6557291079044008
0.025,1.784375,1.0,2570.8536133657185,0.24517182798238935,1.3281525141699735,0.9290404742911854,0.28799675,0.6566196665941497
0.025500000000000002,1.78374375,1.0,2585.380942983021,0.2494058174989234,1.3277315639348337,0.9311846568582761,0.2879702375,0.6575000701557016
0.026000000000000002,1.7831000000000001,1.0,2598.9406906509644,0.2536160566940225,1.3273143620513144,0.9332219470470327,0.2879432,0.6583715191165214
0.0265,1.78244375,1.0,2611.585055122112,0.2578026795836384,1.3269003500237713,0.9351593037593148,0.2879156375,0.6592352077625505
0.027,1.781775,1.0,2623.3563717297243,0.2619658165741172,1.3264890712325594,0.9370031425187006,0.28788755,0.6600921121355253
0.0275,1.7810937500000001,1.0,2634.311367717256,0.2661056043347601,1.3260799444735478,0.9387593558178926,0.2878589375,0.6609434624111223
0.028,1.7804,1.0,2644.490470608168,0.2702221735802469,1.3256725478196172,0.940433398584763,0.2878298,0.6617901517751249
0.0285,1.77969375,1.0,2653.9279414150524,0.27431565256212836,1.3252665228987734,0.9420303150749931,0.2878001375,0.6626329371216253
0.029,1.778975,1.0,2662.6586568238295,0.2783861695319551,1.3248615113390234,0.943554767570564,0.28776995,0.6634725715896861
0.029500000000000002,1.7782437500000001,1.0,2670.718054863821,0.2824338527412779,1.3244571547683732,0.9450110702365939,0.2877392375,0.6643098045905993
0.03,1.7775,1.0,2678.1420834248033,0.28645883044164744,1.3240530948148297,0.9464032195727197,0.287708,0.6651453818269484
0.0305,1.77674375,1.0,2684.967151622696,0.29046123088461445,1.323648973106399,0.9477349218386315,0.2876762375,0.6659800453034868
0.031,1.775975,1.0,2691.2240873525157,0.29444117983813206,1.3232444861646668,0.9490096239882136,0.28764395,0.6668144201662645
0.0315,1.7751937500000001,1.0,2696.946634248172,0.2983988056209086,1.3228393070216806,0.9502305271612377,0.2876111375,0.66764917679133
0.032,1.7744,1.0,2702.167443359868,0.30233423510641944,1.3224331216361396,0.9514006103374829,0.2875778,0.6684849555866532
0.0325,1.77359375,1.0,2706.910081115589,0.3062475907415608,1.3220257014667578,0.9525226563517762,0.2875439375,0.6693222180957992
0.033,1.772775,1.0,2711.1983356858436,0.31013899497322905,1.3216168179722494,0.9535992588895826,0.28750955,0.6701614234611128
0.0335,1.7719437500000002,1.0,2715.056195215101,0.3140085702483206,1.3212062426113282,0.9546328376177885,0.2874746375,0.6710030284040578
0.034,1.7711000000000001,1.0,2718.5078272107166,0.31785643901373156,1.3207937468427082,0.9556256519334859,0.2874392,0.6718474872022208
0.0345,1.7702437500000001,1.0,2721.577559090384,0.3216827237163584,1.3203791021251035,0.9565798134715969,0.2874032375,0.6726952516629864
0.035,1.7693750000000001,1.0,2724.287182520909,0.3254875442737814,1.3199621042767429,0.9574972994899659,0.28736675,0.6735467213864755
0.035500000000000004,1.76849375,1.0,2726.6562622202678,0.32927101961983485,1.319542570458131,0.9583799631515688,0.2873297375,0.6744022502073037
0.036000000000000004,1.7676,1.0,2728.713388278508,0.33303327909353214,1.319120236706471,0.9592295348874029,0.2872922,0.6752623549885395
0.0365,1.76669375,1.0,2730.473046639308,0.33677443868725304,1.3186949681562732,0.9600476474782299,0.2872541375,0.6761272872189796
0.037,1.765775,1.0,2731.9497928999876,0.3404946143933774,1.3182666299420478,0.9608358332705379,0.28721555,0.6769972967644503
0.0375,1.76484375,1.0,2733.158244408498,0.34419392220428513,1.3178350871983049,0.9615955314744656,0.2871764375,0.6778726318419832
0.038,1.7639,1.0,2734.1130727641394,0.347872478112356,1.3174002050595546,0.9623280948537344,0.28713679999999997,0.6787535389928339
0.0385,1.76294375,1.0,2734.8289967211613,0.35153039810996983,1.316961848660307,0.9630347958643495,0.28709663750000003,0.6796402630543389
0.039,1.761975,1.0,2735.3207754955615,0.3551677981895065,1.3165198831350722,0.9637168322930023,0.28705595,0.680533047130613
0.0395,1.7609937500000001,1.0,2735.6032024758174,0.3587847943433458,1.3160741736183603,0.9643753324409172,0.2870147375,0.6814321325620875
0.04,1.76,1.0,2735.6910993359666,0.36238150256386764,1.3156245852446817,0.9650113598942646,0.286973,0.6823377588938859
0.0405,1.7589937500000001,1.0,2735.594190686882,0.3659580376394004,1.3151710296343047,0.9656259217969406,0.2869307375,0.6832500704057789
0.041,1.757975,1.0,2735.328117184134,0.3695145119599679,1.314713364860081,0.9662199637139438,0.28688795,0.6841693175333083
0.0415,1.75694375,1.0,2734.9037045094065,0.37305103732688716,1.314251492841945,0.9667943824327165,0.2868446375,0.6850956608629112
0.042,1.7559,1.0,2734.3283854157894,0.37656772523703247,1.313785346413347,0.9673500280831403,0.28680079999999997,0.6860291976283666
0.0425,1.75484375,1.0,2733.6095611208,0.3800646871852511,1.313314858783215,0.967887704666816,0.2867564375,0.6869700231685396
0.043000000000000003,1.753775,1.0,2732.755657651172,0.38354203382760316,1.3128399539221027,0.9684081721114803,0.28671155,0.6879182500957164
0.043500000000000004,1.752695248328708,1.0,2731.8635952201803,0.38699987592941354,1.3123604284754466,0.9689121397820152,0.28666620042980573,0.6888742433757507
0.044,1.7516138686406033,1.0,2731.3658508558524,0.390438322114547,1.3118765860115789,0.9694003194989129,0.28662078248290535,0.6898373568168439
0.0445,1.7505324889524987,1.0,2731.3098222279395,0.39385748100686846,1.311388730098832,0.9698733858536471,0.28657536453600496,0.6908069476002447
0.045,1.7494511092643938,1.0,2731.6628780341025,0.39725746093307024,1.3108971571015953,0.9703319779345468,0.2865299465891045,0.6917823906445982
0.0455,1.7483697295762892,1.0,2732.389294072515,0.40063837005963054,1.310402192287125,0.9707767042729748,0.28648452864220414,0.6927630070897536
0.046,1.7472883498881846,1.0,2733.458201822107,0.4040003152262175,1.3099041173870054,0.9712081391350686,0.28643911069530376,0.6937482079929247
0.0465,1.74620697020008,1.0,2734.8430015140125,0.4073434022577172,1.3094031757701867,0.9716268250552494,0.2863936927484034,0.6947374834927389
0.047,1.7451255905119754,1.0,2736.517124121756,0.4106677369790158,1.3088996108056188,0.9720332776798334,0.28634827480150293,0.695730326671356
0.0475,1.7440442108238707,1.0,2738.4635719996363,0.41397342073819055,1.3083935791490118,0.9724279805821541,0.28630285685460255,0.6967264041443311
0.048,1.742962831135766,1.0,2740.6448294246375,0.4172605652949238,1.3078854237382125,0.9728114083586445,0.28625743890770217,0.6977250186528743
0.0485,1.7418814514476613,1.0,2743.0407931853065,0.4205292747099133,1.3073753293867145,0.9731840007705959,0.2862120209608018,0.6987257872589565
0.049,1.7408000717595566,1.0,2745.637040806868,0.4237796503686683,1.3068634293431354,0.9735461728043916,0.2861666030139014,0.6997284302671256
0.0495,1.739718692071452,1.0,2748.4191447961925,0.4270117936566981,1.3063498568560923,0.9738983199355833,0.286121185067001,0.7007326696564151
0.05,1.7386373123833474,1.0,2751.372667503668,0.43022580595951193,1.3058347451742027,0.9742408192264399,0.2860757671201006,0.7017382290951227
0.0505,1.7375559326952428,1.0,2754.483156379585,0.433421788662619,1.3053182275460842,0.9745740303522992,0.2860303491732002,0.7027448339544565
0.051000000000000004,1.7364745530071382,1.0,2757.7361396231295,0.4365998431515286,1.304800437220354,0.974898296561936,0.2859849312262998,0.703752211321049
0.051500000000000004,1.7353931733190335,1.0,2761.1171222258877,0.43976007081174995,1.3042815074456295,0.9752139455767307,0.28593951327939937,0.7047600900083396
0.052000000000000005,1.734311793630929,1.0,2764.6123772148,0.4429025722796823,1.3037615642920666,0.9755212898940634,0.285894095332499,0.7057682144733313
0.0525,1.7332304139428243,1.0,2768.2142172931494,0.44602744416778567,1.3032406790650626,0.9758206242616437,0.2858486773855986,0.7067764367352032
0.053,1.7321490342547194,1.0,2771.9064256857832,0.44913479243770654,1.3027189998748971,0.9761122362479576,0.2858032594386982,0.7077844614628254
0.0535,1.7310676545666148,1.0,2775.682556359063,0.45222471313236096,1.3021965864098644,0.9763963944122417,0.28575784149179784,0.7087921656958718
0.054,1.7299862748785102,1.0,2779.5361490443784,0.45529730229466475,1.3016734983582574,0.9766733557419639,0.28571242354489745,0.7097994272585793
0.0545,1.7289048951904056,1.0,2783.4607283055934,0.45835265596753394,1.30114979540837,0.9769433662508628,0.285667005597997,0.7108061247624264
0.055,1.727823515502301,1.0,2787.4498026860674,0.4613908701938844,1.3006255372484956,0.977206661541246,0.28562158765109663,0.7118121376085886
0.0555,1.7267421358141963,1.0,2791.4968639341428,0.46441204101663225,1.300100783566928,0.9774634673329722,0.28557616970419625,0.7128173459901652
0.056,1.7256607561260915,1.0,2795.59538630802,0.4674162644786933,1.2995755940519607,0.9777139999613451,0.2855307517572958,0.71382163089418
0.0565,1.7245793764379869,1.0,2799.7388259596537,0.4704036366229835,1.2990500283918873,0.97795846684599,0.2854853338103954,0.7148248741033527
0.057,1.7234979967498822,1.0,2803.924618216181,0.4733742444913894,1.2985241104218366,0.9781970640724048,0.28543991586349504,0.7158270264567956
0.0575,1.7224166170617776,1.0,2808.145594187183,0.47632818876436944,1.297997905173924,0.9784299833433641,0.28539449791659466,0.7168279608161765
0.058,1.721335237373673,1.0,2812.3938402731947,0.4792655724097555,1.2974714841591994,0.9786574092148921,0.2853490799696943,0.7178275386228417
0.0585,1.7202538576855684,1.0,2816.6670418404024,0.482186485175085,1.2969448685773999,0.9788795149566798,0.2853036620227939,0.7188257175559654
0.059000000000000004,1.7191724779974638,1.0,2820.96287733458,0.48509101680789535,1.2964180796282625,0.9790964670109662,0.2852582440758935,0.7198224555787406
0.059500000000000004,1.7180910983093591,1.0,2825.2790181944497,0.487979257055724,1.2958911385115248,0.9793084253158807,0.28521282612899307,0.7208177109386277
0.06,1.7170097186212545,1.0,2829.6131287754793,0.4908512956661082,1.295364066426924,0.9795155436110402,0.2851674081820927,0.7218114421675754
0.0605,1.7159283389331497,1.0,2833.9628662829377,0.4937072223865855,1.294836884574197,0.9797179697265034,0.2851219902351923,0.7228036080822117
0.061,1.714846959245045,1.0,2838.3258807155194,0.4965471269646932,1.2943096141530814,0.979915845856112,0.28507657228829186,0.7237941677840062
0.0615,1.7137655795569404,1.0,2842.6998148189687,0.4993710991479688,1.2937822763633144,0.9801093088161759,0.2850311543413915,0.7247830806594042
0.062,1.7126841998688358,1.0,2847.0823040489286,0.5021792286839496,1.2932548924046332,0.9802984902903907,0.2849857363944911,0.725770306379933
0.0625,1.7116028201807312,1.0,2851.4709765446582,0.504971605320173,1.2927274834767752,0.9804835170618238,0.2849403184475907,0.7267558049022778
0.063,1.7105214404926266,1.0,2855.8634531121825,0.5077483188041766,1.2922000707794774,0.9806645112327386,0.28489490050069033,0.7277395364683303
0.0635,1.709440060804522,1.0,2860.257347217437,0.5105094588834975,1.2916726755124774,0.980841590432984,0.28484948255378995,0.7287214616052075
0.064,1.708358681116417,1.0,2864.6536541067944,0.5132550927179109,1.2911452888051937,0.9810148648744459,0.2848040646068895,0.7297015969596312
0.0645,1.7072773014283125,1.0,2869.048236596032,0.5159853329667783,1.2906179473174093,0.9811844463346158,0.2847586466599891,0.7306798746716057
0.065,1.7061959217402078,1.0,2873.439496249744,0.5187002700180247,1.2900906651058588,0.9813504398787652,0.28471322871308874,0.7316562691914557
0.0655,1.7051145420521032,1.0,2877.826877864748,0.5213999862227476,1.2895634469495245,0.9815129458286921,0.2846678107661883,0.7326307722918046
0.066,1.7040331623639986,1.0,2882.2098246174746,0.5240845639320448,1.289036297627389,0.981672060979311,0.2846223928192879,0.7336033758094751
0.0665,1.702951782675894,1.0,2886.587778070197,0.5267540854970139,1.2885092219184353,0.9818278787481303,0.28457697487238753,0.734574071645469
0.067,1.7018704029877894,1.0,2890.9601781793904,0.5294086332687524,1.2879822246016457,0.9819804893173729,0.28453155692548715,0.7355428517649467
0.0675,1.7007890232996847,1.0,2895.3264633032422,0.532048289598358,1.2874553104560027,0.982129979769153,0.28448613897858677,0.7365097081972038
0.068,1.6997076436115799,1.0,2899.6860702105514,0.5346731368369284,1.2869284842604891,0.9822764342140904,0.2844407210316864,0.737474633035645
0.0685,1.6986262639234753,1.0,2904.0384340895553,0.5372832573355611,1.2864017507940875,0.9824199339137315,0.28439530308478594,0.7384376184377597
0.069,1.6975448842353706,1.0,2908.3829885577416,0.5398787334453539,1.2858751148357805,0.9825605573971079,0.28434988513788556,0.7393986566250934
0.0695,1.696463504547266,1.0,2912.7191656716523,0.5424596475174042,1.2853485811645506,0.9826983805717576,0.2843044671909852,0.7403577398832202
0.07,1.6953821248591614,1.0,2917.046395937676,0.5450260819028097,1.2848221545593803,0.9828334768295054,0.2842590492440848,0.7413148605617107
0.07050000000000001,1.6943007451710568,1.0,2921.364108322999,0.547578118952668,1.2842958397992525,0.9829659171472847,0.28421363129718435,0.7422700110741
0.07100000000000001,1.693219365482952,1.0,2925.671730267479,0.5501158410180768,1.2837696416631497,0.9830957701832642,0.28416821335028397,0.743223183897856
0.07150000000000001,1.6921379857948473,1.0,2929.968687695201,0.5526393304501337,1.2832435649300544,0.9832231023685292,0.2841227954033836,0.7441743715743432
0.07200000000000001,1.6910566061067427,1.0,2934.2551934580783,0.555148640955568,1.2827176074669804,0.9833479760046305,0.2840773774564832,0.7451235791713853
