Time [s],Phi [rad],STIM [ ],Fsee [N],Gamma [ ],Lcerel [ ],q [ ],Lmtc [m],fisomrel [ ]
0.0,1.8,1.0,17.97384509478534,7.827756378128096e-05,1.3793389971299355,0.005001606746280074,0.288653,0.5411413432922667
0.0005,1.79999375,1.0,18.30576898760717,0.0056870477973665606,1.3792991649735946,0.01313115080170029,0.2886527375,0.5412377023288708
0.001,1.799975,1.0,21.69811014804185,0.011264357264531776,1.3789301665058369,0.035965243960009906,0.28865195,0.5421298753566925
0.0015,1.79994375,1.0,31.25734877888393,0.016810382436217682,1.3780302013520933,0.07108936439736824,0.2886506375,0.5443021902605096
0.002,1.7999,1.0,53.986667866812496,0.022325298791617473,1.3763419533682364,0.11529502591999566,0.2886488,0.5483633103794012
0.0025,1.79984375,1.0,97.79755270314882,0.027809280826193945,1.3739025233449085,0.16520239608686185,0.28864643749999996,0.5541993081514993
0.003,1.7997750000000001,1.0,161.84068679897558,0.03326250205877484,1.3711813553499366,0.21792769385620894,0.28864354999999997,0.560664545410026
0.0035,1.79969375,1.0,238.68019366139245,0.03868513503164591,1.368554060371382,0.271256560182523,0.2886401375,0.5668619406370146
0.004,1.7996,1.0,322.5271560984751,0.044077351321191845,1.3661280299765592,0.3235389966464415,0.2886362,0.5725454900047313
0.0045000000000000005,1.7994937500000001,1.0,410.365679654818,0.0494393215431227,1.3638970588528352,0.3736260455481504,0.2886317375,0.5777389367291335
0.005,1.799375,1.0,500.5336890782854,0.05477121534392494,1.3618345518435402,0.42080086346096374,0.28862675,0.5825119805235474
0.0055,1.79924375,1.0,591.9203658419069,0.06007320144460801,1.3599167691263128,0.46468604813297787,0.2886212375,0.5869257630793256
0.006,1.7991000000000001,1.0,683.6492448527324,0.06534544759278534,1.358125862208079,0.5051507985779828,0.2886152,0.591026361025893
0.006500000000000001,1.79894375,1.0,775.0048167623595,0.07058812061246898,1.3564480806861754,0.5422312663287936,0.2886086375,0.5948493806605287
0.007,1.798775,1.0,865.3848510748301,0.07580138621966333,1.3548726476209465,0.5760692141371471,0.28860155,0.5984228442936848
0.0075,1.79859375,1.0,954.3329484722581,0.08098540985790002,1.3533900227580309,0.606866749081325,0.2885939375,0.6017713386960408
0.008,1.7984,1.0,1041.4308908513642,0.08614035514433564,1.3519928609483207,0.6348562367013867,0.2885858,0.6049139854636996
0.0085,1.79819375,1.0,1126.3583182540137,0.0912663850633872,1.350674464439221,0.6602789487289548,0.2885771375,0.6078680484383467
0.009000000000000001,1.797975,1.0,1208.896325208526,0.09636366206001813,1.349428426723475,0.683371984645229,0.28856795,0.6106497914462915
0.0095,1.79774375,1.0,1288.8593109430576,0.10143234754957815,1.3482493288166277,0.7043610261454297,0.2885582375,0.613272975059848
0.01,1.7975,1.0,1366.1092476543756,0.10647260152414843,1.3471322775717287,0.7234559375509209,0.288548,0.6157499421806898
0.0105,1.79724375,1.0,1440.5537670685242,0.11148458308411627,1.3460727556762426,0.7408488952550781,0.2885372375,0.6180919890900882
0.011,1.796975,1.0,1512.188657118481,0.11646845250385258,1.3450659711844748,0.756713764585507,0.28852595000000003,0.620310827584551
0.0115,1.79669375,1.0,1580.9686203388446,0.12142436643817446,1.3441083584334146,0.7712074015567679,0.2885141375,0.6224152986487905
0.012,1.7964,1.0,1646.8807556267923,0.12635248104779837,1.3431965243737987,0.784470180344768,0.28850180000000003,0.6244137297759713
0.0125,1.79609375,1.0,1709.953996865521,0.1312529524934408,1.342327075956363,0.7966272506008257,0.2884889375,0.6263143273825462
0.013000000000000001,1.7957750000000001,1.0,1770.2393605339294,0.1361259362894485,1.3414968008497257,0.8077900377842069,0.28847555,0.6281247927595752
0.0135,1.79544375,1.0,1827.7973198259524,0.14097158698755285,1.3407027546157315,0.8180576761970194,0.2884616375,0.6298521460371577
0.014,1.7951000000000001,1.0,1882.6760733392628,0.14579005724068073,1.3399424451753985,0.8275184001642377,0.2884472,0.6315023404597295
0.0145,1.79474375,1.0,1934.9424802280118,0.15058149946496263,1.3392134395797817,0.8362506199792701,0.2884322375,0.6330811301289981
0.015,1.794375,1.0,1984.6718136680415,0.1553460650970191,1.3385134470442068,0.8443240809069006,0.28841675,0.6345938972265592
0.0155,1.79399375,1.0,2031.964323844829,0.1600839063108657,1.3378401158309672,0.85180081028785,0.2884007375,0.6360460973702764
0.016,1.7936,1.0,2076.884181105453,0.1647951718895621,1.3371916550576963,0.8587362216159418,0.2883842,0.6374419252533532
0.0165,1.7931937500000001,1.0,2119.507201238829,0.16948001046343467,1.3365662972861865,0.8651797273100637,0.2883671375,0.6387854831985534
0.017,1.792775,1.0,2159.9215154261883,0.1741385706260057,1.335962278557268,0.8711754439849626,0.28834955,0.6400808271256654
0.0175,1.7923437500000001,1.0,2198.2120877382467,0.178770999373623,1.335377983995888,0.8767628576799696,0.2883314375,0.641331657687672
0.018000000000000002,1.7919,1.0,2234.48246291306,0.18337744542221535,1.3348117129981776,0.8819773057530738,0.2883128,0.642541826655695
0.0185,1.79144375,1.0,2268.799147685635,0.18795805300309879,1.3342622282288137,0.8868506001543718,0.2882936375,0.6437141670264939
0.019,1.790975,1.0,2301.23589073064,0.19251296634758944,1.333728292352472,0.8914113161893454,0.28827395,0.6448514887866804
0.0195,1.79049375,1.0,2331.8730842607183,0.1970423296870033,1.3332086680338295,0.8956851638485054,0.2882537375,0.6459565801885243
0.02,1.79,1.0,2360.7895724713444,0.201546286166411,1.3327021924824336,0.8996953298073586,0.288233,0.6470320507569569
0.0205,1.78949375,1.0,2388.071059764154,0.20602497979752185,1.3322076884529972,0.903462741221081,0.2882117375,0.6480805221068762
0.021,1.788975,1.0,2413.7941634897275,0.21047855298537096,1.331724114235872,0.9070063477558689,0.28818995000000003,0.649104311334267
0.021500000000000002,1.78844375,1.0,2438.018781638764,0.21490714509532657,1.331250629407206,0.9103433500513808,0.2881676375,0.6501052950169959
0.022,1.7879,1.0,2460.8082599998856,0.2193108954927569,1.3307863935431468,0.9134893477063454,0.2881448,0.6510853375214236
0.0225,1.78734375,1.0,2482.2291068005275,0.22368994354303023,1.3303305662198421,0.9164585104391568,0.28812143749999997,0.6520462915206584
0.023,1.786775,1.0,2502.350723007489,0.22804442861151486,1.32988230701344,0.9192637289595837,0.28809755,0.6529899984677632
0.0235,1.78619375,1.0,2521.2302997361558,0.23237448688278045,1.3294409159316019,0.9219167727542091,0.28807313749999996,0.6539179939736839
0.024,1.7856,1.0,2538.947824340775,0.2366802597710354,1.3290054987957405,0.9244283478376657,0.2880482,0.6548322122518049
0.0245,1.78499375,1.0,2555.550216305646,0.24096188156714296,1.328575493407554,0.9268082926320135,0.2880227375,0.6557338811606583
0.025,1.784375,1.0,2571.085254480133,0.24521948640003655,1.328150344695387,0.9290656101649689,0.28799675,0.6566242068759525
0.025500000000000002,1.78374375,1.0,2585.6021951288085,0.24945320839864954,1.327729497587584,0.9312085493480876,0.2879702375,0.6575043890656562
0.026000000000000002,1.7831000000000001,1.0,2599.1516461032966,0.2536631816919154,1.3273123970124887,0.9332446783872563,0.2879432,0.6583756210521013
0.0265,1.78244375,1.0,2611.7854478451923,0.2578495404087674,1.3268984878984456,0.9351809501511675,0.2879156375,0.6592390899544319
0.027,1.781775,1.0,2623.546772982635,0.2620124146280008,1.3264873059238893,0.9370237727563588,0.28788755,0.6600957878525533
0.0275,1.7810937500000001,1.0,2634.4946744616445,0.26615194182477125,1.326078248477974,0.9387790304148581,0.2878589375,0.6609469893798999
0.028,1.7804,1.0,2644.6650621704557,0.27026825122304426,1.325670935569348,0.9404521789365219,0.2878298,0.6617935003998268
0.0285,1.77969375,1.0,2654.092740504416,0.2743614713440798,1.325265003782975,0.9420482573000514,0.2878001375,0.66263608837392
0.029,1.778975,1.0,2662.813134183495,0.2784317307091378,1.3248600897038192,0.9435719229780469,0.28776995,0.6634755169567172
0.029500000000000002,1.7782437500000001,1.0,2670.8622331023244,0.2824791578394783,1.3244558299168454,0.9450274857473274,0.2877392375,0.6643125460235048
0.03,1.7775,1.0,2678.276540108535,0.2865038812563612,1.3240518610070175,0.9464189380988661,0.287708,0.6651479316896958
0.0305,1.77674375,1.0,2685.093021709366,0.29050602948104665,1.3236478195593002,0.9477499826263419,0.2876762375,0.6659824263217815
0.031,1.775975,1.0,2691.3367118109086,0.2944857226568927,1.3232434552075063,0.949024068425815,0.28764395,0.6668165454895181
0.0315,1.7751937500000001,1.0,2697.0576648480383,0.29844309918828943,1.3228382917332953,0.9502443783559003,0.2876111375,0.6676512671898207
0.032,1.7744,1.0,2702.279113728265,0.302378281716484,1.3224321014845477,0.9514138989569081,0.2875778,0.6684870533554157
0.0325,1.77359375,1.0,2707.0235653964114,0.3062913922596001,1.322024665653128,0.9525354119912064,0.2875439375,0.669324345379436
0.033,1.772775,1.0,2711.313743988573,0.3101825528357613,1.3216157654309009,0.9536115101604998,0.28750955,0.6701635823542594
0.0335,1.7719437500000002,1.0,2715.172570019499,0.3140518854630913,1.3212051820097306,0.9546446122279953,0.2874746375,0.6710052010526015
0.034,1.7711000000000001,1.0,2718.6231406310117,0.3178995121597136,1.3207926965814816,0.9556369767595702,0.2874392,0.6718496359055532
0.0345,1.7702437500000001,1.0,2721.6887109020013,0.321725554943752,1.3203780903380182,0.9565907146246478,0.2874032375,0.6726973189775658
0.035,1.7693750000000001,1.0,2724.39267621999,0.32553013583332996,1.3199611444712054,0.957507800381795,0.28736675,0.6735486799383815
0.035500000000000004,1.76849375,1.0,2726.758555714496,0.32931337684657114,1.3195416401729072,0.9583900826602065,0.2873297375,0.6744041460319142
0.036000000000000004,1.7676,1.0,2728.7980420471927,0.3330753903196954,1.3191194671307707,0.9592393026046326,0.2872922,0.675263921231419
0.0365,1.76669375,1.0,2730.5441394158393,0.33681630786876077,1.318694322069158,0.9600570777613854,0.2872541375,0.6761286003854585
0.037,1.765775,1.0,2732.0127190937187,0.34053624672179966,1.3182660582265258,0.9608449386465479,0.28721555,0.6769984572096611
0.0375,1.76484375,1.0,2733.2170300374005,0.3442353218387621,1.3178345532197409,0.961604324663993,0.2871764375,0.6778737142206879
0.038,1.7639,1.0,2734.1703728559437,0.3479136481795981,1.3173996846656695,0.9623365887682961,0.28713679999999997,0.6787545923920075
0.0385,1.76294375,1.0,2734.8860934536583,0.35157134070425744,1.3169613301811782,0.9630430036029596,0.28709663750000003,0.679641311128119
0.039,1.761975,1.0,2735.3775770051016,0.3552085143726903,1.3165193673831337,0.963724767138494,0.28705595,0.6805340882378216
0.0395,1.7609937500000001,1.0,2735.658242262714,0.35882528414484655,1.3160736738884022,0.96438300785607,0.2870147375,0.6814331399065305
0.04,1.76,1.0,2735.741536195409,0.36242176498067613,1.3156241273138507,0.9650187895178417,0.286973,0.6823386806676345
0.0405,1.7589937500000001,1.0,2735.6409289604294,0.36599807184012906,1.3151706052763452,0.9656331155609512,0.2869307375,0.6832509233729025
0.041,1.757975,1.0,2735.36990920629,0.36955431968315533,1.3147129853927524,0.966226933148552,0.28688795,0.68417007916193
0.0415,1.75694375,1.0,2734.9372657839376,0.3730906134202398,1.3142511880850984,0.9668011388356323,0.2868446375,0.6850962716425513
0.042,1.7559,1.0,2734.359081283957,0.3766070777841439,1.313785067646743,0.96735657779838,0.28680079999999997,0.6860297554908447
0.0425,1.75484375,1.0,2733.643269190244,0.38010382195296305,1.31331455262094,0.9678940528805663,0.2867564375,0.6869706349360339
0.043000000000000003,1.753775,1.0,2732.7972547376903,0.38358095403465686,1.312839576047035,0.96841432402038,0.28671155,0.6879190040137481
0.043500000000000004,1.75269375,1.0,2731.8284682777353,0.38703858213718484,1.312360070964374,0.9689181107931224,0.28666613750000003,0.6888749555712095
0.044,1.7516,1.0,2730.744343570038,0.39047681436850656,1.3118759704123026,0.9694060949541561,0.2866202,0.6898385812480374
0.0445,1.75049375,1.0,2729.5523161749697,0.3938957588365817,1.311387207430167,0.9698789227972832,0.2865737375,0.6908099714567673
0.045,1.7493750000000001,1.0,2728.2598219447946,0.3972955236493697,1.3108937150573128,0.9703372073436489,0.28652675,0.6917892153630817
0.0455,1.74824375,1.0,2726.874295614068,0.40067621691483024,1.310395426333086,0.9707815303748817,0.2864792375,0.6927764008657584
0.046,1.7471,1.0,2725.4031694903615,0.40403794674092286,1.3098922742968322,0.9712124443229652,0.2864312,0.6937716145763295
0.0465,1.7459437500000001,1.0,2723.8538722432186,0.40738082123560715,1.3093841919878977,0.971630474028216,0.28638263750000004,0.6947749417984557
0.047,1.744775,1.0,2722.230577485502,0.4107049224921819,1.3088711420291104,0.972036117090102,0.28633355,0.6957864082322485
0.0475,1.74359375,1.0,2720.5452500011993,0.4140103926619436,1.308353016092258,0.9724298495322672,0.28628393750000003,0.6968061781467081
0.048,1.7424,1.0,2718.80142230929,0.41729733211521003,1.3078297825339382,0.9728121242761812,0.2862338,0.6978342633453709
0.0485,1.74119375,1.0,2717.002602039817,0.42056584108109535,1.307301409915121,0.9731833725119302,0.2861831375,0.6988706743117946
0.049,1.739975,1.0,2715.1522940302707,0.4238160197887137,1.3067678667967764,0.973544004941167,0.28613195,0.699915420602536
0.0495,1.73874375,1.0,2713.2539999844585,0.4270479684671793,1.306229121739874,0.9738944129344582,0.2860802375,0.7009685108368158
0.05,1.7375,1.0,2711.311218152205,0.4302617873456064,1.3056851433053842,0.9742349696131111,0.286028,0.7020299526861185
0.0505,1.73624375,1.0,2709.327443031459,0.43345757665310913,1.3051359000542766,0.974566030861043,0.2859752375,0.7030997528637326
0.051000000000000004,1.734975,1.0,2707.3061650922486,0.43663543661880166,1.3045813605475212,0.974887936271804,0.28592195,0.7041779171142248
0.051500000000000004,1.73369375,1.0,2705.2508705225205,0.4397954674717983,1.3040214933460879,0.9752010100354472,0.2858681375,0.7052644502028529
0.052000000000000005,1.7324,1.0,2703.1650409956947,0.4429377694412132,1.3034562670109466,0.9755055617695612,0.2858138,0.7063593559049142
0.0525,1.73109375,1.0,2701.052153460626,0.44606244275616047,1.3028856501030677,0.9758018872984426,0.28575893750000003,0.7074626369950321
0.053,1.729775,1.0,2698.915679953023,0.44916958764575443,1.3023096111834205,0.9760902693840614,0.28570355000000003,0.7085742952363812
0.0535,1.72844375,1.0,2696.7590874289763,0.45225930433910927,1.301728118812975,0.9763709784121952,0.2856476375,0.7096943313698445
0.054,1.7271,1.0,2694.5858376204337,0.4553316930653391,1.3011411415527017,0.9766442730368388,0.2855912,0.7108227451031113
0.0545,1.7257437500000001,1.0,2692.391582148406,0.45838681041539736,1.3005487193930894,0.9769104008273942,0.2855342375,0.7119593981861417
0.055,1.724375,1.0,2690.1866767761426,0.4614248038417162,1.2999507577636429,0.9771695996129427,0.28547675,0.7131044098119146
0.0555,1.72299375,1.0,2687.9740159376424,0.4644457750360004,1.2993472302825655,0.9774220967441911,0.2854187375,0.7142577669711629
0.056,1.7216,1.0,2685.754645681587,0.4674498147757471,1.2987381274624956,0.977668110009601,0.2853602,0.7154194234700311
0.0565,1.72019375,1.0,2683.529610381439,0.47043701383845343,1.2981234398160717,0.977907848165109,0.28530113749999997,0.7165893323731922
0.057,1.718775,1.0,2681.2999527218167,0.4734074630016165,1.2975031578559328,0.9781415113800832,0.28524155,0.7177674460004717
0.0575,1.71734375,1.0,2679.0667136866714,0.47636125304273336,1.296877272094717,0.9783692916577702,0.2851814375,0.7189537159234674
0.058,1.7159,1.0,2676.8309325495898,0.47929847473930115,1.296245773045063,0.978591373231883,0.2851208,0.7201480929621591
0.0585,1.71444375,1.0,2674.5936468662853,0.482219218868817,1.2956086512196094,0.9788079329408662,0.2850596375,0.7213505271815157
0.059000000000000004,1.7129750000000001,1.0,2672.355892468699,0.485123576208778,1.2949658971309947,0.9790191405812586,0.28499795,0.7225609678880978
0.059500000000000004,1.71149375,1.0,2670.1187034614154,0.48801163753668125,1.2943175012918575,0.9792251592414767,0.2849357375,0.7237793636266501
0.06,1.71,1.0,2667.8831122197885,0.4908834936300238,1.2936634542148362,0.9794261456172475,0.284873,0.7250056621766927
0.0605,1.7084937500000001,1.0,2665.65014939038,0.4937392352663029,1.2930037464125697,0.979622250309835,0.2848097375,0.7262398105491026
0.061,1.7069750000000001,1.0,2663.4208438931746,0.4965789532230156,1.2923383683976961,0.9798136181081216,0.28474595,0.7274817549826942
0.0615,1.7054437500000001,1.0,2661.196222925753,0.49940273827765896,1.2916673106828542,0.9800003882555368,0.2846816375,0.7287314409407889
0.062,1.7039,1.0,2658.977311969881,0.5022106812077302,1.2909905637806827,0.9801826947027555,0.2846168,0.7299888131077821
0.0625,1.70234375,1.0,2656.7651347992264,0.5050028727907262,1.29030811820382,0.9803606663470242,0.2845514375,0.7312538153857042
0.063,1.7007750000000001,1.0,2654.5607134901966,0.5077794038041443,1.2896199644649045,0.980534427258922,0.28448555,0.7325263908907764
0.0635,1.69919375,1.0,2652.3650684339354,0.5105403650254815,1.2889260930765751,0.9807040968972965,0.28441913750000003,0.7338064819499561
0.064,1.6976,1.0,2650.177975190857,0.5132858172070913,1.2882265060191787,0.9808697887081579,0.2843522,0.7350940090177818
0.0645,1.69599375,1.0,2648.000079877871,0.5160158653079238,1.2875211972427645,0.9810316147946335,0.2842847375,0.736388906683952
0.065,1.694375,1.0,2645.8324757525743,0.5187306188953046,1.2868101565596668,0.9811896832849802,0.28421675,0.7376911163718731
0.0655,1.69274375,1.0,2643.675288410573,0.5214301592887549,1.2860933827032646,0.9813440968462591,0.2841482375,0.7390005624151894
0.066,1.6911,1.0,2641.52864327481,0.5241145678077956,1.2853708744069363,0.9814949544776883,0.2840792,0.7403171684956014
0.0665,1.6894437500000001,1.0,2639.3926655981827,0.526783925771948,1.2846426304040608,0.9816423516662502,0.2840096375,0.741640857642402
0.067,1.687775,1.0,2637.2674804654216,0.5294383145007329,1.2839086494280165,0.981786380534621,0.28393955,0.7429715522320142
0.0675,1.68609375,1.0,2635.153212796555,0.5320778153136713,1.283168930212182,0.9819271299818504,0.2838689375,0.7443091739875267
0.068,1.6844000000000001,1.0,2633.0499873488593,0.5347025095302843,1.2824234714899365,0.9820646858172022,0.2837978,0.7456536439782303
0.0685,1.68269375,1.0,2630.9579287196207,0.537312478470093,1.281672271994658,0.9821991308875254,0.2837261375,0.7470048826191562
0.069,1.680975,1.0,2628.87716134906,0.5399078034526184,1.2809153304597254,0.9823305451985135,0.28365395,0.74836280967061
0.0695,1.67924375,1.0,2626.8078095226156,0.5424885657973815,1.2801526456185175,0.982459006030187,0.28358123749999997,0.7497273442377084
0.07,1.6775,1.0,2624.7499973741023,0.5450548468239034,1.279384216204413,0.9825845880469082,0.283508,0.7510984047699167
0.07050000000000001,1.67574375,1.0,2622.703848888162,0.5476067278517049,1.2786100409507903,0.9827073634022244,0.2834342375,0.7524759090605834
0.07100000000000001,1.673975,1.0,2620.6694879032348,0.5501442902003074,1.2778301185910281,0.9828274018388148,0.28335995,0.7538597742464772
0.07150000000000001,1.67219375,1.0,2618.6470381143718,0.5526676151892317,1.2770444478585052,0.9829447707838006,0.2832851375,0.7552499168073213
0.07200000000000001,1.6704,1.0,2616.636623076212,0.5551767841379988,1.2762530274866002,0.9830595354396624,0.2832098,0.7566462525653308
0.0725,1.66859375,1.0,2614.63836620561,0.5576718783661297,1.275455856208692,0.983171758870996,0.2831339375,0.7580486966847463
0.073,1.6667750000000001,1.0,2612.652390785004,0.5601529791931458,1.2746529327581586,0.9832815020873212,0.28305755,0.7594571636713725
0.0735,1.66494375,1.0,2610.6788199650214,0.5626201679385677,1.2738442558683793,0.9833888241221496,0.2829806375,0.7608715673721097
0.074,1.6631,1.0,2608.7177007425976,0.5650734718636856,1.273029824979588,0.9834937790462966,0.2829032,0.7622918197436721
0.0745,1.6612437500000001,1.0,2606.7687485042375,0.5675130250960634,1.2722096426162623,0.9835964254178993,0.2828252375,0.7637178267433888
0.075,1.659375,1.0,2604.8317063479017,0.5699389156540726,1.2713837110495225,0.9836968173093604,0.28274675,0.765149494186828
0.0755,1.65749375,1.0,2602.9063257076286,0.5723512156740904,1.2705520324769553,0.9837950061968054,0.2826677375,0.7665867274317237
