Time [s],Phi [rad],STIM [ ],Fsee [N],Gamma [ ],Lcerel [ ],q [ ],Lmtc [m],fisomrel [ ]
0.0,1.8,1.0,18.192950001853774,0.0004833032356118074,1.3793145289616036,0.005060369945321065,0.288653,0.5412005360925919
0.0005,1.79999375,1.0,18.65131730227328,0.0060898015955107064,1.3792609910289786,0.014306584060662129,0.2886527375,0.5413300404455264
0.001,1.799975,1.0,22.344176636432056,0.01166485193234985,1.3788647847855915,0.0381174972151388,0.28865195,0.5422878662288503
0.0015,1.79994375,1.0,32.56679356297467,0.017208630645594664,1.3779201184357543,0.07400813953282988,0.2886506375,0.5445675512803106
0.002,1.7999,1.0,56.6113581895196,0.022721313143217115,1.3761743289287258,0.11873415878684973,0.2886488,0.5487655429050473
0.0025,1.79984375,1.0,102.04432239016678,0.028203073850835387,1.373700759959579,0.1689326782865033,0.28864643749999996,0.5546802997628608
0.003,1.7997750000000001,1.0,167.262707652459,0.03365408621549044,1.3709806254282486,0.22176873570398575,0.28864354999999997,0.5611395904236782
0.0035,1.79969375,1.0,244.7477728635157,0.03907452271089453,1.3683687240678803,0.2750718038672298,0.2886401375,0.5672974589560008
0.004,1.7996,1.0,328.9490453951545,0.044464554843719695,1.3659590554695376,0.3272295561151935,0.2886362,0.5729399544637881
0.0045000000000000005,1.7994937500000001,1.0,416.98979809131407,0.049824353146695775,1.3637423953394883,0.3771268750999943,0.2886317375,0.5780977992113885
0.005,1.799375,1.0,507.28075159860606,0.0551540872470833,1.3616918172459225,0.42407438234815065,0.28862675,0.5828412925297903
0.0055,1.79924375,1.0,598.7118494521948,0.06045392571675046,1.3597845847931143,0.46771573028801156,0.2886212375,0.5872291216366274
0.006,1.7991000000000001,1.0,690.4405005315393,0.06572403632774944,1.358002822233171,0.5079343232590895,0.2886152,0.5913073318657033
0.006500000000000001,1.79894375,1.0,781.7424079495486,0.07096458571168068,1.35633339769844,0.5447759753735426,0.2886086375,0.5951100436373897
0.007,1.798775,1.0,872.0510852472371,0.07617573987006886,1.3547652414236755,0.578387843519233,0.28860155,0.5986658911913305
0.0075,1.79859375,1.0,960.868108149817,0.08135766347369591,1.353289734052648,0.6089755719285223,0.2885939375,0.601997333587402
0.008,1.7984,1.0,1047.8219318026993,0.08651052060475195,1.3518989580525005,0.6367723570539413,0.2885858,0.6051247554896828
0.0085,1.79819375,1.0,1132.6001356481659,0.09163447437546784,1.3505862662380386,0.6620195548458092,0.2885771375,0.6080652739964003
0.009000000000000001,1.797975,1.0,1214.9564513411183,0.09672968660436132,1.3493457598980874,0.6849539017681807,0.28856795,0.6108339924784053
0.0095,1.79774375,1.0,1294.728255277227,0.10179631862674673,1.3481717843070864,0.705799884402061,0.2885582375,0.6134451805242975
0.01,1.7975,1.0,1371.804810700149,0.10683453151039012,1.3470591755532972,0.724765985635904,0.288548,0.6159117623222756
0.0105,1.79724375,1.0,1446.0762323850745,0.11184448370804329,1.34600372533644,0.742043242275576,0.2885372375,0.6182443305271217
0.011,1.796975,1.0,1517.4951538554521,0.11682633367245805,1.3450012253562358,0.7578045024229588,0.28852595000000003,0.6204532987968616
0.0115,1.79669375,1.0,1586.0487183685805,0.12178023913882058,1.344047733763371,0.7722051944569456,0.2885141375,0.6225483319269408
0.012,1.7964,1.0,1651.769131122223,0.12670635794401458,1.3431393634890656,0.7853843344251357,0.28850180000000003,0.6245388304346904
0.0125,1.79609375,1.0,1714.6645637097256,0.13160484516824567,1.3422730167648256,0.7974661752989781,0.2884889375,0.6264323405443413
0.013000000000000001,1.7957750000000001,1.0,1774.7621182886523,0.13647585527457176,1.3414457858861557,0.8085613312636887,0.28847555,0.6282358906268671
0.0135,1.79544375,1.0,1832.1198806738396,0.1413195426693759,1.3406547693463802,0.8187681053088426,0.2884616375,0.6299564034488665
0.014,1.7951000000000001,1.0,1886.8107166643376,0.14613606075249555,1.3398972180089412,0.8281738816097716,0.2884472,0.6316003864470099
0.0145,1.79474375,1.0,1938.9088833941278,0.15092556278643895,1.3391706411522968,0.8368563926358615,0.2884322375,0.6331737123097574
0.015,1.794375,1.0,1988.474754810067,0.15568819925925825,1.3384729284157364,0.8448848638808802,0.28841675,0.6346813671226907
0.0155,1.79399375,1.0,2035.5869003708904,0.1604241206590057,1.337801969438549,0.8523208810745253,0.2884007375,0.636128282664023
0.016,1.7936,1.0,2080.328708257423,0.1651334764848814,1.3371557768373235,0.8592193304611215,0.2883842,0.637519075718179
0.0165,1.7931937500000001,1.0,2122.799468315678,0.16981641736430308,1.3365323506740951,0.8656291522985016,0.2883671375,0.6388583448653312
0.017,1.792775,1.0,2163.08513787974,0.17447309189354182,1.3359299643056561,0.8715941252505794,0.28834955,0.6401500608469407
0.0175,1.7923437500000001,1.0,2201.2528639887237,0.17910364596591785,1.335347195608997,0.8771534794713406,0.2883314375,0.6413975076440723
0.018000000000000002,1.7919,1.0,2237.379096190186,0.18370822547475146,1.3347826224611083,0.8823423465950608,0.2883128,0.6426039403637214
0.0185,1.79144375,1.0,2271.5488124073754,0.1882869763133629,1.334234822738981,0.8871922381209484,0.2882936375,0.6437725869535775
0.019,1.790975,1.0,2303.8476385294316,0.19284004358303197,1.3337024450708543,0.891731481510893,0.28827395,0.6449064992147113
0.0195,1.79049375,1.0,2334.3641918903522,0.19736757231729904,1.3331841767543704,0.8959855771244598,0.2882537375,0.6460086235985729
0.02,1.79,1.0,2363.182068313255,0.20186970657342795,1.3326788148815087,0.8999775343884485,0.288233,0.6470816521971774
0.0205,1.78949375,1.0,2390.3625522204484,0.20634658732712255,1.33218542574234,0.9037281845868689,0.2882117375,0.6481276878966209
0.021,1.788975,1.0,2415.971259857221,0.2107983555540866,1.3317030756269348,0.907256362553004,0.28818995000000003,0.6491488189401531
0.021500000000000002,1.78844375,1.0,2440.0777842351326,0.21522515223002395,1.3312308308253638,0.9105791253907798,0.2881676375,0.6501471196133267
0.022,1.7879042523067536,1.0,2462.9544560869226,0.21962711765102633,1.3307677728619585,0.9137119474647021,0.28814497859688365,0.6511246187370532
0.0225,1.7873645628677877,1.0,2485.023865826438,0.22400439155736393,1.3303133345091713,0.9166689568749697,0.2881223116404471,0.6520825926193632
0.023,1.7868248734288217,1.0,2506.318201247322,0.2283571143547079,1.329867181293239,0.9194630518882053,0.2880996446840105,0.6530218198522111
0.0235,1.786285183989856,1.0,2526.861036210004,0.23268542204682988,1.3294289851260783,0.9221059810220842,0.28807697772757396,0.6539430604553638
0.024,1.78574549455089,1.0,2546.6769433564837,0.23698945063750146,1.3289984179196057,0.9246084629441368,0.28805431077113736,0.654847069535703
0.0245,1.7852058051119242,1.0,2565.791437423187,0.2412693361304942,1.3285751515857378,0.9269802908887816,0.2880316438147008,0.6557345974502852
0.025,1.7846661156729582,1.0,2584.230920938879,0.2455252145295798,1.3281588580363912,0.9292304252294431,0.2880089768582642,0.6566063899625372
0.025500000000000002,1.7841264262339922,1.0,2602.011764676779,0.2497572139622377,1.327749310357103,0.9313670886788158,0.28798630990182766,0.6574629769146791
0.026000000000000002,1.7835867367950264,1.0,2619.173508797472,0.2539654787367666,1.3273460726112551,0.9333977988825551,0.2879636429453911,0.6583053212563357
0.0265,1.7830470473560605,1.0,2635.743654595279,0.25815014466963593,1.3269488284906255,0.9353294773234468,0.2879409759889545,0.6591341312136721
0.027,1.7825073579170947,1.0,2651.7409605445205,0.26231134094039715,1.3265573485669981,0.9371685013300183,0.28791830903251797,0.6599499301559059
0.0275,1.7819676684781287,1.0,2667.184712727587,0.2664491967286016,1.326171403412158,0.938920744512955,0.2878956420760814,0.6607532385081103
0.028,1.781427979039163,1.0,2682.094696097578,0.2705638412138009,1.3257907635978894,0.9405916232142719,0.2878729751196448,0.6615445738338781
0.0285,1.780888289600197,1.0,2696.491166907991,0.2746554035755463,1.3254151996959775,0.9421861381124366,0.2878503081632083,0.6623244509146271
0.029,1.780348600161231,1.0,2710.3948263087464,0.2787240129933893,1.3250444822782066,0.9437089115412556,0.2878276412067717,0.6630933818255506
0.029500000000000002,1.7798089107222652,1.0,2723.826795110105,0.2827697986468813,1.3246783819163612,0.9451642210107596,0.28780497425033513,0.6638518760082063
0.03,1.7792692212832992,1.0,2736.8085897129818,0.2867928897155737,1.3243166691822263,0.9465560293580326,0.28778230729389853,0.6646004403397525
0.0305,1.7787295318443335,1.0,2749.3620992067013,0.29079341537901804,1.3239591146475864,0.9478880119035282,0.287759640337462,0.6653395791988264
0.031,1.7781898424053675,1.0,2761.499066816052,0.29477149524119867,1.3236055837418337,0.9491635899036819,0.28773697338102544,0.6660695987599078
0.0315,1.7776501529664015,1.0,2773.247359336551,0.29872726630241997,1.3232557986722937,0.9503859307011224,0.28771430642458884,0.6667910989309233
0.032,1.7771104635274357,1.0,2784.6239271295567,0.30266085429933115,1.3229095831196598,0.9515579898848253,0.2876916394681523,0.6675044678873965
0.0325,1.7765707740884698,1.0,2795.6415654696953,0.30657238067685944,1.3225668003095155,0.9526825232979037,0.28766897251171575,0.6682100106443916
0.033,1.776031084649504,1.0,2806.3132702838548,0.3104619668799319,1.3222273134674447,0.9537620997984354,0.28764630555527915,0.6689080307893913
0.0335,1.775491395210538,1.0,2816.652227949024,0.31432973435347566,1.321890985819031,0.9547991162034325,0.2876236385988426,0.6695988305116465
0.034,1.7749517057715722,1.0,2826.671805504242,0.318175804542418,1.3215576805898586,0.9557958108691518,0.28760097164240606,0.6702827106303269
0.0345,1.7744120163326063,1.0,2836.385541278137,0.3220002988916859,1.3212272610055105,0.9567542760466289,0.28757830468596945,0.6709599706214849
0.035,1.7738723268936403,1.0,2845.8071359306746,0.3258033388462067,1.320899590291571,0.9576764691358077,0.2875556377295329,0.6716309086438197
0.035500000000000004,1.7733326374546745,1.0,2854.9504439096368,0.3295850458509074,1.3205745316736235,0.958564222947993,0.2875329707730963,0.6722958215632557
0.036000000000000004,1.7727929480157085,1.0,2863.8294653226044,0.3333455413507152,1.320251948377252,0.95941925507435,0.28751030381665976,0.6729550049763202
0.0365,1.7722532585767428,1.0,2872.4505456121956,0.33708493538285733,1.319931772674872,0.9602431808500933,0.28748763686022316,0.6736086123504911
0.037,1.7717135691377768,1.0,2880.8322870338625,0.3408033593345841,1.319613829148551,0.9610375105615458,0.2874649699037866,0.6742570159980893
0.0375,1.7711738796988108,1.0,2888.986233743307,0.34450093304368334,1.3192980060685944,0.9618036666201274,0.28744230294735007,0.6749004570172827
0.038,1.770634190259845,1.0,2896.9201086315757,0.34817777022032037,1.3189842263241958,0.9625429882710607,0.28741963599091347,0.6755391050904154
0.0385,1.770094500820879,1.0,2904.641710977154,0.3518339845746604,1.318672412804549,0.9632567355009102,0.2873969690344769,0.6761731292006603
0.039,1.7695548113819133,1.0,2912.158913018066,0.3554696898168688,1.3183624883988483,0.9639460945936963,0.2873743020780404,0.6768026976418788
0.0395,1.7690151219429473,1.0,2919.4796566564405,0.3590849996571107,1.318054375996287,0.9646121832397991,0.2873516351216038,0.677427978028101
0.04,1.7684754325039813,1.0,2926.6119502947877,0.36268002780555153,1.3177479984860594,0.9652560552380683,0.28732896816516723,0.678049137302625
0.0405,1.7679357430650156,1.0,2933.5638658036914,0.3662548879723565,1.3174432787573591,0.9658787048275195,0.28730630120873063,0.6786663417467398
0.041,1.7673960536260496,1.0,2940.3435356220216,0.3698096938676908,1.3171401396993798,0.9664810706814018,0.2872836342522941,0.6792797569880672
0.0415,1.7668563641870838,1.0,2946.959149988057,0.3733445592017199,1.3168385042013158,0.9670640395932218,0.2872609672958575,0.679889548008523
0.042,1.7663166747481178,1.0,2953.418954303738,0.3768595976846089,1.3165382951523603,0.9676284498814376,0.28723830033942094,0.6804958791519045
0.0425,1.765776985309152,1.0,2959.7262549022516,0.3803549098473801,1.3162394790141854,0.968175095972256,0.2872156333829844,0.6810988262526678
0.043000000000000003,1.765237295870186,1.0,2965.8909099168,0.3838306174799503,1.315941965374845,0.9687047286319602,0.2871929664265478,0.6816985794485978
0.043500000000000004,1.76469760643122,1.0,2971.921891963724,0.387286839483287,1.3156456720148069,0.969218059053124,0.28717029947011125,0.6822953116655643
0.044,1.7641579169922543,1.0,2977.8234304641214,0.39072368141717034,1.315350558415328,0.9697157624123298,0.2871476325136747,0.6828891113110358
0.0445,1.7636182275532883,1.0,2983.59978277652,0.39414124884138035,1.3150565840576658,0.9701984789331378,0.2871249655572381,0.6834800664601881
0.045,1.7630785381143226,1.0,2989.2552331555726,0.3975396473156971,1.3147637084230772,0.9706668160387791,0.28710229860080155,0.6840682648589032
0.0455,1.7625388486753566,1.0,2994.7940917463234,0.4009189823999005,1.3144718909928192,0.9711213503520032,0.287079631644365,0.6846537939266595
0.046,1.7619991592363906,1.0,3000.220693615565,0.4042793596537706,1.314181091248149,0.9715626295543175,0.2870569646879284,0.6852367407593183
0.0465,1.7614594697974248,1.0,3005.5393978195243,0.40762088463708757,1.313891268670324,0.9719911741157643,0.28703429773149186,0.6858171921318066
0.047,1.7609197803584589,1.0,3010.7545865074712,0.41094366290963136,1.3136023827406007,0.9724074789054059,0.28701163077505526,0.6863952345006945
0.0475,1.760380090919493,1.0,3015.870664062481,0.414247800031182,1.3133143929402367,0.9728120146917957,0.2869889638186187,0.6869709540066677
0.048,1.7598404014805271,1.0,3020.892056277841,0.4175334015615195,1.313027258750489,0.9732052295419231,0.2869662968621821,0.6875444364768954
0.0485,1.7593007120415614,1.0,3025.8232095704807,0.42080057306042407,1.3127409396526144,0.9735875501263801,0.28694362990574557,0.6881157674272953
0.049,1.7587610226025954,1.0,3030.668590230176,0.42404942008767554,1.3124553951278704,0.973959382937854,0.286920962949309,0.6886850320646889
0.0495,1.7582213331636294,1.0,3035.428546501288,0.4272800268547299,1.3121706203177503,0.9743211153129291,0.2868982959928724,0.6892522442934661
0.05,1.7576816437246636,1.0,3040.1093674728486,0.43049251419078466,1.311886559245919,0.9746731175189709,0.2868756290364359,0.6898175196484115
0.0505,1.7571419542856976,1.0,3044.7162684089817,0.4336869960022817,1.3116031653806988,0.9750157425856472,0.28685296207999933,0.6903809544793651
0.051000000000000004,1.7566022648467319,1.0,3049.251355278734,0.436863569098952,1.3113204190973204,0.9753493272864481,0.28683029512356273,0.6909425913682039
0.051500000000000004,1.756062575407766,1.0,3053.716743688231,0.44002233029052645,1.3110383007710147,0.9756741932305981,0.2868076281671262,0.6915024727470658
0.052000000000000005,1.7555228859688,1.0,3058.1145586029766,0.4431633763867359,1.3107567907770121,0.9759906476786163,0.2867849612106896,0.6920606408991464
0.0525,1.7549831965298341,1.0,3062.4469340792307,0.44628680419731137,1.3104758694905434,0.9762989843071433,0.28676229425425304,0.6926171379594741
0.053,1.7544435070908682,1.0,3066.716013003038,0.44939271053198376,1.3101955172868394,0.9765994839266063,0.28673962729781644,0.6931720059156574
0.0535,1.7539038176519024,1.0,3070.923946839138,0.452481192200484,1.3099157145411304,0.9768924151550141,0.2867169603413799,0.6937252866086115
0.054,1.7533641282129364,1.0,3075.072895386861,0.45555234601254296,1.3096364416286472,0.9771780350509137,0.28669429338494334,0.6942770217332568
0.0545,1.7528244387739704,1.0,3079.16502654563,0.45860626877789157,1.3093576789246206,0.9774565897083088,0.28667162642850674,0.6948272528391943
0.055,1.7522847493350047,1.0,3083.2025160888743,0.46164305730626076,1.309079406804281,0.9777283148161319,0.2866489594720702,0.6953760213313577
0.0555,1.7517450598960387,1.0,3087.187547446015,0.4646628084073815,1.3088016056428595,0.9779934361846561,0.28662629251563365,0.6959233684706374
0.056,1.751205370457073,1.0,3091.122311493285,0.4676656188909846,1.3085242558155863,0.9782521702410614,0.28660362555919705,0.6964693353744855
0.0565,1.750665681018107,1.0,3095.009006353492,0.47065158556680114,1.3082473376976922,0.9785047244962038,0.2865809586027605,0.6970139630174902
0.057,1.7501259915791412,1.0,3098.849837203247,0.47362080524456185,1.307970831664408,0.9787512979844777,0.28655829164632396,0.6975572922319286
0.0575,1.7495863021401752,1.0,3102.6456189353394,0.4765733581294524,1.3076947300024433,0.97899208090482,0.28653562468988736,0.6980993403339398
0.058,1.7490466127012092,1.0,3106.3961697613195,0.4795093185772725,1.3074190335188633,0.9792272558228123,0.28651295773345076,0.6986401078773214
0.0585,1.7485069232622434,1.0,3110.1073337014946,0.48242883436809825,1.3071436917165091,0.9794570014245213,0.2864902907770142,0.6991796959143942
0.059000000000000004,1.7479672338232775,1.0,3113.7800398837694,0.48533199258438664,1.306868696053593,0.9796814864954088,0.28646762382057767,0.699718123030509
0.059500000000000004,1.7474275443843117,1.0,3117.4152206148246,0.48821888030859484,1.3065940379883272,0.9799008732283203,0.28644495686414106,0.7002554077487634
0.06,1.7468878549453457,1.0,3121.013811315444,0.4910895846231799,1.306319708978924,0.9801153175322319,0.2864222899077045,0.7007915685301891
0.0605,1.7463481655063797,1.0,3124.5767504569294,0.49394419261059913,1.3060457004835961,0.9803249693242282,0.286399622951268,0.7013266237739317
0.061,1.745808476067414,1.0,3128.1049794998376,0.4967827913533095,1.3057720039605556,0.9805299728057455,0.2863769559948314,0.7018605918174298
0.0615,1.745268786628448,1.0,3131.5994428342324,0.4996054679337682,1.3054986108680149,0.980730466724044,0.2863542890383948,0.7023934909365855
0.062,1.7447290971894822,1.0,3135.061087721229,0.5024123094344324,1.3052255126641863,0.9809265846198044,0.2863316220819583,0.7029253393459333
0.0625,1.7441894077505162,1.0,3138.4908642362043,0.5052034029377591,1.304952700807282,0.9811184550616808,0.2863089551255217,0.7034561551988019
0.063,1.7436497183115502,1.0,3141.8897252141755,0.5079788355262055,1.3046801667555148,0.9813062018685956,0.2862862881690851,0.7039859565874735
0.0635,1.7431100288725845,1.0,3145.258626196064,0.5107386942822287,1.3044079019670967,0.9814899443204965,0.28626362121264853,0.7045147615433369
0.064,1.7425703394336185,1.0,3148.5985253769277,0.5134830662882859,1.3041358979002402,0.9816697973582617,0.286240954256212,0.7050425880370366
0.0645,1.7420306499946527,1.0,3151.910383555635,0.5162120386268341,1.3038641460131575,0.9818458717733832,0.2862182872997754,0.7055694539786177
0.065,1.7414909605556868,1.0,3155.195164086861,0.5189256983803305,1.303592637764061,0.9820182743880241,0.28619562034333884,0.7060953772176648
0.0655,1.740951271116721,1.0,3158.453832833502,0.5216241326312323,1.303321364611163,0.9821871082260014,0.2861729533869023,0.7066203755434373
0.066,1.740411581677755,1.0,3161.687358121484,0.5243074284619964,1.303050318012676,0.9823524726752184,0.2861502864304657,0.7071444666849999
0.0665,1.739871892238789,1.0,3164.8967106964733,0.5269756729550802,1.3027794894268123,0.9825144636420282,0.28612761947402915,0.7076676683113483
0.067,1.7393322027998233,1.0,3168.082863681178,0.5296289531929407,1.3025088703117842,0.9826731736979842,0.2861049525175926,0.708189998031531
0.0675,1.7387925133608573,1.0,3171.246792535185,0.532267356258035,1.3022384521258041,0.9828286922194073,0.286082285561156,0.7087114733947641
0.068,1.7382528239218915,1.0,3174.3876394077533,0.5348909213419463,1.3019682417987626,0.9829811032297585,0.28605961860471946,0.709232082094911
0.0685,1.7377131344829255,1.0,3177.507357437016,0.5374997765115286,1.3016982225680251,0.9831304923633246,0.28603695164828286,0.7097518574594845
0.069,1.7371734450439595,1.0,3180.6070383081333,0.5400940191028316,1.3014283849598112,0.9832769407692026,0.2860142846918463,0.7102708186878823
0.0695,1.7366337556049938,1.0,3183.687082040921,0.5426737264569419,1.301158725341987,0.9834205259221137,0.2859916177354097,0.7107889736938446
0.07,1.7360940661660278,1.0,3186.747889704317,0.5452389759149463,1.300889240082418,0.9835613227288384,0.28596895077897316,0.7113063303655136
