Time [s],Phi [rad],STIM [ ],Fsee [N],Gamma [ ],Lcerel [ ],q [ ],Lmtc [m],fisomrel [ ]
0.0,1.8,1.0,17.968427268650295,2.8641625845286476e-05,1.3793396040404693,0.005000216827782602,0.288653,0.5411398750204719
0.0005,1.79999375,1.0,18.28393620925451,0.005637690277775559,1.3793015889698572,0.012992346705284659,0.2886527375,0.5412318386637165
0.001,1.799975,1.0,21.639392998543197,0.011215276601598564,1.378936156625475,0.03570577805812408,0.28865195,0.5421153992407957
0.0015,1.79994375,1.0,31.119670798304618,0.01676157707697754,1.3780419086000748,0.07073472110154246,0.2886506375,0.5442739647385608
0.002,1.7999,1.0,53.69150329262488,0.022276767191893636,1.3763610564388244,0.11487534838571148,0.2886488,0.5483174591717219
0.0025,1.79984375,1.0,97.30270681545373,0.027761021450340706,1.3739263160470145,0.1647460245699161,0.28864643749999996,0.5541425706872073
0.003,1.7997750000000001,1.0,161.19766857151848,0.03321451337986954,1.3712053823101724,0.2174569998948672,0.28864354999999997,0.5606076662753787
0.0035,1.79969375,1.0,237.95414447839536,0.03863741553131506,1.3685763948531262,0.2707884834357593,0.2886401375,0.5668094424651544
0.004,1.7996,1.0,321.7550177567957,0.04402989948954328,1.3661484595601534,0.32308582652312423,0.2886362,0.5724977855922408
0.0045000000000000005,1.7994937500000001,1.0,409.5663359273669,0.049392135878645896,1.363915806513175,0.37319590687647164,0.2886317375,0.577695426562071
0.005,1.799375,1.0,499.7182136919184,0.054724294353062156,1.36185186828209,0.42039846321229474,0.28862675,0.5824720198366105
0.0055,1.79924375,1.0,591.0979302159013,0.060026543644350366,1.3599328277598013,0.4643135035584123,0.2886212375,0.5868889014694937
0.006,1.7991000000000001,1.0,682.8260647396231,0.06529905150613388,1.358140817550839,0.50480844266978,0.2886152,0.5909922028189308
0.006500000000000001,1.79894375,1.0,774.172602516191,0.07054198455386675,1.35646228064086,0.5419183958259276,0.2886086375,0.5948170997459081
0.007,1.798775,1.0,864.5980269381425,0.07575550940117665,1.3548853521671969,0.5757837409394646,0.28860155,0.5983940906159588
0.0075,1.79859375,1.0,953.5560341648828,0.0809397902723091,1.3534019681100944,0.6066071421090284,0.2885939375,0.601744416249719
0.008,1.7984,1.0,1040.6521003982648,0.0860949912046281,1.3520043233067383,0.6346205118886235,0.2885858,0.6048882537415985
0.0085,1.79819375,1.0,1125.6078945626027,0.09122127568903836,1.3506850845239915,0.6600647331177266,0.2885771375,0.6078442968507682
0.009000000000000001,1.797975,1.0,1208.1677693085596,0.0963188057753983,1.3494383789711821,0.6831773034050092,0.28856795,0.6106276125701292
0.0095,1.79774375,1.0,1288.1298814477248,0.10138774203844346,1.3482589788630421,0.7041841245840234,0.2885582375,0.6132515422234412
0.01,1.7975,1.0,1365.4179530389467,0.10642824667492157,1.3471411606356798,0.7232947713342045,0.288548,0.6157302761240853
0.0105,1.79724375,1.0,1439.9238976200734,0.11144047834081833,1.346080637390139,0.7407017239586506,0.2885372375,0.6180745931876119
0.011,1.796975,1.0,1511.5749224530466,0.116424594799105,1.3450734668313138,0.7565794207391026,0.28852595000000003,0.6202943319165121
0.0115,1.79669375,1.0,1580.353422539189,0.12138075381275286,1.3441157066640976,0.7710846656798489,0.2885141375,0.6223991722801936
0.012,1.7964,1.0,1646.279974323222,0.12630911279270476,1.3432035552964892,0.7843577855618132,0.28850180000000003,0.6243983406627861
0.0125,1.79609375,1.0,1709.3858647425366,0.13120982802783537,1.3423336009574505,0.796524061495168,0.2884889375,0.6263000818096462
0.013000000000000001,1.7957750000000001,1.0,1769.700591803193,0.13608305404971818,1.341502882295121,0.8076951448400163,0.28847555,0.6281115477810102
0.0135,1.79544375,1.0,1827.271972164432,0.14092894491181732,1.3407085904288123,0.8179703229493049,0.2884616375,0.6298394655867725
0.014,1.7951000000000001,1.0,1882.165686578962,0.14574765390833358,1.3399480315288899,0.8274378402934783,0.2884472,0.6314902291442377
0.0145,1.79474375,1.0,1934.4610648998182,0.15053933452827065,1.339218637148957,0.8361761437336823,0.2884322375,0.6330698858762892
0.015,1.794375,1.0,1984.2194029379555,0.15530413743348614,1.3385182698600138,0.8442551087151486,0.28841675,0.6345834852391037
0.0155,1.79399375,1.0,2031.5187119266325,0.1600422131444007,1.337844810553707,0.8517369004998414,0.2884007375,0.6360359820852353
0.016,1.7936,1.0,2076.4425943442616,0.16475371126392235,1.3371962567796098,0.8586769145474781,0.2883842,0.6374320293808018
0.0165,1.7931937500000001,1.0,2119.089155704074,0.16943878246177604,1.336570609645453,0.8651245449084588,0.2883671375,0.6387762267949237
0.017,1.792775,1.0,2159.5412922938217,0.1740975751333275,1.3359661638705451,0.8711239761987242,0.28834955,0.6400725023409122
0.0175,1.7923437500000001,1.0,2197.867851291864,0.17873023537498045,1.335381470791056,0.8767147836864609,0.2883314375,0.641324199776875
0.018000000000000002,1.7919,1.0,2234.1471479464567,0.18333690928313867,1.334815081743155,0.88193240383175,0.2883128,0.6425346334098356
0.0185,1.79144375,1.0,2268.4661730855223,0.1879177429542058,1.3342655480630117,0.8868086176703771,0.2882936375,0.643707089853745
0.019,1.790975,1.0,2300.908259012912,0.192472881138991,1.3337315358099309,0.8913720019493956,0.28827395,0.6448445854781404
0.0195,1.79049375,1.0,2331.566215324614,0.19700246991204948,1.3332116859150298,0.8956482635288204,0.2882537375,0.6459501669951005
0.02,1.79,1.0,2360.5132632135364,0.20150665218824396,1.3327048931235999,0.899660627402468,0.288233,0.6470263204451978
0.0205,1.78949375,1.0,2387.8149226198625,0.20598556921869687,1.3322101775852042,0.9034300844390869,0.2882117375,0.648075248433696
0.021,1.788975,1.0,2413.541193996761,0.21043936225453064,1.3317265594494068,0.9069756116266116,0.28818995000000003,0.6490991382521021
0.021500000000000002,1.78844375,1.0,2437.76618393841,0.21486817254686774,1.3312530588657712,0.9103143929093641,0.2881676375,0.6501001626022639
0.022,1.7879,1.0,2460.5600143322335,0.219272139793901,1.3307887700612202,0.9134620276158893,0.2881448,0.651080323984009
0.0225,1.78734375,1.0,2481.9976339446252,0.2236514054848324,1.3303327725811924,0.9164326837000826,0.28812143749999997,0.6520416433635912
0.023,1.786775,1.0,2502.1426970684884,0.2280061085391595,1.3298842818893204,0.9192392752893921,0.28809755,0.6529858436299981
0.0235,1.78619375,1.0,2521.048893485803,0.23233638513328553,1.3294426316309174,0.9218935888119283,0.28807313749999996,0.653914389234999
0.024,1.7856,1.0,2538.7720464638764,0.23664237144361366,1.3290071554512972,0.92440637801722,0.2880482,0.6548287361666006
0.0245,1.78499375,1.0,2555.3699332144474,0.24092420364654715,1.3285771869957737,0.9267874686788494,0.2880227375,0.6557303322255881
0.025,1.784375,1.0,2570.902115197446,0.24518201791848912,1.3281520599096603,0.9290458514127968,0.28799675,0.6566206172737459
0.025500000000000002,1.78374375,1.0,2585.4174519184417,0.24941594719330726,1.327731222959673,0.9311897818396817,0.2879702375,0.6575007828359603
0.026000000000000002,1.7831000000000001,1.0,2598.9795965749786,0.2536261300321128,1.3273139996387022,0.9332268164687288,0.2879432,0.6583722756393994
0.0265,1.78244375,1.0,2611.633885270039,0.25781269916740535,1.3268998962688996,0.9351639241203878,0.2879156375,0.6592361537607867
0.027,1.781775,1.0,2623.4195051695638,0.26197578518690756,1.3264884858826278,0.9370075244414657,0.28788755,0.6600933309504757
0.0275,1.7810937500000001,1.0,2634.3765363033567,0.2661155186783421,1.326079341512249,0.9387635298005689,0.2878589375,0.6609447163231446
0.028,1.7804,1.0,2644.5458746527465,0.2702320302294316,1.3256720361901255,0.9404373920809679,0.2878298,0.6617912144253111
0.0285,1.77969375,1.0,2653.9691592802787,0.27432545042789885,1.3252661429486206,0.9420341445906404,0.2878001375,0.6626337252912231
0.029,1.778975,1.0,2662.6887035014947,0.2783959098614665,1.324861234820096,0.9435584396520894,0.28776995,0.6634731444871249
0.029500000000000002,1.7782437500000001,1.0,2670.738016436417,0.2824435343249328,1.3244569713396688,0.9450145924667714,0.2877392375,0.6643101841488819
0.03,1.7775,1.0,2678.164040457772,0.28646845841174057,1.3240528933295446,0.9464065877351948,0.287708,0.6651457982294351
0.0305,1.77674375,1.0,2684.996802530967,0.29047080842698064,1.3236487013656975,0.9477381389585038,0.2876762375,0.6659806061999285
0.031,1.775975,1.0,2691.263441157201,0.2944507089499017,1.3232441259199788,0.9490126967719564,0.28764395,0.66681516281323
0.0315,1.7751937500000001,1.0,2696.9914226351016,0.2984082845597523,1.3228388974642402,0.9502334678187071,0.2876111375,0.6676500200385007
0.032,1.7744,1.0,2702.208510423301,0.3023436598357812,1.3224327464703334,0.9514034350179907,0.2875778,0.6684857270522887
0.0325,1.77359375,1.0,2706.942736113409,0.306256959357237,1.32202540341011,0.9525253759147707,0.2875439375,0.669322830224987
0.033,1.772775,1.0,2711.22237201367,0.3101483077033684,1.3216165987554214,0.9536018793130563,0.28750955,0.6701618731026604
0.0335,1.7719437500000002,1.0,2715.0746851817303,0.31401782806606543,1.3212060740983502,0.9546353612640271,0.2874746375,0.6710033736043532
0.034,1.7711000000000001,1.0,2718.5207315388175,0.31786563722211003,1.3207936293104814,0.95562808266715,0.2874392,0.6718477276588313
0.0345,1.7702437500000001,1.0,2721.5942579876414,0.32169187087961165,1.3203789501179077,0.9565821489366455,0.2874032375,0.6726955622491939
0.035,1.7693750000000001,1.0,2724.312104311002,0.32549664675369555,1.3199618775309827,0.9574995416907909,0.28736675,0.6735471840779605
0.035500000000000004,1.76849375,1.0,2726.69121784778,0.329280082559487,1.3195422525600595,0.9583821161267627,0.2873297375,0.674402898051158
0.036000000000000004,1.7676,1.0,2728.74864231065,0.3330422960121112,1.3191199162154914,0.9592316105360359,0.2872922,0.6752630072532454
0.0365,1.76669375,1.0,2730.501507164006,0.33678340482669356,1.3186947095076318,0.9600496549998134,0.2872541375,0.6761278129204279
0.037,1.765775,1.0,2731.9670175625934,0.34050352671835926,1.3182664734468337,0.9608377793435661,0.28721555,0.6769976144123595
0.0375,1.76484375,1.0,2733.1624448503294,0.34420277940223365,1.3178350490434507,0.9615974204213612,0.2871764375,0.6778727091822299
0.038,1.7639,1.0,2734.1051176198225,0.3478812805934419,1.3174002773078357,0.9623299287932454,0.28713679999999997,0.6787533927452456
0.0385,1.76294375,1.0,2734.8124133322135,0.3515391480071094,1.3169619992503423,0.9630365748523636,0.28709663750000003,0.6796399586454911
0.039,1.761975,1.0,2735.302188581701,0.3551764992602523,1.3165200519035252,0.9637185540645228,0.28705595,0.6805327064508602
0.0395,1.7609937500000001,1.0,2735.589807860502,0.3587934490680379,1.3160742952346092,0.9643769940948071,0.2870147375,0.6814318874105393
0.04,1.76,1.0,2735.680056769659,0.3623901111686106,1.3156246855038973,0.9650129663949625,0.286973,0.6823375570808862
0.0405,1.7589937500000001,1.0,2735.586069132464,0.3659665986292117,1.3151711033739466,0.9656274748073479,0.2869307375,0.6832499221876565
0.041,1.757975,1.0,2735.320997397175,0.3695230245170825,1.3147134295073144,0.9662214668870054,0.28688795,0.684169187779798
0.0415,1.75694375,1.0,2734.887743857997,0.37305950149345074,1.3142516377750528,0.9667958455187338,0.2868446375,0.685095370394442
0.042,1.7559,1.0,2734.318770757096,0.37657614214908375,1.3137854337298425,0.9673514414638512,0.28680079999999997,0.6860290228921386
0.0425,1.7548439207184836,1.0,2733.621312693049,0.3800730573564917,1.3133148291449703,0.9678890655454989,0.2867564446701763,0.6869700823911291
0.043000000000000003,1.7537834866231492,1.0,2733.1695838252854,0.38355035731408743,1.3128400265423381,0.9684095003912734,0.28671190643817224,0.687918105207236
0.043500000000000004,1.752723052527815,1.0,2733.1577357875603,0.3870081522202837,1.3123612284438473,0.9689134868788447,0.2866673682061682,0.6888726497610034
0.044,1.7516626184324808,1.0,2733.55741856535,0.39044655152489366,1.3118786923224541,0.9694017310085066,0.2866228299741642,0.6898331673317475
0.0445,1.7506021843371466,1.0,2734.328045388474,0.39386566471773005,1.311392787589081,0.969874910602457,0.28657829174216015,0.6907988897879513
0.045,1.7495417502418122,1.0,2735.441339000915,0.3972655992499623,1.310903772417239,0.9703336595683488,0.2865337535101561,0.691769273905388
0.0455,1.748481316146478,1.0,2736.869264881571,0.40064646252396485,1.31041190318474,0.9707785792572957,0.2864892152781521,0.6927437830396286
0.046,1.7474208820511439,1.0,2738.5897245862907,0.40400835927592393,1.3099173826572428,0.9712102362311094,0.28644467704614807,0.6937219895627684
0.0465,1.7463604479558095,1.0,2740.572201533854,0.40735139845931406,1.3094204901551711,0.9716291749070509,0.286400138814144,0.6947033171943038
0.047,1.7453000138604753,1.0,2742.786432921035,0.410675689695214,1.308921502661323,0.9720359126203777,0.28635560058213994,0.6956871976832596
0.0475,1.744239579765141,1.0,2745.2170937591463,0.41398133594256215,1.308420561610817,0.9724309307588488,0.2863110623501359,0.6966733328305745
0.048,1.743179145669807,1.0,2747.848858073864,0.4172684401602968,1.3079178084387726,0.9728146873898724,0.2862665241181319,0.6976614261679317
0.0485,1.7421187115744725,1.0,2750.6663930009686,0.4205371053073565,1.3074133845803082,0.9731876186102814,0.28622198588612785,0.6986511829747434
0.049,1.7410582774791383,1.0,2753.654353325858,0.42378743434267957,1.3069074314705431,0.9735501398060744,0.2861774476541238,0.699642310293858
0.0495,1.7399978433838041,1.0,2756.797376466121,0.42701953022520445,1.306400090544596,0.9739026468289034,0.2861329094221198,0.7006345169459929
0.05,1.7389374092884697,1.0,2760.0800778975276,0.43023349591386956,1.3058915032375862,0.9742455170955027,0.2860883711901157,0.7016275135428884
0.0505,1.7378769751931356,1.0,2763.4870470245232,0.4334294343676133,1.3053818109846322,0.9745791106157617,0.2860438329581117,0.7026210124991912
0.051000000000000004,1.7368165410978014,1.0,2767.010329298144,0.4366074428776572,1.304871087640445,0.9749037659024373,0.28599929472610763,0.7036148594417477
0.051500000000000004,1.7357561070024672,1.0,2770.632490112706,0.4397676292678274,1.3043594924667061,0.9752198128556768,0.2859547564941036,0.7046087351575545
0.052000000000000005,1.7346956729071328,1.0,2774.345645748698,0.4429100920419187,1.3038470982509442,0.975527560047007,0.28591021826209956,0.7056024900653095
0.0525,1.7336352388117986,1.0,2778.142878712835,0.4460349288054296,1.303333968921209,0.9758273017182268,0.28586568003009555,0.7065959926610557
0.053,1.7325748047164644,1.0,2782.0172559201483,0.44914223716385876,1.30282016840555,0.9761193191942221,0.2858211417980915,0.7075891122666911
0.0535,1.73151437062113,1.0,2785.9618276981496,0.4522321147227046,1.3023057606320174,0.9764038815626006,0.2857766035660875,0.7085817190328361
0.054,1.7304539365257958,1.0,2789.9696268799185,0.4553046590874657,1.301790809528661,0.976681246311996,0.2857320653340834,0.7095736839414397
0.0545,1.7293935024304616,1.0,2794.0336679895486,0.45835996786364064,1.3012753790235307,0.9769516599318806,0.2856875271020794,0.7105648788081247
0.055,1.7283330683351275,1.0,2798.146946516654,0.4613981386567279,1.3007595330446764,0.9772153584765145,0.28564298887007533,0.7115551762842737
0.0555,1.727272634239793,1.0,2802.305937441904,0.4644192616699577,1.3002433041299946,0.9774725655431641,0.2855984506380713,0.7125445099652539
0.056,1.7262122001444589,1.0,2806.504233351815,0.46742343609481923,1.2997267505680279,0.9777234977885868,0.28555391240606726,0.7135327646490153
0.0565,1.7251517660491247,1.0,2810.732574595801,0.47041076813205873,1.2992099560284633,0.9779683650398084,0.28550937417406325,0.7145197774663425
0.057,1.7240913319537903,1.0,2814.9884502624836,0.4733813490944841,1.2986929435288654,0.9782073637218149,0.2854648359420592,0.7155055021876977
0.0575,1.723030897858456,1.0,2819.2693420013497,0.47633527029490336,1.2981757360867985,0.9784406823168914,0.28542029771005517,0.7164898928861476
0.058,1.721970463763122,1.0,2823.5727239168273,0.4792726230461244,1.2976583567198268,0.9786685017502709,0.2853757594780511,0.717472903937667
0.0585,1.7209100296677875,1.0,2827.8960624750403,0.48219349866095523,1.2971408284455141,0.9788909957540917,0.28533122124604704,0.718454490021408
0.059000000000000004,1.7198495955724533,1.0,2832.2368164218733,0.48509798845220387,1.2966231742814252,0.979108331211051,0.28528668301404303,0.7194346061199339
0.059500000000000004,1.7187891614771191,1.0,2836.5924367126545,0.48798618373267816,1.296105417245124,0.9793206684790324,0.285242144782039,0.7204132075194227
0.06,1.717728727381785,1.0,2840.9603664537817,0.4908581758151861,1.2955875803541752,0.9795281616979055,0.28519760655003495,0.7213902498098343
0.0605,1.7166682932864505,1.0,2845.338040856566,0.49371405601253565,1.2950696866261424,0.9797309590796048,0.2851530683180309,0.722365688885045
0.061,1.7156078591911164,1.0,2849.722887201848,0.4965539156375348,1.2945517590785904,0.9799292031825259,0.2851085300860269,0.7233394809429465
0.0615,1.7145474250957822,1.0,2854.112324817037,0.49937784600299157,1.2940338207290831,0.9801230311711935,0.28506399185402287,0.7243115824855147
0.062,1.7134869910004478,1.0,2858.503765064587,0.5021859384217138,1.2935158945951848,0.9803125750621063,0.2850194536220188,0.7252819503188406
0.0625,1.7124265569051136,1.0,2862.8996120080074,0.5049782527052668,1.2929979593119056,0.9804979572943859,0.28497491539001474,0.7262506244867949
0.063,1.7113661228097794,1.0,2867.293241305216,0.5077549188413171,1.2924800736484103,0.9806793051387636,0.28493037715801073,0.7272174952762133
0.0635,1.710305688714445,1.0,2871.683818143128,0.5105160223114716,1.2919622448885881,0.9808567352775507,0.2848858389260067,0.7281825496161227
0.064,1.7092452546191108,1.0,2876.0707645928933,0.5132616467289077,1.2914444780195347,0.981030359908211,0.28484130069400265,0.7291457788007685
0.0645,1.7081848205237766,1.0,2880.4535010313234,0.5159918757068026,1.2909267780283444,0.9812002871901573,0.2847967624619986,0.730107174190199
0.065,1.7071243864284424,1.0,2884.831446147638,0.5187067928583337,1.2904091499021126,0.9813666214197968,0.2847522242299946,0.7310667272102432
0.0655,1.706063952333108,1.0,2889.2040169511038,0.521406481796678,1.2898915986279345,0.9815294631967668,0.28470768599799057,0.732024429352489
0.066,1.7050035182377739,1.0,2893.5706287794933,0.5240910261350129,1.2893741291929046,0.9816889095818664,0.2846631477659865,0.7329802721742606
0.0665,1.7039430841424397,1.0,2897.9306953077194,0.5267605094865156,1.2888567465841185,0.9818450542471537,0.28461860953398244,0.7339342472985917
0.067,1.7028826500471053,1.0,2902.283628557333,0.5294150154643635,1.288339455788671,0.9819979876186493,0.2845740713019784,0.7348863464141999
0.0675,1.701822215951771,1.0,2906.628838906093,0.5320546276817337,1.287822261793657,0.9821477970120621,0.2845295330699744,0.7358365612754578
0.068,1.700761781856437,1.0,2910.965735098564,0.5346794297518036,1.2873051695861717,0.9822945667619243,0.28448499483797035,0.7367848837023633
0.0685,1.6997013477611027,1.0,2915.2937242571606,0.5372895052877502,1.2867881841533102,0.9824383783444984,0.2844404566059663,0.7377313055805071
0.069,1.6986409136657683,1.0,2919.6122118937506,0.539884937902751,1.2862713104821673,0.9825793104947984,0.2843959183739623,0.7386758188610415
0.0695,1.6975804795704341,1.0,2923.9206019212916,0.5424658112099833,1.2857545535598383,0.9827174393180466,0.2843513801419582,0.7396184155606427
0.07,1.6965200454751,1.0,2928.2182966670425,0.545032208822624,1.285237918373418,0.9828528383958636,0.2843068419099542,0.7405590877614776
0.07050000000000001,1.6954596113797655,1.0,2932.504696885274,0.5475842143538507,1.2847214099100015,0.9829855788874801,0.28426230367795013,0.7414978276111637
0.07100000000000001,1.6943991772844313,1.0,2936.7806037482214,0.5501218683711115,1.2842050208711933,0.9831157264865089,0.2842177654459461,0.7424346495905759
0.07150000000000001,1.6933387431890972,1.0,2941.0448749968605,0.5526452972728493,1.2836887609985939,0.9832433506501268,0.28417322721394206,0.743369537254728
0.07200000000000001,1.6922783090937628,1.0,2945.2971149240248,0.5551545901101361,1.283172633473941,0.9833685160760592,0.28412868898193805,0.7443024861333962
