Time [s],Phi [rad],STIM [ ],Fsee [N],Gamma [ ],Lcerel [ ],q [ ],Lmtc [m],fisomrel [ ]
0.0,1.8,1.0,17.99619288000783,0.0001698971945544547,1.3793364946740079,0.005007522877541209,0.288653,0.5411473973483303
0.0005,1.79999375,1.0,18.357875332683196,0.0057781535144818185,1.3792933856730325,0.013390376866902944,0.2886527375,0.5412516823491333
0.001,1.799975,1.0,21.81822489811822,0.011354951950617352,1.3789179380118155,0.03644665006104077,0.28865195,0.5421594268267664
0.0015,1.79994375,1.0,31.524635315986878,0.01690046895777526,1.378007546411588,0.07174574049264781,0.2886506375,0.5443568075761837
0.002,1.7999,1.0,54.54672088827214,0.022414879998949946,1.376305849703769,0.1160707175242273,0.2886488,0.548449960072463
0.0025,1.79984375,1.0,98.72573967772126,0.027898359553839888,1.3738580569376977,0.16604523361162962,0.28864643749999996,0.5543053356593406
0.003,1.7997750000000001,1.0,163.03990814423858,0.03335108112517483,1.3711366725293777,0.21879653806285565,0.28864354999999997,0.5607703134688187
0.0035,1.79969375,1.0,240.03047204890078,0.038773217239472614,1.3685126137081451,0.2721202585712474,0.2886401375,0.5669593543941053
0.004,1.7996,1.0,323.96094435364296,0.044164939457451646,1.366090158922431,0.32437496445255953,0.2886362,0.5726339143499657
0.0045000000000000005,1.7994937500000001,1.0,411.84852493833756,0.04952641837933312,1.3638623287631406,0.3744193703907512,0.2886317375,0.577819533504669
0.005,1.799375,1.0,502.0453097541334,0.05485782363666217,1.3618024901822874,0.42154292410225225,0.28862675,0.582585963322372
0.0055,1.79924375,1.0,593.4441795885994,0.06015932393171834,1.3598870450487344,0.46537298147192585,0.2886212375,0.5869939885398285
0.006,1.7991000000000001,1.0,685.1728432463387,0.06543108700062032,1.3580982055661484,0.5057820342451163,0.2886152,0.591089525415512
0.006500000000000001,1.79894375,1.0,776.5188713135822,0.07067327964007758,1.35642226612509,0.5428083872969646,0.2886086375,0.5949080618949476
0.007,1.798775,1.0,866.8910745125456,0.07588606774395991,1.3548483433116583,0.5765950202757009,0.28860155,0.5984778483704449
0.0075,1.79859375,1.0,955.8003083544278,0.08106961614259195,1.3533674748000855,0.6073450832553217,0.2885939375,0.6018221548259279
0.008,1.7984,1.0,1042.8678386278716,0.08622408911544506,1.3519717229721242,0.6352908522745875,0.2885858,0.6049614356761297
0.0085,1.79819375,1.0,1127.7674814477616,0.09134964943294908,1.3506545313498728,0.6606737068164098,0.2885771375,0.6079126264151821
0.009000000000000001,1.797975,1.0,1210.2620530029753,0.09644645932374041,1.3494097786320256,0.683730766085438,0.28856795,0.6106913475647924
0.0095,1.79774375,1.0,1290.1868188778353,0.10151468041404746,1.3482317734476927,0.7046873189394111,0.2885582375,0.6133119641628662
0.01,1.7975,1.0,1367.399120283638,0.10655447261531614,1.3471157088497203,0.7237529992334035,0.288548,0.6157866220336614
0.0105,1.79724375,1.0,1441.8124227230662,0.11156599529813119,1.3460570109635521,0.7411196614479424,0.2885372375,0.6181267384023341
0.011,1.796975,1.0,1513.3959602720038,0.11654940777826107,1.345051230621591,0.7569610442612453,0.28852595000000003,0.6203432660922374
0.0115,1.79669375,1.0,1582.1208175904947,0.12150486730537571,1.3440945998575753,0.7714336197895842,0.2885141375,0.6224454921838494
0.012,1.7964,1.0,1647.9833254390965,0.1264325302702209,1.3431836243732844,0.7846774577020598,0.28850180000000003,0.6244419641645932
0.0125,1.79609375,1.0,1711.011947053413,0.1313325526053881,1.3423149282796427,0.7968174821761795,0.2884889375,0.6263408478217573
0.013000000000000001,1.7957750000000001,1.0,1771.2640882186527,0.13620509030452763,1.3414852366118777,0.8079648845232489,0.28847555,0.6281499782402102
0.0135,1.79544375,1.0,1828.7847166806748,0.14105029719820372,1.3406917884082468,0.8182186838744425,0.2884616375,0.6298759735688471
0.014,1.7951000000000001,1.0,1883.6214454248661,0.14586832588772902,1.339932099762185,0.827666944853847,0.2884472,0.63152476897727
0.0145,1.79474375,1.0,1935.8459782822936,0.15065932897441614,1.3392036867671273,0.8363879065370904,0.2884322375,0.6331022285828718
0.015,1.794375,1.0,1985.5329713983526,0.15542345796414267,1.3385042683980322,0.8444511841652195,0.28841675,0.634613712615794
0.0155,1.79399375,1.0,2032.7861588051321,0.16016086505632468,1.3378314587786047,0.851918675684055,0.2884007375,0.6360647495520406
0.016,1.7936,1.0,2077.670892264867,0.16487169905092847,1.337183458048388,0.8588456887589518,0.2883842,0.6374595523550097
0.0165,1.7931937500000001,1.0,2120.2612555812243,0.1695561084415123,1.3365585198948289,0.8652815516076915,0.2883671375,0.6388021769330423
0.017,1.792775,1.0,2160.6438805207495,0.1742142417216345,1.3359548980053746,0.8712703054829809,0.28834955,0.6400966406447652
0.0175,1.7923437500000001,1.0,2198.899687598874,0.17884624606487817,1.3353710200657698,0.8768513771690467,0.2883314375,0.6413465526149396
0.018000000000000002,1.7919,1.0,2235.1345147381385,0.18345226985581278,1.3348051628769495,0.8820600330338425,0.2883128,0.6425558128537605
0.0185,1.79144375,1.0,2269.419411543325,0.1880324576960213,1.3342560447034146,0.8869280174285443,0.2882936375,0.6437273487858064
0.019,1.790975,1.0,2301.8271818853514,0.1925869537345367,1.3337224393285894,0.8914838597132966,0.28827395,0.6448639460732652
0.0195,1.79049375,1.0,2332.4372263338414,0.19711590212039176,1.333203120535898,0.8957532291314124,0.2882537375,0.6459683688301652
0.02,1.79,1.0,2361.328944133915,0.2016194461362044,1.3326969211299076,0.899759272678704,0.288233,0.6470432355570155
0.0205,1.78949375,1.0,2388.5865007494704,0.2060977295632922,1.3322026798192983,0.9035228866175787,0.2882117375,0.6480911336762654
0.021,1.788975,1.0,2414.28471969683,0.2105508945194423,1.3317193728644996,0.9070629934631237,0.28818995000000003,0.6491143420484156
0.021500000000000002,1.78844375,1.0,2438.4850199406897,0.2149790805505297,1.331246145505938,0.9103967630190617,0.2881676375,0.650114767498275
0.022,1.7879,1.0,2461.2522949548566,0.2193824272024293,1.3307821429840394,0.9135397674023754,0.2881448,0.6510943044734901
0.0225,1.78734375,1.0,2482.6546228168495,0.22376107402101608,1.3303265105392308,0.9165061518057976,0.28812143749999997,0.6520548355707125
0.023,1.786775,1.0,2502.756199918411,0.22811515911498495,1.3298784578901182,0.9193087966622849,0.28809755,0.6529980963649157
0.0235,1.78619375,1.0,2521.626181905868,0.23244482202889463,1.3294371719818288,0.9219594341284625,0.28807313749999996,0.6539258600657365
0.024,1.7856,1.0,2539.3282591664665,0.23675020097739882,1.3290019135041,0.9244687821953165,0.2880482,0.6548397350466859
0.0245,1.78499375,1.0,2555.911057814391,0.24103143039286348,1.3285721038241176,0.9268466611189446,0.2880227375,0.655740984019749
0.025,1.784375,1.0,2571.424852443802,0.24528864470765455,1.3281471643090683,0.9291020564382964,0.28799675,0.6566308627420834
0.025500000000000002,1.78374375,1.0,2585.9214275149184,0.24952197835413792,1.3277265163261378,0.9312432013221343,0.2879702375,0.6575106202064214
0.026000000000000002,1.7831000000000001,1.0,2599.453946162721,0.2537315657646796,1.3273095812425126,0.9332776497885816,0.2879432,0.6583814988101118
0.0265,1.78244375,1.0,2612.0703597470956,0.2579175397037976,1.3268958405117774,0.9352123507135353,0.2879156375,0.6592446092350082
0.027,1.781775,1.0,2623.818549681277,0.26208003382900447,1.3264847862522695,0.9370536983484826,0.28788755,0.6601010342659754
0.0275,1.7810937500000001,1.0,2634.7528679956654,0.2662191826974165,1.326075859712919,0.9388075747287813,0.2878589375,0.6609519569913291
0.028,1.7804,1.0,2644.9085301405244,0.27033511510855035,1.3256686873748587,0.9404794292159656,0.2878298,0.661798169845461
0.0285,1.77969375,1.0,2654.3214392408504,0.27442795986192287,1.3252628957192218,0.9420742928175168,0.2878001375,0.6626404613148809
0.029,1.778975,1.0,2663.028126365817,0.27849784575705056,1.3248581112271416,0.9435968157489147,0.28776995,0.6634796159755552
0.029500000000000002,1.7782437500000001,1.0,2671.065693890671,0.2825449015934503,1.3244539603797505,0.9450513011723334,0.2877392375,0.6643164145213498
0.03,1.7775,1.0,2678.471761952299,0.2865692561706386,1.3240500696581818,0.9464417355427807,0.287708,0.6651516337835699
0.0305,1.77674375,1.0,2685.2794715772325,0.29057103652825955,1.32364611087334,0.9477718212657316,0.2876762375,0.6659859531778117
0.031,1.775975,1.0,2691.5214576593103,0.29455037055287164,1.3232417641024221,0.9490449968994684,0.28764395,0.6668200316962822
0.0315,1.7751937500000001,1.0,2697.2344586865324,0.2985073864997067,1.3228366751344274,0.9502644538261624,0.2876111375,0.6676545956254727
0.032,1.7744,1.0,2702.443089591589,0.30244220752131795,1.3224306035404234,0.9514331732935529,0.2875778,0.6684901336114741
0.0325,1.77359375,1.0,2707.1722165080587,0.3063549567702586,1.322023308891479,0.9525539313233845,0.2875439375,0.6693271317939513
0.033,1.772775,1.0,2711.4469325563964,0.3102457573990819,1.321614550758662,0.9536293153288509,0.28750955,0.6701660737892347
0.0335,1.7719437500000002,1.0,2715.2925349124785,0.31411473256034095,1.321204088713041,0.9546617391966651,0.2874746375,0.6710074406697224
0.034,1.7711000000000001,1.0,2718.7345031568857,0.3179620054065891,1.320791682325684,0.9556534569919359,0.2874392,0.6718517109395965
0.0345,1.7702437500000001,1.0,2721.797141542468,0.3217876986669302,1.3203771033409792,0.9566065766542379,0.2874032375,0.6726993356340674
0.035,1.7693750000000001,1.0,2724.502435332191,0.3255919335071874,1.3199601458776995,0.9575230720519221,0.28736675,0.6735507176336775
0.035500000000000004,1.76849375,1.0,2726.8701220653606,0.32937482985365285,1.319540625577664,0.9584047931574896,0.2873297375,0.6744062136652906
0.036000000000000004,1.7676,1.0,2728.9171171456514,0.3331365068280043,1.3191183846557277,0.959253475969158,0.2872922,0.6752661242816295
0.0365,1.76669375,1.0,2730.660421012031,0.33687708355191914,1.3186932653267447,0.9600707484284485,0.2872541375,0.6761307481995444
0.037,1.7657786003072244,1.0,2732.303162240302,0.340596675131836,1.3182650454377378,0.9608581310662478,0.2872157012129034,0.6770005129225596
0.0375,1.764863087545,1.0,2734.235482318426,0.34429540624159405,1.317834036116713,0.961617106351038,0.28717724967689,0.6778747623908165
0.038,1.7639475747827755,1.0,2736.4506936798666,0.3479733926727345,1.317400464823219,0.9623490572240133,0.28713879814087656,0.6787530131696574
0.0385,1.763032062020551,1.0,2738.927539740169,0.35163074893263974,1.3169645275485518,0.9630552809433437,0.28710034660486317,0.6796348478186333
0.039,1.7621165492583266,1.0,2741.6447642160983,0.35526758952869186,1.316526420284007,0.9637369983674539,0.2870618950688497,0.680519850963623
0.0395,1.761201036496102,1.0,2744.5811012707504,0.3588840289682731,1.3160863390208803,0.9643953592838085,0.28702344353283626,0.6814076093251821
0.04,1.7602855237338775,1.0,2747.7152665094964,0.36248018175876573,1.3156444797504678,0.9650314473116942,0.28698499199682287,0.6822977117444404
0.0405,1.759370010971653,1.0,2751.0259488281854,0.3660561624075519,1.3152010384640649,0.9656462844171844,0.2869465404608094,0.6831897492065533
0.041,1.7584544982094286,1.0,2754.4920923143345,0.3696120852738461,1.314756208536187,0.9662408348219769,0.286908088924796,0.6840833201145546
0.0415,1.757538985447204,1.0,2758.097991031873,0.3731480628844473,1.3143101346058215,0.966816004645492,0.2868696373887826,0.6849781227170613
0.042,1.7566234726849796,1.0,2761.8301722223905,0.37666420697294045,1.3138629408549458,0.9673726483637112,0.2868311858527691,0.6858738978248877
0.0425,1.7557079599227552,1.0,2765.67658839284,0.38016062805889744,1.3134147383411134,0.9679115727481836,0.2867927343167557,0.6867704138729955
0.043000000000000003,1.7547924471605307,1.0,2769.625165121201,0.3836374366618902,1.3129656381218773,0.9684335412311452,0.2867542827807423,0.6876674405451727
0.043500000000000004,1.7538769343983063,1.0,2773.668787347482,0.3870947379290333,1.312515706272431,0.9689392722414266,0.2867158312447289,0.6885648384344503
0.044,1.7529614216360818,1.0,2777.792069357096,0.39053264644604413,1.312065083239839,0.9694294537873677,0.28667737970871543,0.6894623208626031
0.0445,1.7520459088738574,1.0,2781.9803274958613,0.39395127722405326,1.3116139027662677,0.9699047375824393,0.286638928172702,0.6903596160802776
0.045,1.751130396111633,1.0,2786.2280310630795,0.3973507355363066,1.3111622158676173,0.9703657340151669,0.2866004766366886,0.6912566180368442
0.0455,1.7502148833494084,1.0,2790.5296338875028,0.4007311266560501,1.3107100735597883,0.9708130224402518,0.28656202510067513,0.6921532212642568
0.046,1.749299370587184,1.0,2794.879573783869,0.4040925558565297,1.3102575268586816,0.9712471530579782,0.28652357356466174,0.6930493208786176
0.0465,1.7483838578249593,1.0,2799.272272065975,0.4074351284109913,1.3098046267801973,0.9716686486624458,0.2864851220286483,0.6939448125815775
0.047,1.7474683450627349,1.0,2803.7021331189158,0.41075894959268083,1.3093514243402358,0.9720780062689548,0.28644667049263484,0.6948395926615669
0.0475,1.7465528323005104,1.0,2808.1635440274686,0.4140641246748443,1.3088979705546981,0.9724756986299585,0.28640821895662144,0.6957335579948625
0.048,1.745637319538286,1.0,2812.650874263344,0.4173507589307276,1.3084443164394843,0.9728621756481924,0.286369767420608,0.69662660604649
0.0485,1.7447218067760615,1.0,2817.158475429871,0.4206189576335767,1.3079905130104952,0.9732378656948483,0.2863313158845946,0.6975186348709567
0.049,1.743806294013837,1.0,2821.681726995841,0.4238688229427488,1.307536601933086,0.9736031758227206,0.28629286434858114,0.6984095614523296
0.0495,1.7428907812516126,1.0,2826.2204191998244,0.4271004478197361,1.3070825853397432,0.9739584902323026,0.2862544128125677,0.6992993806793983
0.05,1.741975268489388,1.0,2830.7645824143087,0.4303139569142085,1.306628552468976,0.974304184823393,0.2862159612765543,0.7001879171262131
0.0505,1.7410597557271636,1.0,2835.312676742926,0.43350944816572323,1.3061745170933707,0.9746406100856245,0.2861775097405409,0.7010751437584224
0.051000000000000004,1.7401442429649392,1.0,2839.863157333614,0.43668701951383776,1.3057204929855142,0.9749681005619327,0.28613905820452745,0.7019610337011932
0.051500000000000004,1.7392287302027147,1.0,2844.4144743800525,0.43984676889810936,1.3052664939179928,0.975286975715742,0.286100606668514,0.7028455602392094
0.052000000000000005,1.7383132174404903,1.0,2848.9650731270103,0.4429887942580954,1.3048125336633933,0.9755975407436377,0.2860621551325006,0.7037286968166541
0.0525,1.7373977046782658,1.0,2853.5133938800564,0.44611319353335316,1.3043586259943025,0.9759000873373957,0.28602370359648716,0.7046104170371821
0.053,1.7364821919160414,1.0,2858.057872019785,0.4492200646634401,1.3039047846833065,0.9761948943989393,0.28598525206047376,0.7054906946638811
0.0535,1.7355666791538167,1.0,2862.5969380196743,0.45230950558791344,1.3034510235029921,0.9764822287115132,0.2859468005244603,0.7063695036192172
0.054,1.7346511663915922,1.0,2867.129017468584,0.4553816142463306,1.302997356225946,0.9767623455701084,0.28590834898844686,0.7072468179849718
0.0545,1.7337356536293678,1.0,2871.6525310974644,0.45843648857824887,1.3025437966247548,0.9770354893739368,0.28586989745243346,0.7081226120021651
0.055,1.7328201408671433,1.0,2876.165894809862,0.46147422652322556,1.302090358472005,0.9773018941835406,0.28583144591642,0.708996860070968
0.0555,1.7319046281049189,1.0,2880.6675197171053,0.4644949260208181,1.3016370555402832,0.9775617842449282,0.2857929943804066,0.7098695367505998
0.056,1.7309891153426944,1.0,2885.1567053109475,0.46749867485076985,1.301183893705958,0.9778153730849587,0.28575454284439317,0.7107406319263971
0.0565,1.73007360258047,1.0,2889.633673999841,0.470485560153407,1.300730870675049,0.978062864930067,0.2857160913083797,0.7116101512213873
0.057,1.7291580898182455,1.0,2894.09548691012,0.47345570710526685,1.3002780120676003,0.9783044606747097,0.2856776397723663,0.7124780467752874
0.0575,1.728242577056021,1.0,2898.5419947097375,0.4764092053596601,1.2998253188207158,0.9785403484999385,0.28563918823635287,0.7133443182208422
0.058,1.7273270642937966,1.0,2902.973047922195,0.4793461445698973,1.299372791871499,0.9787707090487923,0.2856007367003395,0.7142089652010974
0.0585,1.726411551531572,1.0,2907.3884969292153,0.4822666143892892,1.298920432157053,0.978995715788494,0.285562285164326,0.7150719873693897
0.059000000000000004,1.7254960387693477,1.0,2911.7881919746765,0.48517070447114635,1.2984682406144816,0.9792155353524753,0.2855238336283126,0.7159333843893364
0.059500000000000004,1.7245805260071232,1.0,2916.171983168167,0.4880585044687794,1.2980162181808879,0.9794303278635006,0.2854853820922992,0.7167931559348261
0.06,1.7236650132448985,1.0,2920.539720487811,0.4909301040354989,1.2975643657933753,0.9796402472390761,0.2854469305562857,0.7176513016900075
0.0605,1.722749500482674,1.0,2924.8912537848087,0.49378559282461565,1.2971126843890473,0.9798454414802451,0.28540847902027233,0.7185078213492806
0.061,1.7218339877204496,1.0,2929.2264327859257,0.49662506048944016,1.2966611749050072,0.9800460529447935,0.2853700274842589,0.7193627146172854
0.0615,1.7209184749582251,1.0,2933.545107097976,0.4994485966832831,1.2962098382783582,0.9802422186058227,0.28533157594824543,0.7202159812088931
0.062,1.7200029621960007,1.0,2937.847126210788,0.5022562910594551,1.295758675446204,0.9804340702965771,0.28529312441223204,0.7210676208491931
0.0625,1.7190874494337762,1.0,2942.1323395010118,0.5050482332712668,1.2953076873456482,0.9806217349423544,0.2852546728762186,0.7219176332734851
0.063,1.7181719366715518,1.0,2946.400596235876,0.5078245129720289,1.2948568749137936,0.9808053347802749,0.2852162213402052,0.7227660182272687
0.0635,1.7172564239093273,1.0,2950.6517455764874,0.5105852198150518,1.2944062390877438,0.980984987567631,0.28517776980419174,0.7236127754662316
0.064,1.7163409111471029,1.0,2954.8856365817946,0.5133304434536464,1.2939557808046025,0.9811608067794854,0.2851393182681783,0.7244579047562388
0.0645,1.7154253983848784,1.0,2959.1023095362575,0.5160602493668006,1.293505499331241,0.9813329000044613,0.2851008667321649,0.7253014089997415
0.065,1.714509885622654,1.0,2963.3021365210902,0.5187747063596355,1.2930553910439495,0.981501371103714,0.28506241519615144,0.7261432964925951
0.0655,1.7135943728604295,1.0,2967.4848559444945,0.5214739646439998,1.2926054578551116,0.9816663261400372,0.28502396366013805,0.7269835651575272
0.066,1.712678860098205,1.0,2971.6506180589035,0.5241581041623418,1.2921556980857378,0.9818278624148039,0.2849855121241246,0.7278222196302143
0.0665,1.7117633473359803,1.0,2975.799573858912,0.5268272048571095,1.2917061100568386,0.9819860738366487,0.28494706058811115,0.7286592645264911
0.067,1.7108478345737559,1.0,2979.931875074546,0.5294813466707514,1.2912566920894246,0.9821410510639322,0.28490860905209775,0.7294947044423664
0.0675,1.7099323218115314,1.0,2984.0476741647276,0.5321206095457155,1.2908074425045064,0.9822928816402563,0.2848701575160843,0.730328543954044
0.068,1.709016809049307,1.0,2988.147124311489,0.5347450734244499,1.2903583596230943,0.9824416501234159,0.2848317059800709,0.7311607876179396
0.0685,1.7081012962870825,1.0,2992.2303794131208,0.537354818249403,1.2899094417661991,0.9825874382081463,0.28479325444405745,0.7319914399706977
0.069,1.707185783524858,1.0,2996.297594078511,0.5399499239630229,1.289460687254831,0.9827303248430099,0.284754802908044,0.732820505529212
0.0695,1.7062702707626336,1.0,3000.348923620825,0.5425304705077578,1.289012094410001,0.9828703863417358,0.2847163513720306,0.73364798879064
0.07,1.7053547580004091,1.0,3004.384524051394,0.5450965378260559,1.2885636615527192,0.9830076964893142,0.2846778998360172,0.7344738942324227
0.07050000000000001,1.7044392452381847,1.0,3008.404552073649,0.5476482058603653,1.2881153870039963,0.9831423266431244,0.28463944830000376,0.7352982263123005
0.07100000000000001,1.7035237324759602,1.0,3012.4091650776204,0.5501855545531344,1.2876672690848427,0.9832743458293661,0.2846009967639903,0.7361209894683313
0.07150000000000001,1.7026082197137358,1.0,3016.398521133722,0.5527086638468113,1.2872193061162691,0.9834038208350331,0.2845625452279769,0.736942188118906
