Time [s],Phi [rad],STIM [ ],Fsee [N],Gamma [ ],Lcerel [ ],q [ ],Lmtc [m],fisomrel [ ]
0.0,1.8,1.0,17.98050989502533,0.00011912714982046276,1.3793382506575198,0.005003708969949194,0.288653,0.5411431491967241
0.0005,1.79999375,1.0,18.32590855144195,0.005727668249541465,1.3792969302487914,0.013246249210484135,0.2886527375,0.5412431081117458
0.001,1.799975,1.0,21.748652655041234,0.0113047498680906,1.378925016822577,0.03617949677190388,0.28865195,0.5421423202360003
0.0015,1.79994375,1.0,31.373286816441247,0.016850548469222387,1.3780203627114707,0.07138174970722674,0.2886506375,0.5443259099983679
0.002,1.7999,1.0,54.23278625086368,0.02236523952490343,1.3763260644605368,0.11564072915659772,0.2886488,0.5484014451774359
0.0025,1.79984375,1.0,98.2079040206629,0.027848997523572262,1.3738828388459492,0.1655781306150009,0.28864643749999996,0.5542462462260651
0.003,1.7997750000000001,1.0,162.3723642898953,0.033301995976876955,1.371161524763856,0.21831509061429438,0.28864354999999997,0.5607114876752854
0.0035,1.79969375,1.0,239.27968419139575,0.03872440742007145,1.3685356446359271,0.27164171066528475,0.2886401375,0.5669052252320843
0.004,1.7996,1.0,323.1642334201503,0.04411640342255777,1.3661111923033313,0.32391181547779235,0.2886362,0.5725848050708966
0.0045000000000000005,1.7994937500000001,1.0,411.024903958017,0.04947815459314355,1.3638816112618877,0.37397987062330607,0.2886317375,0.577774786305652
0.005,1.799375,1.0,501.205995280853,0.05480983057171255,1.3618202861766477,0.4211318402400113,0.28862675,0.5825448995888034
0.0055,1.79924375,1.0,592.5982340981093,0.06011160007071524,1.3599035416574394,0.46499244802354134,0.2886212375,0.5869561246888768
0.006,1.7991000000000001,1.0,684.3272379009339,0.06538363083262581,1.3581135513502933,0.5054323608615126,0.2886152,0.5910544781227067
0.006500000000000001,1.79894375,1.0,775.679250845147,0.07062608965967411,1.3564365785042287,0.5424886884141775,0.2886086375,0.594875527755736
0.007,1.798775,1.0,866.0657157193043,0.07583914247129238,1.3548616586223268,0.5763036504607356,0.28860155,0.5984477144126634
0.0075,1.79859375,1.0,954.9935480370567,0.0810229541473601,1.3533798696135597,0.6070800463262501,0.2885939375,0.6017942211476517
0.008,1.7984,1.0,1042.0702523027642,0.08617768865701878,1.351983453930699,0.6350501049130931,0.2885858,0.6049351025478812
0.0085,1.79819375,1.0,1126.9976131762457,0.0913035094416517,1.350665419852298,0.6604549381217213,0.2885771375,0.6078882758922561
0.009000000000000001,1.797975,1.0,1209.5156112253298,0.09640057820814382,1.3494199694862141,0.6835319376789669,0.28856795,0.6106686381513176
0.0095,1.79774375,1.0,1289.4473602539304,0.10146905619930381,1.3482415511587078,0.7045065920354608,0.2885582375,0.6132902488730138
0.01,1.7975,1.0,1366.6861098160857,0.10650910457760168,1.347124866673048,0.723588426584071,0.288548,0.6157663486518452
0.0105,1.79724375,1.0,1441.1323972528608,0.11152088224124138,1.346065516650478,0.7409695601004604,0.2885372375,0.6181079661525437
0.011,1.796975,1.0,1512.7303319874213,0.11650454744285228,1.3450593568798836,0.7568240401280842,0.28852595000000003,0.620325383385335
0.0115,1.79669375,1.0,1581.4668556433176,0.12146025797594051,1.3441024083091113,0.7713083845222811,0.2885141375,0.6224283564919313
0.012,1.7964,1.0,1647.3633087379083,0.12638817151286813,1.343190878000192,0.7845626770631222,0.28850180000000003,0.6244260881934227
0.0125,1.79609375,1.0,1710.4320179549904,0.1312884434326546,1.342321586720737,0.7967120684747407,0.2884889375,0.6263263114317505
0.013000000000000001,1.7957750000000001,1.0,1770.7015932409872,0.13616122829269225,1.3414915840554962,0.807867999116839,0.28847555,0.628136154398176
0.0135,1.79544375,1.0,1828.2290225053089,0.14100668037897662,1.34069795968362,0.818129524081733,0.2884616375,0.6298625646282477
0.014,1.7951000000000001,1.0,1883.088137075672,0.14582495360417488,1.339937935552667,0.8275846902799916,0.2884472,0.6315121172582614
0.0145,1.79474375,1.0,1935.3484943958142,0.15061620073545,1.3392090565768981,0.8363118389786928,0.2884322375,0.6330906120414883
0.015,1.794375,1.0,1985.0708107068256,0.1553805724264931,1.3385091940883627,0.8443807161133996,0.28841675,0.6346030788190282
0.0155,1.79399375,1.0,2032.334199101602,0.16011821933099524,1.3378362194191096,0.851853366722507,0.2884007375,0.6360544925019237
0.016,1.7936,1.0,2077.222649097249,0.16482929113075262,1.3371881282551117,0.8587850826767827,0.2883842,0.6374495094509387
0.0165,1.7931937500000001,1.0,2119.835574637819,0.16951393857042762,1.3365629102403187,0.8652251637821486,0.2883671375,0.6387927533500228
0.017,1.792775,1.0,2160.2517509290105,0.17417230960763566,1.3359589043204878,0.8712177273034846,0.28834955,0.6400880567850042
0.0175,1.7923437500000001,1.0,2198.541994999974,0.1788045504777335,1.3353746425982327,0.8768022715026833,0.2883314375,0.6413388045347822
0.018000000000000002,1.7919,1.0,2234.7866522118384,0.18341080741607788,1.3348086571761668,0.8820141649723005,0.2883128,0.642548351657819
0.0185,1.79144375,1.0,2269.074793835335,0.18799122665802553,1.3342594801569034,0.8868851288875861,0.2882936375,0.6437200252718007
0.019,1.790975,1.0,2301.485982166194,0.19254595259400797,1.3337258166763428,0.8914437014222129,0.28827395,0.6448567579199873
0.0195,1.79049375,1.0,2332.117060799926,0.19707513189272885,1.3332062688052253,0.89571553689813,0.2882537375,0.645961678663584
0.02,1.79,1.0,2361.0351829729007,0.20157890659473823,1.3326997920229746,0.8997238360779751,0.288233,0.6470371440939715
0.0205,1.78949375,1.0,2388.307775808295,0.20605741814151787,1.3322053881730795,0.9034895508922214,0.2882117375,0.6480853956274667
0.021,1.788975,1.0,2414.00678786325,0.2105108079745496,1.3317220590990293,0.9070316237439452,0.28818995000000003,0.6491086591425387
0.021500000000000002,1.78844375,1.0,2438.2083080609855,0.21493921753531522,1.3312488066443127,0.91036720782003,0.2881676375,0.6501091457165777
0.022,1.7879,1.0,2460.9783532782108,0.21934278607220187,1.3307847652667133,0.9135118867413471,0.2881448,0.6510887725364968
0.0225,1.78734375,1.0,2482.3991912105053,0.22372165609822867,1.3303289450686704,0.9164797932605979,0.28812143749999997,0.6520497067915159
0.023,1.786775,1.0,2502.5284678629414,0.2280759652032771,1.329880619673385,0.9192838335046074,0.28809755,0.6529935483542841
0.0235,1.78619375,1.0,2521.419398631038,0.2324058497617194,1.3294391275426969,0.9219357774773392,0.28807313749999996,0.6539217514155189
0.024,1.7856,1.0,2539.127322323206,0.2367114461479276,1.329003807138446,0.924446364153711,0.2880482,0.6548357617615058
0.0245,1.78499375,1.0,2555.709522987277,0.24099289073627392,1.3285739969224724,0.9268254059956252,0.2880227375,0.6557370170484411
0.025,1.784375,1.0,2571.2250614401623,0.24525031990113044,1.328149035356616,0.9290818816068184,0.28799675,0.6566269470488595
0.025500000000000002,1.78374375,1.0,2585.7246838556675,0.24948386626675,1.3277283536627156,0.9312240317146434,0.2879702375,0.657506779992111
0.026000000000000002,1.7831000000000001,1.0,2599.272918001818,0.2536936690384944,1.327311267407298,0.9332594014727587,0.2879432,0.6583779790440953
0.0265,1.78244375,1.0,2611.910149408795,0.25787985929956414,1.3268973291601929,0.9351949569826021,0.2879156375,0.6592415057013155
0.027,1.781775,1.0,2623.6774352886805,0.26204256801421677,1.326486094523012,0.9370371064131453,0.28788755,0.6600983102140017
0.0275,1.7810937500000001,1.0,2634.616743814203,0.2661819261467096,1.326077119097367,0.9387917517320595,0.2878589375,0.660949338013908
0.028,1.7804,1.0,2644.7708740475346,0.2702980646613,1.3256699584848703,0.9404643353867412,0.2878298,0.6617955297846392
0.0285,1.77969375,1.0,2654.1833802481938,0.2743911145222454,1.3252641682871336,0.9420598821150556,0.2878001375,0.6626378215193854
0.029,1.778975,1.0,2662.8916859183073,0.2784612060897398,1.324859366818157,0.9435830450220503,0.28776995,0.6634770146380935
0.029500000000000002,1.7782437500000001,1.0,2670.9421957385157,0.2825084683864233,1.3244550951568759,0.9450381188039799,0.2877392375,0.6643140664118068
0.03,1.7775,1.0,2678.3665194958717,0.28653302891716376,1.324051035351184,0.9464291005985883,0.287708,0.6651496380351584
0.0305,1.7767438127099735,1.0,2685.187165136438,0.2905350144834783,1.3236469851121753,0.9477597121131991,0.2876762401338189,0.6659841486855849
0.031,1.775982564807947,1.0,2691.7878442396886,0.29451455188688414,1.3232427421509432,0.9490334081411831,0.28764426772193374,0.6668180154551622
0.0315,1.7752213169059208,1.0,2698.425768458788,0.2984717671078081,1.3228382327762367,0.9502534148296427,0.28761229531004867,0.6676513885775397
0.032,1.7744600690038945,1.0,2705.079614101224,0.30240678615816385,1.322433652667324,0.9514227657215123,0.2875803228981636,0.6684838636084424
0.0325,1.773698821101868,1.0,2711.7391191666993,0.3063197327205941,1.3220290956676117,0.9525442716798992,0.28754835048627847,0.6693152472688144
0.033,1.7729375731998418,1.0,2718.3942460927756,0.3102107303824663,1.3216246531157725,0.9536205516089835,0.28751637807439334,0.6701453523857113
0.0335,1.7721763252978153,1.0,2725.0368913934612,0.31407990079601245,1.321220398309643,0.9546540455789806,0.2874844056625082,0.6709740296868438
0.034,1.771415077395789,1.0,2731.65682645332,0.31792736842414443,1.3208164235006061,0.9556470344973267,0.28745243325062314,0.6718010918758921
0.0345,1.7706538294937626,1.0,2738.244507261401,0.3217532579177704,1.3204128142841949,0.956601648964324,0.287420460838738,0.6726263662068943
0.035,1.7698925815917363,1.0,2744.7962153494723,0.3255576882083857,1.320009603047026,0.9575198744298609,0.28738848842685294,0.6734497894058826
0.035500000000000004,1.7691313336897099,1.0,2751.308216180262,0.32934077822748603,1.319606822175717,0.958403569516181,0.2873565160149678,0.6742712985291444
0.036000000000000004,1.7683700857876836,1.0,2757.776759445484,0.3331026469065667,1.319204504056884,0.95925447558171,0.2873245436030827,0.6750908309623683
0.0365,1.7676088378856574,1.0,2764.1980793861,0.33684341317712335,1.3188026810771445,0.9600742254598303,0.2872925711911976,0.675908324419721
0.037,1.766847589983631,1.0,2770.568395136163,0.34056319597065143,1.3184013856231154,0.9608643514522305,0.2872605987793125,0.6767237169428577
0.0375,1.7660863420816046,1.0,2776.883939921536,0.3442621141262366,1.318000649821595,0.9616262926028755,0.2872286263674274,0.6775369474267963
0.038,1.7653250941795782,1.0,2783.1459881255137,0.34794027275082573,1.317600460292914,0.9623613942396191,0.2871966539555423,0.6783480472631668
0.0385,1.764563846277552,1.0,2789.3467871142702,0.3515978094541046,1.3172008849028238,0.9630709361890253,0.28716468154365715,0.6791568833445967
0.039,1.7638025983755254,1.0,2795.4863592455226,0.3552348362811342,1.3168019214037539,0.9637561113878133,0.2871327091317721,0.6799634649071741
0.0395,1.7630413504734992,1.0,2801.5647304731788,0.3588514652769754,1.3164035675481336,0.9644180436483201,0.28710073671988695,0.6807678011569314
0.04,1.762280102571473,1.0,2807.581930317106,0.36244780848668917,1.3160058210883925,0.9650577924061187,0.2870687643080019,0.6815699012699327
0.0405,1.7615188546694465,1.0,2813.537991832602,0.3660239779553364,1.31560867977696,0.965676357093123,0.28703679189611675,0.6823697743923609
0.041,1.7607576067674202,1.0,2819.432951580256,0.369580085727978,1.3152121413662659,0.9662746811693571,0.2870048194842316,0.6831674296406034
0.0415,1.7599963588653937,1.0,2825.266849595909,0.37311624384967496,1.3148162036087392,0.9668536558433352,0.28697284707234655,0.6839628761013421
0.042,1.7592351109633675,1.0,2831.0397293604715,0.3766325643654881,1.3144208642568098,0.9674141235080852,0.2869408746604614,0.6847561228316352
0.0425,1.758473863061341,1.0,2836.751637770312,0.3801291593204784,1.3140261210629072,0.9679568809172542,0.28690890224857635,0.6855471788590063
0.043000000000000003,1.7577126151593148,1.0,2842.402625107225,0.3836061407597068,1.3136319717794607,0.9684826821234207,0.2868769298366912,0.6863360531815293
0.043500000000000004,1.7569513672572883,1.0,2847.99274500905,0.38706362072823414,1.3132384141589,0.9689922411986445,0.2868449574248061,0.6871227547679128
0.044,1.756190119355262,1.0,2853.5231551873976,0.39050167245914147,1.3128454361681234,0.9694862281293978,0.286812985012921,0.6879073120815581
0.0445,1.7554288714532358,1.0,2858.9943005701475,0.393920454595631,1.3124530321712808,0.9699652914600129,0.2867810126010359,0.6886897407110094
0.045,1.7546676235512093,1.0,2864.40708563716,0.3973200766349129,1.3120611924960557,0.9704300387439738,0.2867490401891508,0.6894700642153688
0.0455,1.753906375649183,1.0,2869.7625286351986,0.40070064131274663,1.3116699065171507,0.9708810456474188,0.2867170677772657,0.690248307945123
0.046,1.7531451277471566,1.0,2875.0616543525807,0.4040622513648916,1.3112791636092684,0.9713188589290782,0.28668509536538056,0.6910244971387574
0.0465,1.7523838798451303,1.0,2880.3054939895183,0.40740500952710745,1.3108889531471117,0.9717439981692123,0.2866531229534955,0.691798656923128
0.047,1.7516226319431039,1.0,2885.4950850314995,0.4107290185351536,1.3104992645053828,0.972156957379261,0.28662115054161036,0.6925708123138277
0.0475,1.7508613840410776,1.0,2890.6314711252085,0.4140343811247896,1.3101100870587845,0.9725582065014843,0.2865891781297253,0.6933409882155392
0.048,1.7501001361390514,1.0,2895.7157019568162,0.41732120003177486,1.3097214101820194,0.9729481928070831,0.28655720571784016,0.6941092094223894
0.0485,1.7493388882370249,1.0,2900.7488331328345,0.420589577991869,1.3093332232497903,0.9733273422005563,0.28652523330595503,0.694875500618289
0.049,1.7485776403349986,1.0,2905.7319260634818,0.42383961774083145,1.3089455156367995,0.9736960604373912,0.28649326089406996,0.6956398863772706
0.0495,1.7478163924329722,1.0,2910.666047848207,0.4270714220144217,1.30855827671775,0.974054734261595,0.28646128848218483,0.6964023911638153
0.05,1.747055144530946,1.0,2915.5522711646013,0.43028509354839933,1.3081714958673438,0.9744037324690249,0.28642931607029976,0.697163039333175
0.0505,1.7462938966289194,1.0,2920.3916741584862,0.43348073507852375,1.3077851624602843,0.9747434069019869,0.2863973436584146,0.697921855131685
0.051000000000000004,1.7455326487268932,1.0,2925.1853403380046,0.43665844934055453,1.3073992658712736,0.9750740933801232,0.2863653712465295,0.6986788626970728
0.051500000000000004,1.7447714008248667,1.0,2929.934358468985,0.4398183390702511,1.3070137954750147,0.9753961125722027,0.28633339883464437,0.6994340860587558
0.052000000000000005,1.7440101529228405,1.0,2934.6398224735285,0.44296050700337297,1.3066287406462098,0.9757097708130563,0.2863014264227593,0.7001875491381359
0.0525,1.7432489050208142,1.0,2939.302198271413,0.4460850388652932,1.3062440963046638,0.9760153594381618,0.2862694540108742,0.7009392649188133
0.053,1.7424876571187877,1.0,2943.9215917336774,0.4491920048923823,1.305859860547452,0.976313155659886,0.2862374815989891,0.7016892401335879
0.0535,1.7417264092167615,1.0,2948.501605547587,0.4522815705118392,1.3054760009058022,0.9766034324471612,0.28620550918710397,0.7024375410414487
0.054,1.740965161314735,1.0,2953.042982571321,0.45535382765175964,1.3050925100119972,0.9768864450625012,0.28617353677521884,0.7031841847403679
0.0545,1.7402039134127087,1.0,2957.5464691739453,0.4584088682402393,1.3047093804983199,0.9771624378959338,0.28614156436333377,0.7039291882536038
0.055,1.7394426655106823,1.0,2962.012815175334,0.461446784205374,1.3043266049970534,0.9774316450191876,0.28610959195144864,0.7046725685298706
0.0555,1.738681417608656,1.0,2966.4427737883534,0.4644676674752593,1.3039441761404806,0.977694290707168,0.28607761953956357,0.7054143424435092
0.056,1.7379201697066298,1.0,2970.8371015610537,0.4674716099779911,1.3035620865608846,0.9779505899289134,0.28604564712767844,0.7061545267946493
0.0565,1.7371589218046033,1.0,2975.196558321192,0.470458703641665,1.3031803288905481,0.9782007488100505,0.2860136747157933,0.7068931383093721
0.057,1.736397673902577,1.0,2979.521907120967,0.47342904039437667,1.3027988957617547,0.9784449650686244,0.28598170230390824,0.7076301936398661
0.0575,1.7356364260005506,1.0,2983.813914183575,0.47638271216422196,1.3024177798067866,0.9786834284260417,0.2859497298920231,0.7083657093645852
0.058,1.7348751780985243,1.0,2988.0733488509313,0.47931981087929654,1.3020369736579276,0.9789163209947335,0.28591775748013804,0.709099701988394
0.0585,1.7341139301964978,1.0,2992.300983532119,0.4822404284676961,1.30165646994746,0.979143817644037,0.2858857850682529,0.7098321879427205
0.059000000000000004,1.7333526822944716,1.0,2996.4975936537967,0.4851446568575164,1.301276261307667,0.9793660863456799,0.2858538126563678,0.7105631835856965
0.059500000000000004,1.7325914343924453,1.0,3000.663957611082,0.4880325879768531,1.3008963403708316,0.9795832885001564,0.2858218402444827,0.7112927052022981
0.06,1.7318301864904189,1.0,3004.8008567199563,0.49090431375380195,1.300516699769237,0.9797955792451983,0.2857898678325976,0.7120207690044843
0.0605,1.7310689385883926,1.0,3008.9090751712483,0.4937599261164587,1.300137332135166,0.9800031077474459,0.2857578954207125,0.71274739113133
0.061,1.7303076906863661,1.0,3012.989399984783,0.49659951699291904,1.2997582301009014,0.9802060174783671,0.2857259230088274,0.7134725876491552
0.0615,1.7295464427843399,1.0,3017.0426209661923,0.49942317831127875,1.2993793862987264,0.9804044464753809,0.28569395059694225,0.7141963745516517
0.062,1.7287851948823134,1.0,3021.06953066347,0.5022310019996334,1.299000793360924,0.9805985275890906,0.2856619781850572,0.7149187677600064
0.0625,1.7280239469802872,1.0,3025.0709243255988,0.5050230799860789,1.298622443919777,0.9807883887174639,0.28563000577317205,0.7156397831230217
0.063,1.7272626990782607,1.0,3029.047568858719,0.5077995030782302,1.2982443308750833,0.9809741529591121,0.285598033361287,0.7163594359083988
0.0635,1.7265014511762344,1.0,3032.9984205094956,0.5105603009366999,1.2978664627616046,0.9811559352621395,0.28556606094940185,0.7170777116131686
0.064,1.7257402032742082,1.0,3036.9260912118566,0.5133056381144744,1.297488816593141,0.9813338545244528,0.2855340885375167,0.7177946556186623
0.0645,1.7249789553721817,1.0,3040.830976282857,0.5160355962061295,1.2971113885348968,0.9815080203549738,0.28550211612563164,0.718510276794852
0.065,1.7242177074701555,1.0,3044.713472503469,0.5187502568062414,1.2967341747520762,0.9816785384475523,0.2854701437137465,0.7192245839738658
0.0655,1.723456459568129,1.0,3048.5739781008215,0.5214497015093863,1.2963571714098827,0.9818455107491625,0.28543817130186144,0.7199375859500428
0.066,1.7226952116661027,1.0,3052.4128927294864,0.5241340119101401,1.2959803746735208,0.9820090356197092,0.2854061988899763,0.7206492914799817
0.0665,1.7219339637640763,1.0,3056.230617454271,0.5268032696030789,1.2956037807081942,0.9821692079839192,0.2853742264780912,0.7213597092825952
0.067,1.72117271586205,1.0,3060.0275547326046,0.5294575561827789,1.2952273856791068,0.9823261194757595,0.2853422540662061,0.7220688480391579
0.0675,1.7204114679600235,1.0,3063.804108397187,0.532096953243816,1.294851185751463,0.9824798585758061,0.285310281654321,0.7227767163933554
0.068,1.7196502200579973,1.0,3067.5606836399606,0.5347215423807665,1.2944751770904668,0.9826305107419473,0.2852783092424359,0.7234833229513337
0.0685,1.718888972155971,1.0,3071.2976869948234,0.5373314051882063,1.294099355861322,0.9827781585337977,0.2852463368305508,0.7241886762817458
0.069,1.7181277242539446,1.0,3075.015526322151,0.5399266232607116,1.2937237182292327,0.9829228817311568,0.28521436441866566,0.7248927849157982
0.0695,1.7173664763519183,1.0,3078.714610792921,0.5425072781928585,1.2933482603594029,0.9830647574468456,0.2851823920067806,0.7255956573472959
0.07,1.7166052284498918,1.0,3082.3953508728137,0.545073451579223,1.2929729784170367,0.9832038602342176,0.28515041959489545,0.7262973020326866
0.07050000000000001,1.7158439805478656,1.0,3086.058158307787,0.5476252250143812,1.292597868567338,0.9833402621896334,0.2851184471830104,0.7269977273911058
0.07100000000000001,1.715082732645839,1.0,3089.703446108688,0.5501626800929091,1.292222926975511,0.9834740330501678,0.28508647477112525,0.727696941804417
