Time [s],Phi [rad],STIM [ ],Fsee [N],Gamma [ ],Lcerel [ ],q [ ],Lmtc [m],fisomrel [ ]
0.0,1.8,1.0,17.96674105270014,1.578693805416933e-05,1.3793397929508084,0.00500006618462811,0.288653,0.5411394179975695
0.0005,1.79999375,1.0,18.278062015619895,0.005624907694613206,1.3793022414024885,0.012956588953907017,0.2886527375,0.5412302604178838
0.001,1.799975,1.0,21.624017704899373,0.011202565718620959,1.378937726501744,0.0356387427125195,0.28865195,0.5421116053370201
0.0015,1.79994375,1.0,31.083939614944054,0.016748937491998146,1.378044951180011,0.0706429975654852,0.2886506375,0.5442666291049206
0.002,1.7999,1.0,53.61509849655878,0.02226419850500261,1.376366009911862,0.11476673994019894,0.2886488,0.5483055694611743
0.0025,1.79984375,1.0,97.17458012937752,0.027748523263837574,1.37393248636505,0.16462787673726467,0.28864643749999996,0.5541278559976139
0.003,1.7997750000000001,1.0,161.03108332234225,0.03320208529831212,1.3712116147312639,0.21733511454568324,0.28864354999999997,0.560592911634591
0.0035,1.79969375,1.0,237.76600526463668,0.038625057161476226,1.3685821878852353,0.27066725445062106,0.2886401375,0.5667958251713427
0.004,1.7996,1.0,321.554926978195,0.04401761044039205,1.366153757650047,0.32296844293263166,0.2886362,0.5724854137715261
0.0045000000000000005,1.7994937500000001,1.0,409.359198608717,0.04937991576132132,1.3639206676575868,0.3730844783374798,0.2886317375,0.5776841442973732
0.005,1.799375,1.0,499.506926445876,0.0547121427808294,1.361856357223993,0.42029421273582135,0.28862675,0.5824616605120598
0.0055,1.79924375,1.0,590.8847770206725,0.060014460233005835,1.359936991548322,0.46421698380012044,0.2886212375,0.5868793434794108
0.006,1.7991000000000001,1.0,682.6126751305356,0.0652870358732435,1.358144695834181,0.5047197416820858,0.2886152,0.590983344533935
0.006500000000000001,1.79894375,1.0,773.9777322639267,0.07053003653370987,1.3564656067872438,0.5418371068848894,0.2886086375,0.594809538194522
0.007,1.798775,1.0,864.3825955515898,0.07574362810439418,1.3548888316627872,0.5757098903971296,0.28860155,0.5983862154369322
0.0075,1.79859375,1.0,953.3391452846587,0.08092797555324718,1.3534053037276639,0.6065400229498392,0.2885939375,0.6017368982689977
0.008,1.7984,1.0,1040.4497341456254,0.08608324286856549,1.3520073024665444,0.6345594390775691,0.2885858,0.6048815657213862
0.0085,1.79819375,1.0,1125.4108202323732,0.0912095933038067,1.350687874130083,0.6600092501466748,0.2885771375,0.6078380578384028
0.009000000000000001,1.797975,1.0,1207.9746931235784,0.0963071889005447,1.3494410169409632,0.6831268932013248,0.28856795,0.6106217336711273
0.0095,1.79774375,1.0,1287.9620750239644,0.10137619098910643,1.3482611992582292,0.7041381406880625,0.2885582375,0.6132466106225127
0.01,1.7975,1.0,1365.2443875022773,0.10641676009697468,1.347143391287932,0.7232529771849195,0.288548,0.6157253376438576
0.0105,1.79724375,1.0,1439.7303079067387,0.11142905537892216,1.346083060172945,0.740663778817259,0.2885372375,0.6180692457312811
0.011,1.796975,1.0,1511.376184750556,0.11641323533848238,1.345075894375141,0.7565448407380376,0.28852595000000003,0.6202889895446317
0.0115,1.79669375,1.0,1580.1867110750466,0.12136945904577667,1.3441176981956295,0.7710529053385397,0.2885141375,0.6223948016216251
0.012,1.7964,1.0,1646.1363585588626,0.12629788205885273,1.3432052362167668,0.7843286046404889,0.28850180000000003,0.6243946614585246
0.0125,1.79609375,1.0,1709.2402933000724,0.13119865993575827,1.3423352730209086,0.796497318747072,0.2884889375,0.626296431268176
0.013000000000000001,1.7957750000000001,1.0,1769.5495198291637,0.1360719481358227,1.3415045877123761,0.8076706108436056,0.28847555,0.6281078334547194
0.0135,1.79544375,1.0,1827.126370932411,0.1409179010158798,1.3407102079854012,0.817947730763935,0.2884616375,0.6298359508116858
0.014,1.7951000000000001,1.0,1882.0398835272244,0.14573667287401632,1.3399494086016446,0.8274169433002585,0.2884472,0.6314872435950003
0.0145,1.79474375,1.0,1934.3402677498248,0.1505284150147096,1.3392199414290011,0.836156833665255,0.2884322375,0.6330670642120697
0.015,1.794375,1.0,1984.0985445020324,0.15529327874243715,1.3385195583353653,0.8442372522380732,0.28841675,0.6345807035217769
0.0155,1.79399375,1.0,2031.3999393445226,0.16003141495045933,1.3378460619633887,0.8517203536132241,0.2884007375,0.6360332857647644
0.016,1.7936,1.0,2076.3340317013285,0.16474297405544464,1.3371973881726371,0.8586615305565564,0.2883842,0.6374295963314793
0.0165,1.7931937500000001,1.0,2118.994904296002,0.16942810635214225,1.3365715819569919,0.8651102058479619,0.2883671375,0.6387741397288518
0.017,1.792775,1.0,2159.448641992023,0.1740869586522727,1.3359671106702597,0.8711106254220888,0.28834955,0.6400704736858337
0.0175,1.7923437500000001,1.0,2197.772005714263,0.17871967776755648,1.3353824416662468,0.8767023475808149,0.2883314375,0.641322123156845
0.018000000000000002,1.7919,1.0,2234.0515416769035,0.18332641050971413,1.3348160422987598,0.8819207942848262,0.2883128,0.6425325823322547
0.0185,1.79144375,1.0,2268.3723720547464,0.18790730251982146,1.3342664833250883,0.8867977601929751,0.2882936375,0.6437050960633879
0.019,1.790975,1.0,2300.8288314019337,0.19246250048520047,1.3337323221546502,0.8913618039463721,0.28827395,0.6448429118280128
0.0195,1.79049375,1.0,2331.4975268127073,0.19699214835894086,1.3332123614546225,0.8956386792338956,0.2882537375,0.6459487314216645
0.02,1.79,1.0,2360.4452305491955,0.2014963881785794,1.3327055580977516,0.8996516295022011,0.288233,0.6470249094734173
0.0205,1.78949375,1.0,2387.7437814110112,0.20597536198165287,1.3322108689567833,0.9034216344637906,0.2882117375,0.6480737836319482
0.021,1.788975,1.0,2413.4696619389265,0.21042921180569807,1.3317272509044638,0.9069676613722732,0.28818995000000003,0.6490976754061446
0.021500000000000002,1.78844375,1.0,2437.6949115713264,0.21485807816227095,1.3312537443787964,0.9103069024563457,0.2881676375,0.6500987143974075
0.022,1.7879,1.0,2460.498562089802,0.21926210333738166,1.3307893583774695,0.9134549449009767,0.2881448,0.651079082857851
0.0225,1.78734375,1.0,2481.9464236290137,0.2236414268785631,1.3303332607234315,0.9164259777655497,0.28812143749999997,0.6520406149866882
0.023,1.786775,1.0,2502.0937601022856,0.22799618579468447,1.3298847464800152,0.9192329322516308,0.28809755,0.6529848661983932
0.0235,1.78619375,1.0,2520.998240064404,0.23232651709461505,1.329443110710553,0.9218875892817964,0.28807313749999996,0.6539133826701348
0.024,1.7856,1.0,2538.7197354649347,0.23663255778722403,1.3290076484783782,0.9244006977097043,0.2880482,0.6548277016668622
0.0245,1.78499375,1.0,2555.320131418543,0.2409144448813807,1.3285776548468229,0.9267820789586286,0.2880227375,0.6557293518347007
0.025,1.784375,1.0,2570.8521651026917,0.24517231205275994,1.328152527734237,0.9290407358404095,0.28799675,0.6566196382067311
0.025500000000000002,1.78374375,1.0,2585.380443083688,0.24940629882830453,1.3277315686036595,0.9311849039135142,0.2879702375,0.6575000603972732
0.026000000000000002,1.7831000000000001,1.0,2598.9493339751834,0.2536165378448528,1.3273142815376417,0.9332221692749895,0.2879432,0.6583716871858973
0.0265,1.78244375,1.0,2611.601215056606,0.257803160653723,1.3269001998568712,0.9351595051048671,0.2879156375,0.6592355208339848
0.027,1.781775,1.0,2623.379490608891,0.26196629880623373,1.3264888568820348,0.9370033255742036,0.28788755,0.6600925584561933
0.0275,1.7810937500000001,1.0,2634.328502752047,0.26610608385370327,1.3260797859338196,0.9387595381062508,0.2878589375,0.6609437921089107
0.028,1.7804,1.0,2644.493447111846,0.2702226473474501,1.3256725203329123,0.9404335901168007,0.2878298,0.6617902088648242
0.0285,1.77969375,1.0,2653.9201516068442,0.2743161205693734,1.3252665947062883,0.9420305109580646,0.2878001375,0.6626327881638241
0.029,1.778975,1.0,2662.647203160829,0.27838663327039237,1.3248616167472482,0.9435549590629905,0.28776995,0.6634723532026914
0.029500000000000002,1.7782437500000001,1.0,2670.707070444631,0.28243431410825875,1.3244572557054912,0.945011253129232,0.2877392375,0.6643095957272369
0.03,1.7775,1.0,2678.133514867815,0.28645929037175777,1.3240531734430796,0.9464033922911274,0.287708,0.6651452193286651
0.0305,1.77674375,1.0,2684.9607448999873,0.29046168934967487,1.3236490318220762,0.9477350852229001,0.2876762375,0.6659799241091605
0.031,1.7759756833332285,1.0,2691.254037038875,0.2944416379641083,1.323244520607132,0.9490097783367124,0.2876439786999956,0.6668143491628363
0.0315,1.775204816531834,1.0,2697.469340371443,0.29839926268347083,1.3228395252521232,0.9502306986869289,0.287611602294337,0.667648727471249
0.032,1.7744339497304393,1.0,2703.7341344934753,0.30233468826359233,1.3224341433749174,0.9514008731704094,0.28757922588867846,0.6684828545474593
0.0325,1.7736630829290447,1.0,2710.0348680961715,0.30624803892590646,1.32202849993583,0.9525231225961106,0.2875468494830199,0.6693164707559921
0.033,1.7728922161276501,1.0,2716.3584155775175,0.31013943862150994,1.3216227154413795,0.9536000747180932,0.28751447307736133,0.6701493268881167
0.0335,1.7721213493262558,1.0,2722.692681938476,0.31400901104279716,1.3212169004600312,0.9546341791262446,0.28748209667170277,0.6709811953407221
0.034,1.7713504825248612,1.0,2729.0284447693916,0.3178568782970816,1.3208111389335027,0.9556277191804164,0.28744972026604415,0.6718119041332553
0.0345,1.7705796157234666,1.0,2735.357597525382,0.32168316177175316,1.3204055042821872,0.9565828271236341,0.2874173438603856,0.6726413036533079
0.035,1.769808748922072,1.0,2741.672236410749,0.32548798264618833,1.3200000677487926,0.9575014968350255,0.287384967454727,0.6734692494922454
0.035500000000000004,1.7690378821206774,1.0,2747.9651266682044,0.3292714618142897,1.3195948941891011,0.9583855939460143,0.28735259104906846,0.6742956109957183
0.036000000000000004,1.7682670153192828,1.0,2754.230744703571,0.3330337188028494,1.3191900326817423,0.9592368643155603,0.28732021464340984,0.6751202902953708
0.0365,1.7674961485178882,1.0,2760.4645054136936,0.3367748722298704,1.318785523604911,0.9600569438444756,0.2872878382377513,0.675943207716654
0.037,1.7667252817164936,1.0,2766.66368461806,0.3404950363550141,1.3183813903603638,0.9608473650277625,0.2872554618320927,0.6767643184700307
0.0375,1.765954414915099,1.0,2772.825305376446,0.3441943262794312,1.317977658532646,0.9616095675731536,0.28722308542643415,0.6775835735781124
0.038,1.7651835481137046,1.0,2778.939241107448,0.34787287578141424,1.3175744180087323,0.9623449147251701,0.2871907090207756,0.6784007940893335
0.0385,1.76441268131231,1.0,2785.0047294626365,0.35153079752168237,1.317171674028183,0.9630546762446741,0.28715833261511703,0.6792159731956635
0.039,1.7636418145109154,1.0,2791.021007184634,0.3551682041609549,1.3167694318305574,0.9637400474229892,0.28712595620945847,0.6800291041382203
0.0395,1.7628709477095208,1.0,2796.987310164638,0.358785208359951,1.3163676966554159,0.9644021542562808,0.2870935798037999,0.6808401802071007
0.04,1.7621000809081262,1.0,2802.902873501482,0.3623819227793898,1.3159664737423182,0.9650420582071934,0.2870612033981413,0.6816491947412147
0.0405,1.7613292141067316,1.0,2808.766931560742,0.36595846007999056,1.315565768330824,0.9656607605907102,0.2870288269924827,0.6824561411281147
0.041,1.760558347305337,1.0,2814.578718034047,0.36951493292247256,1.3151655856604936,0.9662592066175439,0.28699645058682416,0.6832610128038205
0.0415,1.7597874805039424,1.0,2820.3374660003383,0.3730514539675549,1.3147659309708863,0.9668382891251076,0.2869640741811656,0.6840638032526505
0.042,1.7590166137025478,1.0,2826.042407986128,0.3765681358759569,1.3143668095015626,0.9673988520231993,0.286931697775507,0.6848645060070416
0.0425,1.7582457469011534,1.0,2831.6927760277435,0.38006509130839766,1.313968226492082,0.967941693478933,0.2868993213698484,0.6856631146473746
0.043000000000000003,1.7574748800997588,1.0,2837.2878017331063,0.3835424329255964,1.3135701871820047,0.9684675688631146,0.28686694496418985,0.6864596228017938
0.043500000000000004,1.7567040132983642,1.0,2842.8282705981946,0.38700025334468174,1.3131726829677721,0.968977189270952,0.2868345685585313,0.6872540517945387
0.044,1.7559331464969696,1.0,2848.3139721693433,0.3904386822156061,1.3127757141584553,0.969471234915752,0.2868021921528727,0.6880464050786617
0.0445,1.755162279695575,1.0,2853.744963029978,0.3938578368039249,1.3123792787050388,0.9699503485655452,0.28676981574721416,0.6888366908026777
0.045,1.7543914128941804,1.0,2859.122042802094,0.3972578211060333,1.3119833679840842,0.9704151375189954,0.2867374393415556,0.6896249301699857
0.0455,1.7536205460927858,1.0,2864.4460166132944,0.4006387391183266,1.311587973372153,0.9708661782476082,0.286705062935897,0.6904111442915641
0.046,1.7528496792913912,1.0,2869.7176949973946,0.4040006948372001,1.3111930862458065,0.9713040182589603,0.2866726865302384,0.6911953541862563
0.0465,1.7520788124899966,1.0,2874.937893796193,0.407343792259049,1.3107986979816069,0.9717291778300516,0.28664031012457986,0.6919775807810521
0.047,1.7513079456886023,1.0,2880.1074340637088,0.4106681353802687,1.3104047999561153,0.9721421516209954,0.2866079337189213,0.692757844911365
0.0475,1.7505370788872077,1.0,2885.2271419712897,0.41397382819725437,1.310011383545893,0.9725434101783578,0.28657555731326273,0.6935361673213047
0.048,1.749766212085813,1.0,2890.297848714904,0.4172609747064013,1.309618440127502,0.9729334013366715,0.2865431809076041,0.6943125686639429
0.0485,1.7489953452844185,1.0,2895.3203904238203,0.4205296789041048,1.3092259610775037,0.973312551525902,0.28651080450194555,0.6950870695015758
0.049,1.7482244784830239,1.0,2900.2956080709932,0.4237800447867601,1.3088339377724594,0.9736812669919952,0.286478428096287,0.6958596903059844
0.0495,1.7474536116816293,1.0,2905.2243473851067,0.42701217635076255,1.308442361588931,0.9740399349370304,0.2864460516906284,0.6966304514586837
0.05,1.7466827448802347,1.0,2910.1074587641947,0.43022617759250736,1.3080512239034796,0.974388924584961,0.28641367528496986,0.6973993732511744
0.0505,1.74591187807884,1.0,2914.9457971910765,0.43342215250838984,1.3076605160926673,0.9747285881784301,0.2863812988793113,0.6981664758851838
0.051000000000000004,1.7451410112774455,1.0,2919.7394665057045,0.43660017774022,1.307270236174047,0.9750592593078089,0.28634892247365273,0.6989317664590097
0.051500000000000004,1.744370144476051,1.0,2924.489194871382,0.4397603384750124,1.30688037669999,0.975381257185473,0.28631654606799417,0.699695262743853
0.052000000000000005,1.7435992776746565,1.0,2929.197964178646,0.4429028032737649,1.3064909104825808,0.9756948944542256,0.28628416966233555,0.7004570210190008
0.0525,1.742828410873262,1.0,2933.8665108638793,0.4460276653742111,1.3061018301173586,0.9760004630376277,0.286251793256677,0.7012170586696549
0.053,1.7420575440718673,1.0,2938.4955750553436,0.4491350180140848,1.3057131281998617,0.9762982420791971,0.2862194168510184,0.7019753930046393
0.0535,1.7412866772704727,1.0,2943.0859005103725,0.45222495443111954,1.3053247973256288,0.9765884986114486,0.28618704044535986,0.7027320412565807
0.054,1.740515810469078,1.0,2947.6382345540565,0.45529756786304904,1.3049368300901982,0.976871488184395,0.28615466403970125,0.7034870205820841
0.0545,1.7397449436676835,1.0,2952.1533280190024,0.45835295154760697,1.304549219089109,0.977147455456299,0.2861222876340427,0.7042403480619065
0.055,1.738974076866289,1.0,2956.6319351859747,0.46139119872252704,1.3041619569178995,0.9774166347492378,0.2860899112283841,0.7049920407011283
0.0555,1.7382032100648943,1.0,2961.0748137261535,0.4644124026255428,1.3037750361721083,0.9776792505718533,0.28605753482272556,0.7057421154293185
0.056,1.7374323432635,1.0,2965.482724644479,0.467416656494388,1.303388449447274,0.9779355181114824,0.286025158417067,0.7064905891006978
0.0565,1.7366614764621053,1.0,2969.856432224273,0.4704040535667964,1.3030021893389356,0.9781856436977039,0.28599278201140843,0.7072374784942979
0.057,1.7358906096607107,1.0,2974.196703972945,0.47337468708050146,1.3026162484426311,0.9784298252391714,0.28596040560574987,0.7079828003141191
0.0575,1.7351197428593161,1.0,2978.504310568844,0.47632865027323695,1.3022306193538997,0.9786682526354906,0.2859280292000913,0.7087265711892798
0.058,1.7343488760579215,1.0,2982.7800258096304,0.47926603638273657,1.3018452946682797,0.9789011081657428,0.2858956527944327,0.7094688076741691
0.0585,1.733578009256527,1.0,2987.0246265619357,0.48218693864673395,1.3014602669813098,0.9791285668551668,0.2858632763887741,0.7102095262485888
0.059000000000000004,1.7328071424551323,1.0,2991.2388927113816,0.48509145030296275,1.3010755288885285,0.9793507968213826,0.28583089998311556,0.710948743317898
0.059500000000000004,1.7320362756537377,1.0,2995.423607114908,0.48797966458915665,1.3006910729854746,0.9795679596014554,0.285798523577457,0.7116864752131505
0.06,1.7312654088523431,1.0,2999.579555553634,0.4908516747430493,1.3003068918676866,0.9797802104610024,0.2857661471717984,0.7124227381912296
0.0605,1.7304945420509488,1.0,3003.707526687414,0.49370757400237447,1.299922978130703,0.9799876986864561,0.2857337707661398,0.7131575484349806
0.061,1.7297236752495542,1.0,3007.808312009921,0.4965474556048657,1.2995393243700626,0.9801905678615311,0.28570139436048125,0.7138909220533369
0.0615,1.7289528084481596,1.0,3011.882705805567,0.4993714127882567,1.2991559231813041,0.9803889561288593,0.2856690179548227,0.7146228750814466
0.062,1.728181941646765,1.0,3015.931268635084,0.5021795299644223,1.2987727692047963,0.9805829958756288,0.2856366415491641,0.7153534195844946
0.0625,1.7274110748453704,1.0,3019.9531940073307,0.5049718443913892,1.2983898689121827,0.9807728116578786,0.28560426514350556,0.716082545059217
0.063,1.7266402080439758,1.0,3023.9511171873464,0.5077485237707889,1.2980071990393593,0.9809585315830714,0.285571888737847,0.7168102975788126
0.0635,1.7258693412425812,1.0,3027.925440494586,0.5105096503972242,1.297624755657474,0.9811402737250345,0.28553951233218844,0.7175366862877197
0.064,1.7250984744411866,1.0,3031.8765677891356,0.5132553065652974,1.2972425348376748,0.9813181518734239,0.2855071359265298,0.7182617202910513
0.0645,1.724327607639792,1.0,3035.8049044523277,0.5159855745696114,1.2968605326511096,0.9814922757206029,0.28547475952087126,0.7189854086546541
0.065,1.7235567408383976,1.0,3039.710857367244,0.5187005367047687,1.296478745168926,0.9816627510390579,0.2854423831152127,0.7197077604051629
0.0655,1.722785874037003,1.0,3043.5948348999873,0.5214002752653717,1.2960971684622717,0.9818296798498929,0.28541000670955413,0.7204287845300545
0.066,1.7220150072356084,1.0,3047.4572468812125,0.5240848725460232,1.2957157986022951,0.9819931605829137,0.28537763030389557,0.7211484899777003
0.0665,1.7212441404342138,1.0,3051.298504587733,0.5267544108413258,1.2953346316601435,0.9821532882287783,0.28534525389823695,0.7218668856574215
0.067,1.7204732736328192,1.0,3055.1190207250547,0.529408972445882,1.294953663706965,0.9823101544836595,0.2853128774925784,0.7225839804395364
0.0675,1.7197024068314246,1.0,3058.9192094094205,0.5320486396542944,1.2945728908139074,0.9824638478868406,0.2852805010869198,0.723299783155414
0.068,1.71893154003003,1.0,3062.6994861509584,0.5346734947611657,1.2941923090521186,0.9826144539516329,0.28524812468126126,0.7240143025975215
0.0685,1.7181606732286354,1.0,3066.460267836689,0.5372836200610983,1.2938119144927462,0.9827620552899867,0.2852157482756027,0.7247275475194744
0.069,1.7173898064272408,1.0,3070.201972714153,0.5398790978486949,1.2934317032069385,0.982906731731139,0.28518337186994414,0.7254395266360816
0.0695,1.7166189396258464,1.0,3073.9250203752363,0.5424600104185582,1.2930516712658429,0.9830485604346232,0.2851509954642856,0.7261502486233941
0.07,1.7158480728244518,1.0,3077.629831740346,0.5450264400652906,1.2926718147406073,0.9831876159979446,0.28511861905862695,0.7268597221187488
0.07050000000000001,1.7150772060230572,1.0,3081.3168290431327,0.5475784690834947,1.29229212970238,0.9833239705592091,0.2850862426529684,0.7275679557208135
0.07100000000000001,1.7143063392216626,1.0,3084.9864358150294,0.5501161797677733,1.2919126122223081,0.9834576938949731,0.28505386624730983,0.7282749579896313
