Time [s],Phi [rad],STIM [ ],Fsee [N],Gamma [ ],Lcerel [ ],q [ ],Lmtc [m],fisomrel [ ]
0.0,1.8,1.0,19.98471548141942,0.0014512387911672184,1.3791197246656037,0.005539096808182882,0.288653,0.541671665718995
0.0005,1.79999375,1.0,20.696166929455767,0.00705230779794282,1.3790419870361539,0.01742017567039041,0.2886527375,0.5418596047949111
0.001,1.799975,1.0,25.119021531301176,0.01262195923639394,1.3785941719599966,0.04350729370083012,0.28865195,0.5429414954015451
0.0015,1.79994375,1.0,37.09366656471124,0.018160369333993866,1.3775556691227024,0.08115602002018966,0.2886506375,0.5454455252337642
0.002,1.7999,1.0,64.47104897014795,0.023667713330230617,1.375694378464867,0.12705250952196842,0.2886488,0.5499162435902338
0.0025,1.79984375,1.0,113.67806509985124,0.029144165481201356,1.3731686121488904,0.17788907243688548,0.28864643749999996,0.5559476623305836
0.003,1.7997750000000001,1.0,181.43273743507845,0.03458989906584563,1.370470896001845,0.23094715447950592,0.28864354999999997,0.5623447551517542
0.0035,1.79969375,1.0,260.24641510402745,0.04000508638987061,1.3679054862668172,0.28415717817901276,0.2886401375,0.5683850547665077
0.004,1.7996,1.0,345.14155205017306,0.04538989879680991,1.3655401764032353,0.3359957141996779,0.2886362,0.5739170262598585
0.0045000000000000005,1.7994937500000001,1.0,433.56338416669513,0.05074450666709797,1.3633607247090256,0.3854267394939166,0.2886317375,0.5789827287593486
0.005,1.799375,1.0,524.0309620913571,0.056069079410894604,1.3613415157503856,0.4318252465994254,0.28862675,0.5836489445000441
0.0055,1.79924375,1.0,615.5046513014358,0.06136378551888268,1.3594609256660546,0.4748822931523288,0.2886212375,0.587971437880431
0.006,1.7991000000000001,1.0,707.1485017634124,0.06662879251055671,1.3577026677072626,0.5145145627913739,0.2886152,0.591992351770114
0.006500000000000001,1.79894375,1.0,798.277432562293,0.07186426696908085,1.3560540263287932,0.5507890095069399,0.2886086375,0.5957446758133131
0.007,1.798775,1.0,888.3227679312447,0.07707037457610688,1.3545047838287239,0.5838657464471328,0.28860155,0.5992549688856816
0.0075,1.79859375,1.0,976.8153941797076,0.08224727993091942,1.353046428838581,0.6139569352979314,0.2885939375,0.6025453414678723
0.008,1.7984,1.0,1063.3976920762252,0.08739514715958378,1.3516712974514669,0.6412983669216119,0.2885858,0.6056355183316389
0.0085,1.79819375,1.0,1147.7592421589602,0.09251413878546136,1.3503730713772963,0.6661314419525292,0.2885771375,0.6085418075690051
0.009000000000000001,1.797975,1.0,1229.6703765760105,0.09760441678052266,1.3491458995678074,0.6886912036821541,0.28856795,0.6112791480069725
0.0095,1.79774375,1.0,1308.982667845719,0.10266614263350177,1.3479841738917158,0.709199573121469,0.2885582375,0.613861654084503
0.01,1.7975,1.0,1385.5675745360318,0.10769947608943822,1.3468831556917684,0.7278622423344943,0.288548,0.6163012637031899
0.0105,1.79724375,1.0,1459.3435094519634,0.11270457629021845,1.345838422287078,0.7448669960183311,0.2885372375,0.618609010427247
0.011,1.796975,1.0,1530.2817235069506,0.11768160210283786,1.344845676867794,0.7603835696989732,0.28852595000000003,0.6207954692142632
0.0115,1.79669375,1.0,1598.3639452669042,0.12263071089303049,1.3439011685399236,0.7745645771118821,0.2885141375,0.622869854199219
0.012,1.7964,1.0,1663.5900640960604,0.12755205879440362,1.3430014872187248,0.787546547461545,0.28850180000000003,0.6248404967019865
0.0125,1.79609375,1.0,1725.9891530158516,0.13244580136609393,1.3421433570857646,0.7994511865861422,0.2884889375,0.6267153163331728
0.013000000000000001,1.7957750000000001,1.0,1785.6243863350994,0.13731209463603267,1.3413235285795866,0.8103867570997552,0.28847555,0.6285020689986611
0.0135,1.79544375,1.0,1842.5428866279904,0.1421510922277691,1.340539294590175,0.8204496699296845,0.2884616375,0.6302072348215113
0.014,1.7951000000000001,1.0,1896.7932687115097,0.14696294642154603,1.3397882267924666,0.829725670624617,0.2884472,0.6318366101187223
0.0145,1.79474375,1.0,1948.4474292354626,0.15174780949760622,1.3390678968613978,0.8382909441339014,0.2884322375,0.6333959225701165
0.015,1.794375,1.0,1997.5850699185887,0.15650583288356643,1.338376019406868,0.8462132698696879,0.28841675,0.6348905277116166
0.0155,1.79399375,1.0,2044.3022769379706,0.16123716849938813,1.337710333760672,0.8535529687475844,0.2884007375,0.6363256711455854
0.016,1.7936,1.0,2088.6724165678133,0.1659419654305019,1.3370689916310048,0.8603639015349638,0.2883842,0.6377056596966124
0.0165,1.7931937500000001,1.0,2130.767752416843,0.17062037168895255,1.3364502983803401,0.866694150716887,0.2883671375,0.6390344283156253
0.017,1.792775,1.0,2170.672632949823,0.17527253528678477,1.335852559371151,0.8725866589320882,0.28834955,0.6403158748847178
0.0175,1.7923437500000001,1.0,2208.4745645287603,0.17989860340511737,1.335274159752904,0.8780798572449656,0.2883314375,0.6415536919706127
0.018000000000000002,1.7919,1.0,2244.2677736581095,0.1844987237613852,1.3347135158591592,0.8832081819919088,0.2883128,0.6427514741747462
0.0185,1.79144375,1.0,2278.1328603475754,0.18907304197746638,1.3341692678678054,0.8880025871807015,0.2882936375,0.6439123099894608
0.019,1.790975,1.0,2310.139199102988,0.19362170157451106,1.3336402404448304,0.8924909338846632,0.28827395,0.6450388710328946
0.0195,1.79049375,1.0,2340.3624798935703,0.19814484607366928,1.3331252582562227,0.896698299031822,0.2882537375,0.64613380839198
0.02,1.79,1.0,2368.884179727443,0.2026426189960911,1.3326231459679705,0.9006472906847178,0.288233,0.6471997537192928
0.0205,1.78949375,1.0,2395.7769687203054,0.20711516192395105,1.3321328650074766,0.9043583539015677,0.2882117375,0.6482390305546087
0.021,1.788975,1.0,2421.131604373794,0.21156261928953102,1.3316532459039014,0.9078499536949787,0.28818995000000003,0.6492542234738721
0.021500000000000002,1.78844375,1.0,2445.0115451998504,0.21598513086014537,1.3311834236280327,0.9111388795050205,0.2881676375,0.6502472573788747
0.022,1.7879,1.0,2467.476010775069,0.22038283525608549,1.3307226062815023,0.9142403782297424,0.2881448,0.6512198906070485
0.0225,1.78734375,1.0,2488.5872128070782,0.2247558710976428,1.3302700019659424,0.9171683041809863,0.28812143749999997,0.652173870540231
0.023,1.786775,1.0,2508.410104866444,0.22910437700510863,1.3298248187829855,0.9199352655571175,0.28809755,0.6531109340394476
0.0235,1.78619375,1.0,2527.007301976339,0.23342849069466295,1.3293863105949104,0.9225527618199908,0.28807313749999996,0.6540327117113305
0.024,1.7856,1.0,2544.4396098383013,0.2377283494158019,1.3289537691624624,0.9250312957513259,0.2880482,0.6549407453884228
0.0245,1.78499375,1.0,2560.7773196999774,0.24200409176739376,1.328526415690368,0.9273804556820733,0.2880227375,0.6558367161786975
0.025,1.784375,1.0,2576.065096028919,0.24625585110210751,1.328103728747036,0.9296090600307113,0.28799675,0.6567217575965925
0.025500000000000002,1.78374375,1.0,2590.3489974412423,0.2504837607726121,1.3276851869008752,0.9317251911340445,0.2879702375,0.6575969970846253
0.026000000000000002,1.7831000000000001,1.0,2603.676360502845,0.2546879541315764,1.3272702687202944,0.9337362666690813,0.2879432,0.6584635561599053
0.0265,1.78244375,1.0,2616.095689559107,0.25886856453166945,1.3268584527737024,0.935649103274048,0.2879156375,0.659322550543308
0.027,1.781775,1.0,2627.6555858692227,0.26302572493531695,1.326449226585331,0.9374699745136551,0.28788755,0.660175071625763
0.0275,1.7810937500000001,1.0,2638.398312311945,0.26715956546277314,1.3260421451324904,0.9392046692003412,0.2878589375,0.6610220650427425
0.028,1.7804,1.0,2648.3771948344393,0.2712702217034724,1.32563666879611,0.9408585153581456,0.2878298,0.6618646681612644
0.0285,1.77969375,1.0,2657.6258109219834,0.27535782151946553,1.3252324473237564,0.9424364576772246,0.2878001375,0.6627036199228316
0.029,1.778975,1.0,2666.178330595869,0.2794224927728032,1.3248291304629953,0.943943067744766,0.28776995,0.6635396556207092
0.029500000000000002,1.7782437500000001,1.0,2674.069464190451,0.28346436332553615,1.324426367961393,0.9453825770044313,0.2877392375,0.6643735069240396
0.03,1.7775,1.0,2681.334412849905,0.28748356103971506,1.324023809566516,0.9467589064110182,0.287708,0.6652059018941396
0.0305,1.77674375,1.0,2688.008821745269,0.2914802137773908,1.32362110502593,0.9480756931476577,0.2876762375,0.6660375649929722
0.031,1.775975,1.0,2694.1209452037306,0.29545444548308125,1.3232179753661006,0.9493363225106346,0.28764395,0.6668690701538227
0.0315,1.7751937500000001,1.0,2699.7040257187655,0.29940638468371145,1.3228140990057298,0.9505439374140126,0.2876111375,0.6677010761579046
0.032,1.7744,1.0,2704.7965732265684,0.30333616212647657,1.322409109119003,0.9517014574348285,0.2875778,0.6685343314958256
0.0325,1.77359375,1.0,2709.420366628561,0.30724389925704626,1.3220027942180523,0.9528116176308588,0.2875439375,0.6693692618487457
0.033,1.772775,1.0,2713.5973922712806,0.3111297175210899,1.3215949428150104,0.9538769677591402,0.28750955,0.6702062906754152
0.0335,1.7719437500000002,1.0,2717.349824185382,0.3149937383642772,1.321185343422009,0.954899887052416,0.2874746375,0.6710458391928765
0.034,1.7711000000000001,1.0,2720.7000053154925,0.3188360832322775,1.320773784551181,0.955882597650087,0.2874392,0.6718883263543127
0.0345,1.7702437500000001,1.0,2723.6704297427736,0.3226568735707605,1.3203600547146583,0.9568271768203878,0.2874032375,0.6727341688240469
0.035,1.7693750000000001,1.0,2726.2837258978834,0.3264562308253956,1.3199439424245734,0.9577355680952763,0.28736675,0.6735837809496853
0.035500000000000004,1.76849375,1.0,2728.5626407670397,0.3302342764418523,1.319525236193058,0.9586095914261228,0.2873297375,0.6744375747314109
0.036000000000000004,1.7676,1.0,2730.527072841189,0.33399112915656304,1.319103751362,0.959450954591749,0.2872922,0.6752959051871774
0.0365,1.76669375,1.0,2732.194047462002,0.33772690682053985,1.318679330160481,0.960261261923839,0.2872541375,0.6761590705627143
0.037,1.765775,1.0,2733.5885260403716,0.3414417357013872,1.318251743389127,0.9610420141284972,0.28721555,0.6770275122123127
0.0375,1.76484375,1.0,2734.723350941732,0.34513573041899687,1.3178208725298728,0.961794629272831,0.2871764375,0.677901444465403
0.038,1.7639,1.0,2735.611413715744,0.3488090055932607,1.317386599064653,0.9625204404990813,0.28713679999999997,0.6787810801472361
0.0385,1.76294375,1.0,2736.265649048386,0.3524616758440706,1.3169488044754016,0.9632207020379229,0.28709663750000003,0.6796666305536149
0.039,1.761975,1.0,2736.699029024062,0.35609385579131836,1.3165073702440535,0.9638965947331174,0.28705595,0.6805583054247246
0.0395,1.7609937500000001,1.0,2736.9245577009237,0.35970566005489585,1.316062177852543,0.9645492311220664,0.2870147375,0.6814563129180724
0.04,1.76,1.0,2736.9552659956776,0.3632972032546949,1.3156131087828047,0.9651796601123296,0.286973,0.6823608595805277
0.0405,1.7589937500000001,1.0,2736.804206881477,0.36686860001060734,1.315160044516773,0.9657888712901922,0.2869307375,0.6832721503194695
0.041,1.757975,1.0,2736.484450896221,0.37041996494252505,1.3147028665363825,0.9663777988937949,0.28688795,0.6841903883730353
0.0415,1.75694375,1.0,2735.9986311773773,0.3739513971875186,1.314241551204282,0.9669473308999578,0.2868446375,0.685115585129868
0.042,1.7559,1.0,2735.3713996765314,0.3774630291721703,1.313775875085293,0.9674982955778171,0.28680079999999997,0.6860481511940644
0.0425,1.75484375,1.0,2734.611748503297,0.38095497137495177,1.3133057569627042,0.9680314844416351,0.2867564375,0.6869882099937082
0.043000000000000003,1.753775,1.0,2733.72640443404,0.38442733095123605,1.3128311362412914,0.9685476477651987,0.28671155,0.6879358424680566
0.043500000000000004,1.75269375,1.0,2732.7220989226407,0.3878802150563959,1.3123519523258311,0.9690474960776767,0.28666613750000003,0.6888911284382708
0.044,1.7516,1.0,2731.605566605848,0.39131373084580434,1.3118681446210991,0.9695317026612166,0.2866202,0.6898541465899017
0.0445,1.75049375,1.0,2730.383543890639,0.3947279854748342,1.311379652531872,0.9700009058677354,0.2865737375,0.6908249744551362
0.045,1.7493750000000001,1.0,2729.0627676225245,0.3981230860988584,1.3108864154629254,0.9704557112696447,0.28652675,0.691803688394813
0.0455,1.74824375,1.0,2727.649973835462,0.4014991398732498,1.310388372819036,0.97089669365792,0.2864792375,0.6927903635802013
0.046,1.7471,1.0,2726.151896583343,0.4048562539533814,1.3098854640049797,0.9713243988997198,0.2864312,0.6937850739745486
0.0465,1.7459437500000001,1.0,2724.5752668526557,0.408194535494626,1.3093776284255325,0.9717393456666881,0.28638263750000004,0.6947878923143914
0.047,1.744775,1.0,2722.926811556332,0.4115140916523565,1.308864805485471,0.972142027044087,0.28633355,0.6957988900906319
0.0475,1.74359375,1.0,2721.213252609884,0.4148150295819458,1.3083469345895713,0.9725329120300252,0.28628393750000003,0.6968181375293834
0.048,1.7424,1.0,2719.4373953010554,0.4180974389191562,1.3078239907558773,0.9729124472374718,0.2862338,0.697845633657926
0.0485,1.74119375,1.0,2717.608802944164,0.4213614442505802,1.3072958874280403,0.973281057971978,0.2861831375,0.6988814973527206
0.049,1.739975,1.0,2715.7317699399096,0.42460714991580384,1.306762585963012,0.9736391501275012,0.28613195,0.6999257520831812
0.0495,1.73874375,1.0,2713.809450468888,0.4278346551784234,1.3062240580712516,0.9739871106232916,0.2860802375,0.7009784000585928
0.05,1.7375,1.0,2711.844995536559,0.431044059302035,1.3056802754632173,0.9743253083815329,0.286028,0.7020394425788635
0.0505,1.73624375,1.0,2709.8415527193483,0.434235461550235,1.305131209849368,0.9746540953228285,0.2859752375,0.703108880025067
0.051000000000000004,1.734975,1.0,2707.8022659289177,0.43740896118661954,1.3045768329401617,0.9749738072980462,0.28592195,0.704186711849939
0.051500000000000004,1.73369375,1.0,2705.7302751936236,0.440564657474785,1.304017116446058,0.9752847649611127,0.2858681375,0.7052729365683166
0.052000000000000005,1.7324,1.0,2703.6287164580476,0.4437026496783275,1.3034520320775147,0.975587274586996,0.2858138,0.7063675517475351
0.0525,1.73109375,1.0,2701.5007214003,0.4468230370608433,1.302881551544991,0.9758816288387552,0.28575893750000003,0.7074705539977646
0.053,1.729775,1.0,2699.349417266842,0.44992591888592876,1.302305646558945,0.9761681074872499,0.28570355000000003,0.7085819389623029
0.0535,1.72844375,1.0,2697.1779267253123,0.45301139441718,1.301724288829836,0.9764469780868105,0.2856476375,0.7097017013078117
0.054,1.7271,1.0,2694.9893677349005,0.45607956291819335,1.301137450068122,0.9767184966099139,0.2855912,0.7108298347145066
0.0545,1.7257437500000001,1.0,2692.7868534345284,0.459130523652565,1.3005451019842622,0.9769829080436823,0.2855342375,0.7119663318662929
0.055,1.724375,1.0,2690.5654116793417,0.46216433908517357,1.2999472902656761,0.9772404478355536,0.28547675,0.7131110429281832
0.0555,1.72299375,1.0,2688.3350926480207,0.46518114932511867,1.2993439230880577,0.9774913407939952,0.2854187375,0.7142640807087086
0.056,1.7216,1.0,2686.098735848701,0.4681810537096741,1.2987349745453154,0.9777358022908267,0.2853602,0.7154254304317914
0.0565,1.72019375,1.0,2683.8574070246523,0.47116414269435336,1.298120434947909,0.977974038891065,0.28530113749999997,0.7165950454925688
0.057,1.718775,1.0,2681.612170176002,0.47413050673467005,1.2975002946062983,0.9782062486812348,0.28524155,0.7177728785368804
0.0575,1.71734375,1.0,2679.3640875491196,0.47708023628613766,1.2968745438309428,0.978432621683625,0.2851814375,0.7189588814578114
0.058,1.7159,1.0,2677.1142196279848,0.48001342180426976,1.2962431729323025,0.9786533402470889,0.2851208,0.7201530053922255
0.0585,1.71444375,1.0,2674.8636251282883,0.48293015374457987,1.2956061722208367,0.9788685794158916,0.2850596375,0.7213552007172992
0.059000000000000004,1.7129750000000001,1.0,2672.613360992413,0.4858305225625816,1.2949635320070052,0.9790785072780004,0.28499795,0.7225654170470421
0.059500000000000004,1.71149375,1.0,2670.3644823876284,0.4887146187137884,1.2943152426012678,0.9792832852941173,0.2849357375,0.7237836032288165
0.06,1.71,1.0,2668.11804270579,0.4915825326537138,1.2936612943140842,0.9794830686086587,0.284873,0.7250097073398496
0.0605,1.7084937500000001,1.0,2665.8750935653065,0.4944343548378715,1.2930016774559139,0.9796780063438053,0.2848097375,0.7262436766837392
0.061,1.7069750000000001,1.0,2663.6366848148737,0.4972701757217749,1.292336382337217,0.9798682418776655,0.28474595,0.7274854577869532
0.0615,1.7054437500000001,1.0,2661.4038645399287,0.5000900857609376,1.2916653992684524,0.980053913107527,0.2846816375,0.7287349963953261
0.062,1.7039,1.0,2659.1776790705453,0.5028941754108732,1.2909887185600806,0.9802351526990998,0.2846168,0.7299922374705428
0.0625,1.70234375,1.0,2656.959172991731,0.505682535127095,1.2903063305225608,0.9804120883225999,0.2845514375,0.7312571251866253
0.063,1.7007750000000001,1.0,2654.749389155613,0.5084552553651169,1.289618225466353,0.9805848428764546,0.28448555,0.7325296029264052
0.0635,1.69919375,1.0,2652.5493686963173,0.5112124265804523,1.2889243937019166,0.9807535346993753,0.28441913750000003,0.7338096132779972
0.064,1.6976,1.0,2650.358843051833,0.5139541104670988,1.288224837605082,0.9809182762952694,0.2843522,0.7350970758530744
0.0645,1.69599375,1.0,2648.1776647587317,0.5166804137455131,1.2875195584384893,0.9810791792602543,0.2842847375,0.7363919117198219
0.065,1.694375,1.0,2646.00665506106,0.5193914421921108,1.2868085485242076,0.9812363506091347,0.28421675,0.7376940576959097
0.0655,1.69274375,1.0,2643.84597262364,0.5220872771736995,1.2860918062915019,0.9813898920824172,0.2841482375,0.7390034386889852
0.066,1.6911,1.0,2641.6957758832914,0.5247680000570876,1.2853693301696383,0.9815399017919488,0.2840792,0.7403199789494004
0.0665,1.6894437500000001,1.0,2639.556223052057,0.5274336922090828,1.284641118587882,0.9816864743745888,0.2840096375,0.7416436020696404
0.067,1.687775,1.0,2637.4274721199017,0.5300844349964929,1.2839071699754991,0.9818297011383096,0.28393955,0.7429742309837469
0.0675,1.68609375,1.0,2635.309680858398,0.5327203097861261,1.2831674827617545,0.9819696702011543,0.2838689375,0.7443117879667458
0.068,1.6844000000000001,1.0,2633.20300682357,0.5353413979447902,1.2824220553759142,0.9821064666234455,0.2837978,0.745656194634069
0.0685,1.68269375,1.0,2631.1076073592326,0.5379477808392931,1.2816708862472437,0.9822401725336144,0.2837261375,0.7470073719409831
0.069,1.680975,1.0,2629.023639600593,0.5405395398364428,1.2809139738050084,0.9823708672480067,0.28365395,0.7483652401820124
0.0695,1.67924375,1.0,2626.951260477281,0.5431167563030471,1.280151316478474,0.9824986273849838,0.28358123749999997,0.7497297189903633
0.07,1.6775,1.0,2624.890626717025,0.5456795116059142,1.2793829126969058,0.9826235269736348,0.283508,0.7511007273373504
0.07050000000000001,1.67574375,1.0,2622.8418948490844,0.5482278871118518,1.2786087608895698,0.9827456375573859,0.2834342375,0.7524781835318194
0.07100000000000001,1.673975,1.0,2620.805221207708,0.5507619641876679,1.2778288594857314,0.9828650282927768,0.28335995,0.7538620052195717
0.07150000000000001,1.67219375,1.0,2618.78076193594,0.5532818242001704,1.277043206914656,0.9829817660436637,0.2832851375,0.7552521093827905
0.07200000000000001,1.6704,1.0,2616.7686729892494,0.5557875485161673,1.2762518016056092,0.9830959154710869,0.2832098,0.7566484123394615
0.0725,1.66859375,1.0,2614.7691101390237,0.5582792185024664,1.2754546419878567,0.9832075391190318,0.2831339375,0.7580508297427987
0.073,1.6667750000000001,1.0,2612.7822289766655,0.5607569155258758,1.274651726490664,0.9833166974962935,0.28305755,0.7594592765806679
0.0735,1.66494375,1.0,2610.806387154028,0.563220694766263,1.2738430702516033,0.9834234483877361,0.2829806375,0.7608736379948198
0.074,1.6631,1.0,2608.8400539346894,0.5656706296872471,1.2730286873940884,0.9835278487406439,0.2829032,0.7622938005735369
0.0745,1.6612437500000001,1.0,2606.8860514390003,0.5681068458525661,1.2722085515776584,0.9836299548554193,0.2828252375,0.7637197208163051
0.075,1.659375,1.0,2604.9441217935837,0.5705294155259985,1.2713826650804478,0.9837298194825848,0.28274675,0.7651513045083975
0.0755,1.65749375,1.0,2603.0140075650256,0.5729384109713228,1.2705510301805907,0.9838274937130661,0.2826677375,0.7665884568501948
