Time [s],Phi [rad],STIM [ ],Fsee [N],Gamma [ ],Lcerel [ ],q [ ],Lmtc [m],fisomrel [ ]
0.0,1.8,1.0,17.96634953478575,1.3033854300889577e-05,1.3793398368146566,0.0050000451818335255,0.288653,0.5411393118795591
0.0005,1.79999375,1.0,18.276778385980396,0.00562217005348171,1.379302383986118,0.012948940908795739,0.2886527375,0.5412299155052535
0.001,1.799975,1.0,21.620702794651407,0.011199843433491665,1.3789380650398835,0.0356243944949005,0.28865195,0.5421107871933324
0.0015,1.79994375,1.0,31.076270157875058,0.01674623047673488,1.3780456044771583,0.0706233598632006,0.2886506375,0.5442650540035077
0.002,1.7999,1.0,53.598723753227425,0.022261506673956835,1.3763670719778203,0.11474348377680034,0.2886488,0.5483030201876349
0.0025,1.79984375,1.0,97.14712794897844,0.027745846531833943,1.3739338089347277,0.16460257557863942,0.28864643749999996,0.5541247019629035
0.003,1.7997750000000001,1.0,160.99539090443133,0.03319942358065889,1.3712129505039456,0.2173090113876227,0.28864354999999997,0.5605897492925868
0.0035,1.79969375,1.0,237.72569515899107,0.03862241037395612,1.3685834293798564,0.2706412906912398,0.2886401375,0.5667929068449757
0.004,1.7996,1.0,321.51205756491703,0.044014978499258096,1.3661548929792509,0.32294330190584297,0.2886362,0.5724827625872237
0.0045000000000000005,1.7994937500000001,1.0,409.31482103357894,0.04937729858329129,1.3639217092802964,0.3730606121648805,0.2886317375,0.5776817267681997
0.005,1.799375,1.0,499.461661367035,0.05470954028307674,1.3618573190349959,0.4202718835811714,0.28862675,0.5824594408826698
0.0055,1.79924375,1.0,590.8391126166526,0.060011872333245696,1.3599378836660347,0.4641963102084189,0.2886212375,0.5868772956059185
0.006,1.7991000000000001,1.0,682.5669601123294,0.06528446248957,1.3581455267678801,0.5047007426301243,0.2886152,0.5909814466076455
0.006500000000000001,1.79894375,1.0,773.9323899376029,0.07052747758566168,1.3564663807735982,0.5418197341838413,0.2886086375,0.5948077786293755
0.007,1.798775,1.0,864.3363967992624,0.07574108350766422,1.3548895778888634,0.5756940726213141,0.28860155,0.5983845264855367
0.0075,1.79859375,1.0,953.2918625275619,0.08092544522944269,1.3534060309577585,0.6065256543192764,0.2885939375,0.6017352591922318
0.008,1.7984,1.0,1040.4071152505826,0.08608072677485719,1.3520079299228087,0.634546351350505,0.2885858,0.6048801571156218
0.0085,1.79819375,1.0,1125.365638405541,0.09120709118572413,1.3506885137176023,0.6599973898000464,0.2885771375,0.6078366273805453
0.009000000000000001,1.797975,1.0,1207.9323856988817,0.09630470084665572,1.3494415950088618,0.6831161025142604,0.28856795,0.6106204454007098
0.0095,1.79774375,1.0,1287.9260311401922,0.10137371711376189,1.3482616762056006,0.7041282918932064,0.2885582375,0.613245551296127
0.01,1.7975,1.0,1365.2059738665387,0.10641429994233924,1.3471438849964803,0.723244033039454,0.288548,0.6157242446095359
0.0105,1.79724375,1.0,1439.6904599124578,0.11142660882755376,1.3460835588923603,0.7406556407299882,0.2885372375,0.6180681449757595
0.011,1.796975,1.0,1511.3502864298134,0.11641080323984791,1.3450762107300342,0.7565373388062275,0.28852595000000003,0.6202882933297226
0.0115,1.79669375,1.0,1580.1510361140386,0.12136704024624242,1.344118124381585,0.7710461028534633,0.2885141375,0.6223938663013394
0.012,1.7964,1.0,1646.0886512225393,0.12629547629164875,1.3432057946133986,0.7843224403070881,0.28850180000000003,0.6243934392340104
0.0125,1.79609375,1.0,1709.192730277293,0.13119626742026455,1.3423358193549804,0.7964916684829698,0.2884889375,0.6262952384775327
0.013000000000000001,1.7957750000000001,1.0,1769.518490376167,0.1360695695421687,1.3415049380058461,0.8076653496748625,0.28847555,0.6281070705281352
0.0135,1.79544375,1.0,1827.1112181358928,0.1409155365655537,1.3407103763290658,0.8179428242491726,0.2884616375,0.6298355850181965
0.014,1.7951000000000001,1.0,1882.0182588735447,0.1457343211395424,1.3399496453153346,0.8274124457752552,0.2884472,0.6314867303889613
0.0145,1.79474375,1.0,1934.311138154305,0.15052607591325762,1.3392202559553483,0.836152709339097,0.2884322375,0.6330663837678188
0.015,1.794375,1.0,1984.066588688457,0.15529095237002286,1.3385198990237963,0.8442334484766616,0.28841675,0.6345799680003787
0.0155,1.79399375,1.0,2031.3857983656558,0.16002910274940677,1.3378462109577696,0.8517167708418034,0.2884007375,0.6360329647368568
0.016,1.7936,1.0,2076.332330253157,0.16474067578974946,1.3371974059046312,0.8586581661299686,0.2883842,0.6374295581989394
0.0165,1.7931937500000001,1.0,2118.981329872372,0.16942582007435056,1.3365717219945454,0.8651071140536202,0.2883671375,0.6387738391378394
0.017,1.792775,1.0,2159.420588218797,0.17408468418650969,1.3359673973576762,0.8711077895377607,0.28834955,0.6400698594155271
0.0175,1.7923437500000001,1.0,2197.7306861960137,0.17871741514355868,1.335382860222033,0.876699741701382,0.2883314375,0.6413212278995162
0.018000000000000002,1.7919,1.0,2234.0199358754003,0.18332416166694807,1.3348163598465743,0.8819183377891879,0.2883128,0.642531904270055
0.0185,1.79144375,1.0,2268.3566881237866,0.18790506816647481,1.3342666397067688,0.8867954248764272,0.2882936375,0.6437047626886008
0.019,1.790975,1.0,2300.813590143208,0.19246027879370645,1.3337324730468458,0.8913596167468442,0.28827395,0.6448425906697587
0.0195,1.79049375,1.0,2331.4699052163055,0.19698993770021045,1.3332126331110343,0.8956366574325706,0.2882537375,0.645948154130138
0.02,1.79,1.0,2360.4060954167794,0.20149418833354193,1.3327059406220454,0.8996497576992121,0.288233,0.647024097815051
0.0205,1.78949375,1.0,2387.7043294143646,0.20597317408678206,1.3322112523675445,0.9034198769453172,0.2882117375,0.6480729713022567
0.021,1.788975,1.0,2413.443480726473,0.210427037695877,1.3317275039842094,0.9069659816400916,0.28818995000000003,0.6490971399885408
0.021500000000000002,1.78844375,1.0,2437.683882131335,0.21485591859856262,1.3312538504632285,0.9103052911520008,0.2881676375,0.65009849028471
0.022,1.7879,1.0,2460.4893264702455,0.2192599562325748,1.3307894467957901,0.913453421806173,0.2881448,0.651078896328237
0.0225,1.78734375,1.0,2481.926779671749,0.22363929003564942,1.3303334479730826,0.9164245582837772,0.28812143749999997,0.6520402205045113
0.023,1.786775,1.0,2502.062091587768,0.22799405874465314,1.3298850471324009,0.9192316116911501,0.28809755,0.6529842336685385
0.0235,1.78619375,1.0,2520.957278403199,0.23232440021457193,1.3294434981291217,0.9218863560733029,0.28807313749999996,0.6539125686876512
0.024,1.7856,1.0,2538.6887034614533,0.23663045437972424,1.3290079409549889,0.9243995144738205,0.2880482,0.6548270879737199
0.0245,1.78499375,1.0,2555.3031207188246,0.24091235553536175,1.3285778146508138,0.9267809355926127,0.2880227375,0.6557290169620391
0.025,1.784375,1.0,2570.8489061302444,0.2451702379767362,1.328152558257408,0.9290396305593281,0.28799675,0.6566195743275459
0.025500000000000002,1.78374375,1.0,2585.3759233817077,0.24940423599909933,1.3277316108155828,0.9311838555972253,0.2879702375,0.6574999721690797
0.026000000000000002,1.7831000000000001,1.0,2598.935396599394,0.25361448389770286,1.327314411366149,0.9332211855215649,0.2879432,0.6583714161735694
0.0265,1.78244375,1.0,2611.578123742822,0.25780111547415596,1.3269004144340593,0.9351585814268335,0.2879156375,0.6592350734784449
0.027,1.781775,1.0,2623.347956602905,0.26196426222081837,1.3264891492550384,0.9370024571673359,0.28788755,0.660091949677045
0.0275,1.7810937500000001,1.0,2634.303511649165,0.2661040600691517,1.32608001716099,0.9387587024204794,0.2878589375,0.6609433112509197
0.028,1.7804,1.0,2644.4799905585687,0.27022063787509376,1.325672644598397,0.9404327788661636,0.2878298,0.6617899507662186
0.0285,1.77969375,1.0,2653.913283909988,0.27431412449458226,1.3252666580137427,0.9420297287158776,0.2878001375,0.6626326568385554
0.029,1.778975,1.0,2662.6399114039114,0.27838464878355507,1.3248616838535094,0.9435542123889462,0.28776995,0.6634722141704799
0.029500000000000002,1.7782437500000001,1.0,2670.6969651753643,0.28243233959794983,1.3244573485641808,0.9450105423524734,0.2877392375,0.6643094035800435
0.03,1.7775,1.0,2678.12205620138,0.2864573257937044,1.3240532785922394,0.9464027135573783,0.287708,0.6651450020204734
0.0305,1.77674375,1.0,2684.941198055913,0.29045973186860136,1.323649210963428,0.9477344438284813,0.2876762375,0.6659795543455056
0.031,1.775975,1.0,2691.1980248587593,0.2944396897687394,1.323244724742158,0.949009166757219,0.28764395,0.6668139283366281
0.0315,1.7751937500000001,1.0,2696.928166181246,0.29839732715792017,1.3228394758998003,0.9502300815882835,0.2876111375,0.6676488290839995
0.032,1.7744,1.0,2702.1550728326106,0.3023327667895622,1.3224332346469414,0.9514001769119713,0.2875778,0.668484723198694
0.0325,1.77359375,1.0,2706.902441829594,0.3062461314170844,1.3220257711941685,0.9525222354962606,0.2875439375,0.669322074894136
0.033,1.772775,1.0,2711.1941932768727,0.3101375437939053,1.3216168557520684,0.9535988509591314,0.28750955,0.6701613459698763
0.0335,1.7719437500000002,1.0,2715.054448418745,0.3140071266734437,1.3212062585312276,0.9546324428999726,0.2874746375,0.6710029957919967
0.034,1.7711000000000001,1.0,2718.507508860752,0.31785500280911827,1.3207937497422335,0.9556252706488527,0.2874392,0.6718474812701444
0.0345,1.7702437500000001,1.0,2721.5778369630134,0.3216812949543477,1.3203790995956726,0.9565794457745367,0.2874032375,0.6726952568312057
0.035,1.7693750000000001,1.0,2724.2885279980583,0.3254861240659137,1.3199620920351702,0.9574969445079328,0.28736675,0.6735467463663178
0.035500000000000004,1.76849375,1.0,2726.659920800994,0.3292696093924755,1.3195425371856886,0.958379619389611,0.2873297375,0.6744023180131786
0.036000000000000004,1.7676,1.0,2728.715875252005,0.33303187728654543,1.3191202140975684,0.9592292046837915,0.2872922,0.6752624010023026
0.0365,1.76669375,1.0,2730.471824897078,0.33677304414031245,1.3186949792594709,0.96004733226632,0.2872541375,0.6761272646518031
0.037,1.765775,1.0,2731.9432750775454,0.34049322634596585,1.3182666891600572,0.9608355336408411,0.28721555,0.6769971765659935
0.0375,1.76484375,1.0,2733.1457944613894,0.34419254029569485,1.3178352002879887,0.9615952472318143,0.2871764375,0.6778724026080807
0.038,1.7639,1.0,2734.095007030719,0.34787110238168845,1.3174003691319265,0.9623278250699322,0.28713679999999997,0.678753206871546
0.0385,1.76294375,1.0,2734.8065845260503,0.3515290289961359,1.3169620521805319,0.9630345389266666,0.28709663750000003,0.6796398516502098
0.039,1.761975,1.0,2735.2962393469816,0.3551664365312264,1.3165201059224658,0.9637165859488526,0.28705595,0.6805325974069867
0.0395,1.7609937500000001,1.0,2735.579717910035,0.358783441379149,1.3160743868463896,0.9643750938390129,0.2870147375,0.681431702741323
0.04,1.76,1.0,2735.6622851826864,0.36238014491922804,1.3156248468586056,0.9650111313869074,0.286973,0.6823372322878883
0.0405,1.7589937500000001,1.0,2735.5658539172587,0.36595667848785773,1.3151712869184393,0.9656256989332858,0.2869307375,0.683249553259486
0.041,1.757975,1.0,2735.30446557749,0.3695131603464265,1.3147135796155585,0.9662197445367999,0.28688795,0.6841688864973263
0.0415,1.75694375,1.0,2734.8860992500404,0.3730496992558595,1.3142516527091879,0.9667941667170906,0.2868446375,0.6850953404641071
0.042,1.7559,1.0,2734.318745573187,0.37656640397708196,1.3137854339585529,0.967349814704672,0.28680079999999997,0.6860290224344473
0.0425,1.75484375,1.0,2733.610404511447,0.38006338327101896,1.313314851122878,0.9678874916456413,0.2867564375,0.686970038475283
0.043000000000000003,1.753775,1.0,2732.7690832453172,0.38354074589859577,1.3128398319613888,0.9684079575665978,0.28671155,0.6879184934259249
0.043500000000000004,1.75269375,1.0,2731.8027941780624,0.38699860062073754,1.3123603042333098,0.9689119321199573,0.28666613750000003,0.6888744908777874
0.044,1.7516,1.0,2730.719553056641,0.3904370561983694,1.3118761956978662,0.9694000971279634,0.2866202,0.6898381331537828
0.0445,1.75049375,1.0,2729.527377209676,0.3938562213924166,1.311387434114283,0.9698730989420201,0.2865737375,0.6908095212873822
0.045,1.7493750000000001,1.0,2728.234283900127,0.3972562049638043,1.3108939472417853,0.9703315506324373,0.28652675,0.6917887550013457
0.0455,1.74824375,1.0,2726.8482887942446,0.4006371156734577,1.310395662839598,0.9707760340223223,0.2864792375,0.6927759326861178
0.046,1.7471,1.0,2725.377404546215,0.403999062282302,1.309892508666946,0.9712071015781203,0.2864312,0.6937711513778917
0.0465,1.7459437500000001,1.0,2723.8296394981726,0.40734215355126224,1.3093844124830545,0.9716252781681882,0.28638263750000004,0.6947745067363368
0.047,1.744775,1.0,2722.209889448352,0.41066649493727475,1.3088713303268198,0.9720310643137542,0.28633355,0.6957860373154994
0.0475,1.74359375,1.0,2720.525863278734,0.4139721903152586,1.308353192600329,0.9724249339906013,0.28628393750000003,0.6968058310369403
0.048,1.7424,1.0,2718.781736583557,0.4172593433763007,1.3078299618217846,0.9728073404493416,0.2862338,0.6978339113673426
0.0485,1.74119375,1.0,2716.981380034598,0.42052805769210755,1.3073016032586386,0.9731787153553902,0.2861831375,0.6988702953911679
0.049,1.739975,1.0,2715.1286611145906,0.42377843683438543,1.306768082178343,0.9735394698456614,0.28613195,0.6999149992239204
0.0495,1.73874375,1.0,2713.194042445543,0.42701058219388954,1.3062296683634378,0.9738900161095296,0.2860802375,0.700967443284499
0.05,1.7375,1.0,2711.247937966128,0.43022459950697317,1.3056857204278416,0.9742306864464554,0.286028,0.7020288275717841
0.0505,1.73624375,1.0,2709.2975533105587,0.43342059036989045,1.3051361727508544,0.9745618355626046,0.2859752375,0.7030992221905636
0.051000000000000004,1.734975,1.0,2707.317066067922,0.4365986544597787,1.3045812610565606,0.9748838214314484,0.28592195,0.7041781103737095
0.051500000000000004,1.7336950654711845,1.0,2705.3457602061276,0.43975889145377517,1.3040212210690445,0.97519698575181,0.28586819274978975,0.7052649781240025
0.052000000000000005,1.7324133001707938,1.0,2703.8203427897606,0.44290140102901715,1.3034562885123901,0.9755016548369685,0.2858143586071733,0.7063593142930007
0.0525,1.731131534870403,1.0,2702.8051455341865,0.44602628286264195,1.3028866991106816,0.9757981404478823,0.2857605244645569,0.707460610656363
0.053,1.7298497695700124,1.0,2702.274077510923,0.4491336366317869,1.3023126885880032,0.9760867405744983,0.2857066903219405,0.7085683619856282
0.0535,1.7285680042696216,1.0,2702.201875666098,0.4522235592621767,1.301734486429156,0.9763677395035504,0.2856528561793241,0.7096820781228745
0.054,1.727286238969231,1.0,2702.5277731016827,0.4552961520465232,1.3011526475606512,0.9766414295380552,0.28559902203670773,0.7108006468979917
0.0545,1.7260044736688402,1.0,2703.2220858344062,0.4583515113629145,1.300567443763956,0.9769080728209418,0.2855451878940913,0.7119235068533198
0.055,1.7247227083684495,1.0,2704.259541321289,0.46138973257810484,1.299979107122188,0.9771679178875308,0.2854913537514749,0.7130501763079555
0.0555,1.7234409430680588,1.0,2705.614916142882,0.4644109110588482,1.2993878697184655,0.9774212028173787,0.28543751960885844,0.7141801768668339
0.056,1.7221591777676681,1.0,2707.263020480554,0.46741514217189856,1.2987939636359063,0.9776681557669502,0.28538368546624204,0.715313033465385
0.0565,1.7208774124672774,1.0,2709.1786837869836,0.47040252128401006,1.2981976209576283,0.9779089954710122,0.28532985132362565,0.7164482744107483
0.057,1.7195956471668867,1.0,2711.336741651257,0.4733731437619368,1.2975990737667495,0.9781439317148226,0.28527601718100926,0.717585431419556
0.0575,1.718313881866496,1.0,2713.724643063843,0.47632709921363175,1.2969984391095308,0.9783731587296111,0.28522218303839286,0.7187242575462446
0.058,1.7170321165661053,1.0,2716.3080567972306,0.4792644896390296,1.2963960325542465,0.9785968752038076,0.2851683488957764,0.7198641322898662
0.0585,1.7157503512657146,1.0,2719.07365453505,0.4821854062749416,1.2957919780092824,0.9788152603001194,0.28511451475316,0.7210048014839165
0.059000000000000004,1.714468585965324,1.0,2722.0093212222528,0.4850899397381016,1.2951863882607626,0.9790284854467665,0.28506068061054357,0.7221460337549946
0.059500000000000004,1.7131868206649332,1.0,2725.1029315416386,0.4879781806452436,1.2945793760948106,0.9792367153678129,0.2850068464679272,0.7232875994247199
0.06,1.7119050553645425,1.0,2728.3423462156557,0.49085021961310155,1.29397105429755,0.9794401084005899,0.2849530123253108,0.7244292705203665
0.0605,1.7106232900641518,1.0,2731.715408590334,0.4937061472584094,1.293361535655105,0.9796388167957498,0.2848991781826944,0.7255708207846895
0.061,1.709341524763761,1.0,2735.2099415017515,0.49654605419790115,1.2927509329535987,0.9798329870010272,0.284845344040078,0.7267120256849413
0.0615,1.7080597594633704,1.0,2738.813744423783,0.49937003104831074,1.2921393589791554,0.9800227599297109,0.28479150989746155,0.7278526624210719
0.062,1.7067779941629797,1.0,2742.514766548287,0.5021781682340939,1.291526924925104,0.9802082711166407,0.28473767575484515,0.7289925128944923
0.0625,1.705496228862589,1.0,2746.309577950723,0.5049705482826756,1.2909136636129899,0.9803896463973183,0.2846838416122287,0.7301315061328705
0.063,1.7042144635621983,1.0,2750.180397038939,0.5077472711396024,1.2902997377756877,0.9805670149532715,0.2846300074696123,0.7312693311459405
0.0635,1.7029326982618076,1.0,2754.1221537753304,0.5105084221756153,1.289685194693883,0.9807404942776622,0.2845761733269959,0.7324058927779564
0.064,1.701650932961417,1.0,2758.1297658291955,0.5132540867614558,1.2890700816482612,0.9809101976029607,0.2845223391843795,0.7335410966067206
0.0645,1.7003691676610262,1.0,2762.198137954538,0.515984350267865,1.288454445919507,0.9810762340879656,0.28446850504176313,0.7346748489453768
0.065,1.6990874023606355,1.0,2766.322161417032,0.5186992980655842,1.2878383347883062,0.9812387089953141,0.2844146708991467,0.7358070568440527
0.0655,1.6978056370602448,1.0,2770.496713471315,0.5213990155253547,1.287221795535344,0.9813977238600312,0.2843608367565303,0.7369376280913682
0.066,1.696523871759854,1.0,2774.7166568869156,0.5240835880179178,1.2866048754413053,0.9815533766496303,0.28430700261391384,0.7380664712157968
0.0665,1.6952421064594634,1.0,2778.976839524838,0.5267531009140146,1.2859876217868755,0.9817057619162479,0.28425316847129745,0.7391934954868846
0.067,1.6939603411590727,1.0,2783.2720939625187,0.5294076395843864,1.2853700818527398,0.9818549709412602,0.28419933432868105,0.7403186109163284
0.0675,1.692678575858682,1.0,2787.597237169206,0.5320472893997745,1.2847523029195838,0.9820010918728038,0.28414550018606466,0.7414417282589083
0.068,1.6913968105582913,1.0,2791.953937774406,0.5346721178038505,1.2841342705468086,0.982144205752712,0.2840916660434482,0.742562870857248
0.0685,1.6901150452579006,1.0,2796.3309734296636,0.5372822326423329,1.2835160861078758,0.9822843989585057,0.2840378319008318,0.74368185241732
0.069,1.6888332799575099,1.0,2800.7262167222398,0.5398777144241731,1.2828977690495869,0.9824217493799591,0.2839839977582154,0.7447986360547405
0.0695,1.6875515146571192,1.0,2805.1379665526465,0.5424586424018483,1.2822793349364618,0.9825563320533106,0.283930163615599,0.7459131921805765
0.07,1.6862697493567285,1.0,2809.5645164590546,0.5450250958278353,1.2816607993330205,0.9826882195344785,0.2838763294729826,0.7470254914511607
0.07050000000000001,1.6849879840563378,1.0,2814.004154579085,0.5475771539546114,1.281042177803783,0.9828174819984119,0.2838224953303662,0.7481355047681977
0.07100000000000001,1.683706218755947,1.0,2818.4551636176398,0.5501148960346536,1.2804234859132695,0.9829441873338227,0.2837686611877498,0.7492432032788595
0.07150000000000001,1.6824244534555564,1.0,2822.915820820101,0.5526384013204387,1.2798047392259997,0.9830684012335419,0.28371482704513334,0.750348558375862
0.07200000000000001,1.6811426881551657,1.0,2827.3843979505677,0.5551477490644441,1.2791859533064938,0.9831901872807286,0.28366099290251695,0.7514515416975265
0.0725,1.679860922854775,1.0,2831.8591612756686,0.5576430185191464,1.2785671437192718,0.9833096070311522,0.28360715875990056,0.7525521251278271
0.073,1.6785791575543842,1.0,2836.338371553505,0.5601242889370232,1.2779483260288538,0.9834267200917486,0.2835533246172841,0.7536502807964223
