Time [s],Phi [rad],STIM [ ],Fsee [N],Gamma [ ],Lcerel [ ],q [ ],Lmtc [m],fisomrel [ ]
0.0,1.8,1.0,20.502348935018414,0.0016275198549490382,1.3790650891001757,0.005677217294738277,0.288653,0.541803757096543
0.0005,1.79999375,1.0,21.253695680328562,0.007227600064300792,1.3789841755728562,0.018032706817270174,0.2886527375,0.5419993452339366
0.001,1.799975,1.0,25.813541809435108,0.012796268251529727,1.3785288138275136,0.04452523484055155,0.28865195,0.5430992892293864
0.0015,1.79994375,1.0,38.13282050230803,0.018333700613623473,1.3774752040825533,0.08248292517543256,0.2886506375,0.5456392547922027
0.002,1.7999,1.0,66.14076110134839,0.02384007235851853,1.3755962575414473,0.12858173418730753,0.2886488,0.5501513116098813
0.0025,1.79984375,1.0,116.01232149241632,0.029315557711519016,1.3730651729543155,0.17952602175506202,0.28864643749999996,0.5561938033436438
0.003,1.7997750000000001,1.0,184.1866251078005,0.03476032992133731,1.370374171370251,0.2326182298119212,0.28864354999999997,0.5625732563195149
0.0035,1.79969375,1.0,263.21111765583424,0.040174561262549015,1.3678184611695126,0.28580667059689685,0.2886401375,0.5685892207362621
0.004,1.7996,1.0,348.21062421003785,0.045558423046105224,1.3654618995068872,0.33758395728846274,0.2886362,0.5740994898240366
0.0045000000000000005,1.7994937500000001,1.0,436.6852354717561,0.05091208563298614,1.3632896535142247,0.38692822321838094,0.2886317375,0.5791474095966664
0.005,1.799375,1.0,527.1594350453083,0.05623571832321558,1.3612767128313388,0.43322604089656214,0.28862675,0.5837982677480306
0.0055,1.79924375,1.0,618.6470975164084,0.061529489824236866,1.3594008517007254,0.47617628271727536,0.2886212375,0.5881091447601823
0.006,1.7991000000000001,1.0,710.2641965867227,0.06679356732519962,1.3576470888783894,0.5157020822461764,0.2886152,0.5921191320689205
0.006500000000000001,1.79894375,1.0,801.3512118243511,0.07202811751351622,1.356002412548792,0.551873822620947,0.2886086375,0.5958618694497442
0.007,1.798775,1.0,891.3458296565642,0.07723330604243289,1.3544566578052424,0.5848537783394064,0.28860155,0.5993637682957185
0.0075,1.79859375,1.0,979.77677112716,0.08240929750589372,1.3530014667955925,0.6148552930358362,0.2885939375,0.6026465702811231
0.008,1.7984,1.0,1066.2843859739176,0.08755625593689831,1.351629288115026,0.6421146089618193,0.2885858,0.6057297313128828
0.0085,1.79819375,1.0,1150.560220494787,0.09267434383141054,1.3503338333640986,0.6668730766369204,0.2885771375,0.6086294808686734
0.009000000000000001,1.797975,1.0,1232.385162309578,0.09776372313895604,1.349109155344022,0.6893653482021471,0.28856795,0.611360961910024
0.0095,1.79774375,1.0,1311.6144799928454,0.10282455552824915,1.3479496470236134,0.7098128667015605,0.2885582375,0.6139382753065779
0.01,1.7975,1.0,1388.108893259757,0.10785700045632683,1.346850749077729,0.7284208677010998,0.288548,0.6163729523731449
0.0105,1.79724375,1.0,1461.7905959446912,0.11286121713557234,1.345808015118198,0.7453765491304908,0.2885372375,0.6186760735969777
0.011,1.796975,1.0,1532.6290266720002,0.11783736399415387,1.3448171926419137,0.7608491064191426,0.28852595000000003,0.6208581111560887
0.0115,1.79669375,1.0,1600.6241023935577,0.12278559922383411,1.3438743314929265,0.7749905350608127,0.2885141375,0.6229287121820566
0.012,1.7964,1.0,1665.7648869224936,0.1277060785152129,1.3429761740664188,0.7879369509185665,0.28850180000000003,0.6248958674195204
0.0125,1.79609375,1.0,1728.0791635711012,0.1325989575088203,1.3421194742763103,0.7998096299377799,0.2884889375,0.6267674276814448
0.013000000000000001,1.7957750000000001,1.0,1787.6073807187438,0.13746439087246465,1.341301249703211,0.810716539171048,0.28847555,0.6285505642570994
0.0135,1.79544375,1.0,1844.4363354319273,0.14230253409622717,1.3405183524717053,0.8207535551385973,0.2884616375,0.6302527156567459
0.014,1.7951000000000001,1.0,1898.61217654407,0.14711353925371393,1.3397683985603943,0.8300061307833306,0.2884472,0.6318795769761003
0.0145,1.79474375,1.0,1950.1930952245673,0.1518975579260378,1.339049120694325,0.8385502320065661,0.2884322375,0.6334365234579244
0.015,1.794375,1.0,1999.2576618794124,0.15665474169431173,1.338358251598543,0.8464533955668553,0.28841675,0.6349288698188044
0.0155,1.79399375,1.0,2045.8854684808305,0.1613852411596468,1.337693708662301,0.8537757779745485,0.2884007375,0.636361476817286
0.016,1.7936,1.0,2090.1793960554633,0.16608920727827775,1.3370533356156535,0.8605709452527128,0.2883842,0.6377393142549797
0.0165,1.7931937500000001,1.0,2132.211368340049,0.1707667879772898,1.3364354493722774,0.8668868165503745,0.2883671375,0.6390662895589087
0.017,1.792775,1.0,2172.0559202726586,0.17541813062880424,1.335838462152488,0.8727662174878952,0.28834955,0.6403460693209565
0.0175,1.7923437500000001,1.0,2209.798209279001,0.18004338260494226,1.3352607861766006,0.8782474537771473,0.2883314375,0.6415822871564021
0.018000000000000002,1.7919,1.0,2245.5194474281298,0.1846426900767727,1.3347009705707014,0.8833648774199785,0.2883128,0.6427782535045616
0.0185,1.79144375,1.0,2279.3197731484875,0.18921620033376133,1.3341574603091542,0.8881492850685521,0.2882936375,0.6439374735960972
0.019,1.790975,1.0,2311.2709666643614,0.1937640570971023,1.3336290596580997,0.892628441934094,0.28827395,0.6450626611978703
0.0195,1.79049375,1.0,2341.44424537174,0.19828640344179346,1.3331146405976424,0.8968273559451492,0.2882537375,0.6461563654958659
0.02,1.79,1.0,2369.916461842817,0.20278338244283278,1.3326130751078866,0.9007685737527988,0.288233,0.6472211169237098
0.0205,1.78949375,1.0,2396.764386811855,0.2072551363699612,1.332123285999746,0.9044724670819011,0.2882117375,0.6482593204615144
0.021,1.788975,1.0,2422.067564734152,0.211701807762943,1.3316442137013285,0.9079574663628743,0.28818995000000003,0.6492733275460063
0.021500000000000002,1.78844375,1.0,2445.9013880664265,0.21612353831745823,1.3311748784574817,0.9112402849842199,0.2881676375,0.6502653057355618
0.022,1.7879,1.0,2468.3236755644775,0.22052046642569034,1.3307145032456935,0.9143361273487537,0.2881448,0.6512369813231957
0.0225,1.78734375,1.0,2489.3951967610915,0.2248927304798228,1.330262311043451,0.9172588097430996,0.28812143749999997,0.6521900698477002
0.023,1.786775,1.0,2509.1794270445635,0.22924046887203908,1.3298175248282416,0.9200209062823314,0.28809755,0.6531262765184065
0.0235,1.78619375,1.0,2527.7408004918284,0.2335638196892672,1.3293793818933197,0.9226338802822653,0.28807313749999996,0.6540472665292558
0.024,1.7856,1.0,2545.134031933137,0.23786291866523307,1.3289472320612938,0.9251082145773465,0.2880482,0.6549544595638179
0.0245,1.78499375,1.0,2561.4365836639013,0.2421379059645653,1.3285202293635612,0.9274534590270602,0.2880227375,0.6558496776113303
0.025,1.784375,1.0,2576.6925020802855,0.24638891477152491,1.3280978588399939,0.9296784091812674,0.28799675,0.6567340402570518
0.025500000000000002,1.78374375,1.0,2590.947212966313,0.2506160782703729,1.3276796055304632,0.9317911267384299,0.2879702375,0.6576086610950258
0.026000000000000002,1.7831000000000001,1.0,2604.2474070926755,0.25481952964537025,1.327264954474841,0.9337990107214137,0.2879432,0.6584746478717485
0.0265,1.78244375,1.0,2616.640931694971,0.25899940208077793,1.3268533907129987,0.9357088608823452,0.2879156375,0.6593331026129332
0.027,1.781775,1.0,2628.176687831797,0.26315582876085697,1.3264443992848085,0.9375269342677685,0.28788755,0.6601851217333563
0.0275,1.7810937500000001,1.0,2638.895923110315,0.2672889391056778,1.326037544828637,0.9392590061232495,0.2878589375,0.6610316306189876
0.028,1.7804,1.0,2648.852941355479,0.27139886910403266,1.3256322789067279,0.9409103898997004,0.2878298,0.6618737848661065
0.0285,1.77969375,1.0,2658.0823126764503,0.27548574728617603,1.3252282423405661,0.9424860170972038,0.2878001375,0.6627123417859248
0.029,1.778975,1.0,2666.61703064832,0.27954970127549866,1.3248250959362078,0.9439904497241219,0.28776995,0.6635480135524026
0.029500000000000002,1.7782437500000001,1.0,2674.4906193086513,0.2835908586953913,1.3244225004997086,0.9454279104803331,0.2877392375,0.6643815088313667
0.03,1.7775,1.0,2681.737085284378,0.2876093471692445,1.3240201168371242,0.9468023123283253,0.287708,0.6652135327960982
0.0305,1.77674375,1.0,2688.3908724695557,0.2916052943204491,1.3236176057545106,0.9481172851362276,0.2876762375,0.6660447871355808
0.031,1.775975,1.0,2694.4864606874967,0.29557882749819653,1.3232146313382687,0.949376200042021,0.28764395,0.6668759632935812
0.0315,1.7751937500000001,1.0,2700.048884107125,0.2995300658761454,1.3228109472233243,0.9505821993719948,0.2876111375,0.6677075649004469
0.032,1.7744,1.0,2705.1244321421063,0.303459147848033,1.3224061155180231,0.9517381896593651,0.2875778,0.6685404868513365
0.0325,1.77359375,1.0,2709.734181759694,0.3073661945326693,1.321999931289646,0.9528469007706325,0.2875439375,0.6693751411016049
0.033,1.772775,1.0,2713.899412948743,0.31125132704886416,1.3215921896054736,0.9539108776915491,0.28750955,0.6702119374513938
0.0335,1.7719437500000002,1.0,2717.641589681324,0.3151146665154275,1.321182685532787,0.9549324952645961,0.2874746375,0.6710512835266161
0.034,1.7711000000000001,1.0,2720.98234180496,0.31895633405116935,1.3207712141388668,0.9559139715850413,0.2874392,0.6718935847572618
0.0345,1.7702437500000001,1.0,2723.943447866264,0.3227764507748996,1.3203575704909936,0.9568573801918311,0.2874032375,0.6727392443530233
0.035,1.7693750000000001,1.0,2726.546818865304,0.3265751378054282,1.3199415496564486,0.9577646611743954,0.28736675,0.6735886632762444
0.035500000000000004,1.76849375,1.0,2728.814482942098,0.33035251626156503,1.3195229467025122,0.9586376313030884,0.2873297375,0.6744422402121923
0.036000000000000004,1.7676,1.0,2730.76857099287,0.33410870726212016,1.3191015566964657,0.9594779932792422,0.2872922,0.6753003715366463
0.0365,1.76669375,1.0,2732.416585347454,0.3378438222911436,1.3186773084138796,0.9602873555295192,0.2872541375,0.67616317953471
0.037,1.765775,1.0,2733.791082912037,0.34155799116342983,1.318249903635183,0.9610672093542352,0.28721555,0.6770312462888929
0.0375,1.76484375,1.0,2734.910626644713,0.3452513323967972,1.3178191719200645,0.9618189657956775,0.2871764375,0.6779048914542236
0.038,1.7639,1.0,2735.78727903543,0.348923959870817,1.31738500232761,0.9625439561706384,0.28713679999999997,0.6787843121731603
0.0385,1.76294375,1.0,2736.433143925997,0.3525759874650606,1.3169472839169032,0.9632434330206598,0.28709663750000003,0.6796697041380675
0.039,1.761975,1.0,2736.860361216155,0.3562075290590992,1.3165059057470299,0.9639185756251668,0.28705595,0.6805612615664932
0.0395,1.7609937500000001,1.0,2737.0811018447043,0.3598186985325042,1.3160607568770744,0.9645704950716136,0.2870147375,0.6814591771756725
0.04,1.76,1.0,2737.107563041513,0.3634096097648469,1.3156117263661213,0.965200238922595,0.286973,0.682363642156239
0.0405,1.7589937500000001,1.0,2736.951963853918,0.3669803766356985,1.315158703273256,0.9658087955158923,0.2869307375,0.6832748461451525
0.041,1.757975,1.0,2736.6265409449948,0.3705311130246304,1.314701576657563,0.9663970979298877,0.28688795,0.6841929771978446
0.0415,1.75694375,1.0,2736.1435446651694,0.3740619328112138,1.3142402355781269,0.9669660276436048,0.2868446375,0.685118221759577
0.042,1.7559,1.0,2735.513573540782,0.37757294542649106,1.3137745841830613,0.967516418440427,0.28680079999999997,0.6860507344411575
0.0425,1.75484375,1.0,2734.7462385082163,0.3810642623876341,1.313304535657493,0.9680490600868001,0.2867564375,0.686990650307534
0.043000000000000003,1.753775,1.0,2733.8527048921537,0.38453600265794013,1.3128299891188815,0.9685647001004333,0.28671155,0.6879381310838026
0.043500000000000004,1.75269375,1.0,2732.839894729134,0.3879882730401849,1.3123508822494128,0.9690640475583654,0.28666613750000003,0.688893260070196
0.044,1.7516,1.0,2731.714733107085,0.3914211803371439,1.3118671527312724,0.9695477743830873,0.2866202,0.6898561194109988
0.0445,1.75049375,1.0,2730.484146710271,0.394834831351593,1.3113787382466464,0.9700165176525125,0.2865737375,0.6908267900762961
0.045,1.7493750000000001,1.0,2729.1550624491647,0.3982293328863076,1.3108855764777203,0.970470881744444,0.28652675,0.6918053518434806
0.0455,1.74824375,1.0,2727.7344061767867,0.40160479174406344,1.3103876051066798,0.9709114403288882,0.2864792375,0.6927918832785069
0.046,1.7471,1.0,2726.229101491341,0.4049613147276361,1.3098847618157112,0.9713387382203907,0.2864312,0.6937864617169003
0.0465,1.7459437500000001,1.0,2724.646068624792,0.40829900863980123,1.3093769842869998,0.971753293101469,0.28638263750000004,0.69478916324452
0.047,1.744775,1.0,2722.992223417213,0.41161798028333446,1.3088642102027315,0.9721555971272637,0.28633355,0.6958000626780705
0.0475,1.74359375,1.0,2721.274476378199,0.41491833646101145,1.3083463772450923,0.9725461184206347,0.28628393750000003,0.6968192335453675
0.048,1.7424,1.0,2719.4922469258095,0.41820018143195264,1.3078234912562692,0.9729253069368402,0.2862338,0.6978466142563826
0.0485,1.74119375,1.0,2717.6675892311523,0.42146361879812044,1.3072953519180344,0.9732935766915831,0.2861831375,0.6988825468417456
0.049,1.739975,1.0,2715.795565500056,0.42470875089722343,1.306762004620817,0.973651338780176,0.28613195,0.6999268894165109
0.0495,1.73874375,1.0,2713.869858859622,0.4279356799501923,1.3062235073998123,0.9739989858118243,0.2860802375,0.7009794754966745
0.05,1.7375039593795323,1.0,2712.0802503038076,0.4311445081779582,1.3056799182902152,0.9743368921102918,0.28602816629394034,0.702040138884207
0.0505,1.736263908474381,1.0,2710.826981010157,0.43433533716123446,1.3051313248918093,0.9746654166082578,0.285976084155924,0.7031086561536006
0.051000000000000004,1.7350238575692294,1.0,2710.0710622326283,0.437508268821728,1.304578197023373,0.9749849267922853,0.28592400201790763,0.7041840621747175
0.051500000000000004,1.733783806664078,1.0,2709.7721497458574,0.44066340317483194,1.3040209008326107,0.9752957665768645,0.28587191987989125,0.7052655990335712
0.052000000000000005,1.7325437557589265,1.0,2709.8964179703125,0.44380083940586185,1.3034597442007254,0.9755982606353609,0.2858198377418749,0.7063526264337701
0.0525,1.7313037048537752,1.0,2710.4101428380404,0.44692067670013325,1.302895035008921,0.9758927192139148,0.2857677556038586,0.7074445081854098
0.053,1.7300636539486238,1.0,2711.280506273037,0.45002301399303185,1.3023270735707027,0.9761794384088857,0.2857156734658422,0.7085406268691803
0.0535,1.7288236030434723,1.0,2712.477161095527,0.45310794981418007,1.3017561381597094,0.9764587000149516,0.2856635913278258,0.7096404116165127
0.054,1.727583552138321,1.0,2713.972186670155,0.45617558226146054,1.301182485255984,0.9767307722957067,0.2856115091898095,0.7107433372928222
0.0545,1.7263435012331694,1.0,2715.74362067664,0.45922600757472104,1.3006063172382922,0.9769959086086346,0.2855594270517931,0.7118489860855588
0.055,1.725103450328018,1.0,2717.769516241102,0.4622593219938093,1.3000278364854008,0.9772543515894403,0.2855073449137768,0.7129569430289848
0.0555,1.7238633994228667,1.0,2720.0279311042837,0.4652756217585731,1.2994472453760757,0.9775063337003507,0.2854552627757604,0.7140667960353326
0.056,1.7226233485177151,1.0,2722.5070281047715,0.46827499773510567,1.2988646542712785,0.9777520718773572,0.28540318063774406,0.7151783113115726
0.0565,1.7213832976125638,1.0,2725.173123603803,0.4712575535751471,1.2982803723156164,0.9779917867855107,0.2853510984997277,0.7162908784797744
0.057,1.7201432467074123,1.0,2728.012022729659,0.47422338270441733,1.2976945310507275,0.9782256790002407,0.2852990163617113,0.7174042288982381
0.0575,1.718903195802261,1.0,2731.0123260959085,0.47717257702458055,1.2971072364972545,0.9784539394129069,0.28524693422369496,0.7185181441995041
0.058,1.7176631448971094,1.0,2734.162623429939,0.48010522843730075,1.2965185946758397,0.9786767512712135,0.2851948520856786,0.7196324075620697
0.0585,1.716423093991958,1.0,2737.4514902819988,0.48302142884424193,1.295928711607126,0.9788942905488234,0.28514276994766224,0.7207468037198546
0.059000000000000004,1.7151830430868067,1.0,2740.8674849823733,0.48592127014706815,1.295337693311756,0.9791067262943164,0.28509068780964586,0.7218611189709541
0.059500000000000004,1.7139429921816551,1.0,2744.3991458486666,0.48880484424744347,1.2947456458103719,0.9793142209607953,0.28503860567162953,0.7229751411856722
0.06,1.7127029412765038,1.0,2748.0349886414074,0.49167224304703183,1.2941526751236168,0.9795169307173552,0.28498652353361315,0.7240886598138392
0.0605,1.7114628903713522,1.0,2751.763504269928,0.4945235584474974,1.2935588872721326,0.9797150057435491,0.28493444139559676,0.7252014658914137
0.061,1.710222839466201,1.0,2755.578337159811,0.4973588772062948,1.2929643414118885,0.9799085876167442,0.28488235925758043,0.7263134396080945
0.0615,1.7089827885610496,1.0,2759.4674338370824,0.5001782950648093,1.2923691480812696,0.9800978159776704,0.2848302771195641,0.7274243662316093
0.062,1.707742737655898,1.0,2763.423716937806,0.5029819013564644,1.2917733725830016,0.9802828223917238,0.2847781949815477,0.7285341168735362
0.0625,1.7065026867507467,1.0,2767.4422305484077,0.5057697829003155,1.2911770609043147,0.9804637323566984,0.28472611284353133,0.7296425994997608
0.063,1.7052626358455951,1.0,2771.518005981428,0.5085420265154177,1.2905802590324384,0.9806406667542823,0.284674030705515,0.7307497227699011
0.0635,1.7040225849404438,1.0,2775.646061252074,0.5112987190208262,1.2899830129546026,0.9808137420553523,0.2846219485674986,0.7318553960388099
0.064,1.7027825340352924,1.0,2779.821400602521,0.5140399472355964,1.2893853686580372,0.980983070514689,0.2845698664294823,0.7329595293579461
0.0645,1.701542483130141,1.0,2784.039014071715,0.5167657979787833,1.288787372129972,0.9811487603557332,0.2845177842914659,0.7340620334766104
0.065,1.7003024322249896,1.0,2788.2938771133868,0.5194763580694423,1.2881890693576368,0.981310915945961,0.2844657021534496,0.735162819843046
0.0655,1.699062381319838,1.0,2792.580950259826,0.5221717143266283,1.287590506328261,0.9814696379634187,0.2844136200154332,0.7362618006054031
0.066,1.6978223304146867,1.0,2796.8996841061494,0.5248519409489021,1.2869916885742634,0.9816250207176147,0.2843615378774168,0.7373589626571844
0.0665,1.6965822795095353,1.0,2801.2425765625653,0.5275171356928666,1.2863926839976312,0.9817771598539593,0.2843094557394005,0.7384541790581409
0.067,1.6953422286043838,1.0,2805.604428190422,0.5301673896726762,1.2857935396481603,0.9819261462610432,0.28425737360138414,0.7395473619112736
0.0675,1.6941021776992324,1.0,2809.983530152747,0.5328027836550452,1.2851942711602995,0.9820720655295018,0.28420529146336776,0.7406384811777602
0.068,1.6928621267940809,1.0,2814.3781682825365,0.5354233984066881,1.2845948941684975,0.9822150003401494,0.2841532093253514,0.7417275070574672
0.0685,1.6916220758889295,1.0,2818.786623042802,0.5380293146943192,1.2839954243072025,0.9823550305836536,0.28410112718733505,0.742814409989069
0.069,1.6903820249837782,1.0,2823.2071694909678,0.5406206132846532,1.2833958772108633,0.9824922334744947,0.2840490450493187,0.7438991606501444
0.0695,1.6891419740786267,1.0,2827.638077249954,0.5431973749444041,1.2827962685139283,0.9826266836595233,0.28399696291130233,0.7449817299572646
0.07,1.6879019231734753,1.0,2832.0776104840165,0.5457596804402868,1.282196613850846,0.9827584533214052,0.28394488077328595,0.7460620890660603
0.07050000000000001,1.6866618722683238,1.0,2836.5240278800347,0.5483076105390152,1.281596928856065,0.9828876122772275,0.2838927986352696,0.7471402093712766
0.07100000000000001,1.6854218213631724,1.0,2840.975582634154,0.5508412460073042,1.2809972291640337,0.983014228072526,0.28384071649725323,0.7482160625068097
0.07150000000000001,1.684181770458021,1.0,2845.4305224442164,0.553360667611868,1.280397530409201,0.983138366070972,0.2837886343592369,0.7492896203457309
0.07200000000000001,1.6829417195528695,1.0,2849.887089507207,0.555865956119421,1.279797848226015,0.9832600895399485,0.2837365522212205,0.7503608550002929
0.0725,1.6817016686477182,1.0,2854.343520522558,0.5583571922966777,1.2791981982489244,0.9833794597322288,0.2836844700832042,0.7514297388219207
