Time [s],Phi [rad],STIM [ ],Fsee [N],Gamma [ ],Lcerel [ ],q [ ],Lmtc [m],fisomrel [ ]
0.0,1.8,1.0,18.39822079670909,0.0006692347330305613,1.379291739026133,0.0051154445992601955,0.288653,0.5412556655182775
0.0005,1.79999375,1.0,18.910297387427853,0.006274690164262385,1.3792326118910156,0.014871559048441563,0.2886527375,0.5413986800966784
0.001,1.799975,1.0,22.74143210555721,0.011848703422435599,1.3788250512229856,0.03912617054622594,0.28865195,0.5423838666004539
0.0015,1.79994375,1.0,33.28195454409853,0.017391450874112178,1.3778609297318987,0.07536261222057837,0.2886506375,0.5447101970093914
0.002,1.7999,1.0,57.94759189210913,0.02290310789485995,1.3760904838317958,0.1203213944733822,0.2886488,0.5489666708264216
0.0025,1.79984375,1.0,104.12425424753685,0.02838384887691272,1.3736034749845296,0.1706486215767193,0.28864643749999996,0.554912128442232
0.003,1.7997750000000001,1.0,169.85421459907198,0.033833847237248624,1.3708858343017103,0.22353204238428376,0.28864354999999997,0.5613638326349627
0.0035,1.79969375,1.0,247.61538051635603,0.039253275415789546,1.3682819317721744,0.27682066957802626,0.2886401375,0.5675013352364653
0.004,1.7996,1.0,331.96560489430436,0.044642304887254375,1.3658802524764333,0.3289194054445196,0.2886362,0.573123854744201
0.0045000000000000005,1.7994937500000001,1.0,420.0965112648206,0.050001106164822506,1.3636702814096366,0.37872845141476896,0.2886317375,0.5782650714905475
0.005,1.799375,1.0,510.42211563443556,0.055329848771645984,1.361625685397528,0.4255712722491922,0.28862675,0.582993825448878
0.0055,1.79924375,1.0,601.8824301878942,0.06062870142368438,1.3597231317439982,0.4691003592514754,0.2886212375,0.5873701163529661
0.006,1.7991000000000001,1.0,693.5981738895374,0.06589783164769084,1.357945819490986,0.5092061745688963,0.2886152,0.5914374690973423
0.006500000000000001,1.79894375,1.0,784.8770748761591,0.0711374062083232,1.3562802098731686,0.545938423958883,0.2886086375,0.5952309057803922
0.007,1.798775,1.0,875.1410208128115,0.07634759094123157,1.354715595723579,0.5794469785098656,0.28860155,0.598778208387967
0.0075,1.79859375,1.0,963.897569907744,0.08152855051863424,1.3532433595727351,0.6099387884320286,0.2885939375,0.6021018141510439
0.008,1.7984,1.0,1050.7865767618446,0.08668044925802511,1.3518554960772642,0.637647509726156,0.2885858,0.6052222891588723
0.0085,1.79819375,1.0,1135.4881476231758,0.09180344979632285,1.3505455402643765,0.6628146055525562,0.2885771375,0.6081563271707795
0.009000000000000001,1.797975,1.0,1217.7636218574983,0.09689771417016695,1.349307536862683,0.6856764652045478,0.28856795,0.6109191476113691
0.0095,1.79774375,1.0,1297.4555345197375,0.10196340404073528,1.348135809444161,0.7064570768612379,0.2885582375,0.6135250579804175
0.01,1.7975,1.0,1374.4304674731743,0.10700067936714246,1.3470255266039086,0.7253645202599802,0.288548,0.6159862368790814
0.0105,1.79724375,1.0,1448.6010591657564,0.11200969937639912,1.3459722091306061,0.7425890839583414,0.2885372375,0.618313872797475
0.011,1.796975,1.0,1519.9307782821795,0.11699062260459826,1.3449715456304931,0.7583029772715307,0.28852595000000003,0.6205185991878464
0.0115,1.79669375,1.0,1588.4151988539018,0.12194360736422119,1.3440195259035932,0.7726610460098885,0.2885141375,0.6226102225671779
0.012,1.7964,1.0,1654.0397593079422,0.12686880953230362,1.3431128412885338,0.7858020463648456,0.28850180000000003,0.624596869078155
0.0125,1.79609375,1.0,1716.8300376378256,0.13176638495527868,1.3422481903677757,0.7978496546750674,0.2884889375,0.6264865312180574
0.013000000000000001,1.7957750000000001,1.0,1776.8267118296994,0.13663648842936485,1.3414225196775402,0.8089139929042816,0.28847555,0.6282865531155601
0.0135,1.79544375,1.0,1834.1137052958,0.14147927558531956,1.3406326547365752,0.819092880036565,0.2884616375,0.6300044468339068
0.014,1.7951000000000001,1.0,1888.7321186632194,0.14629489851288627,1.3398762174464556,0.8284735088504146,0.2884472,0.6316459082088318
0.0145,1.79474375,1.0,1940.7410050668263,0.15108350904278128,1.339150886907445,0.8371333647864223,0.2884322375,0.6332164410392009
0.015,1.794375,1.0,1990.2204099750638,0.1558452590057209,1.3384543422198074,0.8451413273765631,0.28841675,0.6347214867109614
0.0155,1.79399375,1.0,2037.2497774498993,0.16058029898727272,1.3377844704061808,0.8525587457689985,0.2884007375,0.6361659807156123
0.016,1.7936,1.0,2081.9336973078675,0.16528878030401137,1.3371390694042664,0.8594402331519236,0.2883842,0.637554999621254
0.0165,1.7931937500000001,1.0,2124.339569816353,0.16997085078494203,1.3365164797034734,0.8658346534134893,0.2883671375,0.6388924071683092
0.017,1.792775,1.0,2164.5426901730593,0.1746266579874045,1.335915084352131,0.8717856499819452,0.28834955,0.6401819391093773
0.0175,1.7923437500000001,1.0,2202.6292554219876,0.17925634946873856,1.3353332663985684,0.8773322502106933,0.2883314375,0.6414272973420496
0.018000000000000002,1.7919,1.0,2238.6813314115225,0.18386007147986938,1.3347695504066799,0.8825094448124976,0.2883128,0.6426318498740734
0.0185,1.79144375,1.0,2272.798987245488,0.18843797160939887,1.334222367921932,0.8873485981270626,0.2882936375,0.6437991351424002
0.019,1.790975,1.0,2305.053918187785,0.19299019370618056,1.3336905120151497,0.8918779787108911,0.28827395,0.6449318947419237
0.0195,1.79049375,1.0,2335.517160785527,0.19751688090182556,1.333172845785486,0.8961230411357494,0.2882537375,0.6460327003545945
0.02,1.79,1.0,2364.2654993853976,0.20201817632794503,1.3326682323320933,0.900106728405378,0.288233,0.6471041045823993
0.0205,1.78949375,1.0,2391.3786760457083,0.2064942227033768,1.3321755571325316,0.903849758389394,0.2882117375,0.64814859452708
0.021,1.788975,1.0,2416.9312697108376,0.21094516169679214,1.33169380147833,0.9073708859315285,0.28818995000000003,0.6491684376940505
0.021500000000000002,1.78844375,1.0,2441.003921823955,0.21537113634475996,1.3312219281640807,0.9106870942357104,0.2881676375,0.6501659257119534
0.022,1.7879,1.0,2463.654842070791,0.2197722849897554,1.3307591510619499,0.9138138379023901,0.2881448,0.6511428060866653
0.0225,1.78734375,1.0,2484.945252684084,0.22414874597425366,1.330304684044104,0.9167651569464869,0.28812143749999997,0.6521008153651935
0.023,1.786775,1.0,2504.9391383574903,0.2285006576407299,1.3298577409827095,0.91955382585647,0.28809755,0.6530416795720145
0.0235,1.78619375,1.0,2523.7030098616974,0.23282815833165924,1.3294175357499327,0.9221914851845483,0.28807313749999996,0.6539671146060007
0.024,1.7856,1.0,2541.293953507756,0.23713138331773817,1.3289833926965013,0.9246887763171756,0.2880482,0.6548785948019757
0.0245,1.78499375,1.0,2557.7798387348926,0.24141047330756243,1.328554553160675,0.9270554123069497,0.2880227375,0.6557777601957562
0.025,1.784375,1.0,2573.2091445985043,0.24566556252093338,1.3281304575924266,0.9293003132203806,0.28799675,0.656665825255691
0.025500000000000002,1.78374375,1.0,2587.627957280463,0.2498967839397302,1.3277105824311735,0.9314316585682181,0.2879702375,0.6575439227124396
0.026000000000000002,1.7831000000000001,1.0,2601.083659741688,0.2541042705458321,1.3272944041163328,0.9334569538504608,0.2879432,0.6584131793180314
0.0265,1.78244375,1.0,2613.6248202396387,0.2582881553211183,1.3268813990873223,0.9353830951916163,0.2879156375,0.6592747159780445
0.027,1.781775,1.0,2625.301086924443,0.262448571247468,1.326471043783559,0.9372164269893526,0.28788755,0.6601296478663059
0.0275,1.7810937500000001,1.0,2636.1552690605336,0.2665856491079188,1.3260628869676943,0.9389628033887278,0.2878589375,0.6609789341272088
0.028,1.7804,1.0,2646.2298350594474,0.2706995209915507,1.3256564881883326,0.9406276255320719,0.2878298,0.6618235066991148
0.0285,1.77969375,1.0,2655.578789430398,0.27479032133684217,1.3252513075334165,0.9422158671947278,0.2878001375,0.6626644991958002
0.029,1.778975,1.0,2664.2330984922046,0.27885817708290944,1.3248470238866994,0.9437321543124952,0.28776995,0.6635025863263844
0.029500000000000002,1.7782437500000001,1.0,2672.2242497264,0.2829032151688686,1.324443316131935,0.945180767903469,0.2877392375,0.6643384394684737
0.03,1.7775,1.0,2679.584206342444,0.2869255625338358,1.324039863152877,0.9465656741964629,0.287708,0.6651727266832423
0.0305,1.77674375,1.0,2686.345364129293,0.29092534611692705,1.323636343833279,0.9478905517701586,0.2876762375,0.6660061127239402
0.031,1.775975,1.0,2692.5405105933028,0.29490269285725856,1.3232324370568946,0.949158816032038,0.28764395,0.6668392590378209
0.0315,1.7751937500000001,1.0,2698.202786381898,0.2988577296939464,1.3228278217074778,0.9503736413266882,0.2876111375,0.6676728237614953
0.032,1.7744,1.0,2703.3580750550354,0.30279058019320904,1.3224222458450416,0.9515379883331927,0.2875778,0.6685073194650495
0.0325,1.77359375,1.0,2708.03888946123,0.3067013721723767,1.3220153993751884,0.9526546084885587,0.2875439375,0.6693433755269066
0.033,1.772775,1.0,2712.2750956180303,0.3105902310042316,1.321606998627546,0.9537260689493512,0.28750955,0.6701815638832321
0.0335,1.7719437500000002,1.0,2716.0876402849053,0.3144572774992378,1.3211968431529335,0.9547547732013913,0.2874746375,0.6710222829993299
0.034,1.7711000000000001,1.0,2719.4976362204475,0.3183026324678593,1.32078473250217,0.9557429657453131,0.2874392,0.6718659291884925
0.0345,1.7702437500000001,1.0,2722.5263453379816,0.32212641672055997,1.3203704662260745,0.95669274448725,0.2874032375,0.6727128965882898
0.035,1.7693750000000001,1.0,2725.195162751375,0.32592875106780383,1.319953843875466,0.9576060720255308,0.28736675,0.6735635771342916
0.035500000000000004,1.76849375,1.0,2727.5256017125134,0.329709756320055,1.319534665001164,0.9584847859432883,0.2873297375,0.6744183605312308
0.036000000000000004,1.7676,1.0,2729.5392794385407,0.3334695532877773,1.3191127291539873,0.9593306082048686,0.2872922,0.6752776342216007
0.0365,1.76669375,1.0,2731.2446317041854,0.33720825497893453,1.3186879564846927,0.9601451642027286,0.2872541375,0.6761415382385543
0.037,1.765775,1.0,2732.67288001357,0.3409259896987511,1.318260060735624,0.9609299622782979,0.28721555,0.6770106305502451
0.0375,1.76484375,1.0,2733.842922645655,0.34462287598957875,1.3178288682876533,0.9616864281796469,0.2871764375,0.6778852375095329
0.038,1.7639,1.0,2734.7670460145396,0.34829902805302954,1.3173942660618203,0.9624159070570675,0.28713679999999997,0.6787655608133878
0.0385,1.76294375,1.0,2735.457579337174,0.35195456009071546,1.3169561409791652,0.9631196643082547,0.28709663750000003,0.6796518006874858
0.039,1.761975,1.0,2735.926889170189,0.35558958630424864,1.316514379960728,0.9637988911706654,0.28705595,0.6805441558612115
0.0395,1.7609937500000001,1.0,2736.1873742314046,0.35920422089524096,1.3160688699275485,0.9644547098636779,0.2870147375,0.6814428235418446
0.04,1.76,1.0,2736.251460503537,0.3627985780653046,1.3156194978006663,0.9650881783212268,0.286973,0.6823479993879311
0.0405,1.7589937500000001,1.0,2736.131596622586,0.36637277201605145,1.315166150501122,0.9657002945515311,0.2869307375,0.683259877481837
0.041,1.757975,1.0,2735.8402495488417,0.36992691694909363,1.314708714949955,0.9662920006569191,0.28688795,0.6841786503014923
0.0415,1.75694375,1.0,2735.38990052179,0.3734611270660432,1.3142470780682056,0.9668641865435302,0.2868446375,0.6851045086913108
0.042,1.7559,1.0,2734.772622895794,0.3769755140280028,1.313781312193135,0.967417708454845,0.28680079999999997,0.6860372707855688
0.0425,1.75484375,1.0,2734.0488675972147,0.38047018922858833,1.3133108688163033,0.9679533248721827,0.2867564375,0.6869779957958329
0.043000000000000003,1.7537750205871374,1.0,2733.2009466092813,0.38394526220799974,1.3128359182876355,0.9684718119649797,0.28671155086465977,0.6879263017510583
0.043500000000000004,1.7527007379980613,1.0,2732.549063464447,0.38740084231536565,1.3123566801202173,0.9689739084634706,0.2866664309959186,0.6888817104090441
0.044,1.7516264554089849,1.0,2732.345030093086,0.39083703889981447,1.3118733738271346,0.9694603141442474,0.28662131112717737,0.6898437458471949
0.0445,1.7505521728199087,1.0,2732.5654811302024,0.39425396089882353,1.3113862112154688,0.9699316916164383,0.28657619125843614,0.6908119498242201
0.045,1.7494778902308326,1.0,2733.173179866019,0.3976517170034648,1.310895530990795,0.9703886789616828,0.28653107138969497,0.6917856148276518
0.0455,1.7484036076417562,1.0,2734.131670497609,0.40103041519672994,1.3104016654137096,0.9708318810317103,0.28648595152095374,0.6927640500905468
0.046,1.74732932505268,1.0,2735.415005005344,0.4043901614185304,1.3099048517609584,0.9712618647207648,0.28644083165221257,0.6937467565529924
0.0465,1.7462550424636039,1.0,2736.9972718815457,0.4077310616087775,1.3094053273092874,0.971679168575332,0.28639571178347134,0.6947332379867115
0.047,1.7451807598745277,1.0,2738.852581245953,0.41105322170738257,1.3089033293354426,0.9720843044872365,0.28635059191473017,0.6957230010378797
0.0475,1.7441064772854513,1.0,2740.9610207759383,0.41435674490848734,1.3083990409685906,0.972477755052348,0.28630547204598894,0.696715661765477
0.048,1.7430321946963752,1.0,2743.292854267879,0.41764173989570913,1.307892734460651,0.9728599864602708,0.28626035217724777,0.6977106634768593
0.0485,1.741957912107299,1.0,2745.828544058447,0.420908310830623,1.3073845894449794,0.9732314354991374,0.28621523230850654,0.6987076344762164
0.049,1.7408836295182226,1.0,2748.5537521782067,0.42415655939129643,1.3068747383416435,0.9735925146779374,0.28617011243976537,0.6997062977287878
0.0495,1.7398093469291465,1.0,2751.454132061846,0.42738658725579676,1.3063633135707102,0.9739436171333368,0.28612499257102414,0.7007063778634397
0.05,1.7387350643400703,1.0,2754.5153237341005,0.4305984961021914,1.3058504475522474,0.9742851177182715,0.28607987270228297,0.7017076011865113
0.0505,1.737660781750994,1.0,2757.722949383401,0.43379238760854794,1.3053362727063227,0.9746173740199965,0.28603475283354174,0.7027096956945477
0.051000000000000004,1.7365864991619178,1.0,2761.0626093253227,0.4369683634529336,1.3048209214530029,0.9749407273127464,0.2859896329648005,0.7037123910859129
0.051500000000000004,1.7355122165728416,1.0,2764.522465723866,0.4401265227840384,1.3043045028435816,0.9752555016655563,0.28594451309605934,0.7047154641234715
0.052000000000000005,1.7344379339837654,1.0,2768.0933289262002,0.4432669636662756,1.3037871018271754,0.9755620050008953,0.28589939322731817,0.7057187396793538
0.0525,1.733363651394689,1.0,2771.7557369464357,0.44638979548430113,1.3032688958522674,0.9758605386254131,0.28585427335857694,0.7067218648231717
0.053,1.732289368805613,1.0,2775.5035046399194,0.4494951142825419,1.302749942266457,0.9761513817187564,0.2858091534898357,0.7077247208471203
0.0535,1.7312150862165367,1.0,2779.330433589936,0.45258301610542473,1.302230298417343,0.9764348013347295,0.28576403362109454,0.7087271897913385
0.054,1.7301408036274604,1.0,2783.230311193324,0.4556535969973765,1.3017100216525246,0.9767110530326796,0.28571891375235337,0.7097291544465343
0.0545,1.7290665210383842,1.0,2787.196909819276,0.458706953002824,1.301189169319601,0.9769803814708738,0.28567379388361214,0.7107304983564056
0.055,1.727992238449308,1.0,2791.223986041456,0.46174318016619403,1.3006677987661708,0.9772430209644567,0.2856286740148709,0.7117311058198514
0.0555,1.726917955860232,1.0,2795.3052799422317,0.4647623745319135,1.3001459673398335,0.9774991960103774,0.28558355414612974,0.7127308618929709
0.056,1.7258436732711555,1.0,2799.434514490359,0.4677646321444092,1.2996237323881878,0.9777491217815024,0.2855384342773885,0.7137296523908534
0.0565,1.7247693906820794,1.0,2803.605394991513,0.470750049048108,1.2991011512588329,0.9779930045919609,0.28549331440864734,0.7147273638891607
0.057,1.7236951080930032,1.0,2807.811608611474,0.47371872128743675,1.298578281299368,0.9782310423356156,0.2854481945399061,0.7157238837254958
0.0575,1.7226208255039268,1.0,2812.0542080295313,0.4766707280710104,1.2980551137316056,0.9784634196755528,0.28540307467116494,0.7167192256965549
0.058,1.7215465429148507,1.0,2816.3212654942395,0.47960618553525425,1.2975317559631958,0.9786903236107691,0.2853579548024237,0.7177131830148511
0.0585,1.7204722603257745,1.0,2820.6100147408006,0.48252518489011414,1.2970082331611006,0.978911926973422,0.28531283493368254,0.7187057061049786
0.059000000000000004,1.7193979777366981,1.0,2824.9184014436814,0.48542781548158787,1.2964845640565437,0.9791283952794386,0.2852677150649413,0.71969675789605
0.059500000000000004,1.718323695147622,1.0,2829.2443650357063,0.488314166655673,1.2959607673807492,0.9793398875840182,0.28522259519620013,0.7206863015669582
0.06,1.7172494125585458,1.0,2833.5858386506493,0.4911843277583673,1.2954368618649406,0.9795465567848032,0.2851774753274589,0.7216743005465435
0.0605,1.7161751299694696,1.0,2837.940749074914,0.49403838813566836,1.294912866240342,0.979748549908564,0.28513235545871773,0.7226607185137315
0.061,1.7151008473803933,1.0,2842.307016705354,0.496876437133574,1.294388799238177,0.9799460083824093,0.2850872355899765,0.723645519397654
0.0615,1.714026564791317,1.0,2846.682555516506,0.4996985640980817,1.29386467958967,0.9801390682904697,0.28504211572123533,0.7246286673777442
0.062,1.712952282202241,1.0,2851.065273034305,0.5025048583751893,1.2933405260260442,0.9803278606169409,0.2849969958524941,0.7256101268838128
0.0625,1.7118779996131646,1.0,2855.4530703184078,0.5052954093108943,1.292816357278524,0.9805125114763034,0.28495187598375293,0.7265898625960961
0.063,1.7108037170240884,1.0,2859.84384195183,0.5080703062511946,1.2922921920783328,0.9806931423314917,0.2849067561150117,0.7275678394452902
0.0635,1.7097294344350122,1.0,2864.235476038603,0.5108296385420877,1.291768049156695,0.980869870200726,0.2848616362462705,0.7285440226125524
0.064,1.708655151845936,1.0,2868.625880311981,0.5135734953052332,1.2912439470133956,0.9810428078258843,0.2848165163775293,0.7295183779593699
0.0645,1.7075808692568597,1.0,2873.017011161999,0.5163019362307979,1.290719868221851,0.9812120600076825,0.28477139650878813,0.7304909382049413
0.065,1.7065065866677835,1.0,2877.4035741909975,0.5190150877894473,1.2901958595994505,0.9813777356900103,0.2847262766400469,0.7314616169366582
0.0655,1.7054323040787074,1.0,2881.785108162908,0.5217130318095005,1.2896719250659823,0.9815399347177727,0.2846811567713057,0.732430407616607
0.066,1.704358021489631,1.0,2886.161150529131,0.5243958501192761,1.2891480685412338,0.9816987534295579,0.2846360369025645,0.7333973037591646
0.0665,1.7032837389005548,1.0,2890.531237434737,0.5270636245470934,1.288624293944993,0.9818542848060602,0.28459091703382333,0.7343622989309766
0.067,1.7022094563114787,1.0,2894.8949037257553,0.5297164369212712,1.288100605197048,0.9820066186112086,0.2845457971650821,0.7353253867509395
0.0675,1.7011351737224025,1.0,2899.2516829564997,0.5323543690701283,1.2875770062171867,0.9821558415264052,0.2845006772963409,0.7362865608901791
0.068,1.7000608911333261,1.0,2903.601107397062,0.5349775028219836,1.287053500925197,0.9823020372782578,0.2844555574275997,0.7372458150720276
0.0685,1.69898660854425,1.0,2907.94270804132,0.5375859200051563,1.2865300932408668,0.9824452867601646,0.28441043755885853,0.7382031430720032
0.069,1.6979123259551738,1.0,2912.2760146151463,0.5401797024479648,1.2860067870839837,0.9825856681480871,0.2843653176901173,0.7391585387177831
0.0695,1.6968380433660974,1.0,2916.6005555852653,0.5427589319787284,1.285483586374336,0.9827232570108261,0.2843201978213761,0.7401119958891809
0.07,1.6957637607770213,1.0,2920.9158581682154,0.5453236904257659,1.2849604950317113,0.9828581264151003,0.2842750779526349,0.7410635085181188
0.07050000000000001,1.6946894781879451,1.0,2925.2214483394096,0.5478740596173962,1.2844375169758977,0.9829903470257031,0.2842299580838937,0.742013070588603
0.07100000000000001,1.6936151955988688,1.0,2929.5168508432857,0.5504101213819381,1.283914656126683,0.9831199872010016,0.2841848382151525,0.7429606761366944
0.07150000000000001,1.6925409130097926,1.0,2933.8015892026783,0.5529319575477109,1.2833919164038552,0.9832471130840226,0.2841397183464113,0.7439063192504795
0.07200000000000001,1.6914666304207164,1.0,2938.0751857300256,0.555439649943033,1.282869301727202,0.9833717886893601,0.2840945984776701,0.7448499940700422
