Time [s],Phi [rad],STIM [ ],Fsee [N],Gamma [ ],Lcerel [ ],q [ ],Lmtc [m],fisomrel [ ]
0.0,1.8,1.0,18.77877101680499,0.0009185533528857337,1.3792498227281778,0.005216895040536404,0.288653,0.5413570534459368
0.0005,1.79999375,1.0,19.358675498152454,0.006522610303790314,1.3791839341037737,0.015653992870837012,0.2886527375,0.5415164034361767
0.001,1.799975,1.0,23.375579115497466,0.012095232926536928,1.3787623361381975,0.04049879965385087,0.28865195,0.5425353722038746
0.0015,1.79994375,1.0,34.357084496812064,0.017636597542113486,1.3777731330020975,0.07719288344070477,0.2886506375,0.5449217473908787
0.002,1.7999,1.0,59.86943601678181,0.023146879483750795,1.3759715703895137,0.12245783813386373,0.2886488,0.549251843937637
0.0025,1.79984375,1.0,107.02101762615025,0.02862625310109825,1.3734695890558264,0.1729531700276502,0.28864643749999996,0.5552310779670668
0.003,1.7997750000000001,1.0,173.42711547206926,0.03407489176467925,1.3707563240545904,0.22589641677544117,0.28864354999999997,0.5616701153492589
0.0035,1.79969375,1.0,251.54865376325776,0.03949296787257166,1.368163698904913,0.2791630027396656,0.2886401375,0.5677789885479991
0.004,1.7996,1.0,336.08565107827457,0.044880652855486286,1.3657731987886066,0.33118088202391477,0.2886362,0.5733736194131074
0.0045000000000000005,1.7994937500000001,1.0,424.3200044987281,0.05023811719272542,1.3635726707658251,0.3808706431635834,0.2886317375,0.5784914319904495
0.005,1.799375,1.0,514.7070936431273,0.05556553038595327,1.3615358054898405,0.4275722943508589,0.28862675,0.5832010884847327
0.0055,1.79924375,1.0,606.1761004970914,0.0608630610150458,1.359640168109907,0.47095104982278496,0.2886212375,0.587560425643743
0.006,1.7991000000000001,1.0,697.8721577364028,0.06613087664548224,1.357868871233589,0.5109057444424558,0.2886152,0.5916131090624903
0.006500000000000001,1.79894375,1.0,789.113036344963,0.07136914406664797,1.35620850415822,0.5474916207754463,0.2886086375,0.5953938187671027
0.007,1.798775,1.0,879.3033394570097,0.0765780288248964,1.354648858489109,0.5808621204797404,0.28860155,0.5989291682792472
0.0075,1.79859375,1.0,967.9921770233111,0.08175769602542986,1.353180795690801,0.6112255703769984,0.2885939375,0.6022427473061628
0.008,1.7984,1.0,1054.7839392534913,0.08690830931126156,1.3517969913162968,0.6388167000028682,0.2885858,0.6053535615459228
0.0085,1.79819375,1.0,1139.3708258918775,0.09203003157180048,1.3504908693043969,0.6638768755581427,0.2885771375,0.6082785412444138
0.009000000000000001,1.797975,1.0,1221.542792922266,0.09712302532313505,1.3492561483701424,0.6866418682602038,0.28856795,0.6110336187042509
0.0095,1.79774375,1.0,1301.1152482969364,0.102187451299859,1.3480875944266344,0.7073352528436945,0.2885582375,0.613632100147573
0.01,1.7975,1.0,1377.9609610181276,0.10722346962829388,1.3469803323950147,0.7261643050850712,0.288548,0.616086252968894
0.0105,1.79724375,1.0,1452.0147645809204,0.11223124006394855,1.3459296411168538,0.7433183838488138,0.2885372375,0.6184077914437652
0.011,1.796975,1.0,1523.2291218926969,0.11721092107915865,1.3449313909707306,0.7589690025789548,0.28852595000000003,0.6206069372544548
0.0115,1.79669375,1.0,1591.576255859153,0.12216266972929915,1.3439818796484868,0.7732703930306124,0.2885141375,0.6226928140098659
0.012,1.7964,1.0,1657.0646151294936,0.12708664253161708,1.3430775375527053,0.7863604877879936,0.28850180000000003,0.6246741174323089
0.0125,1.79609375,1.0,1719.7421218339398,0.13198299641677866,1.342214829018382,0.7983622338717916,0.2884889375,0.626559345663009
0.013000000000000001,1.7957750000000001,1.0,1779.6437117562375,0.13685188603120943,1.3413907962835536,0.8093852323239317,0.28847555,0.6283556256788303
0.0135,1.79544375,1.0,1836.8066833342873,0.14169346458640786,1.3406028045029996,0.8195270015456892,0.2884616375,0.6300692907037354
0.014,1.7951000000000001,1.0,1891.295313520148,0.1465078852938724,1.3398482188315,0.8288741692979608,0.2884472,0.6317065948885744
0.0145,1.79474375,1.0,1943.184206448527,0.15129530054936027,1.339124558400387,0.8375037577133363,0.2884322375,0.6332733861280054
0.015,1.794375,1.0,1992.566471503083,0.1560558631371237,1.338429376260488,0.8454842514345731,0.28841675,0.6347753739921462
0.0155,1.79399375,1.0,2039.5121370941547,0.16078972305370848,1.3377606742745098,0.8528767292347889,0.2884007375,0.6362172414337643
0.016,1.7936,1.0,2084.0914039221457,0.16549702927448226,1.3371166184997847,0.859735642278804,0.2883842,0.6376032701890008
0.0165,1.7931937500000001,1.0,2126.3884126916137,0.17017793077481277,1.3364953749936443,0.8661095482070355,0.2883671375,0.6389376996424958
0.017,1.792775,1.0,2166.4905328032846,0.1748325756218332,1.3358952069100904,0.8720418368217917,0.28834955,0.6402245216034042
0.0175,1.7923437500000001,1.0,2204.4937474295416,0.17946111258045958,1.3353144045034462,0.8775713211007026,0.2883314375,0.6414676343510819
0.018000000000000002,1.7919,1.0,2240.475915580567,0.18406368774735873,1.3347515422996876,0.8827328401714513,0.2883128,0.6426702963264683
0.0185,1.79144375,1.0,2274.5089610036753,0.18864044569409238,1.334205337922003,0.8875576829044741,0.2882936375,0.6438354340065047
0.019,1.790975,1.0,2306.6721150613216,0.1931915309922224,1.3336745089935802,0.8920739619829745,0.28827395,0.6449659504078227
0.0195,1.79049375,1.0,2337.0513008377916,0.19771708821331044,1.3331577731376076,0.8963069777394993,0.2882537375,0.646064726396653
0.02,1.79,1.0,2365.7188693326907,0.20221725952828135,1.3326540401653872,0.900279580070446,0.288233,0.6471342141634087
0.0205,1.78949375,1.0,2392.771938595505,0.20669219067267425,1.3321620291534721,0.9040123587855491,0.2882117375,0.6481772525148213
0.021,1.788975,1.0,2418.270409465709,0.21114202141324898,1.3316808678318395,0.9075240202641185,0.28818995000000003,0.6491957969206564
0.021500000000000002,1.78844375,1.0,2442.277855122335,0.21556689150097166,1.3312096850139048,0.9108315072465484,0.2881676375,0.6501917874776466
0.022,1.7879,1.0,2464.8613211850998,0.21996694068680844,1.330747609513084,0.913950189226414,0.2881448,0.6511671517901166
0.0225,1.78734375,1.0,2486.0910323490157,0.22434230872172556,1.3302937701427924,0.9168940303062972,0.28812143749999997,0.6521238055001921
0.023,1.786775,1.0,2506.030546081184,0.2286931332206389,1.329847386497462,0.9196757534379152,0.28809755,0.6530634618010009
0.0235,1.78619375,1.0,2524.749871446972,0.23301955486024806,1.3294076408253552,0.9223069478283606,0.28807313749999996,0.6539879023146485
0.024,1.7856,1.0,2542.3045635442927,0.23732171017669745,1.3289738734984449,0.9247982167848563,0.2880482,0.6548985668221594
0.0245,1.78499375,1.0,2558.7445299302804,0.24159973370669366,1.3285454957685718,0.9271592622332386,0.2880227375,0.6557967385528806
0.025,1.784375,1.0,2574.1213248175204,0.24585375998694317,1.3281219188875775,0.9293989631359528,0.28799675,0.6566836937038714
0.025500000000000002,1.78374375,1.0,2588.488008875332,0.25008392355415254,1.3277025541073026,0.9315254565305802,0.2879702375,0.6575607016312194
0.026000000000000002,1.7831000000000001,1.0,2601.8990167159827,0.25429035894502827,1.327286812679588,0.9335462096000454,0.2879432,0.6584290250192484
0.0265,1.78244375,1.0,2614.3986563381095,0.25847319736334456,1.326874211508876,0.935468099110129,0.2879156375,0.6592896997782225
0.027,1.781775,1.0,2626.0433850628237,0.26263257560818987,1.32646416446383,0.9372974384550959,0.28788755,0.6601439710488948
0.0275,1.7810937500000001,1.0,2636.877383319627,0.26676862571839427,1.3260562084809637,0.9390400601747544,0.2878589375,0.660992821782584
0.028,1.7804,1.0,2646.935986996747,0.27088147646765887,1.3256499697616964,0.9407013554331733,0.2878298,0.6618370446243822
0.0285,1.77969375,1.0,2656.2552131167777,0.27497125662968475,1.3252450745074469,0.9422863022936371,0.2878001375,0.6626774282801191
0.029,1.778975,1.0,2664.8717003682937,0.27903809497817295,1.3248411489196343,0.9437995027434046,0.28776995,0.6635147575528442
0.029500000000000002,1.7782437500000001,1.0,2672.822652735192,0.28308212028682456,1.324437819199678,0.9452452159559152,0.2877392375,0.6643498133703989
0.03,1.7775,1.0,2680.1457862241896,0.28710346132934067,1.3240347115489963,0.9466273882137648,0.287708,0.6651833728040777
0.0305,1.77674375,1.0,2686.8739162177194,0.29110224507593774,1.3236315012969517,0.9479496856540096,0.2876762375,0.666016107679468
0.031,1.775975,1.0,2693.038367123043,0.29507859894569055,1.3232278809868903,0.9492155146354709,0.28764395,0.6668486509972089
0.0315,1.7751937500000001,1.0,2698.6786178453854,0.2990326519063421,1.3228234717591847,0.9504280327920479,0.2876111375,0.6676817795961316
0.032,1.7744,1.0,2703.8186326085734,0.30296452685860337,1.3224180395376766,0.9515901938522594,0.2875778,0.6685159686883968
0.0325,1.77359375,1.0,2708.482620155076,0.3068743467031854,1.3220113502462068,0.9527047485596766,0.2875439375,0.6693516910478787
0.033,1.772775,1.0,2712.6950103649583,0.31076223434079936,1.3216031698086166,0.9537742610819517,0.28750955,0.6701894169931446
0.0335,1.7719437500000002,1.0,2716.4804320902017,0.3146283126721562,1.3211932641487472,0.9548011239061269,0.2874746375,0.6710296143669424
0.034,1.7711000000000001,1.0,2719.863692203092,0.31847270459796695,1.3207813991904398,0.9557875713759386,0.2874392,0.6718727485121929
0.0345,1.7702437500000001,1.0,2722.8697521989843,0.3222955329868848,1.3203673408908554,0.9567356920047418,0.2874032375,0.672719282176411
0.035,1.7693750000000001,1.0,2725.5229006975023,0.3260969141076296,1.319950862599051,0.9576474388596629,0.28736675,0.673569660465954
0.035500000000000004,1.76849375,1.0,2727.843493735156,0.32987697769893604,1.3195317745213804,0.9585246478883388,0.2873297375,0.6744242508648525
0.036000000000000004,1.7676,1.0,2729.847794489516,0.3336358406640715,1.3191099249681695,0.959369040383585,0.2872922,0.6752833411569172
0.0365,1.76669375,1.0,2731.5521479517747,0.33737361990630316,1.3186851622497435,0.9601822306928364,0.2872541375,0.6761472173528529
0.037,1.765775,1.0,2732.972971483048,0.3410904323288984,1.3182573346764284,0.9609657340648962,0.28721555,0.6770161636628058
0.0375,1.76484375,1.0,2734.126745881635,0.34478639483512447,1.3178262905585496,0.9617209738367887,0.2871764375,0.6778904624674502
0.038,1.7639,1.0,2735.030006959712,0.3484616243282486,1.3173918782064329,0.9624492880228972,0.28713679999999997,0.6787703942876049
0.0385,1.76294375,1.0,2735.6993376307755,0.35211623771153816,1.3169539459304038,0.9631519353621033,0.28709663750000003,0.6796562377523809
0.039,1.761975,1.0,2736.151360506663,0.3557503518882603,1.3165123420407878,0.9638301008729289,0.28705595,0.6805482695658653
0.0395,1.7609937500000001,1.0,2736.3912110352603,0.35936407455392994,1.3160670194280417,0.9644849087180002,0.2870147375,0.6814465536666897
0.04,1.76,1.0,2736.441243199669,0.3629575315543428,1.3156177749070708,0.9651174081035822,0.286973,0.6823514673555792
0.0405,1.7589937500000001,1.0,2736.315568265689,0.36653083808339204,1.315164480324215,0.96572859348301,0.2869307375,0.6832632345088248
0.041,1.757975,1.0,2736.0229603493763,0.37008410425763183,1.3147070561310341,0.9663194069461276,0.28688795,0.6841819796598794
0.0415,1.75694375,1.0,2735.5722075188537,0.3736174401936165,1.3142454227790874,0.9668907384208256,0.2868446375,0.6851078260918132
0.042,1.7559,1.0,2734.9721091917995,0.37713095600790025,1.3137795007199349,0.9674434290954138,0.28680079999999997,0.686040895816162
0.0425,1.75484375,1.0,2734.231473672905,0.3806247618170374,1.3133092104051356,0.9679782745826392,0.2867564375,0.6869813095513727
0.043000000000000003,1.753775,1.0,2733.359115831014,0.38409896773758223,1.3128344722862495,0.9684960278472917,0.28671155,0.6879291867008412
0.043500000000000004,1.75269375,1.0,2732.3638549181323,0.38755368388608896,1.3123552068148359,0.9689974019172696,0.28666613750000003,0.688884645330552
0.044,1.7516,1.0,2731.2545125268375,0.3909890203791118,1.3118713344424544,0.9694830723961307,0.2866202,0.6898478021463099
0.0445,1.75049375,1.0,2730.0399106897935,0.3944050873332051,1.3113827756206646,0.9699536797934984,0.2865737375,0.6908187724705702
0.045,1.7493750000000001,1.0,2728.7281892501182,0.39780199405194616,1.310889456990734,0.9704098320444986,0.28652675,0.6917976579464498
0.0455,1.74824375,1.0,2727.3244933999426,0.40117984687462294,1.3103913324046215,0.9708521077809225,0.2864792375,0.6927845050002672
0.046,1.7471,1.0,2725.8378301492326,0.40453875530680244,1.3098883205849405,0.9712810543131539,0.2864312,0.6937794284599653
0.0465,1.7459437500000001,1.0,2724.273746631615,0.40787882380980367,1.3093803716821275,0.9716971932804214,0.28638263750000004,0.6947824796486883
0.047,1.744775,1.0,2722.637787186979,0.4112001568449456,1.3088674358466188,0.9721010205757117,0.28633355,0.6957937087804045
0.0475,1.74359375,1.0,2720.935492607222,0.41450285887354726,1.3083494632288502,0.9724930078552871,0.28628393750000003,0.6968131649441327
0.048,1.7424,1.0,2719.1723994352424,0.41778703435692766,1.307826403979258,0.9728736039460335,0.2862338,0.697840896088006
0.0485,1.74119375,1.0,2717.354039321002,0.4210527877564058,1.3072982082482785,0.9732432361584454,0.2861831375,0.6988769490031814
0.049,1.739975,1.0,2715.484295716422,0.4243002224300298,1.3067648411564858,0.9736023124064028,0.28613195,0.6999213400198853
0.0495,1.73874375,1.0,2713.5650316345095,0.4275294415381904,1.3062262862095853,0.9739512226399257,0.2860802375,0.7009740485787155
0.05,1.7375,1.0,2711.604387296458,0.43074054967948766,1.3056824696574887,0.9742903349715293,0.286028,0.7020351650003142
0.0505,1.73624375,1.0,2709.60565734277,0.43393364676888285,1.305133361859491,0.9746200029057174,0.2859752375,0.703104692220424
0.051000000000000004,1.734975,1.0,2707.5721325030613,0.43710883272133716,1.3045789331748872,0.9749405637885524,0.28592195,0.7041826322259173
0.051500000000000004,1.73369375,1.0,2705.5070993735076,0.4402662074518118,1.304019153962972,0.9752523396861297,0.2858681375,0.7052689860447664
0.052000000000000005,1.7324,1.0,2703.413840212954,0.44340587087526784,1.3034539945830406,0.975555638207824,0.2858138,0.7063637537359566
0.0525,1.73109375,1.0,2701.2956327597467,0.44652792290666654,1.3028834253943875,0.97585075327823,0.28575893750000003,0.7074669343793447
0.053,1.729775,1.0,2699.1554785570556,0.4496324595666166,1.3023074192380606,0.9761379656143432,0.28570355000000003,0.7085785212806871
0.0535,1.72844375,1.0,2696.9955891522613,0.4527195809817822,1.3017259561388175,0.9764175445339294,0.2856476375,0.7096984929595549
0.054,1.7271,1.0,2694.818291773663,0.45578939179332945,1.3011390150334898,0.976689748066902,0.2855912,0.7108268291602666
0.0545,1.7257437500000001,1.0,2692.6255131951752,0.45884198651503344,1.3005465784915373,0.9769548223750635,0.2855342375,0.7119635017762442
0.055,1.724375,1.0,2690.4191772505333,0.46187745966066934,1.2999486290824191,0.9772130031508393,0.28547675,0.7131084818608971
0.0555,1.72299375,1.0,2688.2012047788653,0.4648959057440123,1.2993451493755952,0.9774645161472195,0.2854187375,0.7142617396215006
0.056,1.7216,1.0,2685.9735135768688,0.46789741927883743,1.2987361219405245,0.9777095776766296,0.2853602,0.7154232444130616
0.0565,1.72019375,1.0,2683.738018357786,0.4708820947789199,1.298121529346667,0.9779483950807937,0.28530113749999997,0.7165929647321567
0.057,1.718775,1.0,2681.496630717447,0.4738500267580349,1.2975013541634821,0.9781811671734993,0.28524155,0.7177708682107602
0.0575,1.71734375,1.0,2679.2512591059335,0.47680130972995743,1.2968755789604292,0.9784080846580335,0.2851814375,0.7189569216100447
0.058,1.7159,1.0,2677.0038088075867,0.47973603820846283,1.2962441863069678,0.9786293305209278,0.2851208,0.7201510908141664
0.0585,1.71444375,1.0,2674.7549592498262,0.4826542962750657,1.295607169999383,0.9788450801372043,0.2850596375,0.7213533196586603
0.059000000000000004,1.7129750000000001,1.0,2672.50167773572,0.4855561392497581,1.2949645579232745,0.9790555013812452,0.28499795,0.7225634871464517
0.059500000000000004,1.71149375,1.0,2670.2533760946894,0.48844173106916794,1.2943162636472052,0.9792607583218812,0.2849357375,0.7237816867115714
0.06,1.71,1.0,2668.010417627864,0.491311157549099,1.293662283784279,0.9794610065840468,0.284873,0.7250078542174795
0.0605,1.7084937500000001,1.0,2665.773165027459,0.49416450450535526,1.2930026149476002,0.9796563957581427,0.2848097375,0.7262419248528966
0.061,1.7069750000000001,1.0,2663.5419803798673,0.4970018577537406,1.2923372537502724,0.9798470696785169,0.28474595,0.7274838331305766
0.0615,1.7054437500000001,1.0,2661.3172251688848,0.4998233031100588,1.2916661968054,0.9800331666870401,0.2846816375,0.7287335128860768
0.062,1.7039,1.0,2659.099260279999,0.5026289263901138,1.290989440726087,0.9802148198826706,0.2846168,0.729990897276528
0.0625,1.70234375,1.0,2656.8884460034374,0.5054188134097094,1.2903069821254374,0.9803921573578591,0.2845514375,0.7312559187794037
0.063,1.7007750000000001,1.0,2654.685142039061,0.5081930499846495,1.2896188176165553,0.9805653024225788,0.28448555,0.7325285091912899
0.0635,1.69919375,1.0,2652.4897075006056,0.510951721930738,1.2889249438125445,0.980734373816712,0.28441913750000003,0.7338085996266517
0.064,1.6976,1.0,2650.302500919949,0.5136949150637788,1.2882253573265092,0.9808994859114846,0.2843522,0.7350961205166011
0.0645,1.69599375,1.0,2648.123880252798,0.5164227151995757,1.2875200547715537,0.9810607489005838,0.2842847375,0.7363910016076618
0.065,1.694375,1.0,2645.9542028833366,0.5191352081539325,1.2868090327607817,0.9812182689815631,0.28421675,0.7376931719605384
0.0655,1.69274375,1.0,2643.7938256297753,0.5218324797426533,1.2860922879072976,0.9813721485280906,0.2841482375,0.7390025599488774
0.066,1.6911,1.0,2641.6431047502165,0.5245146157815418,1.285369816824205,0.9815224862535673,0.2840792,0.7403190932580348
0.0665,1.6894437500000001,1.0,2639.5023959485866,0.5271817020864019,1.284641616124608,0.9816693773666054,0.2840096375,0.7416426988838372
0.067,1.687775,1.0,2637.3720543805553,0.5298338244730375,1.283907682421611,0.9818129137188246,0.28393955,0.7429733031313448
0.0675,1.68609375,1.0,2635.2524346604296,0.5324710687572525,1.2831680123283178,0.981953183945401,0.2838689375,0.7443108316136151
0.068,1.6844000000000001,1.0,2633.143890867614,0.5350935207548506,1.2824226024578325,0.9820902735987667,0.2837978,0.7456552092504628
0.0685,1.68269375,1.0,2631.0467765536896,0.5377012662816358,1.281671449423259,0.9822242652758437,0.2837261375,0.7470063602672208
0.069,1.680975,1.0,2628.961444749578,0.540294391153412,1.2809145498377017,0.9823552387391644,0.28365395,0.7483642081934994
0.0695,1.67924375,1.0,2626.889025943613,0.5428729283241186,1.280151893106016,0.9824832673571607,0.28358123749999997,0.7497286887408015
0.07,1.6775,1.0,2624.8298448140913,0.5454370195757612,1.2793834760861857,0.9826084291919507,0.283508,0.7510997235012745
0.07050000000000001,1.67574375,1.0,2622.7836762293705,0.5479867466490019,1.2786093007302854,0.9827307961648265,0.2834342375,0.7524772243194559
0.07100000000000001,1.673975,1.0,2620.7503216178907,0.5505221858110435,1.2778293687478584,0.9828504374528731,0.28335995,0.7538611028736178
0.07150000000000001,1.67219375,1.0,2618.7295827774033,0.5530434133290884,1.277043681848447,0.9829674199439967,0.2832851375,0.7552512702418894
0.07200000000000001,1.6704,1.0,2616.721261871071,0.5555505054703394,1.2762522417415942,0.9830818083264579,0.2832098,0.756647636902882
0.0725,1.66859375,1.0,2614.7251614229817,0.5580435385019988,1.275455050136843,0.9831936651743213,0.2831339375,0.7580501127363182
0.073,1.6667750000000001,1.0,2612.7410843142507,0.5605225886912697,1.274652108743736,0.9833030510290343,0.28305755,0.7594586070236578
0.0735,1.66494375,1.0,2610.76883377918,0.5629877323053545,1.2738434192718158,0.9834100244773338,0.2829806375,0.7608730284487262
0.074,1.6631,1.0,2608.8082134009414,0.5654390456114559,1.2730289834306256,0.9835146422256693,0.2829032,0.7622932850983392
0.0745,1.6612437500000001,1.0,2606.8590271079966,0.5678766048767764,1.2722088029297083,0.9836169591713173,0.2828252375,0.7637192844629312
0.075,1.659375,1.0,2604.921079170357,0.5703004863685187,1.2713828794786066,0.9837170284703572,0.28274675,0.7651509334371813
