Time [s],Phi [rad],STIM [ ],Fsee [N],Gamma [ ],Lcerel [ ],q [ ],Lmtc [m],fisomrel [ ]
0.0,1.8,1.0,17.969494160521418,4.9832546564176276e-05,1.3793394845188953,0.0050006535028353,0.288653,0.541140164173912
0.0005,1.79999375,1.0,18.29209813096156,0.005658762334194066,1.3793006826186973,0.01305146661609774,0.2886527375,0.5412340311383619
0.001,1.799975,1.0,21.6633424166692,0.011236230460441686,1.3789337124088539,0.03581643994111064,0.28865195,0.5421213061225894
0.0015,1.79994375,1.0,31.17726943679901,0.016782413401248968,1.3780370076386768,0.07088605302489555,0.2886506375,0.544285780789525
0.002,1.7999,1.0,53.816229320674736,0.022297486640843012,1.376352977772141,0.11505448085943748,0.2886488,0.5483368498789614
0.0025,1.79984375,1.0,97.51271175645526,0.02778162467957723,1.373916211419962,0.16494085003567793,0.28864643749999996,0.5541666672109131
0.003,1.7997750000000001,1.0,161.4710897724797,0.03323500104127768,1.3711951598331633,0.2176579591093951,0.28864354999999997,0.5606318664427052
0.0035,1.79969375,1.0,238.26317180217092,0.03865778827312886,1.3685668844990126,0.27098833881765216,0.2886401375,0.5668317973555212
0.004,1.7996,1.0,322.0838473958597,0.04405015795637657,1.3661397562441726,0.3232793268446779,0.2886362,0.5725181087291387
0.0045000000000000005,1.7994937500000001,1.0,409.9068803786628,0.04941228071153547,1.3639078172116557,0.37337957962294205,0.2886317375,0.5777139686615058
0.005,1.799375,1.0,500.06573574079647,0.05474432618966801,1.3618444870023232,0.42057029580092314,0.28862675,0.5824890536544183
0.0055,1.79924375,1.0,591.4485078919702,0.06004646311773265,1.3599259811191187,0.4644725899150541,0.2886212375,0.5869046177150505
0.006,1.7991000000000001,1.0,683.1771031815529,0.06531885924689541,1.3581344388651237,0.5049546384693723,0.2886152,0.5910067719986063
0.006500000000000001,1.79894375,1.0,774.5387318484409,0.07056168140235218,1.356456032487739,0.5420518805076415,0.2886086375,0.5948313039001911
0.007,1.798775,1.0,864.9384175571907,0.07577509547859694,1.3548798553018082,0.5759055992036223,0.28860155,0.5984065315719632
0.0075,1.79859375,1.0,953.8808325626087,0.08095926633379466,1.353396973619847,0.6067180648279373,0.2885939375,0.601755672947491
0.008,1.7984,1.0,1040.9897868579842,0.08611435830148241,1.3519993526586715,0.634721126511285,0.2885858,0.6048994123975644
0.0085,1.79819375,1.0,1125.9342185228754,0.09124053411397896,1.3506804659138723,0.6601561598095039,0.2885771375,0.6078546263597879
0.009000000000000001,1.797975,1.0,1208.4753714194196,0.09633795599139783,1.3494341766869258,0.6832604627698599,0.28856795,0.6106369775610023
0.0095,1.79774375,1.0,1288.4546284307391,0.10140678575254565,1.3482546822592634,0.704259572205934,0.2885582375,0.6132610850908786
0.01,1.7975,1.0,1365.7243982805508,0.10644718322513423,1.347137222568774,0.7233635184493628,0.288548,0.6157389946021601
0.0105,1.79724375,1.0,1440.195539820479,0.11145930783124976,1.3460772380519985,0.7407645520798071,0.2885372375,0.6180820959894782
0.011,1.796975,1.0,1511.8331406184022,0.1164433184579891,1.34507031298313,0.7566368091832005,0.28852595000000003,0.6203012726330506
0.0115,1.79669375,1.0,1580.6216757050447,0.12139937312068719,1.3441125023380869,0.7711370450144145,0.2885141375,0.6224062045109061
0.012,1.7964,1.0,1646.546985208211,0.12632762793308017,1.3432004303190377,0.7844057258677504,0.28850180000000003,0.6244051805766179
0.0125,1.79609375,1.0,1709.6340575327645,0.13122823882720158,1.3423307503282995,0.7965680968365355,0.2884889375,0.6263063054198452
0.013000000000000001,1.7957750000000001,1.0,1769.9341582078036,0.13610136116586394,1.341500245760208,0.8077356479741152,0.28847555,0.6281172900054767
0.0135,1.79544375,1.0,1827.5087417374434,0.1409471500292552,1.3407059601753262,0.8180075699654568,0.2884616375,0.6298451808067891
0.014,1.7951000000000001,1.0,1882.4000973809873,0.14576575759749422,1.3399454657303622,0.8274721737926256,0.2884472,0.6314957918666044
0.0145,1.79474375,1.0,1934.6743285561927,0.15055733605069974,1.3392163345820254,0.8362079160224875,0.2884322375,0.6330748671962226
0.015,1.794375,1.0,1984.414109227647,0.15532203715404788,1.3385161941730424,0.8442845538918711,0.28841675,0.6345879664623695
0.0155,1.79399375,1.0,2031.7074065805446,0.16006001225032473,1.3378428225074912,0.8517641942382597,0.2884007375,0.6360402655617723
0.016,1.7936,1.0,2076.6438157655184,0.16477141222459019,1.337194159814983,0.8587021971985298,0.2883842,0.6374365388605475
0.0165,1.7931937500000001,1.0,2119.2885339427125,0.1694563847991402,1.3365685529011473,0.8651480433144961,0.2883671375,0.6387806415753432
0.017,1.792775,1.0,2159.718936260187,0.17411507769627074,1.335964348571613,0.8711459074715061,0.28834955,0.6400763918649608
0.0175,1.7923437500000001,1.0,2198.0235541528923,0.17874763863827775,1.3353798936320105,0.8767352860705153,0.2883314375,0.6413275731740476
0.018000000000000002,1.7919,1.0,2234.2870138292733,0.18335421393586962,1.3348136765485132,0.8819515842325633,0.2883128,0.6425376339160318
0.0185,1.79144375,1.0,2268.6076957377377,0.18793495142180963,1.3342641370194879,0.8868265445214663,0.2882936375,0.6437100979037533
0.019,1.790975,1.0,2301.05868742617,0.19248999522936186,1.3337300465842974,0.8913887629234071,0.28827395,0.6448477551238607
0.0195,1.79049375,1.0,2331.7098657949127,0.19701948837801714,1.3332102731697526,0.8956639903292564,0.2882537375,0.6459531691777387
0.02,1.79,1.0,2360.636897740517,0.20152357388726636,1.3327036847026648,0.8996754326113372,0.288233,0.6470288845193554
0.0205,1.78949375,1.0,2387.9207533168405,0.2060023947766004,1.3322091491098444,0.9034440364129608,0.2882117375,0.648077427448065
0.021,1.788975,1.0,2413.6321871421796,0.21045609197703086,1.3317256798911605,0.9069887704514474,0.28818995000000003,0.6491009990457504
0.021500000000000002,1.78844375,1.0,2437.8595986777473,0.21488480943804167,1.3312521603978005,0.9103267857509173,0.2881676375,0.6501020606881055
0.022,1.7879,1.0,2460.6639453211696,0.21928868616754607,1.3307877750891937,0.9134736973040177,0.2881448,0.6510824229959855
0.0225,1.78734375,1.0,2482.1031804953086,0.2236678602197091,1.3303317665159982,0.9164436995994363,0.28812143749999997,0.6520437628521049
0.023,1.786775,1.0,2502.237989497546,0.22802246964869563,1.3298833772288716,0.9192497053542038,0.28809755,0.6529877469007461
0.0235,1.78619375,1.0,2521.131560378872,0.23235265250867057,1.3294418497784717,0.9219034789965435,0.28807313749999996,0.6539160319341164
0.024,1.7856,1.0,2538.844206984861,0.23665854588381793,1.329006475352357,0.9244157630206735,0.2880482,0.6548301631894737
0.0245,1.78499375,1.0,2555.4351755528487,0.24094028651706184,1.3285765740991422,0.9267963781177389,0.2880227375,0.6557316165601752
0.025,1.784375,1.0,2570.9733048384405,0.2451980124629376,1.3281513931667541,0.9290542983767704,0.28799675,0.6566220126362192
0.025500000000000002,1.78374375,1.0,2585.5016419036674,0.24943185648270988,1.327730436676579,0.9311977875005946,0.2879702375,0.6575024262620499
0.026000000000000002,1.7831000000000001,1.0,2599.064501517884,0.2536419513376432,1.3273132087500026,0.9332344270117251,0.2879432,0.6583739265872999
0.0265,1.78244375,1.0,2611.7073603731455,0.2578284297890023,1.3268992135084112,0.9351711817749272,0.2879156375,0.6592375771925452
0.027,1.781775,1.0,2623.476756752364,0.26199142459805164,1.3264879550731914,0.937014458427901,0.28788755,0.6600944361993806
0.0275,1.7810937500000001,1.0,2634.4201886424344,0.26613106852127605,1.3260789376305502,0.9387701575714893,0.2878589375,0.660945556230012
0.028,1.7804,1.0,2644.5806033977033,0.27024749015744753,1.325671715489735,0.9404437261153297,0.2878298,0.6617918805164957
0.0285,1.77969375,1.0,2654.0064371798285,0.2743408254179581,1.3252657993199826,0.9420401895445488,0.2878001375,0.6626344381145818
0.029,1.778975,1.0,2662.7303990590835,0.2784112015619373,1.3248608510993627,0.9435642109508446,0.28776995,0.6634739394865998
0.029500000000000002,1.7782437500000001,1.0,2670.785740037003,0.2824587458485144,1.3244565328059457,0.9450201052474551,0.2877392375,0.6643110915801795
0.03,1.7775,1.0,2678.206204751424,0.28648358553681874,1.3240525064178017,0.9464118696240421,0.287708,0.6651465978454738
0.0305,1.77674375,1.0,2685.025985714759,0.2904858478859797,1.3236484339130006,0.9477432109758608,0.2876762375,0.6659811582450961
0.031,1.775975,1.0,2691.279680085582,0.2944656601551267,1.3232439772696127,0.9490175706406938,0.28764395,0.6668154692567669
0.0315,1.7751937500000001,1.0,2696.9955729841795,0.29842314520221913,1.3228388595124687,0.950238152972148,0.2876111375,0.6676500981782159
0.032,1.7744,1.0,2702.201896230394,0.3023584281685131,1.3224328068937212,0.9514079399145304,0.2875778,0.6684856028017738
0.0325,1.77359375,1.0,2706.9420377450815,0.3062716455002536,1.3220254097844086,0.952529695196734,0.2875439375,0.6693228171338765
0.033,1.772775,1.0,2711.2360084114725,0.31016291747958474,1.3216164743887746,0.9536060154540665,0.28750955,0.6701621281943071
0.0335,1.7719437500000002,1.0,2715.1040022457305,0.31403236438865056,1.3212058069110628,0.9546393230928369,0.2874746375,0.6710039209394548
0.034,1.7711000000000001,1.0,2718.5663791666148,0.3178801065095952,1.320793213555517,0.955631880055396,0.2874392,0.6718485782421062
0.0345,1.7702437500000001,1.0,2721.6436485987842,0.32170626412456277,1.3203785005263808,0.9565858003428757,0.2874032375,0.6726964808688387
0.035,1.7693750000000001,1.0,2724.35645390807,0.32551095751569736,1.319961474027898,0.9575030614208033,0.28736675,0.6735480074550215
0.035500000000000004,1.76849375,1.0,2726.7255576697685,0.32929430696514306,1.319541940264312,0.9583855146189268,0.2873297375,0.6744035344774197
0.036000000000000004,1.7676,1.0,2728.7718277694576,0.333056432755044,1.3191197054398671,0.9592348946244064,0.2872922,0.6752634362244019
0.0365,1.76669375,1.0,2730.516224336968,0.3367974551675441,1.3186945757588064,0.9600528281567802,0.2872541375,0.6761280847637576
0.037,1.765775,1.0,2731.9797875120894,0.34051749448478774,1.3182663574253741,0.9608408419036424,0.28721555,0.6769978499081123
0.0375,1.76484375,1.0,2733.169617449245,0.344216662163635,1.317834983890976,0.9616003803536521,0.2871764375,0.6778728412468847
0.038,1.7639,1.0,2734.112779610331,0.3478950847086782,1.317400207721963,0.9623327869515195,0.28713679999999997,0.6787535336034907
0.0385,1.76294375,1.0,2734.8270081964306,0.3515528797689188,1.31696186671763,0.9630393316607427,0.28709663750000003,0.6796402265525363
0.039,1.761975,1.0,2735.3233463237416,0.35519016021018573,1.3165198597920975,0.9637212146685364,0.28705595,0.6805330942512466
0.0395,1.7609937500000001,1.0,2735.6128681153564,0.358807038898308,1.316074085859487,0.9643795665401812,0.2870147375,0.6814323094645716
0.04,1.76,1.0,2735.7066743781215,0.3624036286991146,1.3156244438339197,0.9650154529987168,0.286973,0.6823380435412272
0.0405,1.7589937500000001,1.0,2735.6158885068476,0.3659800424784344,1.3151708326295166,0.9656298793276464,0.2869307375,0.6832504663890855
0.041,1.757975,1.0,2735.3516526146373,0.3695363931020965,1.3147131511603989,0.9662237944300449,0.28688795,0.6841697464499105
0.0415,1.75694375,1.0,2734.9251238898787,0.37307279343592986,1.3142512983406878,0.9667980945742016,0.2868446375,0.685096050673444
0.042,1.7559,1.0,2734.34747117992,0.3765893563457634,1.3137851730845045,0.967353626853003,0.28680079999999997,0.6860295444908404
0.0425,1.75484375,1.0,2733.6298718013036,0.3800861946974261,1.3133146743059703,0.9678911923816585,0.2867564375,0.6869703917874483
0.043000000000000003,1.753775,1.0,2732.7775003137845,0.38356341457853593,1.3128397554992508,0.9684115526187161,0.28671155,0.6879186459794929
0.043500000000000004,1.75269375,1.0,2731.8034411515146,0.3870211322192316,1.312360298355045,0.9689154243983658,0.28666613750000003,0.688874502587842
0.044,1.7516,1.0,2730.7193288664803,0.390459460424453,1.311876197735215,0.9694034873724794,0.2866202,0.6898381291014832
0.0445,1.75049375,1.0,2729.5312204303455,0.39387850520733336,1.3113873991810467,0.9698763887666269,0.2865737375,0.6908095906609166
0.045,1.7493750000000001,1.0,2728.245173802559,0.39727837258100573,1.3108938482338275,0.9703347424911573,0.28652675,0.6917889513085518
0.0455,1.74824375,1.0,2726.867246819781,0.4006591685586033,1.3103954904348434,0.9707791311767765,0.2864792375,0.6927762739722994
0.046,1.7471,1.0,2725.4034961507737,0.404020999153259,1.3098922713253816,0.9712101080667233,0.2864312,0.6937716204489672
0.0465,1.7459437500000001,1.0,2723.8599763172056,0.4073639703781062,1.309384136446728,0.971628198776936,0.28638263750000004,0.6947750513874758
0.047,1.744775,1.0,2722.242738779593,0.41068818824627773,1.30887103134017,0.9720339029345874,0.28633355,0.6957866262718744
0.0475,1.74359375,1.0,2720.5578310903707,0.41399375877090694,1.3083529015469937,0.972427695704469,0.28628393750000003,0.6968064034041774
0.048,1.7424,1.0,2718.811296110784,0.4172807879651268,1.3078296926084858,0.9728100292118814,0.2862338,0.6978344398870062
0.0485,1.74119375,1.0,2717.0074567242523,0.4205493736648965,1.307301365686524,0.9731813339471266,0.2861831375,0.6988707609923381
0.049,1.739975,1.0,2715.1514789271255,0.4237996237532681,1.3067678742253066,0.9735420206409955,0.28613195,0.6999154060691533
0.0495,1.73874375,1.0,2713.2492960498926,0.42703165132592336,1.306229164624696,0.9738924808005641,0.2860802375,0.7009684270831023
0.05,1.7375,1.0,2711.3041117709786,0.4302455552766176,1.3056852081160495,0.9742330876434097,0.286028,0.7020298263362486
0.0505,1.73624375,1.0,2709.319126350724,0.4334414344991063,1.3051359759307248,0.9745641971500726,0.2859752375,0.7030996052066458
0.051000000000000004,1.734975,1.0,2707.2975363870946,0.4366193878871447,1.3045814393000792,0.9748861490108055,0.28592195,0.7041777641386868
0.051500000000000004,1.73369375,1.0,2705.2425345886886,0.4397795143344882,1.3040215694554704,0.9751992675122053,0.2858681375,0.7052643026333947
0.052000000000000005,1.7324,1.0,2703.1573095669164,0.4429219127348921,1.303456337628256,0.9755038623680458,0.2858138,0.7063592192386668
0.0525,1.73109375,1.0,2701.045045646205,0.4460466819821117,1.302885715049793,0.9758002294982773,0.28575893750000003,0.707462511539463
0.053,1.729775,1.0,2698.9089226922492,0.4491539209699025,1.3023096729514394,0.9760886517598476,0.28570355000000003,0.7085741761479393
0.0535,1.72844375,1.0,2696.7521159591456,0.4522437285920197,1.3017281825645526,0.9763693996327151,0.2856476375,0.7096942086935333
0.054,1.7271,1.0,2694.577795954869,0.4553162037422187,1.30114121512049,0.9766427318641565,0.2855912,0.7108226038129937
0.0545,1.7257437500000001,1.0,2692.3891283242897,0.4583714453142549,1.3005487418506092,0.9769088960742431,0.2855342375,0.7119593551403567
0.055,1.724375,1.0,2690.188961370299,0.4614095501200996,1.2999507368463663,0.9771681292957364,0.28547675,0.7131044498256438
0.0555,1.72299375,1.0,2687.978620983401,0.46443061264740515,1.2993471881023682,0.9774206591488555,0.2854187375,0.7142578474974662
0.056,1.7216,1.0,2685.760128865911,0.4674347339352616,1.2987380772181918,0.977666703957649,0.2853602,0.7154195191963575
0.0565,1.72019375,1.0,2683.534731872814,0.47042200675302664,1.2981233928666314,0.977906472618309,0.28530113749999997,0.7165894216380363
0.057,1.718775,1.0,2681.303674848325,0.47339252387005804,1.297503123720481,0.9781401654290113,0.28524155,0.7177675107670796
0.0575,1.71734375,1.0,2679.0682006090483,0.47634637805571356,1.2968772584525345,0.9783679745112243,0.2851814375,0.7189537417528923
0.058,1.7159,1.0,2676.8295499304004,0.47928366207935097,1.2962457857355865,0.9785900842070895,0.2851208,0.7201480689856665
0.0585,1.71444375,1.0,2674.58896153588,0.4822044687103279,1.2956086942424305,0.9788066714544179,0.2850596375,0.7213504460723381
0.059000000000000004,1.7129750000000001,1.0,2672.3476720887265,0.4851088907180022,1.2949659726458609,0.9790179061407267,0.28499795,0.7225608258325296
0.059500000000000004,1.71149375,1.0,2670.10691618691,0.4879970208717315,1.2943176096186715,0.9792239514376435,0.2849357375,0.7237791602944876
0.06,1.71,1.0,2667.868296799509,0.4908689518613045,1.293663590427836,0.9794249639256034,0.284873,0.725005407069618
0.0605,1.7084937500000001,1.0,2665.636282945473,0.49372477440078055,1.293003873954063,0.9796210925127588,0.2848097375,0.7262395722191057
0.061,1.7069750000000001,1.0,2663.408759226509,0.49656457833014284,1.2923384795971489,0.9798124835111933,0.28474595,0.7274815476620771
0.0615,1.7054437500000001,1.0,2661.1858370394375,0.4993884530237486,1.2916674062905644,0.9799992765182188,0.2846816375,0.7287312630986442
0.062,1.7039,1.0,2658.9676275952925,0.5021964878559553,1.2909906529677813,0.9801816058289372,0.2846168,0.7299886475937
0.0625,1.70234375,1.0,2656.7496908186076,0.5049887717702397,1.2903082604926066,0.9803596028220207,0.2845514375,0.7312535519443778
0.063,1.7007765926584597,1.0,2654.6246892243516,0.5077653935637594,1.2896200940672455,0.9805333849080148,0.2844856168916553,0.7325261515066321
0.0635,1.6992079026871036,1.0,2653.0132941038196,0.5105264406051043,1.2889265077893237,0.9807030899900254,0.28441973191285835,0.7338057177827355
0.064,1.6976392127157478,1.0,2651.947602840124,0.5132720001477435,1.2882278935175315,0.9808688528856597,0.2843538469340614,0.7350914585409647
0.0645,1.6960705227443917,1.0,2651.3857880804385,0.5160021591677567,1.2875246339743498,0.9810308031091112,0.28428796195526446,0.7363826047765185
0.065,1.694501832773036,1.0,2651.283910985947,0.5187170045074679,1.2868171329175264,0.9811890666258233,0.2842220769764675,0.7376783554367665
0.0655,1.6929331428016798,1.0,2651.6060189566324,0.5214166217247717,1.286105721662286,0.9813437613086851,0.28415619199767056,0.7389780485717556
0.066,1.691364452830324,1.0,2652.318565567627,0.5241010960025785,1.2853907102491682,0.9814949998550031,0.2840903070188736,0.7402810666564903
0.0665,1.6897957628589682,1.0,2653.3931092820226,0.5267705110352403,1.2846723623322402,0.9816428887067342,0.28402442204007666,0.7415868817735387
0.067,1.688227072887612,1.0,2654.7960733717723,0.5294249522813164,1.2839509894009784,0.981787533093668,0.2839585370612797,0.7428948839866245
0.0675,1.6866583829162562,1.0,2656.4897462440777,0.5320645070393853,1.2832269413142947,0.9819290366505834,0.28389265208248277,0.7442043995974141
0.068,1.6850896929449002,1.0,2658.4552268114116,0.534689257143476,1.2825003947139484,0.9820674909129681,0.2838267671036858,0.7455150732986715
0.0685,1.6835210029735443,1.0,2660.673629170604,0.5372992844276173,1.281771526241698,0.9822029843464607,0.28376088212488887,0.7468265529318371
0.069,1.6819523130021885,1.0,2663.1260731632055,0.5398946707258382,1.2810405125393025,0.982335602475596,0.2836949971460919,0.7481384895141778
0.0695,1.6803836230308324,1.0,2665.793675628269,0.5424754978721674,1.2803075302485205,0.9824654280063474,0.28362911216729497,0.7494505372639502
0.07,1.6788149330594766,1.0,2668.657542346379,0.5450418477006339,1.279572756011111,0.9825925409428033,0.283563227188498,0.7507623536235708
0.07050000000000001,1.6772462430881205,1.0,2671.6987606760063,0.5475938020452665,1.2788363664688327,0.9827170186982926,0.2834973422097011,0.7520735992807999
0.07100000000000001,1.6756775531167647,1.0,2674.9011406395684,0.5501314411513133,1.27809851303374,0.9828389349467845,0.2834314572309041,0.7533839829350217
0.07150000000000001,1.6741088631454089,1.0,2678.2514318708786,0.5526548450419503,1.2773593199213509,0.9829583597590053,0.2833655722521072,0.7546932641988704
0.07200000000000001,1.6725401731740528,1.0,2681.7299911354175,0.5551640981578737,1.2766189697770585,0.9830753638921959,0.28329968727331023,0.7560011019116033
0.0725,1.670971483202697,1.0,2685.3282677039565,0.5576592780557571,1.2758775432107863,0.9831900108910198,0.2832338022945133,0.7573073378570815
0.073,1.6694027932313409,1.0,2689.0376953718787,0.5601404622922742,1.275135120832458,0.9833023623056233,0.28316791731571633,0.7586118153204999
0.0735,1.667834103259985,1.0,2692.849690607351,0.5626077284240989,1.2743917832519966,0.9834124777692826,0.2831020323369194,0.7599143790937158
0.074,1.6662654132886292,1.0,2696.7556508434395,0.5650611540079045,1.2736476110793264,0.9835204150725658,0.28303614735812244,0.7612148754801584
