Time [s],Phi [rad],STIM [ ],Fsee [N],Gamma [ ],Lcerel [ ],q [ ],Lmtc [m],fisomrel [ ]
0.0,1.8,1.0,17.96776072023414,3.291746207815183e-05,1.3793396787142387,0.005000286085257823,0.288653,0.5411396943653641
0.0005,1.79999375,1.0,18.284779275124404,0.0056419421299502715,1.3793014953411489,0.013004260498176382,0.2886527375,0.5412320651529605
0.001,1.799975,1.0,21.64346631101023,0.011219504604244134,1.3789357408181544,0.035728098544609836,0.28865195,0.5421164041154226
0.0015,1.79994375,1.0,31.130530992415128,0.016765781363873324,1.3780409841795416,0.07076525562918583,0.2886506375,0.5442761934966952
0.002,1.7999,1.0,53.71588330277281,0.02228094789606029,1.3763594765767055,0.11491149865782124,0.2886488,0.5483212512465185
0.0025,1.79984375,1.0,97.34430895145678,0.027765178704065422,1.3739243134473784,0.16478534463373068,0.28864643749999996,0.554147346342177
0.003,1.7997750000000001,1.0,161.25213247295045,0.03321864731468727,1.3712033453615786,0.21749755884357558,0.28864354999999997,0.5606124884960861
0.0035,1.79969375,1.0,238.01587206504985,0.0386415262780242,1.3685744946856648,0.2708288200002089,0.2886401375,0.5668139090153279
0.004,1.7996,1.0,321.8208133805079,0.04403398717821206,1.3661467177551991,0.32312488068033346,0.2886362,0.5725018529244086
0.0045000000000000005,1.7994937500000001,1.0,409.6345573148158,0.04939620063862137,1.3639142057476765,0.3732329776541399,0.2886317375,0.5776991417571358
0.005,1.799375,1.0,499.7879004049942,0.05472833631301761,1.361850387948379,0.4204331442524515,0.28862675,0.5824754360382897
0.0055,1.79924375,1.0,591.1682782799292,0.06003056293199747,1.3599314537276725,0.4643456119868076,0.2886212375,0.5868920555404475
0.006,1.7991000000000001,1.0,682.8965572789471,0.06530304824872525,1.3581395365061517,0.5048379491634145,0.2886152,0.5909951287983382
0.006500000000000001,1.79894375,1.0,774.252589366312,0.0705459590043304,1.3564609155050584,0.5419452674144576,0.2886086375,0.5948202031801517
0.007,1.798775,1.0,864.6672253975601,0.0757594614263427,1.3548842346145429,0.575808327209456,0.28860155,0.598396619968272
0.0075,1.79859375,1.0,953.614611505628,0.08094372001157907,1.3534010672916887,0.6066295922098031,0.2885939375,0.60174644654686
0.008,1.7984,1.0,1040.71958581615,0.08609889899470868,1.3520033298762226,0.6346408218902773,0.2885858,0.6048904839159797
0.0085,1.79819375,1.0,1125.6710926421244,0.09122516161335688,1.3506841900008133,0.6600832052656107,0.2885771375,0.6078462974600558
0.009000000000000001,1.797975,1.0,1208.2205793810695,0.09632266976037636,1.349437657472116,0.6831941558147451,0.28856795,0.6106292204732146
0.0095,1.79774375,1.0,1288.202709620365,0.10139158504040233,1.3482580152540917,0.704199299777173,0.2885582375,0.6132536824339312
0.01,1.7975,1.0,1365.4876568058426,0.10643206799192141,1.3471402648475985,0.7233085935839111,0.288548,0.6157322593161325
0.0105,1.79724375,1.0,1439.9719545186686,0.11144427750662128,1.3460800359814138,0.7407144443805275,0.2885372375,0.6180759205838755
0.011,1.796975,1.0,1511.609421925952,0.11642837216071587,1.3450730454429676,0.75659110277435,0.28852595000000003,0.6202952592752413
0.0115,1.79669375,1.0,1580.399520271956,0.12138451039849243,1.3441151560001214,0.7710952789389985,0.2885141375,0.622400380774911
0.012,1.7964,1.0,1646.3439878716238,0.12631284902405532,1.343202806087102,0.7843674085874476,0.28850180000000003,0.6243999805291425
0.0125,1.79609375,1.0,1709.448207545608,0.13121354318336942,1.3423328848969966,0.7965328891247961,0.2884889375,0.6263016451470014
0.013000000000000001,1.7957750000000001,1.0,1769.7538030379412,0.13608674802239962,1.3415022816228939,0.8077032906548023,0.28847555,0.6281128560151712
0.0135,1.79544375,1.0,1827.3136037054649,0.1409326177302319,1.34070812793514,0.8179778647378458,0.2884616375,0.6298404705323095
0.014,1.7951000000000001,1.0,1882.216469228194,0.14575130693263105,1.3399474756619105,0.827444754807057,0.2884472,0.6314914342828277
0.0145,1.79474375,1.0,1934.5138027066469,0.15054296709843276,1.339218067737126,0.8361825183858708,0.2884322375,0.6330711177317941
0.015,1.794375,1.0,1984.2696643145555,0.1553077493161769,1.3385177340335475,0.84426101075844,0.28841675,0.6345846420433432
0.0155,1.79399375,1.0,2031.5667502107476,0.16004580467440346,1.337844304423936,0.8517423738124347,0.2884007375,0.6360370726030191
0.016,1.7936,1.0,2076.489160696719,0.16475728296995482,1.337195771494239,0.8586819968972546,0.2883842,0.6374330729796075
0.0165,1.7931937500000001,1.0,2119.1384637604156,0.16944233473346462,1.3365701009848276,0.8651292589610574,0.2883671375,0.638777318632216
0.017,1.792775,1.0,2159.5823130615477,0.1741011069919767,1.335965744683026,0.8711283866344522,0.28834955,0.6400734005088642
0.0175,1.7923437500000001,1.0,2197.897681687733,0.17873374666085212,1.3353811686260737,0.8767189251911673,0.2883314375,0.641324846081024
0.018000000000000002,1.7919,1.0,2234.1713238546154,0.183340400655452,1.3348148388512096,0.8819362850966301,0.2883128,0.6425351520568833
0.0185,1.79144375,1.0,2268.481758742048,0.18792121416944693,1.3342653926649564,0.8868122681168258,0.2882936375,0.6437074211305566
0.019,1.790975,1.0,2300.9330288573183,0.19247633466121103,1.3337312905877017,0.8913753985538313,0.28827395,0.6448451074064637
0.0195,1.79049375,1.0,2331.5922350842575,0.19700590487370387,1.3332114300178086,0.8956514452321238,0.2882537375,0.6459507107955582
0.02,1.79,1.0,2360.5287377478535,0.20151006718684725,1.3327047418716325,0.8996636374579724,0.288233,0.647026641377967
0.0205,1.78949375,1.0,2387.8170340833235,0.20598896398056293,1.3322101570655274,0.9034329424644849,0.2882117375,0.6480752919084747
0.021,1.788975,1.0,2413.5363248695007,0.21044273763477273,1.3317266065158486,0.906978316487967,0.28818995000000003,0.6490990386781867
0.021500000000000002,1.78844375,1.0,2437.7530815030686,0.21487152805490597,1.3312531848870734,0.9103169584961726,0.2881676375,0.6500998963717166
0.022,1.7879,1.0,2460.5552903415737,0.21927547870746306,1.3307888152863303,0.9134644337212405,0.2881448,0.6510802285761035
0.0225,1.78734375,1.0,2481.9986318724636,0.22365472720147792,1.330332763068887,0.9164349466045235,0.28812143749999997,0.6520416634032989
0.023,1.786775,1.0,2502.140554092115,0.22800941099859293,1.3298843022339046,0.9192414203378888,0.28809755,0.6529858008279652
0.0235,1.78619375,1.0,2521.040947830057,0.23233966756045038,1.3294427067805448,0.921895628692363,0.28807313749999996,0.6539142313428189
0.024,1.7856,1.0,2538.761939529479,0.2366456343486926,1.3290072507079689,0.9244083141321685,0.2880482,0.6548285362933155
0.0245,1.78499375,1.0,2555.3594575887055,0.24092744687356807,1.3285772854061533,0.926789305087967,0.2880227375,0.6557301260048575
0.025,1.784375,1.0,2570.896723125261,0.24518524316583448,1.3281521104107246,0.9290475869169931,0.28799675,0.6566205115847821
0.025500000000000002,1.78374375,1.0,2585.4277736495055,0.24941915858874414,1.327731126560314,0.9311914084571311,0.2879702375,0.657500984322409
0.026000000000000002,1.7831000000000001,1.0,2598.995620772615,0.25362932531065924,1.3273138503724715,0.93322835531803,0.2879432,0.6583725872268729
0.0265,1.78244375,1.0,2611.6444211379494,0.257815875499942,1.3268997983647477,0.9351653960667062,0.2879156375,0.6592363578733651
0.027,1.781775,1.0,2623.4193787546405,0.2619789413249546,1.326488487054693,0.9370089406970329,0.28788755,0.6600933285100052
0.0275,1.7810937500000001,1.0,2634.36665251373,0.2661186549540593,1.3260794329598575,0.9387648928469197,0.2878589375,0.6609445261498016
0.028,1.7804,1.0,2644.530345460192,0.2702351475133918,1.3256721795941495,0.9404387000551668,0.2878298,0.6617909165765179
0.0285,1.77969375,1.0,2653.9490140529524,0.27432854853283495,1.3252663286488493,0.9420353994480261,0.2878001375,0.6626333400742945
0.029,1.778975,1.0,2662.674562592612,0.27839899258382383,1.3248613649583816,0.9435596323290442,0.28776995,0.6634728748640855
0.029500000000000002,1.7782437500000001,1.0,2670.737105990943,0.2824466060794873,1.32445697970582,0.9450157190484513,0.2877392375,0.6643101668372993
0.03,1.7775,1.0,2678.1672285874306,0.2864715154329543,1.324052864074239,0.9464076617575032,0.287708,0.665145858690315
0.0305,1.77674375,1.0,2684.995942594033,0.29047384705735385,1.323648709246712,0.9477391718826305,0.2876762375,0.6659805899328358
0.031,1.775975,1.0,2691.2546486543283,0.2944537273658149,1.3232442064063126,0.9490136949029566,0.28764395,0.6668149968901569
0.0315,1.7751937500000001,1.0,2696.975098516724,0.2984112827714664,1.3228390467361153,0.950234432725097,0.2876111375,0.6676497126993507
0.032,1.7744,1.0,2702.1893598227284,0.3023466396874373,1.3224329214191934,0.9514043639142178,0.2875778,0.6684853672993758
0.0325,1.77359375,1.0,2706.9239759553734,0.3062599200805595,1.322025574642173,0.9525262670361925,0.2875439375,0.6693224785598798
0.033,1.772775,1.0,2711.2120500869237,0.31015125348511335,1.321616692893644,0.9536027272731772,0.28750955,0.670161680013251
0.0335,1.7719437500000002,1.0,2715.0753854633585,0.3140207615706778,1.321206067716168,0.9546361662661003,0.2874746375,0.671003386678305
0.034,1.7711000000000001,1.0,2718.5346566689664,0.31786856497510657,1.3207935024811333,0.9556288462904977,0.2874392,0.6718479871361198
0.0345,1.7702437500000001,1.0,2721.61068787399,0.32169478433625315,1.3203788005599275,0.9565828816517947,0.2874032375,0.672695867830938
0.035,1.7693750000000001,1.0,2724.324437110275,0.3254995402919712,1.3199617653239388,0.957500250093719,0.28736675,0.6735474130446069
0.035500000000000004,1.76849375,1.0,2726.696981404857,0.3292829534801143,1.3195422001445556,0.9583828032006066,0.2873297375,0.6744030048685484
0.036000000000000004,1.7676,1.0,2728.7495027699333,0.3330451445385362,1.3191199083931655,0.9592322758928035,0.2872922,0.6752630231732706
0.0365,1.76669375,1.0,2730.49980828468,0.33678623340945957,1.318694724946973,0.9600502981462167,0.2872541375,0.6761277815400935
0.037,1.765775,1.0,2731.9682999550887,0.3405063384371323,1.318266461795636,0.9608383970338777,0.28721555,0.6769976380615021
0.0375,1.76484375,1.0,2733.1716850415646,0.34420557672571295,1.3178349651099672,0.9615980099346582,0.2871764375,0.6778728793161541
0.038,1.7639,1.0,2734.122826310536,0.34788406487480095,1.3174001164784053,0.9623304912018253,0.28713679999999997,0.6787537183019604
0.0385,1.7629437898568623,1.0,2734.836629316713,0.3515419194797838,1.316961797350445,0.9630371147496077,0.2870966391739882,0.6796403667741563
0.039,1.761982288066038,1.0,2735.6758935790103,0.3551792563177296,1.3165199501715075,0.9637190852130072,0.2870562560987736,0.6805329118093956
0.0395,1.7610207862752139,1.0,2736.8751740989314,0.35879619116943995,1.3160748360543297,0.9643775663192433,0.28701587302355897,0.6814307972360606
0.04,1.7600592844843894,1.0,2738.4057606118104,0.3623928376995403,1.315626717685937,0.9650136544338141,0.2869754899483443,0.6823334664630158
0.0405,1.7590977826935652,1.0,2740.2389741754837,0.36596930957265583,1.3151758577533537,0.9656283834329326,0.28693510687312973,0.6832403657188705
0.041,1.758136280902741,1.0,2742.347214244201,0.36952572008815193,1.314722509296677,0.9662227280284896,0.28689472379791514,0.6841509634630201
0.0415,1.7571747791119166,1.0,2744.704138797343,0.3730621824368773,1.3142669139592136,0.9667976076362255,0.2868543407227005,0.6850647537964039
0.042,1.7562132773210923,1.0,2747.288188497017,0.37657880817994416,1.3138092699647632,0.9673538871076273,0.28681395764748585,0.6859813204215
0.0425,1.755251775530268,1.0,2750.079802237461,0.38007570812088126,1.3133497573391375,0.9678923825901076,0.28677357457227126,0.6869002856361723
0.043000000000000003,1.7542902737394437,1.0,2753.0594033306593,0.38355299306321733,1.3128885561081474,0.9684138663047761,0.2867331914970566,0.6878212737772919
0.043500000000000004,1.7533287719486195,1.0,2756.217765223664,0.38701076708558324,1.3124257524706318,0.9689190608007952,0.286692808421842,0.6887440981924731
0.044,1.752367270157795,1.0,2759.5213068031208,0.39044915125164376,1.3119616527538087,0.9694086706038554,0.2866524253466274,0.6896681352395155
0.0445,1.7514057683669708,1.0,2762.9590444885853,0.39386825218771204,1.3114963585144637,0.9698833453353589,0.2866120422714128,0.6905931716588927
0.045,1.7504442665761466,1.0,2766.52096790999,0.39726817587011704,1.3110299623607693,0.9703437004052671,0.28657165919619815,0.691519013118171
0.0455,1.7494827647853222,1.0,2770.197048824403,0.4006490282751876,1.3105625569008985,0.9707903198883961,0.2865312761209835,0.6924454663621689
0.046,1.748521262994498,1.0,2773.9772389480536,0.4040109153792526,1.3100942347430242,0.9712237584253705,0.2864908930457689,0.6933723392191907
0.0465,1.7475597612036735,1.0,2777.8514679792697,0.4073539431586409,1.309625088495319,0.971644542990737,0.28645050997055427,0.6942994406067154
0.047,1.7465982594128493,1.0,2781.809641811362,0.41067821758968137,1.3091552107659559,0.9720531745386987,0.2864101268953397,0.6952265805365351
0.0475,1.745636757622025,1.0,2785.841640935391,0.4139838446487029,1.3086846941631074,0.9724501295360207,0.28636974382012503,0.6961535701193522
0.048,1.7446752558312006,1.0,2789.937319033752,0.4172709303120344,1.3082136312949466,0.9728358613908246,0.28632936074491044,0.6970802215688224
0.0485,1.7437137540403764,1.0,2794.0914870186675,0.4205395743620989,1.3077420699823643,0.9732107979051529,0.2862889776696958,0.6980064361064082
0.049,1.7427522522495522,1.0,2798.293477138501,0.423789887535203,1.3072701071029604,0.9735753513162574,0.2862485945944812,0.6989320193907373
0.0495,1.7417907504587278,1.0,2802.53740030489,0.4270219726994123,1.3067977963883257,0.973929910612634,0.28620821151926656,0.6998568626634804
0.05,1.7408292486679036,1.0,2806.819232836655,0.43023592992182186,1.3063251746947182,0.9742748452497277,0.286167828444052,0.7007808907788596
0.0505,1.7398677468770791,1.0,2811.134939199583,0.433431859269527,1.3058522788783955,0.9746105076908452,0.28612744536883733,0.7017040290334573
0.051000000000000004,1.738906245086255,1.0,2815.4804717678007,0.436609860809623,1.3053791457956152,0.9749372343413776,0.2860870622936227,0.7026262031669018
0.051500000000000004,1.7379447432954307,1.0,2819.851770614429,0.43977003460920505,1.304905812302635,0.9752553464236751,0.2860466792184081,0.7035473393624694
0.052000000000000005,1.7369832415046063,1.0,2824.2447633327597,0.4429124807353685,1.3044323152557127,0.9755651507968408,0.28600629614319345,0.7044673642475969
0.0525,1.736021739713782,1.0,2828.6553648879135,0.44603729925520846,1.303958691511106,0.9758669407253621,0.28596591306797886,0.705386204894312
0.053,1.7350602379229578,1.0,2833.0794774977467,0.4491445902358204,1.303484977925073,0.9761609966001863,0.2859255299927642,0.7063037888195726
0.0535,1.7340987361321334,1.0,2837.5166416320653,0.45223443970865856,1.3030111788046572,0.9764475831905403,0.2858851469175496,0.7072201068858803
0.054,1.7331372343413092,1.0,2841.9614605673924,0.45530695757594214,1.3025373424241873,0.9767269589481469,0.285844763842335,0.7081350651750958
0.0545,1.7321757325504847,1.0,2846.4090079246985,0.45836225217005994,1.3020635127207147,0.9769993708373281,0.28580438076712034,0.7090485787079803
0.055,1.7312142307596605,1.0,2850.858143137977,0.46140041645564445,1.3015896998228471,0.97726505185488,0.28576399769190575,0.7099606280636639
0.0555,1.7302527289688363,1.0,2855.307722086537,0.4644215433973283,1.3011159138591917,0.9775242252409871,0.2857236146166911,0.7108711939436986
0.056,1.7292912271780119,1.0,2859.7565971002496,0.46742572595974397,1.3006421649583557,0.9777771049688359,0.2856832315414765,0.7117802571720435
0.0565,1.7283297253871877,1.0,2864.203616966366,0.47041305710752396,1.3001684632489465,0.9780238962057732,0.28564284846626187,0.7126877986950442
0.057,1.7273682235963634,1.0,2868.647626939245,0.47338362980530097,1.2996948188595714,0.9782647957478864,0.2856024653910473,0.7135937995814053
0.0575,1.726406721805539,1.0,2873.0874687519863,0.4763375370177074,1.2992212419188374,0.9784999924297387,0.28556208231583263,0.7144982410221576
0.058,1.7254452200147148,1.0,2877.521980630309,0.4792748717093759,1.2987477425553522,0.9787296675108683,0.285521699240618,0.7154011043306154
0.0585,1.7244837182238903,1.0,2881.9499973092356,0.4821957268449389,1.298274330897723,0.9789539950405474,0.2854813161654034,0.7163023709423333
0.059000000000000004,1.7235222164330661,1.0,2886.3703500511137,0.48510019538902904,1.2978010170745569,0.9791731422021843,0.2854409330901888,0.7172020224150495
0.059500000000000004,1.722560714642242,1.0,2890.7818666667854,0.4879883703062789,1.297327811214461,0.9793872696386583,0.28540055001497416,0.7181000404286282
0.06,1.7215992128514175,1.0,2895.183371538696,0.4908603445613209,1.2968547234460432,0.9795965317597849,0.2853601669397595,0.718996406784991
0.0605,1.7206377110605933,1.0,2899.5736856463072,0.4937162111187877,1.2963817638979105,0.9798010770330197,0.28531978386454493,0.7198911034080461
0.061,1.719676209269769,1.0,2903.9530274472613,0.49655604117508517,1.2959089303538294,0.9800010458964962,0.2852794007893303,0.7207841356404738
0.0615,1.7187147074789446,1.0,2908.3206292820732,0.49937993632711636,1.29543622928869,0.9801965763167989,0.28523901771411564,0.7216754924224507
0.062,1.7177532056881204,1.0,2912.6748877168607,0.5021880082376813,1.2949636745130506,0.9803878022088116,0.28519863463890105,0.7225651489724463
0.0625,1.716791703897296,1.0,2917.01570816047,0.5049803414070272,1.2944912665306962,0.9805748497422488,0.28515825156368646,0.7234531056669211
0.063,1.7158302021064717,1.0,2921.342995994091,0.5077570203354014,1.294019005845412,0.9807578404358337,0.2851178684884718,0.7243393628879962
0.0635,1.7148687003156475,1.0,2925.6566565730345,0.5105181295230512,1.2935468929609832,0.9809368913634928,0.28507748541325717,0.7252239210234472
0.064,1.713907198524823,1.0,2929.956595228448,0.5132637534702239,1.2930749283811949,0.9811121153499445,0.2850371023380426,0.7261067804667012
0.0645,1.7129456967339989,1.0,2934.242717268562,0.5159939766771668,1.2926031126098323,0.9812836211562933,0.28499671926282794,0.7269879416168297
0.065,1.7119841949431747,1.0,2938.514927980825,0.5187088836441273,1.2921314461506805,0.9814515136562154,0.28495633618761335,0.7278674048785461
0.0655,1.7110226931523502,1.0,2942.7731326332287,0.5214085588713524,1.291659929507525,0.9816158940032719,0.2849159531123987,0.7287451706621988
0.066,1.710061191361526,1.0,2947.0172364763857,0.5240930868590897,1.2911885631841504,0.9817768597898644,0.2848755700371841,0.7296212393837693
0.0665,1.7090996895707016,1.0,2951.247144744458,0.5267625521075865,1.2907173476843423,0.9819345051982982,0.28483518696196947,0.7304956114648636
0.067,1.7081381877798774,1.0,2955.462762657726,0.5294170391170899,1.2902462835118855,0.9820889211444068,0.2847948038867548,0.731368287332711
0.0675,1.7071766859890531,1.0,2959.663995423828,0.5320566323878474,1.2897753711705655,0.9822401954141489,0.28475442081154023,0.7322392674201562
0.068,1.7062151841982287,1.0,2963.8507482392206,0.5346814164201061,1.2893046111641673,0.9823884127935681,0.2847140377363256,0.7331085521656568
0.0685,1.7052536824074045,1.0,2968.0229262914177,0.5372914757141135,1.288834003996476,0.9825336551924878,0.284673654661111,0.7339761420132769
0.069,1.70429218061658,1.0,2972.1804347602547,0.5398868947701169,1.2883635501712771,0.9826760017622755,0.28463327158589635,0.734842037412683
0.0695,1.7033306788257558,1.0,2976.323178819941,0.5424677580883633,1.2878932501923552,0.9828155290080091,0.28459288851068176,0.7357062388191389
0.07,1.7023691770349316,1.0,2980.45114868758,0.5450341318971287,1.2874231038237098,0.9829523097428117,0.2845525054354671,0.7365687480495693
0.07050000000000001,1.7014076752441072,1.0,2984.5646779063513,0.5475860629690354,1.2869531078469825,0.9830864130876332,0.2845121223602525,0.737429572375504
0.07100000000000001,1.700446173453283,1.0,2988.663619022456,0.5501237076570548,1.2864832632322292,0.9832179126714289,0.2844717392850379,0.7382887113769556
0.07150000000000001,1.6994846716624588,1.0,2992.748079674801,0.5526471408944885,1.2860135687337908,0.9833468747573835,0.2844313562098233,0.7391461686867382
