Time [s],Phi [rad],STIM [ ],Fsee [N],Gamma [ ],Lcerel [ ],q [ ],Lmtc [m],fisomrel [ ]
0.0,1.8,1.0,17.968112930517048,4.214245158471449e-05,1.379339639255763,0.005000467988936056,0.288653,0.5411397898255981
0.0005,1.79999375,1.0,18.28822895460517,0.005651115374563951,1.3793011122511802,0.01302998983904955,0.2886527375,0.5412329918527347
0.001,1.799975,1.0,21.65379334653251,0.011228626394208548,1.378934686800598,0.03577626721093381,0.28865195,0.5421189513371578
0.0015,1.79994375,1.0,31.15550351236593,0.016774851987812246,1.3780388591282724,0.0708311311939598,0.2886506375,0.5442813169291908
0.002,1.7999,1.0,53.77007181362916,0.022289967640963103,1.3763559663614757,0.11498947855299688,0.2886488,0.5483296766075247
0.0025,1.79984375,1.0,97.43562403834405,0.027774147855336866,1.3739199193182168,0.16487015754737416,0.28864643749999996,0.554157825054395
0.003,1.7997750000000001,1.0,161.37106570376812,0.03322756615611054,1.3711988984570678,0.21758504287601077,0.28864354999999997,0.5606230158936847
0.0035,1.79969375,1.0,238.15031778239262,0.03865039509179332,1.368570356880138,0.27091582412809,0.2886401375,0.5668236352973461
0.004,1.7996,1.0,321.9638898419039,0.044042806244945144,1.366142930712146,0.3232091186693073,0.2886362,0.5725106960762776
0.0045000000000000005,1.7994937500000001,1.0,409.78274198512594,0.04940497023737944,1.363910729160758,0.37331293763465856,0.2886317375,0.5777072104645582
0.005,1.799375,1.0,499.93913103148145,0.05473705672139496,1.3618471757570099,0.42050794992973606,0.28862675,0.5824828488414402
0.0055,1.79924375,1.0,591.3208440493396,0.06003923442557313,1.3599284741075182,0.4644148688529769,0.2886212375,0.5868988951742145
0.006,1.7991000000000001,1.0,683.0493327593573,0.06531167110202259,1.358136760379428,0.5049015942647517,0.2886152,0.5910014695947963
0.006500000000000001,1.79894375,1.0,774.4104351698859,0.07055453356299948,1.3564582217571384,0.5420033951242176,0.2886086375,0.5948263269825854
0.007,1.798775,1.0,864.8131223940919,0.07576798776750533,1.3548818785297725,0.5758613999941988,0.28860155,0.5984019524591193
0.0075,1.79859375,1.0,953.7553914045995,0.08095219847712024,1.3533989024529478,0.6066778870481405,0.2885939375,0.6017513257176399
0.008,1.7984,1.0,1040.8644149684728,0.08610733004998139,1.3520011980029034,0.6346846427219686,0.2885858,0.604895269784824
0.0085,1.79819375,1.0,1125.8157127682005,0.09123354533658168,1.3506821431018368,0.6601229858765733,0.2885771375,0.6078508753491801
0.009000000000000001,1.797975,1.0,1208.3619367647145,0.0963310064155936,1.3494357263041008,0.683230301504876,0.28856795,0.610633524178334
0.0095,1.79774375,1.0,1288.341220165992,0.10139987509359857,1.348256182659332,0.7042321647182813,0.2885582375,0.6132577526771366
0.01,1.7975,1.0,1365.6141518510717,0.10644031138064663,1.3471386392728448,0.723338567201927,0.288548,0.6157358581753754
0.0105,1.79724375,1.0,1440.0894953201744,0.11145247459991812,1.3460785650577096,0.7407418006904916,0.2885372375,0.6180791671160608
0.011,1.796975,1.0,1511.726487762089,0.11643652341948611,1.3450716155966995,0.7566160600186358,0.28852595000000003,0.6202984059613637
0.0115,1.79669375,1.0,1580.518637598864,0.1213926162241942,1.3441137331122115,0.7711180698042397,0.2885141375,0.622403503455286
0.012,1.7964,1.0,1646.4495215304619,0.12632090902097393,1.3432015709615033,0.7843883335765871,0.28850180000000003,0.6244026839590442
0.0125,1.79609375,1.0,1709.54244485551,0.13122155773919666,1.3423318025256183,0.7965521259052785,0.2884889375,0.6263040082256411
0.013000000000000001,1.7957750000000001,1.0,1769.8375802631297,0.1360947173147285,1.3415013359263905,0.807721004311121,0.28847555,0.6281149156903398
0.0135,1.79544375,1.0,1827.4155376677277,0.14094054335972597,1.3407069955512456,0.8179940856011685,0.2884616375,0.6298429310664653
0.014,1.7951000000000001,1.0,1882.316632250709,0.1457591880958183,1.3399463792992472,0.8274597093933536,0.2884472,0.6314938112287384
0.0145,1.79474375,1.0,1934.5998833940519,0.15055080350502997,1.3392171383377918,0.8361963758687585,0.2884322375,0.6330731283734676
0.015,1.794375,1.0,1984.3456635065734,0.15531554156938543,1.338516923834276,0.8442738614342365,0.28841675,0.6345863911918973
0.0155,1.79399375,1.0,2031.6365811073874,0.16005355287979348,1.3378435686985926,0.8517542982214286,0.2884007375,0.6360386578093092
0.016,1.7936,1.0,2076.572541002654,0.1647649888796644,1.3371949025704875,0.8586930175880131,0.2883842,0.6374349415831616
0.0165,1.7931937500000001,1.0,2119.2187239617906,0.16944999736342886,1.336569273035336,0.8651395090383796,0.2883671375,0.6387790958178108
0.017,1.792775,1.0,2159.651865828461,0.17410872607659886,1.3359650339386828,0.8711379571312684,0.28834955,0.640074923375573
0.0175,1.7923437500000001,1.0,2197.9598279713855,0.17874132276468652,1.335380539126072,0.8767278667490755,0.2883314375,0.6413261925239326
0.018000000000000002,1.7919,1.0,2234.2225799368566,0.1833479334708936,1.3348143238929144,0.8819446609729684,0.2883128,0.6425362516458246
0.0185,1.79144375,1.0,2268.5456713698636,0.18792870643476703,1.3342647554244886,0.8868200672758177,0.2882936375,0.6437087795950471
0.019,1.790975,1.0,2300.997498015269,0.19248378524840587,1.333730652347223,0.8913826981055636,0.28827395,0.6448464658287532
0.0195,1.79049375,1.0,2331.6487924975904,0.19701331308527917,1.3332108737960384,0.8956583056950035,0.2882537375,0.6459518928063793
0.02,1.79,1.0,2360.576103924984,0.20151743311885592,1.3327042789058559,0.8996700971327279,0.288233,0.6470276237172656
0.0205,1.78949375,1.0,2387.861307190703,0.2059962885226052,1.3322097268115964,0.9034390201702293,0.2882117375,0.6480762034813918
0.021,1.788975,1.0,2413.5733043967093,0.2104500200761907,1.3317262490618584,0.9069840502407908,0.28818995000000003,0.6490997949086412
0.021500000000000002,1.78844375,1.0,2437.8020972305567,0.21487877188411958,1.3312527134477654,0.9103223373185834,0.2881676375,0.6501008923261882
0.022,1.7879,1.0,2460.6054618242174,0.21928268237962834,1.33078833497201,0.9134695045582558,0.2881448,0.6510812418572873
0.0225,1.78734375,1.0,2482.043154133101,0.22366188983406768,1.330332338682085,0.9164397445483011,0.28812143749999997,0.6520425574643635
0.023,1.786775,1.0,2502.1776958764917,0.22801653251878823,1.3298839496254837,0.9192459683441846,0.28809755,0.6529865426641943
0.0235,1.78619375,1.0,2521.074140179267,0.23234674870514066,1.3294423928496995,0.9218999389246331,0.28807313749999996,0.6539148909230367
0.024,1.7856,1.0,2538.7915853765453,0.23665267454408911,1.329006971299874,0.924412402223504,0.2880482,0.654829122564043
0.0245,1.78499375,1.0,2555.394883180049,0.24093444923028617,1.3285769526110087,0.9267931724721686,0.2880227375,0.6557308233828538
0.025,1.784375,1.0,2570.9369803461336,0.24519220828071417,1.3281517333709625,0.9290512503137978,0.28799675,0.6566213006557167
0.025500000000000002,1.78374375,1.0,2585.463929354543,0.24942608472022718,1.327730788887195,0.9311948945626847,0.2879702375,0.6575016901000537
0.026000000000000002,1.7831000000000001,1.0,2599.0230931241176,0.2536362115736792,1.3273135944671655,0.933231682363153,0.2879432,0.658373121418954
0.0265,1.78244375,1.0,2611.663032663868,0.2578227218659243,1.3268996254183334,0.9351685746581795,0.2879156375,0.659236718435438
0.027,1.781775,1.0,2623.4334008283645,0.2619857486218166,1.3264883570481585,0.9370119745717939,0.28788755,0.6600935992091652
0.0275,1.7810937500000001,1.0,2634.375958368717,0.2661254225033026,1.3260793468594583,0.938767790983194,0.2878589375,0.6609447052031541
0.028,1.7804,1.0,2644.535722094199,0.2702418764792679,1.3256721299436804,0.9404414702691979,0.2878298,0.6617910197000846
0.0285,1.77969375,1.0,2653.9642003050603,0.2743352439964564,1.3252661886607637,0.9420380333112316,0.2878001375,0.6626336304658815
0.029,1.778975,1.0,2662.692970892051,0.27840565220922486,1.3248611955475196,0.9435621454702686,0.28776995,0.6634732258527942
0.029500000000000002,1.7782437500000001,1.0,2670.7541441920107,0.28245322827193,1.3244568231407583,0.9450181237215748,0.2877392375,0.664310490808057
0.03,1.7775,1.0,2678.1803163067057,0.2864780993389284,1.3240527439772907,0.9464099671300583,0.287708,0.6651461068902695
0.0305,1.77674375,1.0,2685.0045247991343,0.290480392564577,1.3236486305939272,0.9477413842977875,0.2876762375,0.6659807522789402
0.031,1.775975,1.0,2691.2602067675266,0.2944602351032322,1.3232441555274792,0.949015818117401,0.28764395,0.6668151017771902
0.0315,1.7751937500000001,1.0,2696.9811592964825,0.2984177541092509,1.3228389913147567,0.9502364681250649,0.2876111375,0.6676498268076227
0.032,1.7744,1.0,2702.1687303558674,0.302353072148354,1.322433109878818,0.9514063458813296,0.2875778,0.6684849797636291
0.0325,1.77359375,1.0,2706.9092007330783,0.3062663195287932,1.3220257095024242,0.9525281649546151,0.2875439375,0.669322201592667
0.033,1.772775,1.0,2711.2233595334287,0.3101576190766179,1.3216165897490353,0.9536045237146996,0.28750955,0.6701618915758952
0.0335,1.7719437500000002,1.0,2715.1177971408915,0.31402709195892065,1.3212056811888562,0.9546378606767981,0.2874746375,0.6710041784821521
0.034,1.7711000000000001,1.0,2718.599225916382,0.3178748593427942,1.3207929143920916,0.9556304525637362,0.2874392,0.6718491902928196
0.0345,1.7702437500000001,1.0,2721.674474315262,0.3217010423953311,1.3203782199289458,0.9565844269509033,0.2874032375,0.6726970541937503
0.035,1.7693803032580429,1.0,2724.6137282758164,0.325505762283624,1.3199615283696233,0.9575017737823637,0.2873669727368378,0.6735478965668837
0.035500000000000004,1.7685168176599406,1.0,2727.7799122962806,0.3292891401747655,1.3195427702843292,0.9583843558706616,0.28733070634171753,0.6744018429815575
0.036000000000000004,1.7676533320618386,1.0,2731.1845343374657,0.33305129589106297,1.319121862216385,0.9592339167137477,0.2872944399465972,0.6752590467332482
0.0365,1.7667898464637366,1.0,2734.79463189015,0.3367923481240492,1.3186991075102108,0.9600521302003513,0.2872581735514769,0.6761188739547037
0.037,1.7659263608656346,1.0,2738.566997639838,0.34051241964686085,1.3182749019069047,0.9608405767805418,0.28722190715635665,0.6769805064290504
0.0375,1.7650628752675326,1.0,2742.4879362895445,0.3442116259212464,1.3178493725930562,0.961600712305606,0.28718564076123637,0.6778436745605885
0.038,1.7641993896694306,1.0,2746.543724859546,0.347890082408954,1.317422646755256,0.9623339049533498,0.2871493743661161,0.6787081100984946
0.0385,1.7633359040713286,1.0,2750.720609134411,0.3515479045717323,1.3169948515800942,0.9630414414753172,0.28711310797099576,0.6795735461470473
0.039,1.7624724184732263,1.0,2755.004800467968,0.35518520787132946,1.3165661142541607,0.9637245329339157,0.2870768415758755,0.680439717174814
0.0395,1.7616089328751243,1.0,2759.382472947285,0.35880210776949395,1.3161365619640455,0.9643843199761338,0.2870405751807552,0.6813063590228101
0.04,1.7607454472770223,1.0,2763.8397609150784,0.36239871972797405,1.3157063218963392,0.9650218776858287,0.28700430878563493,0.6821732089116233
0.0405,1.7598819616789203,1.0,2768.368743086711,0.36597515346254866,1.3152754672083178,0.9656382142556915,0.28696804239051465,0.6830401140834723
0.041,1.7590184760808183,1.0,2772.954028436549,0.3695315291402388,1.314844138205536,0.9662342889800909,0.2869317759953944,0.6839067877474915
0.0415,1.7581549904827163,1.0,2777.5860386282843,0.37306796068863735,1.3144124223704332,0.9668110022266909,0.2868955096002741,0.6847730505712892
0.042,1.757291504884614,1.0,2782.2593861683135,0.3765845575271906,1.3139803691739718,0.9673692009879234,0.28685924320515377,0.6856388002977565
0.0425,1.756428019286512,1.0,2786.9686659322942,0.38008142907534503,1.3135480280871143,0.9679096863221454,0.2868229768100335,0.6865039352126345
0.043000000000000003,1.75556453368841,1.0,2791.7084548219445,0.383558684752547,1.3131154485808234,0.9684332163137495,0.2867867104149132,0.687368354145503
0.043500000000000004,1.754701048090308,1.0,2796.4733114765354,0.3870164339782428,1.3126826801260616,0.9689405088138133,0.28675044401979294,0.6882319564706092
0.044,1.753837562492206,1.0,2801.2577760386134,0.39045478617187884,1.3122497721937914,0.9694322439795898,0.28671417762467266,0.6890946421075428
0.0445,1.752974076894104,1.0,2806.0563699736836,0.3938738507529015,1.3118167742549751,0.9699090666294641,0.2866779112295524,0.6899563115217535
0.045,1.752110591296002,1.0,2810.863595944554,0.3972737371407572,1.3113837357805753,0.970371588428478,0.2866416448344321,0.6908168657249134
0.0455,1.7512471056978998,1.0,2815.677113013878,0.40065454575851356,1.3109506778246125,0.9708203865080733,0.2866053784393118,0.6916762626288713
0.046,1.7503836200997978,1.0,2820.492275913284,0.40401638843403037,1.3105176419740645,0.9712560120957535,0.2865691120441915,0.6925344197157739
0.0465,1.7495201345016957,1.0,2825.302342507965,0.40735938368231545,1.3100846884077866,0.9716789911913791,0.2865328456490712,0.6933912181602229
0.047,1.7486566489035937,1.0,2830.105941031396,0.4106836336531046,1.3096518291609431,0.9720898181504763,0.28649657925395094,0.6942466348765373
0.0475,1.7477931633054917,1.0,2834.9016951927238,0.41398924049613356,1.3092190762686993,0.9724889632298016,0.28646031285883067,0.6951006469117741
0.048,1.7469296777073897,1.0,2839.6882242036054,0.4172763063611381,1.3087864417662196,0.9728768739882182,0.28642404646371034,0.6959532314456539
0.0485,1.7460661921092875,1.0,2844.464142808258,0.4205449333978539,1.308353937688669,0.9732539765935788,0.28638778006859006,0.6968043657904732
0.049,1.7452027065111855,1.0,2849.2280613165594,0.42379522375601686,1.3079215760712124,0.9736206770427351,0.2863515136734698,0.6976540273910095
0.0495,1.7443392209130835,1.0,2853.97858564042,0.42702727958536263,1.3074893689490144,0.9739773623011951,0.2863152472783495,0.6985021938244163
0.05,1.7434757353149815,1.0,2858.7143173336017,0.430241203035627,1.3070573283572398,0.9743244013684026,0.28627898088322923,0.6993488428001092
0.0505,1.7426122497168794,1.0,2863.433853634217,0.43343709625654575,1.3066254663310537,0.9746621462741272,0.28624271448810895,0.7001939521596424
0.051000000000000004,1.7417487641187774,1.0,2868.135787511139,0.43661506139785455,1.3061937949056206,0.9749909330109943,0.2862064480929887,0.7010374998765777
0.051500000000000004,1.7408852785206754,1.0,2872.8187077130174,0.43977520060928926,1.3057623261161055,0.9753110824077842,0.28617018169786834,0.7018794640563404
0.052000000000000005,1.7400217929225732,1.0,2877.4811988209176,0.44291761604058555,1.3053310719976732,0.9756229009477521,0.28613391530274807,0.7027198229360705
0.0525,1.7391583073244712,1.0,2882.1245264662502,0.4460423807261799,1.3049000208334065,0.9759266769896976,0.2860976489076278,0.7035586010707535
0.053,1.7382948217263692,1.0,2886.7460000576966,0.44914962891726595,1.304469195914072,0.9762226948081484,0.2860613825125075,0.7043957549089237
0.0535,1.7374313361282672,1.0,2891.3451220489565,0.4522394611253629,1.3040386010906917,0.9765112216023094,0.28602511611738723,0.7052312788482629
0.054,1.7365678505301652,1.0,2895.921914126385,0.45531197100627985,1.3036082356231038,0.9767925120999851,0.2859888497222669,0.7060651762175572
0.0545,1.7357043649320631,1.0,2900.4763985924783,0.4583672522158258,1.3031780987711468,0.9770668101717178,0.2859525833271467,0.7068974503364566
0.055,1.7348408793339611,1.0,2905.008598361402,0.46140539840980976,1.3027481897946587,0.977334349384798,0.28591631693202635,0.707728104515489
0.0555,1.733977393735859,1.0,2909.51853695623,0.4644265032440407,1.3023185079534776,0.9775953535245431,0.28588005053690607,0.7085571420560686
0.056,1.733113908137757,1.0,2914.006238504229,0.46743066037432773,1.3018890525074418,0.9778500370850349,0.2858437841417858,0.7093845662505072
0.0565,1.7322504225396549,1.0,2918.4717277338113,0.47041796345647974,1.3014598227163896,0.9780986057313411,0.2858075177466655,0.7102103803820248
0.057,1.7313869369415529,1.0,2922.915029970525,0.47338850614630584,1.301030817840159,0.9783412567350972,0.28577125135154524,0.7110345877247608
0.0575,1.7305234513434509,1.0,2927.3361711333546,0.476342382099615,1.3006020371385882,0.9785781793851913,0.2857349849564249,0.7118571915437846
0.058,1.7296599657453489,1.0,2931.735177731239,0.4792796849722162,1.3001734798715157,0.9788095553751617,0.28569871856130463,0.7126781950951045
0.0585,1.7287964801472466,1.0,2936.1120768591986,0.48220050841991846,1.2997451452987792,0.979035559168804,0.28566245216618436,0.7134976016256817
0.059000000000000004,1.7279329945491446,1.0,2940.4668961947714,0.4851049460985309,1.299317032680217,0.9792563583453785,0.2856261857710641,0.7143154143734372
0.059500000000000004,1.7270695089510426,1.0,2944.799663994199,0.4879930916638624,1.2988891412756676,0.9794721139257072,0.2855899193759438,0.7151316365672642
0.06,1.7262060233529406,1.0,2949.110409089026,0.49086503877172194,1.298461470344969,0.9796829806803604,0.28555365298082347,0.7159462714270382
0.0605,1.7253425377548386,1.0,2953.399170932038,0.49372086854509684,1.298034019060144,0.9798891064199777,0.28551738658570325,0.7167593223305412
0.061,1.7244790521567366,1.0,2957.6663164052893,0.4965606257487586,1.2976067837393186,0.9800906303383615,0.2854811201905829,0.7175707980623038
0.0615,1.7236155665586346,1.0,2961.912188538244,0.49938448309254846,1.2971797609221114,0.9802876963175395,0.28544485379546264,0.7183807069460355
0.062,1.7227520809605323,1.0,2966.137040269797,0.5021925241807902,1.296752947946249,0.9804804359658115,0.28540858740034236,0.7191890557564122
0.0625,1.7218885953624303,1.0,2970.341125704384,0.5049848326178077,1.2963263421494586,0.9806689760024496,0.2853723210052221,0.7199958512382716
0.063,1.7210251097643283,1.0,2974.5247000995378,0.5077614920079246,1.2958999408694671,0.9808534384759517,0.2853360546101018,0.7208011001066513
0.0635,1.7201616241662263,1.0,2978.688019853734,0.510522585955465,1.2954737414440018,0.9810339409709873,0.2852997882149815,0.7216048090468212
0.064,1.7192981385681243,1.0,2982.831342494781,0.5132681980647524,1.2950477412107892,0.9812105968046974,0.2852635218198612,0.7224069847143213
0.0645,1.7184346529700223,1.0,2986.9549266672916,0.5159984119401109,1.294621937507557,0.9813835152129756,0.2852272554247409,0.7232076337349911
0.065,1.7175711673719203,1.0,2991.05903212166,0.5187133111858641,1.2941963276720314,0.9815528015273081,0.28519098902962065,0.7240067627050087
0.0655,1.716707681773818,1.0,2995.1439197020236,0.5214129794063359,1.29377090904194,0.9817185573427143,0.28515472263450037,0.724804378190919
0.066,1.715844196175716,1.0,2999.2098513353776,0.52409750020585,1.2933456789550095,0.981880880677302,0.28511845623938004,0.7256004867296699
0.0665,1.714980710577614,1.0,3003.2570900200612,0.5267669571887305,1.2929206347489672,0.9820398661239058,0.2850821898442598,0.726395094828642
0.067,1.714117224979512,1.0,3007.285899814567,0.5294214339593007,1.2924957737615397,0.9821956049942613,0.2850459234491395,0.727188208965683
0.0675,1.71325373938141,1.0,3011.296545827199,0.532061014121885,1.2920710933304542,0.9823481854561292,0.2850096570540192,0.7279798355891361
0.068,1.712390253783308,1.0,3015.2892942047165,0.5346857812808068,1.2916465907934378,0.9824976926637615,0.28497339065889893,0.7287699811178733
0.0685,1.7115267681852058,1.0,3019.264412122239,0.5372958190403901,1.2912222634882171,0.982644208882077,0.28493712426377865,0.7295586519413249
0.069,1.7106632825871038,1.0,3023.222167772338,0.5398912110049586,1.2907981087525198,0.9827878136048931,0.2849008578686584,0.730345854419508
0.0695,1.7097997969890018,1.0,3027.162830355327,0.5424720407788363,1.2903741239240722,0.9829285836675319,0.28486459147353804,0.7311315948830598
0.07,1.7089363113908997,1.0,3031.0866700687407,0.5450383919663466,1.2899503063406017,0.983066593354114,0.28482832507841777,0.7319158796332629
0.07050000000000001,1.7080728257927977,1.0,3034.9939580976234,0.5475903481718138,1.2895266533398353,0.9832019144998138,0.2847920586832975,0.7326987149420754
0.07100000000000001,1.7072093401946957,1.0,3038.8849666044944,0.5501279929995615,1.2891031622594997,0.9833346165883543,0.2847557922881772,0.7334801070521599
