Time [s],Phi [rad],STIM [ ],Fsee [N],Gamma [ ],Lcerel [ ],q [ ],Lmtc [m],fisomrel [ ]
0.0,1.8,1.0,17.967746846990366,1.0001007665088782e-05,1.37933968026848,0.005000026657118444,0.288653,0.5411396906052529
0.0005,1.79999375,1.0,18.277024668309974,0.005619154218715446,1.379302356629063,0.012940516124267082,0.2886527375,0.5412299816825228
0.001,1.799975,1.0,21.618612516061106,0.01119684451517449,1.3789382785247746,0.03560857969669455,0.28865195,0.5421102712649246
0.0015,1.79994375,1.0,31.069373240825552,0.016743248379976424,1.378046192036905,0.07060170863893614,0.2886506375,0.5442636373928431
0.002,1.7999,1.0,53.58226941676102,0.02225854130440641,1.376368139369621,0.11471784055266568,0.2886488,0.5483004581232448
0.0025,1.79984375,1.0,97.1184421948629,0.027742897795659884,1.3739351911342228,0.16457467867788725,0.28864643749999996,0.5541214057124115
0.003,1.7997750000000001,1.0,160.9575082998192,0.03319649138456374,1.3712143684053664,0.21728023301770638,0.28864354999999997,0.5605863925044801
0.0035,1.79969375,1.0,237.68257373448745,0.038619494625164966,1.3685847575756789,0.270612668624001,0.2886401375,0.566789784703055
0.004,1.7996,1.0,321.4659728406379,0.04401207910551353,1.366156113545348,0.3229155888068932,0.2886362,0.5724799123512956
0.0045000000000000005,1.7994937500000001,1.0,409.2669496073197,0.04937441545284678,1.3639228329733817,0.3730343058257037,0.2886317375,0.577679118752003
0.005,1.799375,1.0,499.41269657726355,0.054706673324676665,1.3618583595080513,0.42024727263606815,0.28862675,0.5824570397134626
0.0055,1.79924375,1.0,590.7896187201255,0.06000902145627863,1.359938850637149,0.46417352483208624,0.2886212375,0.5868750758992606
0.006,1.7991000000000001,1.0,682.5173172513771,0.0652816276037938,1.3581464291270704,0.5046798036826079,0.2886152,0.5909793855342103
0.006500000000000001,1.79894375,1.0,773.8805592223757,0.07052465859988123,1.356467265543499,0.5418006157399984,0.2886086375,0.5948057672064431
0.007,1.798775,1.0,864.2850751402578,0.07573828033730062,1.354890406886154,0.5756766510543655,0.28860155,0.5983826501919006
0.0075,1.79859375,1.0,953.2425829974427,0.08092265777865132,1.353406788918315,0.6065097982481518,0.2885939375,0.6017335508496351
0.008,1.7984,1.0,1040.3436788507845,0.0860779545354203,1.352008863888384,0.6345320759220818,0.2885858,0.6048780604081924
0.0085,1.79819375,1.0,1125.31364775547,0.09120433474867136,1.3506892497057434,0.6599843415509234,0.2885771375,0.607834981316399
0.009000000000000001,1.797975,1.0,1207.9000050968868,0.09630196036984941,1.3494420374483636,0.6831041076205162,0.28856795,0.6106194593875527
0.0095,1.79774375,1.0,1287.8926223449232,0.10137099188898865,1.3482621182903658,0.7041173969505448,0.2885582375,0.6132445694002144
0.01,1.7975,1.0,1365.1671950237146,0.10641158979612331,1.3471443834058723,0.7232341559609613,0.288548,0.6157231411663162
0.0105,1.79724375,1.0,1439.6584247228755,0.11142391407539194,1.346083959835262,0.740646602632301,0.2885372375,0.6180672600278849
0.011,1.796975,1.0,1511.32105645436,0.11640812351290429,1.3450765677852343,0.7565290767500227,0.28852595000000003,0.620287507543248
0.0115,1.79669375,1.0,1580.1203010552572,0.12136437528646722,1.344118491557544,0.7710385607506908,0.2885141375,0.6223930604852059
0.012,1.7964,1.0,1646.0572664192152,0.1262928260632159,1.3432061619652638,0.7843155402072199,0.28850180000000003,0.6243926351692384
0.0125,1.79609375,1.0,1709.1738461393238,0.1311936325698739,1.3423360362702994,0.7964852832249988,0.2884889375,0.6262947648939421
0.013000000000000001,1.7957750000000001,1.0,1769.5062047813988,0.1360669497353461,1.3415050766995564,0.807659454691123,0.28847555,0.6281067684580042
0.0135,1.79544375,1.0,1827.0907325423264,0.1409129310546597,1.340710603919841,0.817937433631596,0.2884616375,0.6298350904865344
0.014,1.7951000000000001,1.0,1881.9914666149255,0.145731730022842,1.3399499385979592,0.8274075023554694,0.2884472,0.6314860945384049
0.0145,1.79474375,1.0,1934.2803141717015,0.1505234989945476,1.3392205887793922,0.8361481606256176,0.2884322375,0.6330656637377631
0.015,1.794375,1.0,1984.0545716624365,0.1552883910116949,1.338520027140842,0.8442291755073696,0.28841675,0.6345796914048585
0.0155,1.79399375,1.0,2031.3739765054477,0.1600265556691016,1.3378463355174897,0.8517128109198968,0.2884007375,0.6360326963565173
0.016,1.7936,1.0,2076.3119003210736,0.16473814242102977,1.3371976188199635,0.8586545187640473,0.2883842,0.6374291003257226
0.0165,1.7931937500000001,1.0,2118.956130560343,0.16942330072174155,1.3365719819588915,0.8651037391981281,0.2883671375,0.6387732811232896
0.017,1.792775,1.0,2159.390053569655,0.17408217841828139,1.3359677093998026,0.871104664035101,0.28834955,0.6400691908183986
0.0175,1.7923437500000001,1.0,2197.720339133762,0.1787149249910051,1.3353829650356517,0.8766967729785102,0.2883314375,0.6413210037113994
0.018000000000000002,1.7919,1.0,2234.014306016631,0.18332168559341208,1.3348164164107716,0.8819155530576122,0.2883128,0.6425317834880382
0.0185,1.79144375,1.0,2268.346476555861,0.1879026052838855,1.3342667415247835,0.8867928320631097,0.2882936375,0.6437045456326644
0.019,1.790975,1.0,2300.798910709484,0.19245782912080867,1.3337326183773086,0.8913571996887137,0.28827395,0.6448422813489341
0.0195,1.79049375,1.0,2331.4524426054677,0.1969875010936748,1.3332128048553846,0.8956343976252729,0.2882537375,0.6459477891594623
0.02,1.79,1.0,2360.39604329527,0.2014917661118041,1.3327060388764902,0.899647620142604,0.288233,0.647023889333914
0.0205,1.78949375,1.0,2387.706045537894,0.2059707669783706,1.332211235689483,0.9034178428807143,0.2882117375,0.6480730066379679
0.021,1.788975,1.0,2413.4450686693813,0.2104246440038416,1.331727488634377,0.9069640670887543,0.28818995000000003,0.6490971724627845
0.021500000000000002,1.78844375,1.0,2437.6796622685197,0.21485353749868422,1.3312538910511869,0.9103034981291255,0.2881676375,0.6500984045390575
0.022,1.7879,1.0,2460.4799795399686,0.2192575877733658,1.3307895362799265,0.9134517399716751,0.2881448,0.6510787075500996
0.0225,1.78734375,1.0,2481.914550997192,0.2236369341956965,1.3303335645393308,0.9164229751963591,0.28812143749999997,0.6520399749322059
0.023,1.786775,1.0,2502.051402349206,0.22799171609279525,1.3298851486135952,0.9192301124245309,0.28809755,0.6529840201664101
0.0235,1.78619375,1.0,2520.9617357734464,0.2323220732716594,1.3294434559708155,0.9218849118444112,0.28807313749999996,0.6539126572640477
0.024,1.7856,1.0,2538.695592997674,0.2366281409147836,1.3290078760209605,0.9243981419818692,0.2880482,0.654827224222501
0.0245,1.78499375,1.0,2555.304874628379,0.2409100542046625,1.3285777981739981,0.9267796418260104,0.2880227375,0.6557290514895643
0.025,1.784375,1.0,2570.8431851093183,0.2451679483237908,1.3281526118398967,0.9290384138173882,0.28799675,0.6566194621895857
0.025500000000000002,1.78374375,1.0,2585.365685946226,0.24940195845466312,1.3277317064286247,0.9311827064033664,0.2879702375,0.6574997723258347
0.026000000000000002,1.7831000000000001,1.0,2598.9222759188883,0.25361221816182733,1.3273145335873493,0.9332200968602786,0.2879432,0.6583711610411225
0.0265,1.78244375,1.0,2611.5647188785424,0.2577988620717914,1.3269005389998663,0.9351575458201369,0.2879156375,0.6592348137806024
0.027,1.781775,1.0,2623.3481601314284,0.26196202494184584,1.326489147367983,0.9370014529198709,0.28788755,0.6600919536062739
0.0275,1.7810937500000001,1.0,2634.3094996323466,0.26610183644527763,1.326079961757797,0.9387577373087334,0.2878589375,0.6609434264669442
0.028,1.7804,1.0,2644.486418898162,0.2702184262553738,1.325672585235405,0.9404318570244448,0.2878298,0.6617900740627802
0.0285,1.77969375,1.0,2653.9173136591003,0.2743119240454215,1.3252666208669042,0.9420288509649132,0.2878001375,0.6626327338961276
0.029,1.778975,1.0,2662.64123000334,0.27838245948870777,1.3248616717183919,0.9435533765334797,0.28776995,0.6634722393122825
0.029500000000000002,1.7782437500000001,1.0,2670.69780401484,0.2824301622585197,1.3244573408559646,0.9450097434507606,0.2877392375,0.6643094195302182
0.03,1.7775,1.0,2678.1205931041545,0.28645515930918625,1.3240532920182022,0.9464019513280783,0.287708,0.6651449742734878
0.0305,1.77674375,1.0,2684.9501440850186,0.2904575813219661,1.3236491289754957,0.9477337027054679,0.2876762375,0.6659797235759024
0.031,1.775975,1.0,2691.2178080985464,0.29443755489626744,1.323244543645195,0.949008444841398,0.28764395,0.6668143016696737
0.0315,1.7751937500000001,1.0,2696.9497120530314,0.29839520419676774,1.32283927887727,0.9502293868687982,0.2876111375,0.6676492347385341
0.032,1.7744,1.0,2702.1722722774316,0.30233065338814463,1.3224330775216917,0.9513995139930035,0.2875778,0.6684850463006721
0.0325,1.77359375,1.0,2706.91216694316,0.30624402663507555,1.3220256824284307,0.9525216058598576,0.2875439375,0.6693222571954832
0.033,1.772775,1.0,2711.196309951364,0.31013544810223803,1.3216168364474574,0.9535982532057223,0.28750955,0.6701613855661015
0.0335,1.7719437500000002,1.0,2715.051826286882,0.31400504195430967,1.3212062824287423,0.9546318729684534,0.2874746375,0.6710029468377139
0.034,1.7711000000000001,1.0,2718.4977303811042,0.3178529239073929,1.3207938388045193,0.9556247282500656,0.2874392,0.6718472990595029
0.0345,1.7702437500000001,1.0,2721.570512718249,0.3216792283284599,1.3203791662671596,0.9565789216409484,0.2874032375,0.672695120605739
0.035,1.7693750000000001,1.0,2724.2884355789874,0.3254840743924904,1.3199620928760276,0.9574964341760442,0.28736675,0.6735467446504857
0.035500000000000004,1.76849375,1.0,2726.668426993661,0.3292675799118057,1.3195424598274152,0.9583791215567775,0.2873297375,0.6744024756614947
0.036000000000000004,1.7676,1.0,2728.7275110353235,0.3330298626987275,1.319120108317613,0.9592287225401522,0.2872922,0.6752626162862085
0.0365,1.76669375,1.0,2730.482797235377,0.336771040565577,1.3186948795429123,0.9600468676375581,0.2872541375,0.6761274673250275
0.037,1.765775,1.0,2731.951470558723,0.34049123132467596,1.3182666146996045,0.9608350870723574,0.28721555,0.6769973277029767
0.0375,1.76484375,1.0,2733.1507819377375,0.3441905527883457,1.3178351549839806,0.961594818066969,0.2871764375,0.6778724944397609
0.038,1.7639,1.0,2734.098039365101,0.3478691227689077,1.3174003415923317,0.9623274115227461,0.28713679999999997,0.6787532626182117
0.0385,1.76294375,1.0,2734.81059954673,0.35152705907868353,1.3169620157209492,0.9630341381493551,0.28709663750000003,0.6796399253511249
0.039,1.761975,1.0,2735.29931788577,0.35516447183728256,1.3165200779693835,0.9637161980955313,0.28705595,0.6805326538337224
0.0395,1.7609937500000001,1.0,2735.580825146507,0.3587814818021004,1.3160743767932195,0.9643747191861692,0.2870147375,0.6814317230063072
0.04,1.76,1.0,2735.673336450188,0.3623782110415574,1.3156247465200628,0.9650107635031598,0.286973,0.6823374342606701
0.0405,1.7589937500000001,1.0,2735.586056335291,0.36595477001038185,1.3151711034901383,0.9656253379921966,0.2869307375,0.6832499219541088
0.041,1.757975,1.0,2735.328207097687,0.36951126916330196,1.3147133640436717,0.966219393128889,0.28688795,0.684169319171924
0.0415,1.75694375,1.0,2734.909025840511,0.37304781895504596,1.3142514445208877,0.966793826670173,0.2868446375,0.685095757705789
0.042,1.7559,1.0,2734.337761679035,0.3765645298403422,1.313785261262012,0.9673494871191008,0.28680079999999997,0.6860293680316674
0.0425,1.75484375,1.0,2733.623673100859,0.3800615122739189,1.3133147306072697,0.9678871769276337,0.2867564375,0.6869702792872897
0.043000000000000003,1.753775,1.0,2732.7760254808163,0.38353887671050424,1.3128397688968858,0.9684076554597203,0.28671155,0.6879186192491807
0.043500000000000004,1.75269375,1.0,2731.8040887518428,0.38699673360482656,1.3123602924710855,0.9689116417348461,0.28666613750000003,0.6888745143092407
0.044,1.7516,1.0,2730.7171352299097,0.3904351934116141,1.3118762176700944,0.9693998169703597,0.2866202,0.6898380894508798
0.0445,1.75049375,1.0,2729.5244375955776,0.3938543665855951,1.3113874608341376,0.9698728269391914,0.2865737375,0.690809468224708
0.045,1.7493750000000001,1.0,2728.2330255623006,0.39725435869664816,1.3108939586822548,0.9703312850148996,0.28652675,0.6917887323178459
0.0455,1.74824375,1.0,2726.849599919206,0.4006352766216412,1.310395650916176,0.9707757737326461,0.2864792375,0.6927759562892966
0.046,1.7471,1.0,2725.3852445747175,0.40399723815877014,1.3098924373502228,0.9712068447741471,0.2864312,0.6937712923250583
0.0465,1.7459437500000001,1.0,2723.844497900042,0.4073403464570681,1.3093842772854751,0.9716250246197485,0.28638263750000004,0.6947747734966334
0.047,1.744775,1.0,2722.2318965832237,0.41066470466556826,1.3088711300230136,0.9720308137272677,0.28633355,0.6957864318823554
0.0475,1.74359375,1.0,2720.5519750176927,0.41397041593330364,1.3083529548639181,0.9724246880600477,0.28628393750000003,0.6968062985544977
0.048,1.7424,1.0,2718.8092647260846,0.4172575834093073,1.3078297111092687,0.9728071005114544,0.2862338,0.697834403566276
0.0485,1.74119375,1.0,2717.008293822468,0.4205263102426125,1.3073013580601456,0.97317848223374,0.2861831375,0.6988707759387442
0.049,1.739975,1.0,2715.153586509646,0.4237766995822523,1.3067678550176292,0.9735392438785133,0.28613195,0.6999154436475856
0.0495,1.73874375,1.0,2713.2496626144753,0.4270088545772598,1.3062291612827992,0.9738897767554533,0.2860802375,0.7009684336098003
0.05,1.7375,1.0,2711.3010371594023,0.43022287837666806,1.3056852361567362,0.9742304539153533,0.286028,0.7020297716702821
0.0505,1.73624375,1.0,2709.3122199703457,0.4334188741295103,1.30513603894052,0.9745616311630707,0.2859752375,0.7030994825882955
0.051000000000000004,1.734975,1.0,2707.287934254545,0.43659694477495353,1.3045815269370715,0.9748836478512629,0.28592195,0.7041775939052359
0.051500000000000004,1.73369375,1.0,2705.233569547624,0.4397571901408892,1.304021651308907,0.9751968271922433,0.2858681375,0.7052641439266755
0.052000000000000005,1.7324,1.0,2703.1505954518175,0.4428997097891299,1.3034563989537096,0.9755014801278772,0.2858138,0.706359100554997
0.0525,1.73109375,1.0,2701.0415407247415,0.44602460227711965,1.3028857470755861,0.9757979030283478,0.28575893750000003,0.7074624496762247
0.053,1.729775,1.0,2698.9089306559385,0.44913196616230255,1.3023096728786434,0.9760863791809624,0.28570355000000003,0.7085741762882896
0.0535,1.72844375,1.0,2696.755286948553,0.4522219000021227,1.3017281535669878,0.9763671794773939,0.2856476375,0.7096942644931641
0.054,1.7271,1.0,2694.584950590537,0.4552945020028737,1.3011411496675362,0.9766405620046221,0.2855912,0.7108227295182223
0.0545,1.7257437500000001,1.0,2692.3993927404745,0.4583498691565472,1.3005486479102315,0.9769067752178313,0.2855342375,0.7119595352019505
0.055,1.724375,1.0,2690.200209161981,0.4613880981074764,1.2999506338640168,0.977166056880471,0.28547675,0.7131046468258118
0.0555,1.72299375,1.0,2687.990031666115,0.46440928500747286,1.2993470835856795,0.9774186340999139,0.2854187375,0.7142580470304472
0.056,1.7216,1.0,2685.7700646968497,0.46741352542431297,1.2987379861728863,0.9776647251788664,0.2853602,0.7154196926574248
0.0565,1.7201959776780662,1.0,2683.648308334256,0.4704009144435831,1.2981233577547144,0.9779045408765205,0.2853012310624788,0.7165894883962198
0.057,1.7187909403821107,1.0,2682.053525883867,0.47337154647012436,1.2975034462362938,0.9781382965243934,0.28524221949604867,0.7177668988441603
0.0575,1.7173859030861551,1.0,2680.9918727079576,0.47632551581172566,1.2968786492356665,0.9783662071908406,0.2851832079296185,0.7189511085076725
0.058,1.7159808657901996,1.0,2680.4220934700706,0.47926291563140494,1.2962493422623425,0.9785884779368339,0.28512419636318836,0.7201413495189077
0.0585,1.7145758284942438,1.0,2680.306577008297,0.48218383833285194,1.295615868871412,0.9788053037966232,0.28506518479675824,0.7213369198705364
0.059000000000000004,1.7131707911982883,1.0,2680.6133827532485,0.4850883748867448,1.2949785217557868,0.9790168691664364,0.2850061732303281,0.7225372184399581
0.059500000000000004,1.7117657539023328,1.0,2681.289601972154,0.48797662248749396,1.2943377868027175,0.9792233623182363,0.284947161663898,0.7237412859058611
0.06,1.7103607166063772,1.0,2682.3116598715255,0.4908486706736359,1.2936938814558248,0.9794249490433689,0.2848881500974678,0.7249486734547576
0.0605,1.7089556793104217,1.0,2683.656033602267,0.4937046089837069,1.2930470231587299,0.979621788756657,0.2848291385310377,0.7261589356435167
0.061,1.7075506420144662,1.0,2685.299237498934,0.4965445269562433,1.2923974293550538,0.979814034796598,0.2847701269646076,0.7273716304418252
0.0615,1.7061456047185106,1.0,2687.217809367682,0.4993685141297814,1.2917453174884173,0.9800018347092837,0.28471111539817745,0.7285863192716282
0.062,1.7047405674225549,1.0,2689.3882978224683,0.5021766600428575,1.2910909050024415,0.9801853305170349,0.2846521038317473,0.7298025670435573
0.0625,1.7033355301265993,1.0,2691.7872506693234,0.504969054234008,1.2904344093407478,0.9803646589726807,0.28459309226531715,0.731019942190341
0.063,1.7019304928306438,1.0,2694.395564341745,0.5077457841024606,1.2897760080588336,0.980539949585584,0.284534080698887,0.7322380904129043
0.0635,1.7005254555346883,1.0,2697.193812366512,0.5105069388093382,1.2891158815563708,0.9807113274162723,0.2844750691324569,0.7334566550761561
0.064,1.6991204182387327,1.0,2700.160785961808,0.5132526087819804,1.2884542263413055,0.9808789139094803,0.2844160575660268,0.734675252888517
0.0645,1.6977153809427772,1.0,2703.285372144445,0.5159828790694906,1.287791146433832,0.9810428211208512,0.28435704599959666,0.7358936735787648
0.065,1.6963103436468214,1.0,2706.55644577814,0.5186978347209725,1.2871267458541453,0.9812031571124878,0.2842980344331665,0.7371117085944165
0.0655,1.694905306350866,1.0,2709.962866408016,0.5213975607855295,1.2864611286224392,0.9813600261268408,0.28423902286673636,0.7383291511108365
0.066,1.6935002690549104,1.0,2713.493475334245,0.5240821423122651,1.2857943987589084,0.9815135287518476,0.28418001130030623,0.7395457960396494
0.0665,1.6920952317589548,1.0,2717.1370929263485,0.5267516643502831,1.2851266602837472,0.9816637620778232,0.2841209997338761,0.7407614400364688
0.067,1.6906901944629993,1.0,2720.882516177102,0.5294062119486868,1.2844580172171498,0.9818108198465727,0.284061988167446,0.7419758815079327
0.0675,1.6892851571670437,1.0,2724.718516496078,0.5320458701565798,1.2837885735793106,0.9819547925931542,0.2840029766010158,0.7431889206180491
0.068,1.687880119871088,1.0,2728.6432527740867,0.5346707143312891,1.2831183477978496,0.9820957630654508,0.2839439650345857,0.7444005138399741
0.0685,1.6864750825751325,1.0,2732.63778301967,0.5372808414231118,1.2824475136359905,0.9822338199650025,0.28388495346815557,0.7456103381404559
0.069,1.685070045279177,1.0,2736.696932644112,0.5398763321426682,1.2817761194003594,0.9823690421023262,0.28382594190172544,0.746818298902023
0.0695,1.6836650079832214,1.0,2740.8161789290343,0.542457266435475,1.2811042073613872,0.9825015053385051,0.2837669303352953,0.7480243131496372
0.07,1.6822599706872658,1.0,2744.9909870278143,0.545023724247049,1.280431819789505,0.9826312830314671,0.28370791876886514,0.7492282986273806
0.07050000000000001,1.6808549333913103,1.0,2749.216809500206,0.5475757855229073,1.2797589989551441,0.9827584461366934,0.283648907202435,0.7504301737997949
0.07100000000000001,1.6794498960953546,1.0,2753.4890858861504,0.5501135302085665,1.279085787128736,0.9828830633032339,0.2835898956360049,0.7516298578531054
0.07150000000000001,1.678044858799399,1.0,2757.803242319989,0.5526370382495434,1.2784122265807114,0.9830052009652762,0.2835308840695748,0.7528272706963349
0.07200000000000001,1.6766398215034435,1.0,2762.1546911834753,0.5551463895913549,1.2777383595815017,0.9831249234295062,0.28347187250314465,0.7540223329622974
0.0725,1.675234784207488,1.0,2766.53883079879,0.5576416641795178,1.2770642284015383,0.9832422929584772,0.2834128609367145,0.7552149660084828
0.073,1.6738297469115324,1.0,2770.951045161576,0.560122941959549,1.2763898753112521,0.9833573698501951,0.28335384937028435,0.7564050919178269
0.0735,1.6724247096155769,1.0,2775.386703712526,0.5625903028769653,1.2757153425810743,0.9834702125141155,0.2832948378038542,0.7575926334993649
