Time [s],Phi [rad],STIM [ ],Fsee [N],Gamma [ ],Lcerel [ ],q [ ],Lmtc [m],fisomrel [ ]
0.0,1.8,1.0,19.102588785527374,0.0010887268094510049,1.3792144886115094,0.005304241908982278,0.288653,0.5414425115660441
0.0005,1.79999375,1.0,19.72661564497493,0.006691829221832052,1.3791444085750082,0.01620430535438598,0.2886527375,0.5416119816527656
0.001,1.799975,1.0,23.872614019704248,0.012263502659969765,1.3787137734555754,0.04144878467377466,0.28865195,0.5426526715403033
0.0015,1.79994375,1.0,35.162907374940694,0.017803923415610937,1.3777082255730873,0.07845129397579614,0.2886506375,0.5450781133113197
0.002,1.7999,1.0,61.2651401613085,0.02331326679163949,1.3758864038720038,0.1239213069736543,0.2886488,0.5494560311995309
0.0025,1.79984375,1.0,109.07996747435692,0.02879170710739305,1.3733755247837567,0.17452825082777784,0.28864643749999996,0.5554550940448161
0.003,1.7997750000000001,1.0,175.92944264745785,0.03423941770487027,1.3706664126456292,0.22751012086953765,0.28864354999999997,0.5618826866595031
0.0035,1.79969375,1.0,254.28117619934184,0.03965657095204801,1.368082103542055,0.28076006419566,0.2886401375,0.567970551824158
0.004,1.7996,1.0,338.93886322067476,0.045043338250765605,1.3656994461373617,0.332721609505915,0.2886362,0.5735456476238102
0.0045000000000000005,1.7994937500000001,1.0,427.23814832644973,0.05039989005366219,1.3635055120240331,0.3823292766098323,0.2886317375,0.5786471388014844
0.005,1.799375,1.0,517.6535695248998,0.05572639581614306,1.3614742183572113,0.4289343665027603,0.28862675,0.5833430786449081
0.0055,1.79924375,1.0,609.1319152220468,0.06102302413615905,1.35958322558451,0.472210343207457,0.2886212375,0.5876910200198961
0.006,1.7991000000000001,1.0,700.8095630405851,0.06628994248347367,1.3578161231069112,0.5120620007069299,0.2886152,0.5917334886630732
0.006500000000000001,1.79894375,1.0,792.017958622667,0.07152731768169696,1.3561594412655218,0.5485482018719289,0.2886086375,0.5955052691244622
0.007,1.798775,1.0,882.1635241347809,0.07673531524031116,1.3546030907608768,0.5818246381631076,0.28860155,0.599032678644239
0.0075,1.79859375,1.0,970.7942268296897,0.08191410013879163,1.353138057773226,0.6121008427599679,0.2885939375,0.602339005587225
0.008,1.7984,1.0,1057.5207935276305,0.0870638361454112,1.3517569990648193,0.6396119581985599,0.2885858,0.605443283191686
0.0085,1.79819375,1.0,1142.0361548722885,0.09218468596922597,1.3504533934201897,0.6645993548921021,0.2885771375,0.6083623056131179
0.009000000000000001,1.797975,1.0,1224.1293404879868,0.09727681221782015,1.3492210227671502,0.68729853733006,0.28856795,0.6111118534995714
0.0095,1.79774375,1.0,1303.6191657031577,0.10234037570078866,1.3480546455432474,0.7079326179458137,0.2885582375,0.6137052414405754
0.01,1.7975,1.0,1380.378360937847,0.10737553630871356,1.3469494203970864,0.7267083591182278,0.288548,0.6161546546113705
0.0105,1.79724375,1.0,1454.3332208785403,0.11238245340792999,1.345900759099926,0.7438146322820697,0.2885372375,0.6184715078255582
0.011,1.796975,1.0,1525.45962169072,0.11736128631731882,1.3449042610796882,0.759422276383105,0.28852595000000003,0.6206666157177114
0.0115,1.79669375,1.0,1593.7265021708608,0.12231219186131016,1.34395629289098,0.7736850503519022,0.2885141375,0.6227489431782345
0.012,1.7964,1.0,1659.1344712179318,0.12723532634230844,1.3430533983873019,0.7867404669866611,0.28850180000000003,0.6247269319353417
0.0125,1.79609375,1.0,1721.7163694926621,0.13213084565185965,1.3421922277528555,0.7987111163244456,0.2884889375,0.6266086711273529
0.013000000000000001,1.7957750000000001,1.0,1781.529441688028,0.13699890553902583,1.3413695743309457,0.8097061036184804,0.28847555,0.6284018294678219
0.0135,1.79544375,1.0,1838.6204919070738,0.14183965971822016,1.3405827117276632,0.81982256865768,0.2884616375,0.6301129351793096
0.014,1.7951000000000001,1.0,1893.0386053548134,0.14665326068582452,1.3398291871238306,0.8291469032845705,0.2884472,0.6317478430445043
0.0145,1.79474375,1.0,1944.8564271931925,0.15143986093822082,1.3391065477002702,0.8377558648474831,0.2884322375,0.6333123383507794
0.015,1.794375,1.0,1994.1519436920075,0.15619961178635836,1.338412512546349,0.8457177480383793,0.28841675,0.6348117708930712
0.0155,1.79399375,1.0,2041.0260238274248,0.16093266531164532,1.3377447581603819,0.8530933066530276,0.2884007375,0.6362515253035241
0.016,1.7936,1.0,2085.542525008684,0.16563917007488288,1.3371015261427204,0.8599368311381158,0.2883842,0.637635717704875
0.0165,1.7931937500000001,1.0,2127.7770376065405,0.1703192745102779,1.3364810768338378,0.866296742388919,0.2883671375,0.6389683830763424
0.017,1.792775,1.0,2167.817495234406,0.17497312705203735,1.3358816705742071,0.8722162817004478,0.28834955,0.6402535184065045
0.0175,1.7923437500000001,1.0,2205.744243807095,0.1796008745068715,1.3353017584851672,0.8777341742010092,0.2883314375,0.6414946771580186
0.018000000000000002,1.7919,1.0,2241.6656987395513,0.18420266553970757,1.334739607162646,0.8828850585133386,0.2883128,0.642695776137109
0.0185,1.79144375,1.0,2275.649647595079,0.18877864435964237,1.3341939811358516,0.8877001375932153,0.2882936375,0.6438596395808993
0.019,1.790975,1.0,2307.7683488153716,0.1933289549414573,1.3336636710714647,0.892207454262047,0.28827395,0.6449890134155403
0.0195,1.79049375,1.0,2338.1005161230805,0.19785374125993357,1.3331474676361668,0.8964322466217661,0.2882537375,0.6460866224732438
0.02,1.79,1.0,2366.7267294224616,0.20235314669390964,1.3326442009648742,0.9003972746422394,0.288233,0.6471550878968124
0.0205,1.78949375,1.0,2393.727153299334,0.20682731420824232,1.3321527567058955,0.9041231012199484,0.2882117375,0.6481968948108234
0.021,1.788975,1.0,2419.1825977920325,0.21127638674985771,1.331672059807454,0.9076283316043275,0.28818995000000003,0.6492144283899255
0.021500000000000002,1.78844375,1.0,2443.152514159735,0.21570050353936424,1.3312012809421543,0.9109298683010602,0.2881676375,0.6502095392291971
0.022,1.7879,1.0,2465.6997214545595,0.22009980379737024,1.3307395907826005,0.9140430447870809,0.2881448,0.6511840659724425
0.0225,1.78734375,1.0,2486.890127978999,0.22447442674448417,1.3302861600013969,0.9169817928596483,0.28812143749999997,0.6521398358148331
0.023,1.786775,1.0,2506.7909605107434,0.22882451132910434,1.3298401735693108,0.9197587927829912,0.28809755,0.6530786348844608
0.0235,1.78619375,1.0,2525.4589086606184,0.23315019417574212,1.3294009401783393,0.9223856225287363,0.28807313749999996,0.6540019789847773
0.024,1.7856,1.0,2542.975603532668,0.2374516161274971,1.3289675538439454,0.9248728118973001,0.2880482,0.6549118256311572
0.0245,1.78499375,1.0,2559.3867716180935,0.24172891124188864,1.328539466770329,0.9272300454191849,0.2880227375,0.6558093710914156
0.025,1.784375,1.0,2574.7397129737255,0.24598221357643602,1.3281161311616898,0.9294661863287468,0.28799675,0.6566958050748877
0.025500000000000002,1.78374375,1.0,2589.0831716238254,0.2502116571886586,1.3276969992222285,0.9315893574137164,0.2879702375,0.6575723109079936
0.026000000000000002,1.7831000000000001,1.0,2602.4672126149644,0.25441737613607573,1.3272815231561443,0.9336070129208355,0.2879432,0.6584400656906702
0.0265,1.78244375,1.0,2614.9431057237193,0.2585995044762066,1.326869155167638,0.9355260026012684,0.2879156375,0.6593002404336564
0.027,1.781775,1.0,2626.5490189414795,0.2627581723937647,1.3264594790096977,0.9373526474672583,0.28788755,0.6601537262905508
0.0275,1.7810970486635587,1.0,2637.506739038326,0.26689351675142015,1.3260518783380575,0.9390927430754183,0.28785907604386946,0.6610018259956141
0.028,1.7804186297752178,1.0,2648.2417753224713,0.2710056663316663,1.3256463318810727,0.9407517193849739,0.28783058245055915,0.661844599911997
0.0285,1.779740210886877,1.0,2658.776788302715,0.27509474972984677,1.3252428283326223,0.9423345906435943,0.28780208885724884,0.6626820874304732
0.029,1.779061791998536,1.0,2669.111688283911,0.2791608955413051,1.3248413563865853,0.9438459913458735,0.28777359526393853,0.6635143277452917
0.029500000000000002,1.7783833731101952,1.0,2679.2464226607285,0.28320423236138487,1.3244419047368408,0.9452902098801957,0.28774510167062817,0.6643413598556466
0.03,1.7777049542218544,1.0,2689.1809754102583,0.2872248887854297,1.3240444620772673,0.9466712187959817,0.2877166080773179,0.665163222567138
0.0305,1.7770265353335135,1.0,2698.916011057232,0.2912229917049888,1.3236490112106483,0.9479927007261504,0.28768811448400755,0.6659799666529646
0.031,1.7763481164451727,1.0,2708.453434872016,0.2951986691550897,1.3232555239842585,0.9492580734499457,0.28765962089069724,0.666791665222138
0.0315,1.7756696975568318,1.0,2717.795628001772,0.299152048664199,1.3228639683445058,0.950470512533315,0.28763112729738693,0.6675983990587946
0.032,1.774991278668491,1.0,2726.94621768,0.3030832534108546,1.322474301354421,0.9516329694602517,0.2876026337040766,0.6684002709374304
0.0325,1.77431285978015,1.0,2735.908886943686,0.3069924065735948,1.3220864800770336,0.9527481927247724,0.2875741401107663,0.6691973831364371
0.033,1.7736344408918092,1.0,2744.687372855261,0.3108796313309574,1.3217004615753745,0.9538187442580109,0.28754564651745596,0.6699898374432112
0.0335,1.7729560220034684,1.0,2753.2854647667864,0.3147450508614807,1.3213162029124734,0.9548470143391619,0.2875171529241457,0.6707777351591524
0.034,1.7722776031151275,1.0,2761.707002623101,0.31858878834370263,1.320933661151361,0.955835235146293,0.28748865933083534,0.6715611771045391
0.0345,1.7715991842267866,1.0,2769.95271599241,0.32241093740658266,1.3205528218615799,0.9567854886558502,0.28746016573752503,0.6723402053462317
0.035,1.7709207653384458,1.0,2778.0311190241655,0.32621165274264624,1.3201736007350455,0.9576997306217664,0.2874316721442147,0.6731150044399097
0.035500000000000004,1.770242346450105,1.0,2785.9480384633735,0.3299910664870819,1.3197959382946916,0.9585797890250619,0.2874031785509044,0.6738857074305415
0.036000000000000004,1.769563927561764,1.0,2793.7072957247697,0.3337492930321417,1.3194197935672207,0.9594273745528975,0.2873746849575941,0.6746524090480679
0.0365,1.7688855086734232,1.0,2801.3127531736336,0.33748644677007755,1.3190451255793356,0.9602440917277952,0.28734619136428374,0.6754152035843941
0.037,1.7682070897850823,1.0,2808.768312766047,0.34120264209314155,1.3186718933577386,0.9610314466965185,0.28731769777097343,0.6761741848973026
0.0375,1.7675286708967415,1.0,2816.077914725245,0.3448979933935857,1.3183000559291327,0.9617908543641615,0.2872892041776631,0.676929446414257
0.038,1.7668502520084006,1.0,2823.245536256583,0.3485726150636619,1.31792957232022,0.9625236449351268,0.2872607105843528,0.6776810811361034
0.0385,1.7661718331200598,1.0,2830.2751902986984,0.35222662149562217,1.3175604015577034,0.9632310699162654,0.2872322169910425,0.6784291816406576
0.039,1.765493414231719,1.0,2837.170924312322,0.3558601270817186,1.3171925026682854,0.9639143076317854,0.2872037233977322,0.679173840086192
0.0395,1.764814995343378,1.0,2843.936819106348,0.35947324621420307,1.3168258346786683,0.9645744682944841,0.2871752298044219,0.6799151482148122
0.04,1.7641365764550372,1.0,2850.5769877008934,0.3630660932853276,1.3164603566155553,0.9652125986733704,0.28714673621111153,0.6806531973557257
0.0405,1.7634581575666963,1.0,2857.095574227873,0.3666387826873442,1.3160960275056486,0.9658296863937632,0.2871182426178012,0.6813880784284064
0.041,1.7627797386783555,1.0,2863.4967528684365,0.37019142881250483,1.3157328063756508,0.9664266639023709,0.2870897490244909,0.6821198819456499
0.0415,1.7621013197900146,1.0,2869.784726828059,0.37372414605306153,1.3153706522522646,0.9670044121266974,0.2870612554311806,0.6828486980165217
0.042,1.7614229009016737,1.0,2875.96372734828,0.3772370488012663,1.3150095241621924,0.9675637638552711,0.2870327618378703,0.6835746163492
0.0425,1.760744482013333,1.0,2882.038012756343,0.3807302514493711,1.314649381132137,0.9681055068626515,0.28700426824456,0.6842977262537093
0.043000000000000003,1.760066063124992,1.0,2888.004269235531,0.38420381724669167,1.3142902493325415,0.9686303841641811,0.2869757746512497,0.6850179820615081
0.043500000000000004,1.7593876442366512,1.0,2893.874262966415,0.38765791325384463,1.3139320217629316,0.9691391051534967,0.2869472810579393,0.6857356049484639
0.044,1.7587092253483103,1.0,2899.652241629723,0.3910926561095805,1.313574658213531,0.9696323394348119,0.286918787464629,0.6864506815250868
0.0445,1.7580308064599695,1.0,2905.3404754597555,0.39450814895479086,1.313218136101687,0.9701107213001757,0.2868902938713187,0.6871632628092637
0.045,1.7573523875716286,1.0,2910.9412495274273,0.39790449493036706,1.312862432844747,0.9705748525911424,0.2868618002780084,0.6878733995997011
0.0455,1.7566739686832877,1.0,2916.4568633244185,0.40128179717720036,1.3125075258600585,0.9710253046747487,0.2868333066846981,0.6885811424771202
0.046,1.7559955497949469,1.0,2921.889630358968,0.40464015883618226,1.3121533925649687,0.9714626202807514,0.2868048130913878,0.6892865418054228
0.0465,1.755317130906606,1.0,2927.2418777626717,0.40797968304820403,1.3118000103768253,0.9718873152111016,0.28677631949807747,0.6899896477328178
0.047,1.7546387120182652,1.0,2932.515945908926,0.41130047295415717,1.3114473567129756,0.9722998799316863,0.2867478259047671,0.6906905101929226
0.0475,1.7539602931299243,1.0,2937.714188042507,0.41460263169493294,1.311095408990767,0.9727007810554779,0.2867193323114568,0.6913891789058273
0.048,1.7532818742415834,1.0,2942.8389699203594,0.41788626241142285,1.3107441446275467,0.9730904627254584,0.2866908387181465,0.6920857033791272
0.0485,1.7526034553532426,1.0,2947.892669463685,0.42115146824451816,1.3103935410406624,0.9734693479049614,0.2866623451248362,0.6927801329089242
0.049,1.7519250364649017,1.0,2952.8776764217528,0.4243983523351103,1.3100435756474615,0.973837839582428,0.2866338515315259,0.6934725165807933
0.0495,1.7512466175765609,1.0,2957.7963920464686,0.4276270178240906,1.3096942258652913,0.9741963218969935,0.28660535793821557,0.6941629032707206
0.05,1.75056819868822,1.0,2962.651228778456,0.43083756785235056,1.3093454691114992,0.9745451611907785,0.28657686434490526,0.6948513416460029
0.0505,1.7498897797998791,1.0,2967.4446099447164,0.4340301055607815,1.3089972828034329,0.9748847069932779,0.2865483707515949,0.6955378801661204
0.051000000000000004,1.7492113609115383,1.0,2972.1789694673275,0.43720473409027466,1.3086496443584392,0.975215292942801,0.2865198771582846,0.6962225670835747
0.051500000000000004,1.7485329420231974,1.0,2976.8567515830996,0.4403615565817216,1.308302531193866,0.9755372376495137,0.2864913835649743,0.6969054504446914
0.052000000000000005,1.7478545231348566,1.0,2981.4804105754,0.4435006761760137,1.3079559207270606,0.9758508455042668,0.28646288997166397,0.6975865780903967
0.0525,1.7471761042465157,1.0,2986.050505935669,0.44662217419800515,1.3076098069269002,0.9761564062003729,0.28643439637835366,0.6982659651862091
0.053,1.7464976853581748,1.0,2990.5679779695865,0.44972614483960155,1.3072641804881604,0.9764541979142707,0.28640590278504335,0.6989436332555459
0.0535,1.745819266469834,1.0,2995.037683911989,0.45281272661291716,1.3069189981590972,0.9767444891350994,0.28637740919173305,0.6996196701818116
0.054,1.7451408475814931,1.0,2999.4607233757665,0.45588201194191347,1.3065742494112373,0.9770275341286174,0.2863489155984227,0.7002940994832156
0.0545,1.7444624286931523,1.0,3003.8382008273766,0.4589340932505519,1.306229923716108,0.9773035763434915,0.2863204220051124,0.7009669445817179
0.055,1.7437840098048114,1.0,3008.1712254863437,0.46196906296279405,1.305886010545236,0.9775728489619301,0.28629192841180207,0.7016382288033158
0.0555,1.7431055909164705,1.0,3012.4609112280123,0.4649870135026013,1.305542499370148,0.977835575417858,0.28626343481849176,0.7023079753783261
0.056,1.7424271720281297,1.0,3016.708376488303,0.4679880372939352,1.3051993796623718,0.9780919698848036,0.28623494122518145,0.7029762074416565
0.0565,1.7417487531397888,1.0,3020.9147441713476,0.4709722267607572,1.3048566408934337,0.9783422377354986,0.28620644763187114,0.7036429480330741
0.057,1.741070334251448,1.0,3025.0811415590942,0.47393967432702877,1.3045142725348609,0.9785865759750514,0.28617795403856083,0.7043082200974633
0.0575,1.7403919153631071,1.0,3029.208700223715,0.47689047241671145,1.3041722640581803,0.9788251736494159,0.28614946044525047,0.7049720464850786
0.058,1.7397134964747663,1.0,3033.298555942579,0.47982471345376665,1.3038306049349189,0.9790582122307494,0.28612096685194016,0.7056344499517897
0.0585,1.7390350775864254,1.0,3037.351848614986,0.4827424898621559,1.3034892846366037,0.9792858659811453,0.28609247325862985,0.7062954531593193
0.059000000000000004,1.7383566586980845,1.0,3041.369722182229,0.4856438940658407,1.303148292634762,0.9795083022961115,0.28606397966531955,0.7069550786754744
0.059500000000000004,1.7376782398097437,1.0,3045.3533245496246,0.4885290184887825,1.30280761840092,0.9797256820290785,0.28603548607200924,0.7076133489743711
0.06,1.7369998209214028,1.0,3049.30380751121,0.4913979555549427,1.3024672514066054,0.979938159798121,0.28600699247869893,0.7082702864366499
0.0605,1.736321402033062,1.0,3053.222326676485,0.49425079768828295,1.3021271811233448,0.9801458842759994,0.2859784988853886,0.7089259133496864
0.061,1.735642983144721,1.0,3057.110041400231,0.4970876373127647,1.3017873970226652,0.9803489984645528,0.28595000529207826,0.7095802519077942
0.0615,1.7349645642563802,1.0,3060.9681147145143,0.4999085668523493,1.3014478885760938,0.980547639954397,0.28592151169876795,0.71023332421242
0.062,1.7342861453680394,1.0,3064.797713262694,0.5027136787309984,1.3011086452551575,0.9807419411708234,0.28589301810545764,0.7108851522723334
0.0625,1.7336077264796985,1.0,3068.5976273632295,0.5055030120072195,1.3007696769333112,0.9809320266962785,0.28586452451214733,0.711535718869361
0.063,1.7329293075913577,1.0,3072.3707916094704,0.5082767123907377,1.300430957957975,0.9811180225774339,0.285836030918837,0.7121850749376706
0.0635,1.7322508887030168,1.0,3076.118257851537,0.5110348755227432,1.3000924788637929,0.9813000473645637,0.2858075373255267,0.712833240208495
0.064,1.731572469814676,1.0,3079.8405350369408,0.513777583776982,1.299754234857464,0.9814782145818461,0.2857790437322164,0.713480225398649
0.0645,1.730894050926335,1.0,3083.5381338401944,0.5165049195272,1.2994162211456874,0.9816526336698208,0.28575055013890605,0.7141260411825152
0.065,1.7302156320379942,1.0,3087.211566638321,0.5192169651471431,1.2990784329351621,0.9818234101619961,0.28572205654559574,0.7147706981921165
0.0655,1.7295372131496534,1.0,3090.8613474863973,0.5219138030105572,1.2987408654325865,0.9819906458525895,0.28569356295228543,0.7154142070171852
0.066,1.7288587942613125,1.0,3094.4879920938356,0.5245955154911883,1.2984035138446597,0.9821544389559036,0.2856650693589751,0.7160565782052296
0.0665,1.7281803753729716,1.0,3098.0920178012934,0.5272621849627823,1.2980663733780806,0.9823148842578144,0.2856365757656648,0.7166978222616028
0.067,1.7275019564846308,1.0,3101.6739435579434,0.5299138937990852,1.297729439239548,0.982472073259813,0.2856080821723545,0.7173379496495673
0.0675,1.72682353759629,1.0,3105.234289899329,0.5325507243738425,1.297392706635761,0.982626094316018,0.2855795885790442,0.717976970790358
0.068,1.726145118707949,1.0,3108.7735789255134,0.5351727590608006,1.297056170773418,0.9827770327635473,0.28555109498573383,0.7186148960632458
0.0685,1.7254666998196082,1.0,3112.2923342803756,0.5377800802337053,1.2967198268592184,0.9829249710466175,0.2855226013924235,0.7192517358055979
0.069,1.7247882809312673,1.0,3115.791081130322,0.5403727702663024,1.2963836700998608,0.9830699888347086,0.2854941077991132,0.7198875003129366
0.0695,1.7241098620429265,1.0,3119.2703461445635,0.5429509115323378,1.296047695702044,0.9832121631351234,0.2854656142058029,0.7205221998389988
0.07,1.7234314431545856,1.0,3122.730657475448,0.5455145864055575,1.295711898872467,0.9833515684002376,0.2854371206124926,0.7211558445957904
0.07050000000000001,1.7227530242662448,1.0,3126.1725447390495,0.5480638772597074,1.2953762748178288,0.9834882766297303,0.2854086270191823,0.7217884447536431
