Time [s],Phi [rad],STIM [ ],Fsee [N],Gamma [ ],Lcerel [ ],q [ ],Lmtc [m],fisomrel [ ]
0.0,1.8,1.0,17.975666497568383,9.645992874812438e-05,1.379338793115041,0.005002435847971022,0.288653,0.5411418368559445
0.0005,1.79999375,1.0,18.31367416410536,0.005705128173649307,1.3792982876534912,0.013182287199873993,0.2886527375,0.5412398245635506
0.001,1.799975,1.0,21.71959064827883,0.011282336224200353,1.3789279771650422,0.036060535199223,0.28865195,0.5421351662041112
0.0015,1.79994375,1.0,31.307896228260834,0.016828260548144826,1.3780259095955047,0.07121945899598907,0.2886506375,0.5443125372273319
0.002,1.7999,1.0,54.095081041412804,0.022343076621457857,1.3763349499782553,0.11544887774137447,0.2886488,0.5483801193394899
0.0025,1.79984375,1.0,97.97909309363509,0.027826958936477148,1.3738938097925317,0.16536963362991713,0.28864643749999996,0.5542200860931955
0.003,1.7997750000000001,1.0,162.07635726775555,0.033280081008833944,1.3711725612647137,0.21810013491912658,0.28864354999999997,0.5606853627684707
0.0035,1.79969375,1.0,238.94618030791514,0.038702615377683824,1.3685458866829936,0.2714280101221805,0.2886401375,0.5668811524523152
0.004,1.7996,1.0,322.80998140614656,0.04409473361630405,1.3661205529775107,0.3237049633482639,0.2886362,0.572562948620669
0.0045000000000000005,1.7994937500000001,1.0,410.6584507823376,0.04945660633733338,1.3638901968219674,0.3737835611412801,0.2886317375,0.5777548617884879
0.005,1.799375,1.0,500.8323603569608,0.05478840318433634,1.3618282131550308,0.4209482102671691,0.28862675,0.5825266076691251
0.0055,1.79924375,1.0,592.2215271457305,0.06009029287455103,1.3599108915310734,0.4648224560226645,0.2886212375,0.5869392543281504
0.006,1.7991000000000001,1.0,683.9504603566214,0.06536244315319595,1.3581203920459184,0.5052761506130965,0.2886152,0.5910388545946357
0.006500000000000001,1.79894375,1.0,775.3054598579251,0.07060502083854267,1.3564429527300645,0.5423458612374294,0.2886086375,0.5948610377840338
0.007,1.798775,1.0,865.6941734363724,0.07581819179333717,1.3548676546935863,0.5761735184316599,0.28860155,0.5984341442993419
0.0075,1.79859375,1.0,954.6309842284594,0.08100212102893918,1.353385441635727,0.6069616683011532,0.2885939375,0.6017816633926092
0.008,1.7984,1.0,1041.7136421461757,0.0861569724347239,1.3519887004315432,0.6349425601339679,0.2885858,0.6049233251546982
0.0085,1.79819375,1.0,1126.6418082705832,0.09128290930470447,1.350670453375716,0.6603573055379733,0.2885771375,0.6078770189071105
0.009000000000000001,1.797975,1.0,1209.1682280339992,0.096380093645832,1.3494247132343895,0.6834432222597225,0.28856795,0.6106580669039052
0.0095,1.79774375,1.0,1289.1195614162527,0.10144868683892809,1.34824588647295,0.704425840947906,0.2885582375,0.6132806203911645
0.01,1.7975,1.0,1366.3504875395272,0.10648884877095117,1.347129178193316,0.723515021422099,0.288548,0.615756803720769
0.0105,1.79724375,1.0,1440.8150243183823,0.11150074023838356,1.3460694870045402,0.7409025908215293,0.2885372375,0.618099203330403
0.011,1.796975,1.0,1512.440536135171,0.11648451893378292,1.3450628953830366,0.7567627955137697,0.28852595000000003,0.6203175963962868
0.0115,1.79669375,1.0,1581.1936251291315,0.12144034207835384,1.3441056712205754,0.7712523398305694,0.2885141375,0.6224211958987157
0.012,1.7964,1.0,1647.0875245804255,0.1263683667835621,1.343194104860577,0.7845113984761282,0.28850180000000003,0.6244190254749592
0.0125,1.79609375,1.0,1710.1605377284645,0.13126874938190541,1.3423247041018942,0.7966650390024302,0.2884889375,0.6263195056171894
0.013000000000000001,1.7957750000000001,1.0,1770.4525604614266,0.13614164513698332,1.3414943945741729,0.8078247106661047,0.28847555,0.6281300334005713
0.0135,1.79544375,1.0,1827.9987278735655,0.14098720748748322,1.3407005175012139,0.8180896216553604,0.2884616375,0.6298570069336896
0.014,1.7951000000000001,1.0,1882.8616552806777,0.14580558987209252,1.3399404141068176,0.8275479020225881,0.2884472,0.6315067438038435
0.0145,1.79474375,1.0,1935.1131431580586,0.15059694444948052,1.3392115971838325,0.8362779103904473,0.2884322375,0.6330851158673257
0.015,1.794375,1.0,1984.8530492801879,0.15536142457473487,1.338511515179752,0.8443492800067355,0.28841675,0.63459806789129
0.0155,1.79399375,1.0,2032.1392190165302,0.1600991796563705,1.3378382733720444,0.851824171776654,0.2884007375,0.6360500671077671
0.016,1.7936,1.0,2077.0448693607614,0.16481035907829594,1.3371899806663372,0.8587579405660503,0.2883842,0.637445525951005
0.0165,1.7931937500000001,1.0,2119.657598035368,0.16949511222441982,1.3365647459682577,0.8651999409766128,0.2883671375,0.638788813046308
0.017,1.792775,1.0,2160.0592878997186,0.17415358699384048,1.335960870812496,0.8711942933322244,0.28834955,0.6400838433766245
0.0175,1.7923437500000001,1.0,2198.35672632767,0.17878593290083195,1.3353765190229026,0.8767804092642504,0.2883314375,0.641334791097196
0.018000000000000002,1.7919,1.0,2234.620804523406,0.18339229534585866,1.3348103232215374,0.8819937063569578,0.2883128,0.6425447942101075
0.0185,1.79144375,1.0,2268.924293397876,0.18797281917051073,1.3342609805599464,0.8868659649645749,0.2882936375,0.6437168267700994
0.019,1.790975,1.0,2301.3474309679045,0.19252764921637827,1.333727188189675,0.8914257327249472,0.28827395,0.6448538388488942
0.0195,1.79049375,1.0,2331.9751353754937,0.19705693002303573,1.3332076644632411,0.8956987003217292,0.2882537375,0.6459587128282912
0.02,1.79,1.0,2360.886665648188,0.20156080487291952,1.332701243533188,0.8997080471256007,0.288233,0.6470340642585152
0.0205,1.78949375,1.0,2388.170141971735,0.20603941827379152,1.3322067256112222,0.9034746896627445,0.2882117375,0.6480825620493307
0.021,1.788975,1.0,2413.886383619431,0.21049291031982645,1.3317232228641707,0.9070176050293323,0.28818995000000003,0.64910619710653
0.021500000000000002,1.78844375,1.0,2438.100085810759,0.21492142110519907,1.33124984745886,0.9103539770184919,0.2881676375,0.6501069469339347
0.022,1.7879,1.0,2460.8795004979183,0.2193250907240841,1.3307857115621178,0.9134993903007732,0.2881448,0.6510867762319625
0.0225,1.78734375,1.0,2482.2954686849184,0.2237040591511605,1.330329933688204,0.9164680025587341,0.28812143749999997,0.6520476240738099
0.023,1.786775,1.0,2502.4067224434307,0.22805846367026947,1.3298817754017638,0.9192727199869123,0.28809755,0.652991116893432
0.0235,1.78619375,1.0,2521.2983058641053,0.23238844615070636,1.329440272760921,0.9219252613103408,0.28807313749999996,0.6539193452908483
0.024,1.7856,1.0,2539.0181053532615,0.23669414157034324,1.3290048364336102,0.92443638476503,0.2880482,0.6548336020513181
0.0245,1.78499375,1.0,2555.615825352752,0.24097568490705212,1.3285748770877666,0.9268159200509618,0.2880227375,0.6557351726618594
0.025,1.784375,1.0,2571.142839163616,0.24523321113870505,1.328149805391325,0.9290728612056801,0.28799675,0.6566253355281746
0.025500000000000002,1.78374375,1.0,2585.6520474701447,0.24946685524317413,1.3277290320122204,0.931215449059929,0.2879702375,0.6575053621694293
0.026000000000000002,1.7831000000000001,1.0,2599.1969226667607,0.25367675191782935,1.327311975274101,0.933251245670502,0.2879432,0.6583765014099692
0.0265,1.78244375,1.0,2611.8236922097663,0.25786303284906514,1.3268981325253961,0.9351872095798162,0.2879156375,0.6592398308399507
0.027,1.781775,1.0,2623.592645413478,0.2620258352683923,1.3264868806263905,0.9370297255065008,0.28788755,0.660096673401942
0.0275,1.7810937500000001,1.0,2634.5406103874316,0.26616528870677,1.3260778234776158,0.9387847052928399,0.2878589375,0.6609478732018521
0.028,1.7804,1.0,2644.7051943738243,0.2702815226951573,1.3256705649796041,0.9404576003433254,0.2878298,0.6617942701079893
0.0285,1.77969375,1.0,2654.1247166358094,0.2743746667645135,1.325264709032887,0.9420534435259799,0.2878001375,0.662636699801503
0.029,1.778975,1.0,2662.838144824419,0.2784448504457976,1.324859859537997,0.9435768867553417,0.28776995,0.663475993816814
0.029500000000000002,1.7782437500000001,1.0,2670.885034823856,0.28249220326996877,1.3244556203954656,0.9450322347491615,0.2877392375,0.6643129795720457
0.03,1.7775,1.0,2678.292091092766,0.2865168504009057,1.3240517183093352,0.9464234902833829,0.287708,0.6651482265968345
0.0305,1.77674375,1.0,2685.102883447226,0.29051892395705226,1.3236477291817086,0.947754347996009,0.2876762375,0.6659826128683783
0.031,1.775975,1.0,2691.358848391887,0.2944985535694706,1.3232432525731823,0.9490282401834986,0.28764395,0.6668169632203759
0.0315,1.7751937500000001,1.0,2697.0842383833956,0.2984558625002615,1.3228380487421045,0.9502483747416663,0.2876111375,0.6676517674884903
0.032,1.7744,1.0,2702.3035834783377,0.30239097401152604,1.322431877946823,0.9514177357497883,0.2875778,0.668487513021955
0.0325,1.77359375,1.0,2707.0416658298204,0.30630401136536506,1.3220245004456856,0.952539101826702,0.2875439375,0.6693246846706206
0.033,1.772775,1.0,2711.3234954576283,0.31019509782387966,1.3216156764970401,0.9536150627703689,0.28750955,0.6701637647683394
0.0335,1.7719437500000002,1.0,2715.1742872932327,0.3140643566491707,1.3212051663592344,0.9546480346597415,0.2874746375,0.6710052331126805
0.034,1.7711000000000001,1.0,2718.619439498942,0.31791191110333916,1.3207927302906162,0.9556402735773912,0.2874392,0.6718495669409821
0.0345,1.7702437500000001,1.0,2721.6845130614083,0.321737884448486,1.3203781285495335,0.956593888093457,0.2874032375,0.6726972409027379
0.035,1.7693750000000001,1.0,2724.389725910587,0.3255423938740545,1.319961171313535,0.9575108544986136,0.28736675,0.6735486251647662
0.035500000000000004,1.76849375,1.0,2726.760831116117,0.3293255671696758,1.319541619479976,0.9583930204303598,0.2873297375,0.6744041882018947
0.036000000000000004,1.7676,1.0,2728.81497033487,0.3330875228302774,1.3191193132394816,0.9592421231206174,0.2872922,0.675264234431
0.0365,1.76669375,1.0,2730.568052745117,0.33682837773544533,1.31869410474807,0.9600597925120286,0.2872541375,0.6761290420880937
0.037,1.765775,1.0,2732.0360603069894,0.3405482487647659,1.318265846161759,0.9608475583106754,0.28721555,0.67699888764968
0.0375,1.76484375,1.0,2733.235039013768,0.3442472527978252,1.3178343896365665,0.9616068572681448,0.2871764375,0.6778740458046915
0.038,1.7639,1.0,2734.181090627566,0.34792550671420935,1.3173995873285107,0.9623390398569647,0.28713679999999997,0.6787547894250354
0.0385,1.76294375,1.0,2734.8903649001254,0.35158312739350456,1.3169612913936097,0.9630453763960536,0.28709663750000003,0.6796413895347424
0.039,1.761975,1.0,2735.379052277515,0.355220231715297,1.3165193539878812,0.9637270626769971,0.28705595,0.6805341152777243
0.0395,1.7609937500000001,1.0,2735.653886746625,0.3588369243162418,1.3160737134338276,0.9643852306549193,0.2870147375,0.6814330601918068
0.04,1.76,1.0,2735.734575634018,0.36243333047516735,1.315624190510549,0.9650209407100153,0.286973,0.6823385534584205
0.0405,1.7589937500000001,1.0,2735.6402259735864,0.36600957421536534,1.3151706116590542,0.9656351933166778,0.2869307375,0.6832509105435511
0.041,1.757975,1.0,2735.379143081739,0.3695657647909889,1.3147129015504893,0.9662289387211708,0.28688795,0.6841702474415563
0.0415,1.75694375,1.0,2734.959646454027,0.3731020114561911,1.314250984856,0.9668030744770584,0.2868446375,0.685096678944624
0.042,1.7559,1.0,2734.3900672995633,0.3766184234651251,1.3137847862467322,0.9673584489074496,0.28680079999999997,0.6860303186227441
0.0425,1.75484375,1.0,2733.6787462013867,0.38011511007194393,1.3133142303938319,0.9678958643055305,0.2867564375,0.686971278803319
0.043000000000000003,1.753775,1.0,2732.8340309022037,0.38359218053080074,1.312839241968445,0.9684160798956348,0.28671155,0.6879196705504107
0.043500000000000004,1.75269375,1.0,2731.864274216799,0.38704974409584864,1.3123597456417175,0.9689198145750062,0.28666613750000003,0.6888756036436273
0.044,1.7516,1.0,2730.7778320691073,0.39048791002124067,1.3118756660847952,0.9694077494545342,0.2866202,0.6898391865566496
0.0445,1.75049375,1.0,2729.5830616564067,0.39390678756113,1.311386927968824,0.9698805302150602,0.2865737375,0.6908105264353905
0.045,1.7493750000000001,1.0,2728.288319738047,0.3973064859696698,1.3108934559649499,0.9703387692943231,0.28652675,0.6917897290757965
0.0455,1.74824375,1.0,2726.901961050739,0.4006871145010131,1.3103951747443188,0.9707830479182684,0.2864792375,0.6927768989012877
0.046,1.7471,1.0,2725.4323368498217,0.40404878240931297,1.3098920089780766,0.9712139179891881,0.2864312,0.6937721389398332
0.0465,1.7459437500000001,1.0,2723.8832116784984,0.40739158401147096,1.309383925027982,0.9716319048915468,0.28638263750000004,0.6947754685404338
0.047,1.744775,1.0,2722.263648258018,0.41071564036054853,1.3088708410281056,0.9720375081171196,0.28633355,0.6957870011562205
0.0475,1.74359375,1.0,2720.57957073592,0.41402106017670703,1.3083527036177394,0.9724312030845379,0.28628393750000003,0.6968067926391281
0.048,1.7424,1.0,2718.8348868849725,0.4173079446026903,1.3078294777566364,0.9728134424861823,0.2862338,0.6978348616839174
0.0485,1.74119375,1.0,2717.033501692029,0.420576394781242,1.3073011284045502,0.9731846572947834,0.2861831375,0.6988712260245222
0.049,1.739975,1.0,2715.17931693838,0.42382651185510584,1.3067676205212337,0.9735452580020444,0.28613195,0.6999159024226413
0.0495,1.73874375,1.0,2713.2762308085407,0.4270583969670256,1.306228919066441,0.9738956357756845,0.2860802375,0.7009689066562474
0.05,1.7375,1.0,2711.3281375257357,0.4302721512597449,1.3056849889999245,0.9742361635409653,0.286028,0.7020302535080232
0.0505,1.73624375,1.0,2709.338927014476,0.4334678758760075,1.305135795281438,0.9745671969922666,0.2859752375,0.7030999567537131
0.051000000000000004,1.734975,1.0,2707.3124845907837,0.4366456719585571,1.3045813028707347,0.9748890755398231,0.28592195,0.7041780291504011
0.051500000000000004,1.73369375,1.0,2705.252690679314,0.43980564065013744,1.3040214767275682,0.9752021231963142,0.2858681375,0.705264482424709
0.052000000000000005,1.7324,1.0,2703.163420557728,0.44294788309349226,1.3034562818116915,0.9755066494076261,0.2858138,0.7063593272609161
0.0525,1.73109375,1.0,2701.0485441284245,0.4460725004313652,1.3028856830828581,0.9758029498317596,0.28575893750000003,0.7074625732890001
0.053,1.729775,1.0,2698.9117825249446,0.4491795910764636,1.3023096468097424,0.9760913068688044,0.28570355000000003,0.7085742265490078
0.0535,1.72844375,1.0,2696.7552455583714,0.45226922431333866,1.3017281539454864,0.9763719885123915,0.2856476375,0.7096942637648243
0.054,1.7271,1.0,2694.5836952313075,0.4553415454259541,1.3011411611519679,0.9766452573160507,0.2855912,0.7108227074618767
0.0545,1.7257437500000001,1.0,2692.39858000704,0.45839664689897686,1.3005486553483963,0.9769113610657242,0.2855342375,0.7119595209447415
0.055,1.724375,1.0,2690.2013461536017,0.4614346212170738,1.2999506234539795,0.977170537002203,0.28547675,0.7131046667396972
0.0555,1.72299375,1.0,2687.993437707338,0.46445556086491185,1.2993470523879267,0.9774230123552913,0.2854187375,0.7142581065901143
0.056,1.7216,1.0,2685.776296440177,0.4674595583271578,1.2987379290694465,0.9776690048466385,0.2853602,0.7154198014518443
0.0565,1.72019375,1.0,2683.551361830881,0.47044670608847866,1.2981232404177474,0.9779087231633192,0.28530113749999997,0.7165897114885905
0.057,1.718775,1.0,2681.32007104013,0.4734170966335412,1.297502973352038,0.978142367404083,0.28524155,0.7177677960672721
0.0575,1.71734375,1.0,2679.0838588888123,0.4763708224470124,1.2968771147915272,0.9783701295000667,0.2851814375,0.718954013753375
0.058,1.7159,1.0,2676.844157840983,0.47930797601355907,1.2962456516554237,0.9785921936116151,0.2851208,0.7201483223062926
0.0585,1.71444375,1.0,2674.602397990134,0.48222864981784813,1.2956085708629361,0.9788087365027549,0.2850596375,0.7213506786746571
0.059000000000000004,1.7129750000000001,1.0,2672.360007049189,0.48513293634454646,1.294965859333273,0.9790199278947402,0.28499795,0.7225610389916577
0.059500000000000004,1.71149375,1.0,2670.118410344489,0.488020928078321,1.294317503985643,0.9792259307999985,0.2849357375,0.7237793585703478
0.06,1.71,1.0,2667.879030813506,0.49089271750383856,1.293663491739255,0.9794269018377068,0.284873,0.7250055918989429
0.0605,1.7084937500000001,1.0,2665.643289006413,0.49374839710576607,1.2930038095133174,0.9796229915321423,0.2848097375,0.7262396926361085
0.061,1.7069750000000001,1.0,2663.4126030912576,0.4965880593687704,1.2923384442270391,0.9798143445948736,0.28474595,0.7274816136062319
0.0615,1.7054437500000001,1.0,2661.188388862993,0.4994117967775184,1.2916673827996288,0.9800011001917849,0.2846816375,0.7287313067946901
0.062,1.7039,1.0,2658.9683901790268,0.5022196594027113,1.290990645944851,0.9801833906989115,0.2846168,0.729988660626908
0.0625,1.70234375,1.0,2656.754914567589,0.505011768800941,1.2903082123650131,0.9803613468120838,0.2845514375,0.7312536410504797
0.063,1.7007750000000001,1.0,2654.5505684990903,0.5077882397648987,1.2896200579716912,0.980535093634349,0.28448555,0.7325262181775326
0.0635,1.69919375,1.0,2652.355527447151,0.5105491550166442,1.288926181052616,0.9807047503578549,0.28441913750000003,0.7338063198416803
0.064,1.6976,1.0,2650.1699666169375,0.5132945972782375,1.2882265798955193,0.9808704317904793,0.2843522,0.7350938732198082
0.0645,1.69599375,1.0,2647.994060948914,0.5160246492717381,1.2875212527881321,0.9810322485475425,0.2842847375,0.7363888048314511
0.065,1.694375,1.0,2645.827985121324,0.5187393937192061,1.286810198018186,0.9811903072337768,0.28421675,0.737691040538166
0.0655,1.69274375,1.0,2643.6719135533876,0.5214389133427013,1.2860934138734124,0.9813447106161204,0.2841482375,0.7390005055429094
0.066,1.6911,1.0,2641.5260204085953,0.5241232908642834,1.2853708986415426,0.9814955577878566,0.2840792,0.7403171243894082
0.0665,1.6894437500000001,1.0,2639.390479598001,0.5267926090060124,1.2846426506103077,0.9816429443245913,0.2840096375,0.7416408209615379
0.067,1.687775,1.0,2637.2654647830673,0.5294469504899482,1.2839086680674394,0.9817869624325303,0.28393955,0.7429715184826929
0.0675,1.68609375,1.0,2635.1511493797007,0.5320863980381505,1.2831689493006688,0.981927701089485,0.2838689375,0.7443091395151634
0.068,1.6844000000000001,1.0,2633.047706561128,0.5347110343726791,1.2824234925977274,0.9820652461790154,0.2837978,0.7456536059595071
0.0685,1.68269375,1.0,2630.9553092615793,0.537320942215594,1.2816722962463465,0.982199680618085,0.2837261375,0.7470048390539236
0.069,1.680975,1.0,2628.8741301799073,0.5399162042889548,1.2809153585342576,0.9823310844785875,0.28365395,0.7483627593736272
0.0695,1.67924375,1.0,2626.8043417831104,0.5424969033148217,1.2801526777491918,0.9824595351030754,0.28358123749999997,0.7497272868302216
0.07,1.6775,1.0,2624.7461163100497,0.5450631220152542,1.2793842521788805,0.9825851072150095,0.283508,0.7510983406710705
0.07050000000000001,1.67574375,1.0,2622.699625775198,0.5476149431123123,1.2786100801110554,0.9827078730238199,0.2834342375,0.7524758394786712
0.07100000000000001,1.673975,1.0,2620.665041972453,0.5501524493280558,1.2778301598334474,0.9828279023250559,0.28335995,0.753859701170029
0.07150000000000001,1.67219375,1.0,2618.6425364789884,0.5526757233845445,1.277044489633788,0.982945262595888,0.2832851375,0.7552498429960266
0.07200000000000001,1.6704,1.0,2616.632280659356,0.5551848480038384,1.2762530677998085,0.9830600190862057,0.2832098,0.7566461815407985
0.0725,1.66859375,1.0,2614.6346988302134,0.5576798958229237,1.2754558902680988,0.9831722342035845,0.2831339375,0.7580486368514321
0.073,1.6667750000000001,1.0,2612.650761349336,0.5601609085339004,1.2746529478966935,0.9832819662900005,0.28305755,0.7594571371545159
0.0735,1.66494375,1.0,2610.6785723018174,0.5626280281538284,1.2738442581702034,0.9833892788065572,0.2829806375,0.7608715633520758
0.074,1.6631,1.0,2608.717973028539,0.5650813279152962,1.2730298224479646,0.9834942284927081,0.2829032,0.7622918241518908
0.0745,1.6612437500000001,1.0,2606.7688051585314,0.5675208810508923,1.2722096420893125,0.9835968702783323,0.2828252375,0.76371782765819
0.075,1.659375,1.0,2604.8309106057977,0.5699467607932053,1.2713837184535823,0.9836972573516083,0.28274675,0.7651494813721517
0.0755,1.65749375,1.0,2602.904131566142,0.5723590403748239,1.27055205290011,0.9837954412239103,0.2826677375,0.7665866921923983
