Time [s],Phi [rad],STIM [ ],Fsee [N],Gamma [ ],Lcerel [ ],q [ ],Lmtc [m],fisomrel [ ]
0.0,1.8,1.0,17.970975380175688,7.392333543394964e-05,1.3793393185869636,0.005001433614491602,0.288653,0.5411405656057977
0.0005,1.79999375,1.0,18.301669822290425,0.00568271799279649,1.3792996199754186,0.013118932999091518,0.2886527375,0.5412366016789
0.001,1.799975,1.0,21.690895735310335,0.011260051746741245,1.378930902058059,0.03594245963195281,0.28865195,0.5421280977852863
0.0015,1.79994375,1.0,31.243199424213053,0.016806101068976773,1.378031403331697,0.07105825193097551,0.2886506375,0.5442992923949869
0.002,1.7999,1.0,53.95863558713711,0.022321041439464277,1.3763437653712731,0.11525822536938556,0.2886488,0.5483589613079469
0.0025,1.79984375,1.0,97.7520450339125,0.027805047354417897,1.3739047088836442,0.1651623855935909,0.28864643749999996,0.5541940965390219
0.003,1.7997750000000001,1.0,161.7823607643925,0.033258292333428585,1.3711835327844728,0.2178864303093581,0.28864354999999997,0.5606593909108362
0.0035,1.79969375,1.0,238.61479950775524,0.03868094891953214,1.368556070611153,0.2712155271647227,0.2886401375,0.5668572156111824
0.004,1.7996,1.0,322.45791538793253,0.04407318868985818,1.3661298609795811,0.32349927101513404,0.2886362,0.5725412146016347
0.0045000000000000005,1.7994937500000001,1.0,410.2942203524199,0.04943518226085356,1.3638987341025088,0.37358833922741186,0.2886317375,0.5777350488475497
0.005,1.799375,1.0,500.460974103846,0.0547670992797315,1.361836095356751,0.4207655885858594,0.28862675,0.5825084186765951
0.0055,1.79924375,1.0,591.8471489194801,0.06006910846831438,1.3599181982856041,0.46465339051112664,0.2886212375,0.5869224825983563
0.006,1.7991000000000001,1.0,683.5760936984964,0.06534137757485813,1.3581271908364132,0.5051207868026969,0.2886152,0.5910233264783777
0.006500000000000001,1.79894375,1.0,774.9327440682096,0.07058407342448748,1.3564493101507828,0.5422038197726033,0.2886086375,0.5948465857558387
0.007,1.798775,1.0,865.3122089982563,0.07579736165482787,1.3548738203025132,0.5760442165569908,0.28860155,0.5984201902547817
0.0075,1.79859375,1.0,954.2621872195839,0.08098140787724045,1.353391110537812,0.6068440079848241,0.2885939375,0.6017688870945533
0.008,1.7984,1.0,1041.3669736682707,0.08613637575306407,1.351993801529839,0.6348355273725906,0.2885858,0.6049118739941721
0.0085,1.79819375,1.0,1126.2960085336317,0.09126242798552314,1.3506753461190424,0.6602601353299606,0.2885771375,0.607866076608067
0.009000000000000001,1.797975,1.0,1208.8263317285496,0.0963597270724544,1.3494293827208996,0.6833549591173941,0.28856795,0.6106476610053924
0.0095,1.79774375,1.0,1288.7913380211023,0.1014284346331779,1.348250227954492,0.7043455419054596,0.2885582375,0.6132709780919785
0.01,1.7975,1.0,1366.050098512135,0.10646871063485196,1.3471330375441186,0.723441794827304,0.288548,0.6157482597110764
0.0105,1.79724375,1.0,1440.512593557825,0.11148071445019009,1.3460732708380336,0.7408359028956112,0.2885372375,0.6180908520773758
0.011,1.796975,1.0,1512.141370820945,0.11646460522918929,1.3450665486460558,0.7567019454858259,0.28852595000000003,0.6203095567777399
0.0115,1.79669375,1.0,1580.9093718474787,0.12142054035889363,1.3441090660648514,0.7711966666590112,0.2885141375,0.6224137457014534
0.012,1.7964,1.0,1646.8170955990572,0.12634867633294877,1.343197269324136,0.7844603795686046,0.28850180000000003,0.6244120992616595
0.0125,1.79609375,1.0,1709.8881556657975,0.13124916895103678,1.3423278320874281,0.7966182777074474,0.2884889375,0.6263126765890359
0.013000000000000001,1.7957750000000001,1.0,1770.1876207132088,0.13612217455452205,1.3414973848317437,0.807781736631281,0.28847555,0.6281235208963007
0.0135,1.79544375,1.0,1827.7526152574217,0.14096784654966768,1.3407032511828096,0.8180500102618702,0.2884616375,0.6298510670709927
0.014,1.7951000000000001,1.0,1882.6317767412315,0.14578633766162347,1.3399429299864427,0.8275113337386992,0.2884472,0.6315012893884966
0.0145,1.79474375,1.0,1934.8979714788939,0.1505778006155392,1.339213920088459,0.8362440973974019,0.2884322375,0.6330800906193259
0.015,1.794375,1.0,1984.629486211039,0.15534238700897815,1.3385138982425746,0.8443180417606823,0.28841675,0.6345929231397189
0.0155,1.79399375,1.0,2031.9235082755683,0.16008024884126432,1.3378405458199991,0.8517952114790045,0.2884007375,0.6360451709185111
0.016,1.7936,1.0,2076.844768486459,0.16479153492181145,1.3371920657519196,0.8587310228119894,0.2883842,0.6374410420725546
0.0165,1.7931937500000001,1.0,2119.469441779233,0.16947639389192445,1.3365666867773724,0.8651748913722622,0.2883671375,0.6387846471674173
0.017,1.792775,1.0,2159.885425572321,0.17413497429040156,1.3359626473270534,0.8711709383648752,0.28834955,0.6400800369929782
0.0175,1.7923437500000001,1.0,2198.17900433562,0.17876742328669476,1.3353783190881403,0.8767586496663275,0.2883314375,0.6413309409617779
0.018000000000000002,1.7919,1.0,2234.4515153711163,0.1833738894113303,1.3348120239023615,0.8819733719470408,0.2883128,0.6425411627882796
0.0185,1.79144375,1.0,2268.769768121676,0.1879545169223073,1.3342625211400991,0.8868469187190828,0.2882936375,0.6437135426054361
0.019,1.790975,1.0,2301.207826430027,0.1925094500776251,1.3337285701717358,0.8914078666836648,0.28827395,0.6448508974844669
0.0195,1.79049375,1.0,2331.846408419382,0.19703883313528286,1.3332089303676542,0.8956819270821228,0.2882537375,0.6459560227144253
0.02,1.79,1.0,2360.7639054706365,0.20154280918494064,1.332702443344527,0.899692289464485,0.288233,0.6470315184712432
0.0205,1.78949375,1.0,2388.0473026244063,0.20602152240676042,1.3322079193184708,0.9034598798336058,0.2882117375,0.6480800329786109
0.021,1.788975,1.0,2413.7720797623824,0.21047511500613836,1.3317243276929853,0.9070036518162373,0.28818995000000003,0.649103859746929
0.021500000000000002,1.78844375,1.0,2437.9981161528,0.2149037263779407,1.3312508281609863,0.910340807370258,0.2881676375,0.6501048751360357
0.022,1.7879,1.0,2460.788739297144,0.2193074959170335,1.3307865804153902,0.913486947267278,0.2881448,0.6510849432943003
0.0225,1.78734375,1.0,2482.2104395594174,0.22368656301828296,1.3303307441491132,0.9164562422709583,0.28812143749999997,0.652045916676955
0.023,1.786775,1.0,2502.332546610882,0.22804106706558516,1.329882479566183,0.9192615841167168,0.28809755,0.6529896354440907
0.0235,1.78619375,1.0,2521.2118597879276,0.23237114423942257,1.3294410903296463,0.921914743767085,0.28807313749999996,0.6539176275587175
0.024,1.7856,1.0,2538.930117808789,0.23667693594559666,1.3290056656720763,0.924426424828888,0.2880482,0.654831862103552
0.0245,1.78499375,1.0,2555.5333512880793,0.24095857636100704,1.3285756518358254,0.9268064680105675,0.2880227375,0.6557335491730308
0.025,1.784375,1.0,2571.0691989296615,0.24521619966255329,1.3281504950632463,0.9290638772361742,0.28799675,0.6566238921866911
0.025500000000000002,1.78374375,1.0,2585.5867751850756,0.24944994002713505,1.327729641596692,0.9312069022207519,0.2879702375,0.6575040880704843
0.026000000000000002,1.7831000000000001,1.0,2599.136544710046,0.2536599316316519,1.3273125376785142,0.9332431118913248,0.2879432,0.6583753274185307
0.0265,1.78244375,1.0,2611.7702036201435,0.25784630865300334,1.3268986295510665,0.9351794597645963,0.2879156375,0.6592387946353144
0.027,1.781775,1.0,2623.5328680237317,0.2620092010925597,1.3264874348417999,0.937022351473442,0.28788755,0.660095519420987
0.0275,1.7810937500000001,1.0,2634.4808635623244,0.26614874655342713,1.3260783762574915,0.938777675664702,0.2878589375,0.6609467236520339
0.028,1.7804,1.0,2644.649575857392,0.27026507385205056,1.3256710785741792,0.9404508888827295,0.2878298,0.6617932033811569
0.0285,1.77969375,1.0,2654.0746960125166,0.274358311618444,1.3252651701145601,0.9420470291077743,0.2878001375,0.6626357433365634
0.029,1.778975,1.0,2662.792542794545,0.2784285884826213,1.324860279201332,0.9435707529091334,0.28776995,0.6634751243534205
0.029500000000000002,1.7782437500000001,1.0,2670.840006196916,0.28247603307459646,1.3244560341571923,0.9450263692460558,0.2877392375,0.6643121234023817
0.03,1.7775,1.0,2678.254494065967,0.28650077402438334,1.3240520633048387,0.9464178698691842,0.287708,0.665147513609301
0.0305,1.77674375,1.0,2685.0709067213843,0.2905029380621078,1.323648022232028,0.9477489596205263,0.2876762375,0.665982007988829
0.031,1.775975,1.0,2691.3171484612008,0.29448264831802956,1.3232436342876228,0.949023085454068,0.28764395,0.6668161763154642
0.0315,1.7751937500000001,1.0,2697.0407036767956,0.29844004265973195,1.3228384468286476,0.9502434333409293,0.2876111375,0.6676509478611814
0.032,1.7744,1.0,2702.26399317359,0.3023752430221048,1.322432239615373,0.9514129906472186,0.2875778,0.6684867693131848
0.0325,1.77359375,1.0,2707.009677931236,0.3062883713400377,1.32202479240807,0.9525345390282735,0.2875439375,0.6693240850591182
0.033,1.772775,1.0,2711.300637055062,0.31017954954842064,1.321615884967009,0.953610671089273,0.28750955,0.6701633371711979
0.0335,1.7719437500000002,1.0,2715.1599468034124,0.31404889958214327,1.3212052970524613,0.9546438055063422,0.2874746375,0.6710049653872453
0.034,1.7711000000000001,1.0,2718.6108606899106,0.31789654337609535,1.3207928084246976,0.9556362007667555,0.2874392,0.6718494070886329
0.0345,1.7702437500000001,1.0,2721.67679066175,0.3217226028651667,1.3203781988439889,0.9565899676689519,0.2874032375,0.6726970972751325
0.035,1.7693750000000001,1.0,2724.3812893526374,0.325527199984247,1.3199612480706058,0.9575070807073526,0.28736675,0.6735484685366718
0.035500000000000004,1.76849375,1.0,2726.748033412099,0.3293104566682261,1.3195417358648194,0.9583893884531426,0.2873297375,0.6744039510219962
0.036000000000000004,1.7676,1.0,2728.7917166362404,0.3330724885847838,1.3191195246337941,0.9592386301209798,0.2872922,0.6752638042012158
0.0365,1.76669375,1.0,2730.5358828983194,0.33681342005404286,1.3186943971034886,0.9600564305341869,0.2872541375,0.6761284478789666
0.037,1.765775,1.0,2732.003911187683,0.34053337378825344,1.318266138250302,0.9608443144544371,0.28721555,0.6769982947807387
0.0375,1.76484375,1.0,2733.208829469929,0.34423246453275785,1.317834627709154,0.9616037215573459,0.2871764375,0.6778735632301771
0.038,1.7639,1.0,2734.163716808952,0.3479108070328984,1.3173997451149635,0.9623360050522878,0.28713679999999997,0.6787544700285593
0.0385,1.76294375,1.0,2734.8816971405813,0.3515685160340175,1.3169613701026497,0.963042437821837,0.28709663750000003,0.6796412304293722
0.039,1.761975,1.0,2735.3759333662733,0.35520570628145764,1.316519382307132,0.9637242180609739,0.28705595,0.6805340581119632
0.0395,1.7609937500000001,1.0,2735.659621769501,0.3588224925205611,1.3160736613633297,0.9643824744617783,0.2870147375,0.6814331651542703
0.04,1.76,1.0,2735.7459867521466,0.36241898949667023,1.3156240869061617,0.9650182709847206,0.286973,0.6823387620046291
0.0405,1.7589937500000001,1.0,2735.6482758927636,0.3659953119551276,1.3151705385705477,0.9656326112535625,0.2869307375,0.6832510574526496
0.041,1.757975,1.0,2735.379755325759,0.3695515746412754,1.3147128959914067,0.9662264426072137,0.28688795,0.6841702585991773
0.0415,1.75694375,1.0,2734.9458454372084,0.37308788552133065,1.3142511101769128,0.9668006647625358,0.2868446375,0.6850964277824549
0.042,1.7559,1.0,2734.3628843862352,0.37660436310808176,1.3137850331087213,0.9673561215272218,0.28680079999999997,0.6860298246076488
0.0425,1.75484375,1.0,2733.644427339735,0.3801011213632132,1.3133145421017804,0.9678936122526501,0.2867564375,0.686970655955203
0.043000000000000003,1.753775,1.0,2732.797597684134,0.3835782681979278,1.3128395729316624,0.9684138971676631,0.28671155,0.6879190102293848
0.043500000000000004,1.75269375,1.0,2731.8295238250053,0.3870359115234284,1.312360061373939,0.9689176961218505,0.28666613750000003,0.6888749746762406
0.044,1.7516,1.0,2730.7473375700283,0.39047415925091783,1.3118759432041827,0.9694056911296163,0.2866202,0.6898386353651194
0.0445,1.75049375,1.0,2729.5581726055343,0.39389311929159904,1.311387154197965,0.969878528729602,0.2865737375,0.6908100771699388
0.045,1.7493750000000001,1.0,2728.2691630626,0.3972928995566748,1.3108936301308582,0.9703368221745583,0.28652675,0.6917893837501821
0.0455,1.74824375,1.0,2726.8874421757405,0.40067360795734797,1.3103953067784344,0.9707811534653858,0.2864792375,0.6927766375316378
0.046,1.7471,1.0,2725.4201410324686,0.40403535240482147,1.3098921199162656,0.9712120752418438,0.2864312,0.6937719196868712
0.0465,1.7459437500000001,1.0,2723.8743874148954,0.4073782408102981,1.309384005319924,0.9716301125413096,0.28638263750000004,0.6947753101154377
0.047,1.744775,1.0,2722.252830490454,0.4107023709721129,1.3088709394882265,0.9720357660538375,0.28633355,0.6957868072055495
0.0475,1.74359375,1.0,2720.5655889168206,0.4140078593669941,1.3083528309155397,0.9724295095338673,0.28628393750000003,0.6968065423034842
0.048,1.7424,1.0,2718.819090069343,0.4172948132868388,1.3078296216252776,0.9728117949328822,0.2862338,0.697834579241194
0.0485,1.74119375,1.0,2717.0171026360713,0.4205633337451094,1.3073012778075728,0.9731830534022033,0.2861831375,0.6988709332201307
0.049,1.739975,1.0,2715.163392196576,0.4238135217552681,1.3067677656525574,0.973543695603085,0.28613195,0.6999156184838573
0.0495,1.73874375,1.0,2713.26172085194,0.4270454783307774,1.306229051350364,0.9738941128643188,0.2860802375,0.7009686483069391
0.05,1.7375,1.0,2711.3158468802585,0.4302593044850995,1.305685101091125,0.9742346782642876,0.286028,0.7020300349837649
0.0505,1.73624375,1.0,2709.3295244168603,0.4334551012316969,1.3051358810649725,0.9745657476430325,0.2859752375,0.7030997898172926
0.051000000000000004,1.734975,1.0,2707.3065031605593,0.4366329695840318,1.3045813574620386,0.9748876605494489,0.28592195,0.7041779231077228
0.051500000000000004,1.73369375,1.0,2705.250528104569,0.43979301055556663,1.3040214964724564,0.9752007411283043,0.2858681375,0.7052644441410976
0.052000000000000005,1.7324,1.0,2703.165339293409,0.44293532515976375,1.3034562642863574,0.9755052989514026,0.2858138,0.7063593611778329
0.0525,1.73109375,1.0,2701.0546716048325,0.44606001441008536,1.3028856270938745,0.9758016297968662,0.28575893750000003,0.7074626814411684
0.053,1.729775,1.0,2698.9189179321556,0.4491671648908354,1.3023095815851295,0.976090016792713,0.28570355000000003,0.7085743523017344
0.0535,1.72844375,1.0,2696.7605914842165,0.45225687691983907,1.3017281050589433,0.9763707309120501,0.2856476375,0.7096943578365411
0.054,1.7271,1.0,2694.587736831407,0.4553292737241023,1.3011411241781143,0.9766440305604447,0.2855912,0.7108227784717522
0.0545,1.7257437500000001,1.0,2692.401757887317,0.45838444812071705,1.300548626264331,0.9769101636501372,0.2855342375,0.711959576692039
0.055,1.724375,1.0,2690.2040564331855,0.4614224929267752,1.2999505986392828,0.9771693675412167,0.28547675,0.7131047142089793
0.0555,1.72299375,1.0,2687.996032083887,0.46444350095936865,1.299347028624658,0.9774218695762463,0.2854187375,0.7142581519565949
0.056,1.7216,1.0,2685.7790822569386,0.46744756503558943,1.2987379035421456,0.9776678875835265,0.2853602,0.7154198500868741
0.0565,1.72019375,1.0,2683.554602145817,0.47043477797252936,1.2981232107134344,0.9779076303510718,0.28530113749999997,0.7165897679652844
0.057,1.718775,1.0,2681.323984696121,0.4734052325872805,1.2975029374602134,0.978141298073236,0.28524155,0.7177678641662767
0.0575,1.71734375,1.0,2679.0886205855254,0.47635902169693467,1.2968770711041713,0.9783690827717659,0.2851814375,0.7189540964687782
0.058,1.7159,1.0,2676.849898207599,0.47929623811858385,1.296245598966997,0.9785911686929477,0.2851208,0.7201484218516747
0.0585,1.71444375,1.0,2674.609203658881,0.48221697466932,1.2956085083703792,0.9788077326823786,0.2850596375,0.721350796489284
0.059000000000000004,1.7129750000000001,1.0,2672.3679207295013,0.485121324166235,1.294965786636007,0.9790189445387921,0.28499795,0.7225611757468164
0.059500000000000004,1.71149375,1.0,2670.127430897583,0.48800937942642075,1.294317421085569,0.979224967348266,0.2849357375,0.7237795141758286
0.06,1.71,1.0,2667.889113326954,0.49088123326696925,1.293663399040754,0.9794259578000415,0.284873,0.7250057655096649
0.0605,1.7084937500000001,1.0,2665.654344868681,0.49373697850497245,1.293003707823251,0.9796220664851005,0.2848097375,0.726239882658887
0.061,1.7069750000000001,1.0,2663.424500065906,0.4965767079575222,1.2923383347547488,0.9798134381785699,0.28474595,0.7274818177066977
0.0615,1.7054437500000001,1.0,2661.1990215556425,0.49940049254744423,1.291667284919982,0.9800002113340183,0.2846816375,0.728731488862902
0.062,1.7039,1.0,2658.9791385258113,0.5022084300748081,1.2909905469592506,0.9801825203856587,0.2846168,0.7299888443251152
0.0625,1.70234375,1.0,2656.76760287604,0.505000634714578,1.2903080954649242,0.9803604951981231,0.2845514375,0.7312538574857412
0.063,1.7007750000000001,1.0,2654.564649169584,0.5077771903696805,1.289619928189639,0.9805342596623556,0.28448555,0.7325264578935853
0.0635,1.69919375,1.0,2652.370511597569,0.5105381809430422,1.2889260428860319,0.9807039330763238,0.28441913750000003,0.7338065744330959
0.064,1.6976,1.0,2650.185423982309,0.5132836903375894,1.288226437306739,0.9808696303474937,0.2843522,0.7350941353235476
0.0645,1.69599375,1.0,2648.0096197815747,0.5160138024562488,1.287521109204397,0.9810314621849385,0.2842847375,0.7363890681182181
0.065,1.694375,1.0,2645.8433320918716,0.5187286012019469,1.2868100563316427,0.9811895352816806,0.28421675,0.7376912997035713
0.0655,1.69274375,1.0,2643.686793652614,0.5214281704776101,1.2860932764411122,0.9813439524878285,0.2841482375,0.7390007562984355
0.066,1.6911,1.0,2641.5402368499513,0.5241125941861652,1.2853707672854424,0.9814948129750403,0.2840792,0.740317363453182
0.0665,1.6894437500000001,1.0,2639.4038937214195,0.5267819562305385,1.2846425266172696,0.9816422123928029,0.2840096375,0.7416410460489061
0.067,1.687775,1.0,2637.2779959592194,0.5294363405136564,1.2839085521892306,0.9817862430169891,0.28393955,0.7429717282966037
0.0675,1.68609375,1.0,2635.1627749156746,0.5320758309384457,1.2831688417539617,0.9819269938911288,0.2838689375,0.7443093337363513
0.068,1.6844000000000001,1.0,2633.058461606924,0.5347005114078327,1.2824233930640996,0.9820645509607963,0.2837978,0.7456537852364832
0.0685,1.68269375,1.0,2630.9652867177656,0.5373104658247441,1.2816722038722808,0.9821989972014965,0.2837261375,0.7470050049927688
0.069,1.680975,1.0,2628.883480606414,0.5399057780921063,1.2809152719311419,0.9823304127404058,0.28365395,0.7483629145275913
0.0695,1.67924375,1.0,2626.813273309308,0.5424865321128458,1.280152594993319,0.9824588749723039,0.28358123749999997,0.7497274346891243
0.07,1.6775,1.0,2624.754894545835,0.5450528117898892,1.2793841708114493,0.982584458670011,0.283508,0.7510984856505069
0.07050000000000001,1.67574375,1.0,2622.708573723524,0.5476047010261629,1.278609997138169,0.9827072360896248,0.2834342375,0.7524759869090225
0.07100000000000001,1.673975,1.0,2620.676475592132,0.5501422335871514,1.2778300537702076,0.982827273182468,0.28335995,0.7538598891009042
0.07150000000000001,1.67219375,1.0,2618.656875059205,0.5526655432679195,1.2770443565715497,0.9829446414273108,0.2832851375,0.7552500780990308
0.07200000000000001,1.6704,1.0,2616.6491376632503,0.5551747193808171,1.2762529113065193,0.9830594067976477,0.2832098,0.7566464572534196
0.0725,1.66859375,1.0,2614.653145456265,0.5576698367404356,1.2754557189520512,0.9831716320291412,0.2831339375,0.758048937808063
0.073,1.6667750000000001,1.0,2612.668780720626,0.5601509701613666,1.2746527804850796,0.9832813778188021,0.28305755,0.7594574303948173
0.0735,1.66494375,1.0,2610.695925966313,0.5626181944582017,1.2738440968825395,0.9833887029030985,0.2829806375,0.7608718450337574
0.074,1.6631,1.0,2608.73446392925,0.5650715844455325,1.2730296691213656,0.9834936641325678,0.2829032,0.7622920911335384
0.0745,1.6612437500000001,1.0,2606.7842775687923,0.5675112149379506,1.2722094981784924,0.9835963165431171,0.2828252375,0.7637180774917518
0.075,1.659375,1.0,2604.845250066015,0.5699371607500474,1.2713835850308546,0.9836967134241722,0.28274675,0.7651497122952835
0.0755,1.65749375,1.0,2602.9172648211797,0.5723494966964146,1.2705519306553867,0.9837949063838379,0.2826677375,0.7665869031206722
