Time [s],Phi [rad],STIM [ ],Fsee [N],Gamma [ ],Lcerel [ ],q [ ],Lmtc [m],fisomrel [ ]
0.0,1.8,1.0,17.965825472242482,1.0763689062357087e-05,1.3793398955289369,0.005000030860029545,0.288653,0.5411391698344875
0.0005,1.79999375,1.0,18.275537840161157,0.005619912622074213,1.3793025217888204,0.012942637499391337,0.2886527375,0.5412295821576576
0.001,1.799975,1.0,21.617798745752328,0.011197598664489453,1.3789383616397721,0.03561256668267321,0.28865195,0.5421100704010373
0.0015,1.79994375,1.0,31.069777956651397,0.016743998299111044,1.378046157556695,0.07060717076116829,0.2886506375,0.5442637205249319
0.002,1.7999,1.0,53.58505163149735,0.022259287017086325,1.3763679588760094,0.11472431085429771,0.2886488,0.5483008913632224
0.0025,1.79984375,1.0,97.12432440545496,0.027743639325482117,1.3739349076881024,0.1645817158644784,0.28864643749999996,0.5541220816718442
0.003,1.7997750000000001,1.0,160.96580395106955,0.033197228754989726,1.3712140578946108,0.21728748966617872,0.28864354999999997,0.560587127619313
0.0035,1.79969375,1.0,237.6923159825383,0.03862022785952486,1.3685844574912642,0.27061988326710174,0.2886401375,0.5667904901016276
0.004,1.7996,1.0,321.4765832171245,0.044012808227007864,1.3661558325189713,0.3229225723654678,0.2886362,0.5724805685980199
0.0045000000000000005,1.7994937500000001,1.0,409.2781165225455,0.049375140484548524,1.3639225708448486,0.37304093344350975,0.2886317375,0.577679727135447
0.005,1.799375,1.0,499.42423755818356,0.054707394289544874,1.3618581142643835,0.42025347194582346,0.28862675,0.5824576056792868
0.0055,1.79924375,1.0,590.8013689894022,0.06000973837706978,1.3599386210663689,0.46417926351008204,0.2886212375,0.5868756028853346
0.006,1.7991000000000001,1.0,682.5291845823625,0.06528234050321256,1.3581462134113937,0.504685076557737,0.2886152,0.5909798782496187
0.006500000000000001,1.79894375,1.0,773.8768760472277,0.07052536728160368,1.3564673284178188,0.5418056042895191,0.2886086375,0.5948056242686955
0.007,1.798775,1.0,864.3048783552797,0.07573898533482812,1.3548900870024716,0.5756809625637057,0.28860155,0.5983833741944456
0.0075,1.79859375,1.0,953.2683744810986,0.08092335890430138,1.3534063922211939,0.6065136597258719,0.2885939375,0.6017344449528051
0.008,1.7984,1.0,1040.3707555108062,0.08607865200189727,1.35200846523888,0.6345355694879875,0.2885858,0.6048789553576793
0.0085,1.79819375,1.0,1125.3304078375954,0.09120502813507993,1.3506890124454243,0.659987593670606,0.2885771375,0.6078355119580774
0.009000000000000001,1.797975,1.0,1207.896321219887,0.09630264934929599,1.3494420877842057,0.6831072138530053,0.28856795,0.6106193472098708
0.0095,1.79774375,1.0,1287.8814659416355,0.10137167674563542,1.3482622659197119,0.7041202746343412,0.2885582375,0.6132442415065941
0.01,1.7975,1.0,1365.169946125911,0.10641227112099638,1.3471443480467922,0.7232366857860734,0.288548,0.6157232194488764
0.0105,1.79724375,1.0,1439.678232007881,0.11142459207953613,1.3460837119326496,0.7406488033419897,0.2885372375,0.6180678071904298
0.011,1.796975,1.0,1511.3354612446421,0.11640879752281533,1.345076391824844,0.756531113636154,0.28852595000000003,0.6202878947868198
0.0115,1.79669375,1.0,1580.1253573690456,0.1213650453045748,1.344118431152115,0.7710404716513117,0.2885141375,0.6223931930529563
0.012,1.7964,1.0,1646.0661534739072,0.1262934924722199,1.3432060579439882,0.7843172701611489,0.28850180000000003,0.6243928628525123
0.0125,1.79609375,1.0,1709.188188121127,0.1311942955186239,1.3423358715289895,0.7964868433256883,0.2884889375,0.6262951245678802
0.013000000000000001,1.7957750000000001,1.0,1769.5122578340788,0.13606760864756315,1.3415050083657807,0.8076609238306449,0.28847555,0.6281069172866329
0.0135,1.79544375,1.0,1827.0906431455994,0.14091358606281393,1.3407106049130237,0.8179388114212209,0.2884616375,0.6298350883284485
0.014,1.7951000000000001,1.0,1881.9807731625274,0.14573238083335047,1.3399500556548838,0.827408815073909,0.2884472,0.6314858407533208
0.0145,1.79474375,1.0,1934.2854678968076,0.15052414722599627,1.339220533131511,0.8361493149261331,0.2884322375,0.6330657841261909
0.015,1.794375,1.0,1984.0615998813419,0.15528903572484448,1.338519952210888,0.8442302364009192,0.28841675,0.6345798531732723
0.0155,1.79399375,1.0,2031.375916179767,0.16002719638669222,1.3378463150803013,0.851713810647884,0.2884007375,0.636032740391141
0.016,1.7936,1.0,2076.3114102815416,0.1647387792683366,1.3371976239270382,0.8586554542690815,0.2883842,0.6374290893429837
0.0165,1.7931937500000001,1.0,2118.955091061185,0.16942393357272087,1.336571992682738,0.8651046101665162,0.2883671375,0.6387732581044994
0.017,1.792775,1.0,2159.403602480982,0.17408280883003155,1.335967570939413,0.8711054327561288,0.28834955,0.6400694874906585
0.0175,1.7923437500000001,1.0,2197.7342317351636,0.1787155518826664,1.3353828243065053,0.8766974879996485,0.2883314375,0.6413213047199993
0.018000000000000002,1.7919,1.0,2234.0212016273817,0.18332230844488429,1.3348163471293477,0.8819162385445165,0.2883128,0.6425319314252556
0.0185,1.79144375,1.0,2268.347255978213,0.187903224230944,1.3342667337532719,0.8867934883575466,0.2882936375,0.6437045621999977
0.019,1.790975,1.0,2300.795876513902,0.19245844407685886,1.3337326484167433,0.8913578233500873,0.28827395,0.6448422174130943
0.0195,1.79049375,1.0,2331.4562774180217,0.19698811344363326,1.3332127671400422,0.8956349668849465,0.2882537375,0.6459478693076404
0.02,1.79,1.0,2360.408271756495,0.20149237617272636,1.3327059193494442,0.899648136068448,0.288233,0.6470241429522996
0.0205,1.78949375,1.0,2387.7160964426766,0.20597137337983581,1.332211138010383,0.9034183319843478,0.2882117375,0.6480732135900711
0.021,1.788975,1.0,2413.448435569562,0.21042524618065925,1.3317274560882921,0.9069645406704515,0.28818995000000003,0.6490972413175708
0.021500000000000002,1.78844375,1.0,2437.678051028517,0.21485413569089423,1.3312539065486055,0.9103039540952864,0.2881676375,0.6500983717993869
0.022,1.7879,1.0,2460.475992657528,0.21925818190645716,1.3307895744489515,0.9134521744553745,0.2881448,0.6510786270276836
0.0225,1.78734375,1.0,2481.914363930404,0.22363752543185014,1.3303335663224922,0.9164233787480198,0.28812143749999997,0.6520399711755855
0.023,1.786775,1.0,2502.061875333509,0.2279923062286325,1.3298850491854675,0.9192304756935771,0.28809755,0.6529842293491764
0.0235,1.78619375,1.0,2520.971608176687,0.23232266034269083,1.3294433625966546,0.9218852565241228,0.28807313749999996,0.6539128534470955
0.024,1.7856,1.0,2538.69876605766,0.23662872381991165,1.329007846114831,0.9243984792972952,0.2880482,0.6548272869734686
0.0245,1.78499375,1.0,2555.300497015707,0.24091063270618152,1.328577839298773,0.9267799736544204,0.2880227375,0.6557289653117018
0.025,1.784375,1.0,2570.8357253563922,0.24516852304738693,1.3281526817072582,0.9290387336877677,0.28799675,0.6566193159704556
0.025500000000000002,1.78374375,1.0,2585.3548183453977,0.24940252840983088,1.3277318079273346,0.9311830151485101,0.2879702375,0.657499560180742
0.026000000000000002,1.7831000000000001,1.0,2598.9166709632036,0.25361278588591835,1.3273145857984863,0.9332203832407019,0.2879432,0.6583710520521855
0.0265,1.78244375,1.0,2611.5722363109085,0.25779942963565156,1.3269004691434665,0.9351578005145553,0.2879156375,0.6592349594189462
0.027,1.781775,1.0,2623.3603155793967,0.2619625901247062,1.326489034666436,0.9370016890146513,0.28788755,0.6600921882735293
0.0275,1.7810937500000001,1.0,2634.3205979903623,0.26610239781875794,1.3260798590715566,0.9387579632849911,0.2878589375,0.6609436400123527
0.028,1.7804,1.0,2644.4935846304147,0.2702189831834825,1.3256725190629892,0.9404320771846405,0.2878298,0.6617902115024455
0.0285,1.77969375,1.0,2653.920516256475,0.27431247668455544,1.325266591344896,0.9420290658180371,0.2878001375,0.6626327951367106
0.029,1.778975,1.0,2662.6433050752034,0.2783830087876525,1.3248616526214376,0.9435535831428559,0.28776995,0.6634722788777692
0.029500000000000002,1.7782437500000001,1.0,2670.69586025101,0.28243070624966143,1.3244573587174915,0.9450099452364369,0.2877392375,0.6643093825703732
0.03,1.7775,1.0,2678.122213695706,0.2864557018203571,1.3240532771470093,0.9464021406594084,0.287708,0.665145005007282
0.0305,1.77674375,1.0,2684.955568617424,0.2904581230770094,1.323649079261193,0.9477338802059257,0.2876762375,0.6659798261906313
0.031,1.775975,1.0,2691.2230822752213,0.29443809457584785,1.3232444953651779,0.9490086153193206,0.28764395,0.6668144011993352
0.0315,1.7751937500000001,1.0,2696.952239654927,0.29839574087310217,1.3228392557640993,0.9502295533842205,0.2876111375,0.6676492823267937
0.032,1.7744,1.0,2702.1708228281555,0.302331186525002,1.3224330907630926,0.9513996780009877,0.2875778,0.6684850190719366
0.0325,1.77359375,1.0,2706.906881924265,0.3062445560877769,1.3220257306672925,0.9525217673409693,0.2875439375,0.6693221581256263
0.033,1.772775,1.0,2711.1887077141128,0.31013597411765653,1.3216169057818348,0.9535984107848311,0.28750955,0.6701612433524184
0.0335,1.7719437500000002,1.0,2715.038119622658,0.31400556482678604,1.3212064073483576,0.9546320309064679,0.2874746375,0.6710026909386511
0.034,1.7711000000000001,1.0,2718.479663934744,0.31785345054594066,1.3207940033539365,0.9556248866398998,0.2874392,0.6718469624112073
0.0345,1.7702437500000001,1.0,2721.570914868289,0.32167975404766275,1.3203791626064465,0.9565790564351203,0.2874032375,0.6726951280854341
0.035,1.769377400573094,1.0,2724.413953432099,0.3254845950652057,1.3199620350183527,0.9574965576070501,0.28736685082406993,0.673546862713375
0.035500000000000004,1.7685101474645575,1.0,2727.4485978346493,0.32926809333182305,1.3195427705021199,0.9583792782364098,0.2873304261935114,0.6744018425377218
0.036000000000000004,1.767642894356021,1.0,2730.7035778825552,0.33303036858076807,1.319121518970213,0.9592289869365602,0.28729400156295287,0.6752597453129592
0.0365,1.7667756412474844,1.0,2734.163279794115,0.336771540290293,1.318698425776287,0.9600473412558131,0.28725757693239434,0.6761202595909326
0.037,1.765908388138948,1.0,2737.8070255456632,0.3404917268416998,1.3182736820843608,0.9608359007265026,0.2872211523018358,0.6769829824377016
0.0375,1.7650411350304114,1.0,2741.6093072989074,0.3441910474705604,1.317847522531668,0.9615961341374231,0.2871847276712773,0.6778474248102069
0.038,1.7641738819218749,1.0,2745.55528702754,0.34786961791661364,1.3174200845394894,0.9623294115703919,0.28714830304071876,0.6787132969736716
0.0385,1.7633066288133386,1.0,2749.630094796909,0.35152755391959845,1.3169915055291066,0.9630370215443032,0.2871118784101602,0.6795803106581326
0.039,1.762439375704802,1.0,2753.8188250780054,0.3551649712192537,1.3165619229218004,0.9637201767634882,0.2870754537796017,0.6804481790690438
0.0395,1.7615721225962655,1.0,2758.1076352733608,0.3587819845563532,1.3161314641760413,0.9643800183031883,0.28703902914904317,0.6813166369831387
0.04,1.760704869487729,1.0,2762.4890471573153,0.3623787034826578,1.3157001989016837,0.9650176155063455,0.2870026045184846,0.6821855370326447
0.0405,1.7598376163791924,1.0,2766.938656535998,0.3659552543250111,1.3152683493352935,0.9656339935232074,0.28696617988792605,0.6830544257251256
0.041,1.758970363270656,1.0,2771.4500534360914,0.3695117472367192,1.3148359747072795,0.9662301027479389,0.2869297552573675,0.6839231793052208
0.0415,1.7581031101621194,1.0,2776.016808478321,0.3730482923710882,1.3144031342480498,0.966806840864399,0.286893330626809,0.6847916746651874
0.042,1.7572358570535829,1.0,2780.6324722264844,0.37656499988142433,1.3139698871880128,0.967365056316932,0.28685690599625047,0.6856597893467683
0.0425,1.7563686039450466,1.0,2785.2905746147685,0.38006197992103363,1.3135362927575762,0.9679055515184267,0.28682048136569194,0.6865274015428426
0.043000000000000003,1.75550135083651,1.0,2789.9846244525165,0.3835393426432222,1.313102410187149,0.9684290858180101,0.2867840567351334,0.6873943900988468
0.043500000000000004,1.7546340977279735,1.0,2794.7081090071742,0.38699719820129624,1.3126682987071385,0.9689363782486364,0.2867476321045749,0.6882606345139783
0.044,1.753766844619437,1.0,2799.454493664523,0.39043565674856184,1.3122340175479539,0.9694281100729369,0.28671120747401635,0.6891260149421685
0.0445,1.7528995915109005,1.0,2804.21722166726,0.39385482843832514,1.3117996259400027,0.9699049271440067,0.2866747828434578,0.6899904121928393
0.045,1.752032338402364,1.0,2808.99267160829,0.3972548166874667,1.3113651566126472,0.9703674390969255,0.2866383582128993,0.6908537603558089
0.0455,1.7511650852938274,1.0,2813.7758374012255,0.40063573300121297,1.3109306545807875,0.9708162266550358,0.28660193358234076,0.6917159695215658
0.046,1.750297832185291,1.0,2818.5601347898064,0.4039976926452231,1.3104961788230198,0.9712518428385883,0.28656550895178223,0.6925769226285181
0.0465,1.7494305790767546,1.0,2823.343716432931,0.4073407988125669,1.3100617457826833,0.97167480831797,0.2865290843212237,0.6934365873794472
0.047,1.748563325968218,1.0,2828.1247287616784,0.4106651546963139,1.3096273719031175,0.9720856181160284,0.2864926596906652,0.6942949316593385
0.0475,1.7476960728596815,1.0,2832.9013119983097,0.4139708634895339,1.3091930736276616,0.9724847431141697,0.28645623506010665,0.6951519235353298
0.048,1.746828819751145,1.0,2837.6716001806367,0.4172580283852965,1.3087588673996549,0.9728726314564045,0.2864198104295481,0.6960075312566402
0.0485,1.7459615666426085,1.0,2842.43372119258,0.42052675257667144,1.3083247696624367,0.9732497098591454,0.2863833857989896,0.6968617232544814
0.049,1.745094313534072,1.0,2847.185796800693,0.42377713925672833,1.3078907968593467,0.9736163848339021,0.286346961168431,0.6977144681419531
0.0495,1.7442270604255354,1.0,2851.9259426970125,0.42700929161853696,1.307456965433724,0.9739730438294057,0.2863105365378725,0.6985657347139217
0.05,1.743359807316999,1.0,2856.652268547202,0.4302233128551669,1.307023291828908,0.9743200562991681,0.28627411190731394,0.6994154919468789
0.0505,1.7424925542084626,1.0,2861.3628780452254,0.4334193061596879,1.306589792488238,0.9746577746999704,0.2862376872767554,0.7002637089987858
0.051000000000000004,1.741625301099926,1.0,2866.056673412191,0.43659736720150377,1.3061564767193343,0.9749865341244617,0.2862012626461969,0.7011103691415934
0.051500000000000004,1.7407580479913896,1.0,2870.7344477804336,0.4397575812263155,1.305723337041726,0.9753066523491108,0.28616483801563836,0.7019554884823698
0.052000000000000005,1.739890794882853,1.0,2875.391791162493,0.44290008600061725,1.3052904120801303,0.9756184415537237,0.2861284133850798,0.7027989932778834
0.0525,1.7390235417743165,1.0,2880.028588581629,0.44602497633061705,1.3048577023305017,0.9759221930537988,0.2860919887545213,0.70364088434237
0.053,1.73815628866578,1.0,2884.644725188125,0.449132347022523,1.304425208288795,0.9762181854038049,0.28605556412396277,0.7044811624946549
0.0535,1.7372890355572435,1.0,2889.2400862617205,0.4522222928825431,1.303992930450965,0.9765066850658533,0.28601913949340424,0.7053198285581466
0.054,1.736421782448707,1.0,2893.814557213819,0.4552949087168854,1.3035608693129666,0.9767879470378246,0.28598271486284566,0.7061568833608293
0.0545,1.7355545293401706,1.0,2898.3680235902743,0.45835028933175787,1.3031290253707546,0.9770622154437312,0.2859462902322872,0.7069923277352564
0.055,1.734687276231634,1.0,2902.900371073163,0.46138852953336856,1.3026973991202835,0.9773297240888882,0.2859098656017286,0.7078261625185454
0.0555,1.7338200231230976,1.0,2907.4114854838936,0.46440972412792547,1.302265991057508,0.977590696982263,0.28587344097117007,0.7086583885523675
0.056,1.732952770014561,1.0,2911.901252784885,0.4674139679216367,1.3018348016783834,0.9778453488282062,0.28583701634061154,0.7094890066829431
0.0565,1.7320855169060245,1.0,2916.369559082513,0.47040135572071023,1.301403831478864,0.9780938854895938,0.285800591710053,0.7103180177610349
0.057,1.731218263797488,1.0,2920.8162906291814,0.4733719823313541,1.300973080954905,0.9783365044242602,0.2857641670794945,0.7111454226419396
0.0575,1.7303510106889515,1.0,2925.241333826069,0.47632594255977634,1.3005425506024606,0.9785733950964765,0.28572774244893595,0.7119712221854828
0.058,1.729483757580415,1.0,2929.6445752251107,0.47926333121218495,1.300112240917486,0.9788047393650792,0.2856913178183774,0.7127954172560106
0.0585,1.7286165044718786,1.0,2934.025901531792,0.48218424309478797,1.2996821523959354,0.9790307118497599,0.2856548931878189,0.7136180087223831
0.059000000000000004,1.7277492513633421,1.0,2938.385199607445,0.4850887730137935,1.2992522855337645,0.9792514802769059,0.28561846855726036,0.7144389974579666
0.059500000000000004,1.7268819982548056,1.0,2942.7224513406936,0.48797700318980197,1.2988226399964315,0.9794672047282709,0.28558204392670183,0.7152583859233517
0.06,1.726014745146269,1.0,2947.0382039701276,0.4908489971764478,1.2983932105077163,0.9796780373227231,0.2855456192961433,0.716076185978628
0.0605,1.7251474920377325,1.0,2951.3324227547328,0.4937049052768214,1.2979639968968888,0.9798841315495955,0.2855091946655848,0.7168923997233126
0.061,1.724280238929196,1.0,2955.6053503832436,0.49654481262741335,1.2975349965730696,0.9800856296978736,0.28547277003502625,0.7177070338465035
0.0615,1.7234129858206595,1.0,2959.8572307072986,0.4993688043647141,1.297106206945379,0.9802826686824909,0.2854363454044677,0.7185200950080666
0.062,1.722545732712123,1.0,2964.0883087295056,0.5021769656252143,1.296677625422937,0.9804753802881385,0.2853999207739092,0.7193315898386716
0.0625,1.7216784796035867,1.0,2968.2988305910308,0.5049693815454044,1.2962492494148647,0.980663891400236,0.28536349614335066,0.7201415249398255
0.063,1.7208112264950501,1.0,2972.4890435599996,0.5077461372617751,1.2958210763302824,0.9808483242238388,0.28532707151279213,0.7209499068839069
0.0635,1.7199439733865136,1.0,2976.65919601976,0.5105073179108168,1.2953931035783102,0.9810287964911915,0.2852906468822336,0.7217567422142019
0.064,1.719076720277977,1.0,2980.809537457133,0.5132530086290202,1.2949653285680687,0.9812054216585973,0.285254222251675,0.722562037444934
0.0645,1.7182094671694406,1.0,2984.940318451181,0.5159832945528758,1.2945377487086784,0.9813783090932285,0.2852177976211165,0.7233657990612992
0.065,1.717342214060904,1.0,2989.051790661755,0.5186982608188743,1.2941103614092597,0.9815475642504609,0.28518137299055796,0.7241680335194982
0.0655,1.7164749609523675,1.0,2993.1442068184606,0.5213979925635059,1.293683164078933,0.9817132888422772,0.28514494835999943,0.7249687472467683
0.066,1.715607707843831,1.0,2997.2178207096017,0.5240825749232615,1.2932561541268186,0.9818755809972535,0.2851085237294409,0.7257679466414146
0.0665,1.7147404547352947,1.0,3001.2728871714116,0.5267520930346314,1.2928293289620372,0.9820345354126024,0.28507209909888237,0.7265656380728414
0.067,1.7138732016267582,1.0,3005.3096620772612,0.5294066320341064,1.292402685993709,0.9821902434987243,0.28503567446832384,0.727361827881583
0.0675,1.7130059485182216,1.0,3009.328402327256,0.532046277058177,1.2919762226309546,0.9823427935166843,0.2849992498377653,0.7281565223793344
0.068,1.712138695409685,1.0,3013.3293658378084,0.5346711132433335,1.2915499362828942,0.9824922707090085,0.2849628252072068,0.7289497278489807
0.0685,1.7112714423011486,1.0,3017.3128115312243,0.5372812257260668,1.2911238243586485,0.98263875742417,0.28492640057664825,0.7297414505446262
0.069,1.710404189192612,1.0,3021.278999325851,0.5398766996428673,1.2906978842673378,0.9827823332351079,0.28488997594608967,0.7305316966916247
0.0695,1.7095369360840755,1.0,3025.228190126096,0.5424576201302256,1.2902721134180826,0.9829230750521084,0.28485355131553114,0.7313204724866066
0.07,1.708669682975539,1.0,3029.1603434567155,0.5450240378216227,1.289846511828825,0.9830610552477876,0.2848171266849726,0.7321077792750729
0.07050000000000001,1.7078024298670025,1.0,3033.075991660634,0.5475760578872194,1.2894210745798367,0.9831963469007596,0.2847807020544141,0.7328936275161116
0.07100000000000001,1.7069351767584662,1.0,3036.9755807962097,0.5501137823383256,1.2889957975091995,0.983329020520934,0.28474427742385555,0.7336780262181817
