Time [s],Phi [rad],STIM [ ],Fsee [N],Gamma [ ],Lcerel [ ],q [ ],Lmtc [m],fisomrel [ ]
0.0,1.8,1.0,17.96917399289229,3.161467937869989e-05,1.3793395203862053,0.005000263972437073,0.288653,0.54114007740167
0.0005,1.79999375,1.0,18.28562084592429,0.005640646654830569,1.3793014018806322,0.013000627170590015,0.2886527375,0.5412322912352906
0.001,1.799975,1.0,21.643257787763016,0.011218216395715934,1.3789357621034406,0.035721289076415585,0.28865195,0.5421163526756527
0.0015,1.79994375,1.0,31.12824666250507,0.01676450038117538,1.3780411786084812,0.07075593800550774,0.2886506375,0.5442757247331327
0.002,1.7999,1.0,53.709498901718604,0.022279674098664028,1.3763598902610472,0.11490046698075417,0.2886488,0.5483202582994022
0.0025,1.79984375,1.0,97.33265848752616,0.02776391205166428,1.3739248742219465,0.1647733473038794,0.28864643749999996,0.5541460090500685
0.003,1.7997750000000001,1.0,161.23648606405197,0.0332173877672049,1.371203930501671,0.2174851859291474,0.28864354999999997,0.5606111032529038
0.0035,1.79969375,1.0,237.99791330366867,0.038640273795608526,1.3685750474868825,0.2708165170614896,0.2886401375,0.5668126095983492
0.004,1.7996,1.0,321.8015206343501,0.0440327417212331,1.3661472284728564,0.3231129704959894,0.2886362,0.5725006603368811
0.0045000000000000005,1.7994937500000001,1.0,409.61444302430846,0.049394962167668165,1.3639146777010929,0.37322167351293406,0.2886317375,0.5776980464085131
0.005,1.799375,1.0,499.7672608872226,0.05472710478886998,1.3618508263766382,0.4204225698042188,0.28862675,0.5824744242683164
0.0055,1.79924375,1.0,591.1473838888518,0.060029338315783484,1.359931861826525,0.4643358225125374,0.2886212375,0.5868911187566687
0.006,1.7991000000000001,1.0,682.8755568295708,0.06530183050165511,1.3581399181355684,0.5048289536050576,0.2886152,0.5909942571359961
0.006500000000000001,1.79894375,1.0,774.2275095873423,0.07054474803741573,1.3564613435341295,0.5419370878754196,0.2886086375,0.5948192301206738
0.007,1.798775,1.0,864.6477536947115,0.07575825731195572,1.3548845490773287,0.5758008199896495,0.28860155,0.5983959082467509
0.0075,1.79859375,1.0,953.5996906856919,0.08094252269071421,1.3534012967455222,0.6066227245236935,0.2885939375,0.6017459293959928
0.008,1.7984,1.0,1040.699806492956,0.08609770834041605,1.3520036210377604,0.6346346269370885,0.2885858,0.6048898302815842
0.0085,1.79819375,1.0,1125.6536028646572,0.09122397763093372,1.3506844375534703,0.6600775627131473,0.2885771375,0.6078457438067799
0.009000000000000001,1.797975,1.0,1208.2083202312594,0.0963214925366098,1.349437824957039,0.6831889922601307,0.28856795,0.6106288472235135
0.0095,1.79774375,1.0,1288.188332864134,0.10139041435602489,1.3482582054746248,0.7041946213231542,0.2885582375,0.613253259947685
0.01,1.7975,1.0,1365.4689422260883,0.1064309037712682,1.3471405053531225,0.7233043657034991,0.288548,0.6157317268596262
0.0105,1.79724375,1.0,1439.9522508203283,0.11144311980447971,1.3460802825624067,0.7407105998106885,0.2885372375,0.6180753763441477
0.011,1.796975,1.0,1511.5845545253242,0.11642722073167164,1.345073349181409,0.7565876257854006,0.28852595000000003,0.6202945908313946
0.0115,1.79669375,1.0,1580.3801215471674,0.12138336572610699,1.3441153877280865,0.7710920743850275,0.2885141375,0.6223998722217753
0.012,1.7964,1.0,1646.327150085254,0.12631171089327475,1.3432030031537785,0.7843644635702675,0.28850180000000003,0.6243995491907766
0.0125,1.79609375,1.0,1709.4319383854897,0.13121241142817638,1.3423330717609665,0.7965301868049761,0.2884889375,0.62630123717698
0.013000000000000001,1.7957750000000001,1.0,1769.7371284499557,0.13608562252581324,1.3415024698521325,0.8077008109127419,0.28847555,0.6281124460615222
0.0135,1.79544375,1.0,1827.3001783784441,0.14093149865585333,1.340708277079387,0.8179755700644691,0.2884616375,0.6298401464591699
0.014,1.7951000000000001,1.0,1882.2006652301789,0.14575019402188824,1.3399476486517004,0.8274426496675337,0.2884472,0.6314910592352682
0.0145,1.79474375,1.0,1934.4954973454985,0.1505418603190435,1.3392182653798317,0.8361805848181086,0.2884322375,0.6330706901552873
0.015,1.794375,1.0,1984.2508823729054,0.15530664871407104,1.3385179342632705,0.844259225031106,0.28841675,0.6345842097644391
0.0155,1.79399375,1.0,2031.549520099219,0.16004471010799107,1.3378444859591325,0.8517407147830744,0.2884007375,0.6360366814636783
0.016,1.7936,1.0,2076.481287080229,0.16475619492673363,1.3371958535477584,0.8586804278278014,0.2883842,0.6374328965248682
0.0165,1.7931937500000001,1.0,2119.129692179057,0.16944125283004724,1.3365701914717998,0.8651278035776259,0.2883671375,0.6387771244025384
0.017,1.792775,1.0,2159.5672278116617,0.17410003098440024,1.3359658988373688,0.8711270507544069,0.28834955,0.640073070211731
0.0175,1.7923437500000001,1.0,2197.877332598524,0.1787326765562609,1.3353813747505776,0.8767176953099557,0.2883314375,0.6413244051990199
0.018000000000000002,1.7919,1.0,2234.147610595851,0.18333933598923272,1.3348150770949696,0.88193514632869,0.2883128,0.642534643335107
0.0185,1.79144375,1.0,2268.465762349437,0.18792015575174056,1.3342655521582962,0.8868111845526859,0.2882936375,0.6437070811234354
0.019,1.790975,1.0,2300.9234656592566,0.19247528261940008,1.333731385263503,0.8913743689365999,0.28827395,0.644844905899564
0.0195,1.79049375,1.0,2331.5856550251924,0.19700485898632525,1.3332114947307552,0.8956504732369499,0.2882537375,0.6459505732758162
0.02,1.79,1.0,2360.522905214019,0.20150902724663008,1.332704798880218,0.8996627234381505,0.288233,0.6470265204147756
0.0205,1.78949375,1.0,2387.810966462488,0.2059879297944286,1.3322102160320566,0.9034320838715805,0.2882117375,0.6480751669768313
0.021,1.788975,1.0,2413.530325621949,0.2104417090238348,1.3317266645064365,0.9069775082417026,0.28818995000000003,0.6490989159930936
0.021500000000000002,1.78844375,1.0,2437.7495168280975,0.21487050498635688,1.3312532191727413,0.9103161918664158,0.2881676375,0.6500998239403566
0.022,1.7879,1.0,2460.553574308191,0.2192744610196716,1.3307888317147818,0.9134637066331801,0.2881448,0.651080193918271
0.0225,1.78734375,1.0,2482.0014565075844,0.22365371539461487,1.330332736144313,0.9164342513243013,0.28812143749999997,0.6520417201256752
0.023,1.786775,1.0,2502.1482590769656,0.22800840527834276,1.3298842290858162,0.9192407540368024,0.28809755,0.6529859547208443
0.0235,1.78619375,1.0,2521.051480427618,0.23233866783801135,1.3294426071637726,0.9218949928925767,0.28807313749999996,0.6539144406413782
0.024,1.7856,1.0,2538.770820838413,0.23664464024077675,1.3290071670026637,0.9244077142149455,0.2880482,0.6548287119288307
0.0245,1.78499375,1.0,2555.3679925313913,0.240926459653795,1.3285772052269706,0.9267887371377141,0.2880227375,0.6557302940217896
0.025,1.784375,1.0,2570.8951433756215,0.24518425960684842,1.3281521252063524,0.9290470629089195,0.28799675,0.6566204806203904
0.025500000000000002,1.78374375,1.0,2585.421303155867,0.24941817980937525,1.3277311869911859,0.9311909179344412,0.2879702375,0.6575008580145038
0.026000000000000002,1.7831000000000001,1.0,2598.9882407172945,0.25362835210944606,1.327313919118012,0.9332278904490646,0.2879432,0.658372443723238
0.0265,1.78244375,1.0,2611.638628506437,0.2578149082874848,1.3268998521925313,0.9351649516904422,0.2879156375,0.6592362456521086
0.027,1.781775,1.0,2623.416168324772,0.26197798012391554,1.3264885168204437,0.9370085140658169,0.28788755,0.660093266531846
0.0275,1.7810937500000001,1.0,2634.3655017078004,0.2661176993991621,1.3260794436074497,0.9387644833949841,0.2878589375,0.6609445040071941
0.028,1.7804,1.0,2644.5321251898563,0.27023419789364833,1.3256721631592494,0.9404383056344194,0.2878298,0.6617909507116557
0.0285,1.77969375,1.0,2653.947838565462,0.2743276025221048,1.3252663394846038,0.9420350260041345,0.2878001375,0.6626333175965767
0.029,1.778975,1.0,2662.667277534588,0.27839804920425815,1.3248614320026484,0.9435592823589967,0.28776995,0.6634727359604231
0.029500000000000002,1.7782437500000001,1.0,2670.730023164539,0.28244566772270174,1.3244570447904882,0.9450153841774537,0.2877392375,0.6643100321614259
0.03,1.7775,1.0,2678.1645679001354,0.28647058366398065,1.3240528884895622,0.9464073364772226,0.287708,0.6651458082320516
0.0305,1.77674375,1.0,2684.9998167673466,0.29047292261464,1.3236486737413087,0.9477388533106159,0.2876762375,0.6659806632190431
0.031,1.775975,1.0,2691.265050603284,0.2944528101612249,1.323244111187167,0.9490133825637497,0.28764395,0.6668151931850079
0.0315,1.7751937500000001,1.0,2696.989891142708,0.29841037189028047,1.3228389114685755,0.9502341283510627,0.2876111375,0.6676499912046725
0.032,1.7744,1.0,2702.204267960954,0.30234573338835186,1.322432785226973,0.9514040712643093,0.2875778,0.668485647355793
0.0325,1.77359375,1.0,2706.9383872733047,0.30625902024198415,1.3220254431037985,0.9525259867046985,0.2875439375,0.6693227487047264
0.033,1.772775,1.0,2711.218748940401,0.31015035588044637,1.3216166317986193,0.9536024651044395,0.28750955,0.6701618053268856
0.0335,1.7719437500000002,1.0,2715.069930204796,0.3140198633855521,1.3212061174339778,0.9546359252606771,0.2874746375,0.671003284830962
0.034,1.7711000000000001,1.0,2718.5251616390433,0.31786767057672116,1.3207935889613278,0.9556286183668423,0.2874392,0.671847810208261
0.0345,1.7702437500000001,1.0,2721.6025716336576,0.3216938966207942,1.3203788744403888,0.956582661509846,0.2874032375,0.6726957168759873
0.035,1.7693750000000001,1.0,2724.3204135981014,0.3254986606846116,1.3199618019308803,0.957500035016928,0.28736675,0.6735473383454851
0.035500000000000004,1.76849375,1.0,2726.6970531019083,0.32928208193501385,1.3195421994925216,0.958382592873853,0.2873297375,0.6744030061973263
0.036000000000000004,1.7676,1.0,2728.750955670739,0.3330442795388415,1.3191198951850318,0.9592320722349154,0.2872922,0.67526305005451
0.0365,1.76669375,1.0,2730.5006752388977,0.336785372662935,1.3186947170681305,0.9600501021132966,0.2872541375,0.6761277975537765
0.037,1.765775,1.0,2731.964843256056,0.340505480474135,1.3182664932015367,0.9608382113308451,0.28721555,0.6769975743150389
0.0375,1.76484375,1.0,2733.16215845077,0.34420472213928177,1.31783505164497,0.9615978357979412,0.2871764375,0.6778727039089263
0.038,1.7639,1.0,2734.103520673374,0.3478832055772763,1.317400291811248,0.9623303297089119,0.28713679999999997,0.678753363386909
0.0385,1.76294375,1.0,2734.8167631603033,0.35154106326912904,1.316961959750485,0.9630369573979443,0.28709663750000003,0.6796400384921301
0.039,1.761975,1.0,2735.313130249759,0.3551784082220356,1.3165199525535367,0.9637189191469123,0.28705595,0.6805329070009786
0.0395,1.7609937500000001,1.0,2735.603389143479,0.3587953527767675,1.3160741719235156,0.964377345902129,0.2870147375,0.68143213597852
0.04,1.76,1.0,2735.698333480234,0.362392009274096,1.3156245195635345,0.9650133037465407,0.286973,0.6823378911042347
0.0405,1.7589937500000001,1.0,2735.608779364143,0.3659684900547924,1.3151708971767058,0.9656277983037955,0.2869307375,0.683250336648056
0.041,1.757975,1.0,2735.3455616062956,0.369524907459628,1.314713206466142,0.9662217787986247,0.28688795,0.6841696354457891
0.0415,1.75694375,1.0,2734.919530181452,0.3730613738293742,1.3142513491349554,0.9667961418036775,0.2868446375,0.6850959488739169
0.042,1.7559,1.0,2734.3415468985827,0.37657800150480236,1.3137852268862589,0.9673517347000185,0.28680079999999997,0.6860294368237853
0.0425,1.75484375,1.0,2733.622482285599,0.38007490282668377,1.3133147414231647,0.9678893588758953,0.2867564375,0.6869702576751767
0.043000000000000003,1.753775,1.0,2732.7732126881106,0.3835521901357898,1.3128397944487857,0.9684097726860408,0.28671155,0.687918568269265
0.043500000000000004,1.75269375,1.0,2731.796592140493,0.38700995934342286,1.3123603605837542,0.9689136974864129,0.28666613750000003,0.6888743786224079
0.044,1.7516,1.0,2730.708974335083,0.39044833773366894,1.3118762918330664,0.9694018118442356,0.2866202,0.6898379419402296
0.0445,1.75049375,1.0,2729.5205242569446,0.39386744001037743,1.3113874964047603,0.9698747614575505,0.2865737375,0.6908093975853808
0.045,1.7493750000000001,1.0,2728.236532941457,0.3972673705382279,1.3108939267941122,0.9703331606538411,0.28652675,0.6917887955438049
0.0455,1.74824375,1.0,2726.8622917405737,0.40064823368189995,1.3103955354963988,0.9707775924662685,0.2864792375,0.6927761847701016
0.046,1.7471,1.0,2725.403091430875,0.40401013380607315,1.3098922750068964,0.9712086105264046,0.2864312,0.6937716131729914
0.0465,1.7459437500000001,1.0,2723.8642213709645,0.407353175275427,1.309384097820881,0.9716267408249536,0.28638263750000004,0.6947751276006362
0.047,1.744775,1.0,2722.2509687090624,0.4106774624546413,1.3088709564336296,0.9720324833508434,0.28633355,0.6957867738258128
0.0475,1.74359375,1.0,2720.568617641359,0.4139830997083955,1.3083528033404184,0.9724263136181605,0.28628393750000003,0.696806596530948
0.048,1.7424,1.0,2718.822448718923,0.4172701914013691,1.3078295910365236,0.9728086840895835,0.2862338,0.6978346392930058
0.0485,1.74119375,1.0,2717.01773820658,0.42053884189824187,1.3073012720172217,0.973180025504233,0.2861831375,0.698870944568232
0.049,1.739975,1.0,2715.159757489759,0.4237891555636933,1.306767798777789,0.9735407481171754,0.28613195,0.6999155536767536
0.0495,1.73874375,1.0,2713.2537725329867,0.42702123676240294,1.3062291238135022,0.9738912428572234,0.2860802375,0.7009685067870368
0.05,1.7375,1.0,2711.305043387844,0.43023518985905046,1.3056851996196375,0.974231882409105,0.286028,0.702029842900199
0.0505,1.73624375,1.0,2709.3133099377205,0.4334311084536893,1.3051360289962866,0.9745630243319857,0.2859752375,0.7030995019399788
0.051000000000000004,1.734975,1.0,2707.2807944286387,0.436609093579589,1.3045815921011208,0.9748850091845861,0.28592195,0.7041774673250845
0.051500000000000004,1.73369375,1.0,2705.2210871478765,0.4397692656742437,1.304021765277079,0.9751981574831942,0.2858681375,0.7052639229521962
0.052000000000000005,1.7324,1.0,2703.136068537459,0.44291172067970613,1.3034565316400504,0.9755027794701853,0.2858138,0.7063588437659156
0.0525,1.73109375,1.0,2701.0276165850787,0.4460365545380293,1.3028858743059233,0.9757991715796306,0.28575893750000003,0.7074622039092361
0.053,1.729775,1.0,2698.897606737179,0.4491438631912661,1.3023097763905869,0.9760876171686393,0.28570355000000003,0.7085739767177085
0.0535,1.72844375,1.0,2696.7479118199312,0.4522337425814693,1.3017282210099295,0.9763683872038985,0.2856476375,0.7096941347135943
0.054,1.7271,1.0,2694.5804019654834,0.4553062886506919,1.30114119127984,0.976641740906505,0.2855912,0.7108226495999961
0.0545,1.7257437500000001,1.0,2692.3969445447897,0.45836159734098664,1.3005486703162072,0.9769079263579608,0.2855342375,0.7119594922549738
0.055,1.724375,1.0,2690.199404106898,0.4613997645944064,1.29995064123492,0.9771671810699745,0.28547675,0.7131046327256387
0.0555,1.72299375,1.0,2687.9896423247437,0.46442088635300416,1.2993470871518666,0.9774197325205152,0.2854187375,0.7142580402222346
0.056,1.7216,1.0,2685.7695179464918,0.4674250585588327,1.2987379911829362,0.97766579865838,0.2853602,0.7154196831121937
0.0565,1.72019375,1.0,2683.540886754166,0.4704123771539449,1.2981233364440172,0.9779055883783702,0.28530113749999997,0.7165895289141815
0.057,1.718775,1.0,2681.305601528056,0.47338293808039367,1.2975031060509985,0.9781393019690092,0.28524155,0.7177675442921185
0.0575,1.71734375,1.0,2679.065512017307,0.47633683728023185,1.296877283119769,0.9783671315346041,0.2851814375,0.7189536950491853
0.058,1.7159,1.0,2676.8224649172553,0.4792741706955123,1.2962458507662171,0.978589261393312,0.2851208,0.7201479461218119
0.0585,1.71444375,1.0,2674.5825867983012,0.48219500859056735,1.2956087527782125,0.9788058640582732,0.2850596375,0.7213503357171863
0.059000000000000004,1.7129750000000001,1.0,2672.343412973666,0.4850994753449225,1.29496601177141,0.9790171141279316,0.28499795,0.7225607522310857
0.059500000000000004,1.71149375,1.0,2670.1055726610894,0.48798766030993945,1.2943176219658898,0.9792231747781153,0.2849357375,0.7237791371184426
0.06,1.71,1.0,2667.86988664921,0.49085965140638255,1.2936635758107369,0.9794242025792647,0.284873,0.7250054344453176
0.0605,1.7084937500000001,1.0,2665.6371743511877,0.493715536555016,1.293003865755036,0.9796203480181046,0.2848097375,0.726239587540194
0.061,1.7069750000000001,1.0,2663.408253807044,0.49655540367660406,1.2923384842478718,0.9798117557789214,0.28474595,0.7274815389912526
0.0615,1.7054437500000001,1.0,2661.1839416871726,0.499379340691911,1.291667423738329,0.9799985650097465,0.2846816375,0.7287312306436418
0.062,1.7039,1.0,2658.965053298218,0.5021874355217009,1.2909906766754922,0.9801809095743635,0.2846168,0.7299886035967449
0.0625,1.70234375,1.0,2656.7524025883017,0.504979776086738,1.2903082355084465,0.9803589182910011,0.2845514375,0.7312535982014425
0.063,1.7007750000000001,1.0,2654.546802155393,0.5077564503077868,1.2896200926862762,0.980532715158501,0.28448555,0.732526154057375
0.0635,1.69919375,1.0,2652.349063255877,0.5105175461056113,1.2889262406580662,0.9807024195707121,0.28441913750000003,0.7338062100101953
0.064,1.6976,1.0,2650.1599958142565,0.5132631514009757,1.2882266718729012,0.980868146519804,0.2843522,0.7350937041488232
0.0645,1.69599375,1.0,2647.9804084353145,0.5159933541146443,1.287521378779866,0.9810300067891465,0.2842847375,0.7363885738026938
0.065,1.694375,1.0,2645.8111084160214,0.5187082421673814,1.286810353828045,0.9811881071363693,0.28421675,0.7376907555390038
0.0655,1.69274375,1.0,2643.652901759674,0.5214079034799511,1.2860935894665235,0.9813425504671598,0.2841482375,0.7390001851599499
0.066,1.6911,1.0,2641.504001274677,0.5240924253260943,1.2853711020931236,0.981493437133321,0.2840792,0.7403167541140181
0.0665,1.6894454431949562,1.0,2639.446687060189,0.5267618905271486,1.284642895729152,0.981640863016757,0.28400970861418817,0.741640375991464
0.067,1.6877894493362011,1.0,2637.9101658712425,0.5294163825000822,1.2839092322557157,0.9817849331566761,0.28394015687212043,0.7429704969386801
0.0675,1.6861334554774463,1.0,2636.9209297365114,0.5320559846645417,1.283170511469872,0.9819257556337537,0.28387060513005274,0.7443063183478671
0.068,1.6844774616186915,1.0,2636.4354432074992,0.5346807804401735,1.2824271331686778,0.982063434903764,0.28380105338798506,0.7456470486292153
0.0685,1.6828214677599365,1.0,2636.411470444383,0.5372908530300988,1.281679486690837,0.9821980714456479,0.2837315016459173,0.7469919221224062
0.069,1.6811654739011817,1.0,2636.8089087399712,0.5398862854000674,1.2809279428467608,0.9823297615479664,0.28366194990384963,0.7483402134180073
0.0695,1.6795094800424266,1.0,2637.591999794426,0.5424671598817894,1.2801728331602182,0.9824585964842769,0.28359239816178194,0.7496912741038793
0.07,1.6778534861836718,1.0,2638.7316594222398,0.5450335575334838,1.2794144280909379,0.9825846616570216,0.2835228464197142,0.7510445707098665
0.07050000000000001,1.676197492324917,1.0,2640.198854510415,0.5475855594133698,1.2786529980986492,0.9827080397186616,0.2834532946776465,0.7523995747788081
0.07100000000000001,1.674541498466162,1.0,2641.9650407241834,0.5501232464541329,1.2778888094240468,0.9828288104846283,0.2833837429355788,0.7537557703982328
0.07150000000000001,1.6728855046074071,1.0,2644.0041144959173,0.5526466991495399,1.2771221059094626,0.9829470502004217,0.2833141911935111,0.7551126862764814
0.07200000000000001,1.6712295107486521,1.0,2646.291707335072,0.5551559977803778,1.2763531154186356,0.9830628319826854,0.2832446394514434,0.7564698839235149
0.0725,1.6695735168898973,1.0,2648.8088098795915,0.5576512211102854,1.2755820163159552,0.9831762243515433,0.2831750877093757,0.7578270162092876
0.073,1.6679175230311425,1.0,2651.5364073318424,0.5601324479029017,1.2748089869658112,0.9832872936999383,0.283105535967308,0.7591837394222722
0.0735,1.6662615291723877,1.0,2654.455966313059,0.5625997566699915,1.2740342011715475,0.983396104160438,0.2830359842252403,0.7605397212636219
0.074,1.6646055353136326,1.0,2657.5578541601135,0.5650532215542007,1.2732577505644502,0.9835027140212628,0.28296643248317255,0.7618947760091094
0.0745,1.6629495414548778,1.0,2660.810321768495,0.567492928765702,1.2724799303460563,0.9836071894277113,0.28289688074110486,0.7632483659394398
