Time [s],Phi [rad],STIM [ ],Fsee [N],Gamma [ ],Lcerel [ ],q [ ],Lmtc [m],fisomrel [ ]
0.0,1.8,1.0,18.207062044117148,0.0004985510686540566,1.3793129580871075,0.005064223032956924,0.288653,0.5412043361836998
0.0005,1.79999375,1.0,18.669954717800152,0.00610496390026777,1.3792589421804187,0.01435231835172714,0.2886527375,0.5413349960975442
0.001,1.799975,1.0,22.374150175915513,0.01167992918856651,1.3788617745696041,0.038199732442241036,0.28865195,0.5422951395726099
0.0015,1.79994375,1.0,32.6225170181007,0.017223623330319703,1.3779154834088598,0.07411887841895784,0.2886506375,0.5445787225760452
0.002,1.7999,1.0,56.71761285101601,0.022736221730838668,1.3761676257632154,0.11886413067782842,0.2886488,0.5487816241315866
0.0025,1.79984375,1.0,102.211379502516,0.028217898813058036,1.3736929097674146,0.16907332520038038,0.28864643749999996,0.5546990088952899
0.003,1.7997750000000001,1.0,167.47255140190504,0.03366882802142225,1.370972922644519,0.22191334574297977,0.28864354999999997,0.5611578146192081
0.0035,1.79969375,1.0,244.98145967702297,0.03908918182673701,1.3683616322335646,0.2752152794326791,0.2886401375,0.5673141195734188
0.004,1.7996,1.0,329.19518813502737,0.04447913173315521,1.3659526118650727,0.32736823505854934,0.2886362,0.5729549932051387
0.0045000000000000005,1.7994937500000001,1.0,417.23971021356874,0.04983884825945201,1.3637365843922857,0.37725839390953614,0.2886317375,0.5781112792558469
0.005,1.799375,1.0,507.53756717339354,0.055168501075942136,1.3616864031045892,0.4241972748201589,0.28862675,0.5828537812795427
0.0055,1.79924375,1.0,598.964282909345,0.06046825868278453,1.3597796861071887,0.46782950533379264,0.2886212375,0.5872403618131785
0.006,1.7991000000000001,1.0,690.6924593063654,0.06573828890076583,1.3579982690604964,0.5080388360836229,0.2886152,0.5913177275181393
0.006500000000000001,1.79894375,1.0,781.9939520100361,0.07097875835808619,1.3563291256646692,0.5448714899752598,0.2886086375,0.5951197519229987
0.007,1.798775,1.0,872.2992845326803,0.07618983297593215,1.35476125038402,0.578474870413955,0.28860155,0.598674921001169
0.0075,1.79859375,1.0,961.1202711547649,0.08137167758091422,1.3532858711979776,0.6090546367207091,0.2885939375,0.6020060370276976
0.008,1.7984,1.0,1048.0582397560145,0.08652445595365778,1.3518954915023231,0.6368442845806269,0.2885858,0.6051325352689363
0.0085,1.79819375,1.0,1132.833411819773,0.0916483316491046,1.3505829747135385,0.6620848741491573,0.2885771375,0.6080726334215767
0.009000000000000001,1.797975,1.0,1215.1933895131588,0.09674346635159235,1.3493425319920536,0.6850131884674421,0.28856795,0.6108411841243018
0.0095,1.79774375,1.0,1294.955946186296,0.10181002117833864,1.3481687794441721,0.7058538248424443,0.2885582375,0.6134518527434804
0.01,1.7975,1.0,1372.0119895995376,0.10684815669834201,1.3470565192947654,0.7248151890890525,0.288548,0.6159176416294709
0.0105,1.79724375,1.0,1446.2798189334057,0.1118580325522622,1.3460011830435759,0.7420880856746729,0.2885372375,0.6182499404733608
0.011,1.796975,1.0,1517.697497603637,0.11683980669248387,1.3449987587544838,0.7578454192174628,0.28852595000000003,0.6204587259498262
0.0115,1.79669375,1.0,1586.2471021542933,0.1217936365459285,1.3440453682701372,0.7722426016355234,0.2885141375,0.6225535222317146
0.012,1.7964,1.0,1651.9575917515224,0.12671967997283567,1.343137161470608,0.7854186204645968,0.28850180000000003,0.6245436492917535
0.0125,1.79609375,1.0,1714.848692985865,0.1316180926569665,1.3422709051778292,0.797497630292189,0.2884889375,0.6264369498365735
0.013000000000000001,1.7957750000000001,1.0,1774.9428954789942,0.13648902869113683,1.3414437481409673,0.8085902351952634,0.28847555,0.6282403279829326
0.0135,1.79544375,1.0,1832.2938651720624,0.1413326421681624,1.3406528391091892,0.8187947257927091,0.2884616375,0.629960596960615
0.014,1.7951000000000001,1.0,1886.971120571865,0.1461490864735987,1.3398954644154504,0.8281984694807072,0.2884472,0.6316041877225935
0.0145,1.79474375,1.0,1939.0602547469164,0.15093851518132811,1.33916900868724,0.8368791267369274,0.2884322375,0.6331772434506213
0.015,1.794375,1.0,1988.6283352069186,0.1557010793622377,1.338471292899962,0.8449058807697553,0.28841675,0.6346848975849111
0.0155,1.79399375,1.0,2035.7418116254537,0.16043692886646788,1.3378003389518396,0.8523403449824302,0.2884007375,0.6361317952934384
0.016,1.7936,1.0,2080.483162092773,0.16514621354415898,1.337154168741096,0.8592373912383305,0.2883842,0.6375225334837392
0.0165,1.7931937500000001,1.0,2122.939796500354,0.16982908236876842,1.3365309043333433,0.8656459784926166,0.2883671375,0.6388614490707338
0.017,1.792775,1.0,2163.207786438792,0.174485684965234,1.3359287120100247,0.8716098373596955,0.28834955,0.6401527437732331
0.0175,1.7923437500000001,1.0,2201.36526162307,0.17911616833044378,1.335346057971134,0.8771681550553577,0.2883314375,0.641399940699046
0.018000000000000002,1.7919,1.0,2237.4849588687052,0.18372067792941132,1.3347815596518449,0.8823560653934601,0.2883128,0.6426062095570098
0.0185,1.79144375,1.0,2271.64799739598,0.18829935922715027,1.3342338344873308,0.8872050816219251,0.2882936375,0.6437746935073201
0.019,1.790975,1.0,2303.9424159089453,0.19285235757669925,1.333701507377731,0.8917435172274261,0.28827395,0.6449084948145094
0.0195,1.79049375,1.0,2334.445604279314,0.19737981637540447,1.333183376570516,0.8959968914325737,0.2882537375,0.6460103239064722
0.02,1.79,1.0,2363.2517218581274,0.20188188178897923,1.3326781344587826,0.8999881823801146,0.288233,0.6470830958323475
0.0205,1.78949375,1.0,2390.423050265366,0.20635869449222197,1.3321848381257049,0.9037382136211456,0.2882117375,0.6481289327786965
0.021,1.788975,1.0,2416.026218118371,0.21081039515993114,1.331702544654458,0.9072658131870021,0.28818995000000003,0.6491499421867263
0.021500000000000002,1.78844375,1.0,2440.1318431340565,0.2152371244669052,1.3312303111282164,0.9105880321919095,0.2881676375,0.650148217442299
0.022,1.7879,1.0,2462.8141939431343,0.21963902308794264,1.3307671946301554,0.9137203370507377,0.2881448,0.6511258385092377
0.0225,1.78734375,1.0,2484.1340250944104,0.22401622913419186,1.3303124127561543,0.9166768091772514,0.28812143749999997,0.6520845343724744
0.023,1.786775,1.0,2504.175580868614,0.22836888481842887,1.3298649864037702,0.9194702244960374,0.28809755,0.6530264373241088
0.0235,1.78619375,1.0,2522.992960872638,0.23269712681370833,1.3294242482935281,0.9221122806891995,0.28807313749999996,0.6539530122329207
0.024,1.7856,1.0,2540.6348789054905,0.23700109055530957,1.3289896017108516,0.9246136640160905,0.2880482,0.6548655674940538
0.0245,1.78499375,1.0,2557.151877977356,0.24128091147851194,1.3285604499411643,0.9269841394232982,0.2880227375,0.6557654041277414
0.025,1.784375,1.0,2572.5961789797198,0.24553672501859478,1.32813619626989,0.9292326426083312,0.28799675,0.656653815999771
0.025500000000000002,1.783745908471871,1.0,2587.1259442849537,0.24976866661083744,1.3277162439824524,0.9313673617642273,0.2879703281558186,0.6575320900192403
0.026000000000000002,1.7831157543412388,1.0,2601.235099745309,0.25397686896211835,1.3273001088976668,0.9333958273598967,0.28794386168233205,0.6584012714144625
0.0265,1.7824856002106069,1.0,2614.9705235936567,0.2581614688757519,1.3268878006449114,0.9353250386315537,0.2879173952088455,0.6592613705023362
0.027,1.7818554460799747,1.0,2628.3381476654677,0.2623225981092824,1.3264792341640226,0.9371614153914436,0.28789092873535893,0.66011259457804
0.0275,1.7812252919493428,1.0,2641.3463987479367,0.2664603866749626,1.3260743030792077,0.9389108655554308,0.2878644622618724,0.6609551941052583
0.028,1.7805951378187108,1.0,2654.003906808612,0.2705749645850456,1.325672901014674,0.9405788364452815,0.28783799578838587,0.6617894181909643
0.0285,1.7799649836880787,1.0,2666.3194965468747,0.27466646185178434,1.3252749215946287,0.94217035673057,0.2878115293148993,0.6626155146097199
0.029,1.7793348295574467,1.0,2678.3021791964065,0.2787350084874317,1.3248802584432795,0.9436900740485816,0.28778506284141275,0.6634337298272575
0.029500000000000002,1.7787046754268145,1.0,2689.9574297371523,0.28278072349900696,1.324488839198601,0.9451422894284361,0.2877585963679262,0.6642442386337517
0.03,1.7780745212961826,1.0,2701.2943219624995,0.2868037325068099,1.3241005598919358,0.9465309853159809,0.28773212989443964,0.6650472802223654
0.0305,1.7774443671655507,1.0,2712.3327313380605,0.290804192156203,1.3237152195443864,0.9478598526994371,0.2877056634209531,0.6658432928422503
0.031,1.7768142130349185,1.0,2723.0803511042322,0.29478222388685016,1.323332730220962,0.9491323204837834,0.2876791969474666,0.6666324794893448
0.0315,1.7761840589042865,1.0,2733.545006046758,0.2987379491384153,1.3229530039866726,0.9503515752657287,0.28765273047398005,0.6674150421428069
0.032,1.7755539047736544,1.0,2743.734647023785,0.3026714893505624,1.322575952906527,0.9515205814555561,0.2876262640004935,0.6681911817807591
0.0325,1.7749237506430224,1.0,2753.6573456645897,0.3065829659629554,1.3222014890455347,0.9526420994957369,0.28759979752700693,0.6689610983955363
0.033,1.7742935965123905,1.0,2763.3212892398797,0.3104725004152584,1.3218295244687053,0.9537187023767176,0.2875733310535204,0.6697249910084409
0.0335,1.7736634423817583,1.0,2772.734775702877,0.31434021414713526,1.321459971241048,0.9547527906272207,0.28754686458003387,0.6704830576840071
0.034,1.7730332882511264,1.0,2781.9062089026356,0.31818622859824996,1.3210927414275722,0.9557466059361687,0.2875203981065473,0.67123549554377
0.0345,1.7724031341204942,1.0,2790.844093968573,0.32201066520826654,1.3207277470932872,0.9567022435456257,0.28749393163306075,0.6719825007795421
0.035,1.7717729799898623,1.0,2799.557032866013,0.3258136454168489,1.3203649003032025,0.9576216635385725,0.2874674651595742,0.6727242686661962
0.035500000000000004,1.7711428258592303,1.0,2808.053720123666,0.32959529066366094,1.3200041131223275,0.9585067011316437,0.2874409986860877,0.6734609935739562
0.036000000000000004,1.7705126717285982,1.0,2816.34293873239,0.3333557223883668,1.3196452976156716,0.9593590760709035,0.2874145322126011,0.6741928689801937
0.0365,1.7698825175979662,1.0,2824.4335562155547,0.3370950620306303,1.3192883658482444,0.9601804012181181,0.2873880657391146,0.6749200874807323
0.037,1.769252363467334,1.0,2832.3345208703568,0.3408134310301155,1.3189332298850547,0.960972190405594,0.28736159926562804,0.6756428408006596
0.0375,1.7686222093367021,1.0,2840.0426967117355,0.34451091595468053,1.3185799101614757,0.9617358687737361,0.2873351327921415,0.6763610996221495
0.038,1.7679920552060702,1.0,2847.5792770978333,0.34818767776526977,1.3182282106844212,0.9624727709647499,0.2873086663186549,0.6770752739942336
0.0385,1.767361901075438,1.0,2854.9495306690196,0.35184382920490137,1.317878078199586,0.9631841559618151,0.2872821998451684,0.6777854827810519
0.039,1.766731746944806,1.0,2862.1582447466385,0.35547948144609276,1.3175294641481845,0.9638712092139458,0.28725573337168187,0.6784918348143074
0.0395,1.766101592814174,1.0,2869.2102498937434,0.3590947456613614,1.3171823199714312,0.9645350476195023,0.2872292668981953,0.6791944384487903
0.04,1.765471438683542,1.0,2876.1104183066964,0.3626897330232248,1.3168365971105407,0.9651767242253713,0.28720280042470875,0.6798934015670055
0.0405,1.76484128455291,1.0,2882.863662258406,0.36626455470420044,1.3164922470067275,0.9657972325560337,0.2871763339512222,0.6805888315836499
0.041,1.7642111304222778,1.0,2889.4749325945136,0.3698193218768058,1.3161492211012058,0.9663975106052596,0.28714986747773563,0.6812808354499391
0.0415,1.763580976291646,1.0,2895.9492172816995,0.37335414571355824,1.3158074708351903,0.9669784445199939,0.28712340100424916,0.681969519657782
0.042,1.7629508221610137,1.0,2902.291540007549,0.37686913738697536,1.3154669476498955,0.9675408720031131,0.28709693453076257,0.6826549902438078
0.0425,1.7623206680303818,1.0,2908.5069588342626,0.38036440806957456,1.3151276029865357,0.9680855854591908,0.28707046805727604,0.6833373527932408
0.043000000000000003,1.7616905138997498,1.0,2914.6005649028793,0.38384006893387335,1.3147893882863255,0.9686133349051095,0.2870440015837895,0.6840167124436256
0.043500000000000004,1.7610603597691177,1.0,2920.5774811908977,0.38729623115238915,1.3144522549904796,0.9691248306653066,0.2870175351103029,0.6846931738884006
0.044,1.7604302056384857,1.0,2926.44286132215,0.3907330058976395,1.314116154540212,0.9696207458696006,0.2869910686368164,0.6853668413803241
0.0445,1.7598000515078536,1.0,2932.20188842806,0.3941505043421418,1.3137810383767377,0.9701017187698813,0.28696460216332986,0.6860378187347459
0.045,1.7591698973772216,1.0,2937.8597513432383,0.39754883754342574,1.3134468581403207,0.9705683548891265,0.2869381356898433,0.6867062089348268
0.0455,1.7585397432465897,1.0,2943.413814724673,0.4009280804241335,1.3131136341959437,0.9710212291104847,0.28691166921635675,0.6873719772978595
0.046,1.7579095891159575,1.0,2948.876380751932,0.4042883863266546,1.312781256255631,0.9714608886886286,0.2868852027428702,0.6880353499207569
0.0465,1.7572794349853256,1.0,2954.249931845724,0.40762985669686946,1.3124497002807094,0.971887852798518,0.2868587362693837,0.6886963800844862
0.047,1.7566492808546934,1.0,2959.5369650231837,0.41095259298065856,1.3121189422325066,0.9723026150982874,0.28683226979589715,0.6893551208535116
0.0475,1.7560191267240615,1.0,2964.739991466059,0.41425669662390247,1.3117889580723499,0.9727056452236583,0.28680580332241057,0.690011625077036
0.048,1.7553889725934295,1.0,2969.8615361021148,0.4175422690724816,1.3114597237615662,0.9730973901813228,0.28677933684892404,0.690665945390207
0.0485,1.7547588184627974,1.0,2974.9041371985977,0.4208094117722765,1.3111312152614834,0.9734782756490096,0.2867528703754375,0.6913181342152823
0.049,1.7541286643321654,1.0,2979.870345969404,0.4240582261691676,1.3108034085334284,0.9738487071892891,0.2867264039019509,0.6919682437627641
0.0495,1.7534985102015332,1.0,2984.762726194542,0.4272888137090355,1.3104762795387288,0.9742090713835768,0.2866999374284644,0.6926163260324909
0.05,1.7528683560709013,1.0,2989.583853852415,0.4305012758377606,1.3101498042387119,0.9745597368922694,0.28667347095497786,0.6932624328146961
0.0505,1.7522382019402694,1.0,2994.3363167651087,0.4336957140012234,1.309823958594705,0.9749010554464422,0.28664700448149133,0.6939066156910286
0.051000000000000004,1.7516080478096372,1.0,2999.0227142563,0.4368722296453045,1.3094987185680353,0.9752333627761077,0.28662053800800474,0.694548926035536
0.051500000000000004,1.7509778936790052,1.0,3003.6456568222375,0.4400309242158843,1.3091740601200306,0.9755569794796194,0.2865940715345182,0.6951894150156114
0.052000000000000005,1.750347739548373,1.0,3008.2077658152025,0.44317189915884325,1.3088499592120175,0.9758722118384392,0.2865676050610317,0.6958281335929053
0.0525,1.7497175854177411,1.0,3012.7116731400847,0.4462952559200619,1.3085263918053238,0.9761793525811558,0.28654113858754515,0.696465132524196
0.053,1.7490874312871092,1.0,3017.1600209634257,0.44940109594542077,1.3082033338612769,0.9764786816003242,0.28651467211405857,0.6971004623622268
0.0535,1.748457277156477,1.0,3021.55273215766,0.4524894942607618,1.307880784919911,0.9767704654137749,0.28648820564057204,0.6977341271591184
0.054,1.747827123025845,1.0,3025.8928049249957,0.45556056328281846,1.307558717988223,0.9770549612157876,0.2864617391670855,0.6983661830020429
0.0545,1.747196968895213,1.0,3030.184363167538,0.45861442498412675,1.3072370964532,0.9773324155369321,0.2864352726935989,0.6989967046014256
0.055,1.746566814764581,1.0,3034.4285954457537,0.4616511711381599,1.3069159091225924,0.977603063050111,0.2864088062201124,0.6996257166053974
0.0555,1.745936660633949,1.0,3038.6266952289193,0.46467089351839097,1.3065951448041497,0.9778671286098457,0.28638233974662586,0.700253243566717
0.056,1.7453065065033169,1.0,3042.7798607886857,0.46767368389829317,1.3062747923056224,0.9781248277439832,0.28635587327313927,0.7008793099430737
0.0565,1.744676352372685,1.0,3046.88929509609,0.47065963405133965,1.3059548404347605,0.97837636711688,0.2863294067996528,0.7015039400973859
0.057,1.7440461982420528,1.0,3050.956205719779,0.47362883575100345,1.3056352779993143,0.9786219449659388,0.2863029403261662,0.7021271582980926
0.0575,1.7434160441114208,1.0,3054.9818047290937,0.47658138077075785,1.3053160938070338,0.9788617515132313,0.2862764738526797,0.702748988719434
0.058,1.7427858899807889,1.0,3058.9673085979853,0.4795173608840759,1.304997276665669,0.9790959693538221,0.28625000737919315,0.7033694554417262
0.0585,1.7421557358501567,1.0,3062.913938112684,0.4824368678644308,1.3046788153829703,0.979324773822285,0.28622354090570656,0.7039885824516261
0.059000000000000004,1.7415255817195248,1.0,3066.8229182824543,0.4853399934852957,1.3043606987666878,0.9795483333388008,0.28619707443222003,0.7046063936423901
0.059500000000000004,1.7408954275888926,1.0,3070.695478252227,0.4882268295201437,1.3040429156245712,0.9797668097361271,0.2861706079587335,0.7052229128141259
0.06,1.7402652734582607,1.0,3074.5328512184597,0.49109746774244795,1.3037254547643713,0.9799803585686389,0.2861441414852469,0.7058381636740301
0.0605,1.7396351193276287,1.0,3078.3362743481885,0.4939519999256816,1.3034083049938376,0.9801891294045507,0.2861176750117604,0.7064521698366275
0.061,1.7390049651969965,1.0,3082.106988699995,0.49679051784331785,1.3030914551207204,0.9803932661023655,0.28609120853827386,0.7070649548239933
0.0615,1.7383748110663646,1.0,3085.846239148368,0.49961311326882984,1.3027748939527701,0.9805929070725088,0.2860647420647873,0.707676542065972
0.062,1.7377446569357324,1.0,3089.5552743106764,0.5024198779756907,1.3024586102977365,0.980788185525054,0.28603827559130074,0.708286954900389
0.0625,1.7371145028051005,1.0,3093.235346476983,0.5052109037373734,1.3021425929633699,0.9809792297043756,0.2860118091178142,0.7088962165732506
0.063,1.7364843486744685,1.0,3096.8858028666414,0.5079862462079366,1.3018268470450125,0.9811661613004259,0.2859853426443277,0.7095043188866921
0.0635,1.7358541945438364,1.0,3100.5090426242446,0.5107460308260289,1.3015113516018804,0.9813491013010949,0.28595887617084115,0.7101113037474722
0.064,1.7352240404132044,1.0,3104.106140574935,0.5134903510312414,1.3011960970337464,0.9815281645331274,0.28593240969735456,0.7107171911085397
0.0645,1.7345938862825723,1.0,3107.677659445264,0.5162192894263208,1.3008810781283793,0.9817034611309521,0.28590594322386803,0.7113219924244392
0.065,1.7339637321519403,1.0,3111.2241637431916,0.5189329286140132,1.300566289673549,0.9818750972927813,0.2858794767503815,0.7119257191067482
0.0655,1.7333335780213084,1.0,3114.746219731607,0.521631351197065,1.3002517264570246,0.9820431754497673,0.28585301027689497,0.7125283825241584
0.066,1.7327034238906762,1.0,3118.2443954016157,0.5243146397782226,1.2999373832665755,0.9822077944267171,0.2858265438034084,0.7131299940025492
0.0665,1.7320732697600443,1.0,3121.7192604474035,0.5269828769602322,1.2996232548899709,0.9823690495948458,0.28580007732992185,0.7137305648250623
0.067,1.731443115629412,1.0,3125.1713862403076,0.5296361453458402,1.2993093361149806,0.9825270330170124,0.2857736108564353,0.7143301062321734
0.0675,1.7308129614987802,1.0,3128.601345804958,0.5322745275377929,1.2989956217293734,0.9826818335858634,0.2857471443829488,0.7149286294217648
0.068,1.7301828073681482,1.0,3132.0097137949706,0.5348981061388367,1.298682106520919,0.9828335371552758,0.2857206779094622,0.7155261455491913
0.0685,1.729552653237516,1.0,3135.397066469946,0.5375069637517179,1.2983687852773869,0.9829822266654664,0.2856942114359757,0.716122665727349
0.069,1.7289224991068841,1.0,3138.7639816724345,0.5401011829791827,1.298055652786546,0.9831279822621174,0.28566774496248915,0.7167182010267407
0.0695,1.728292344976252,1.0,3142.1110388059647,0.5426808464239777,1.2977427038361662,0.9832708814098411,0.28564127848900256,0.7173127624755391
0.07,1.72766219084562,1.0,3145.4388188137063,0.545246036688849,1.2974299332140165,0.9834109990002942,0.28561481201551603,0.7179063610596483
0.07050000000000001,1.727032036714988,1.0,3148.7479041571055,0.547796836376543,1.2971173357078665,0.98354840745522,0.2855883455420295,0.7184990077227646
