Time [s],Phi [rad],STIM [ ],Fsee [N],Gamma [ ],Lcerel [ ],q [ ],Lmtc [m],fisomrel [ ]
0.0,1.8,1.0,18.070898286949934,0.0003274029509322857,1.3793281405852367,0.00502779140515405,0.288653,0.5411676076535298
0.0005,1.79999375,1.0,18.48222602264579,0.005934775788137378,1.3792796265490035,0.013845143143624752,0.2886527375,0.541284964556277
0.001,1.799975,1.0,22.059442997849295,0.011510695697170802,1.378893481633712,0.037281721072486326,0.28865195,0.542218525432028
0.0015,1.79994375,1.0,32.02330217577325,0.017055339105092694,1.3779655351720113,0.07287945044186876,0.2886506375,0.544458081065482
0.002,1.7999,1.0,55.55489657328465,0.022568881447095256,1.3762413219871732,0.11740735216559754,0.2886488,0.5486048074915315
0.0025,1.79984375,1.0,100.36522905526247,0.028051497175712085,1.3737800220365386,0.1674955380918711,0.28864643749999996,0.5544913747651936
0.003,1.7997750000000001,1.0,165.13783439167315,0.03350335976603845,1.3710588974882765,0.22029025342664665,0.28864354999999997,0.5609543832741861
0.0035,1.79969375,1.0,242.3814807343762,0.03892464171750582,1.368440726954952,0.27360417706959794,0.2886401375,0.5671282867375849
0.004,1.7996,1.0,326.4509171442911,0.04431551456386207,1.36602458916962,0.3258105599123855,0.2886362,0.5727869901888101
0.0045000000000000005,1.7994937500000001,1.0,414.41947818329305,0.049676148878653244,1.3638022616703938,0.3757812621004812,0.2886317375,0.5779589107254668
0.005,1.799375,1.0,504.6624521733549,0.05500671426672757,1.3617470941842922,0.4228164987833567,0.28862675,0.5827137750294031
0.0055,1.79924375,1.0,596.0806446090346,0.06030737940250455,1.3598357071721792,0.4665517257439353,0.2886212375,0.5871118107267147
0.006,1.7991000000000001,1.0,687.8088986627289,0.06557831199782072,1.3580504279220527,0.5068650499219195,0.2886152,0.5911986322220504
0.006500000000000001,1.79894375,1.0,779.1353158854047,0.07081967880797174,1.3563777151168388,0.5437984955315035,0.2886086375,0.5950093245156292
0.007,1.798775,1.0,869.475270979437,0.07603164575223437,1.3548066940463688,0.5774972240583888,0.28860155,0.5985720977674951
0.0075,1.79859375,1.0,958.3381517344518,0.0812143775605061,1.353328518238917,0.6081656145393378,0.2885939375,0.6019099432368984
0.008,1.7984,1.0,1045.3502907858574,0.08636803851044608,1.3519352395633553,0.6360364018638973,0.2885858,0.6050433263822823
0.0085,1.79819375,1.0,1130.191441755892,0.09149279144199024,1.3506202727252004,0.6613509692074716,0.2885771375,0.6079892358230425
0.009000000000000001,1.797975,1.0,1212.6180356095972,0.09658879834648118,1.3493776339934787,0.684346261369984,0.28856795,0.6107629746974454
0.0095,1.79774375,1.0,1292.4681035173505,0.10165622098760956,1.3482016261282135,0.7052471528065068,0.2885582375,0.6133789144185837
0.01,1.7975,1.0,1369.6060211022645,0.10669521942286612,1.347087378794545,0.7242627582781526,0.288548,0.615849335081416
0.0105,1.79724375,1.0,1443.9435139121867,0.11170595280640253,1.3460303684840613,0.7415844495812178,0.2885372375,0.6181855359910229
0.011,1.796975,1.0,1515.4364578826294,0.11668857966527925,1.345026330534356,0.7573855484481665,0.28852595000000003,0.6203980587946345
0.0115,1.79669375,1.0,1584.0865297703253,0.1216432586679679,1.344071138526438,0.7718218793372263,0.2885141375,0.6224969758709209
0.012,1.7964,1.0,1649.8805352719305,0.12657014574993136,1.3431614372294443,0.7850331391951539,0.28850180000000003,0.6244905229547901
0.0125,1.79609375,1.0,1712.8367784454188,0.13146939646386668,1.34229398388316,0.7971439060643251,0.2884889375,0.6263865707825096
0.013000000000000001,1.7957750000000001,1.0,1773.002615949952,0.13634116593906556,1.3414656246602212,0.8082650499972753,0.28847555,0.628192688697082
0.0135,1.79544375,1.0,1830.4443986395277,0.14118560919282552,1.3406733623491898,0.8184951660707669,0.2884616375,0.6299160082452093
0.014,1.7951000000000001,1.0,1885.2193368253852,0.14600287936229067,1.3399146195882483,0.8279219976640451,0.2884472,0.6315626638717362
0.0145,1.79474375,1.0,1937.3827840301337,0.1507931280543942,1.3391871029390627,0.8366235993878134,0.2884322375,0.6331381033157069
0.015,1.794375,1.0,1987.0110480159642,0.15555650687606937,1.3384885189633,0.8446693533164036,0.28841675,0.6346477121493358
0.0155,1.79399375,1.0,2034.1836612634086,0.1602931664224511,1.337816741771891,0.8521210388680894,0.2884007375,0.6360964572022436
0.016,1.7936,1.0,2079.00277755144,0.1650032581869921,1.3371695842225777,0.8590336576559445,0.2883842,0.63748938608155
0.0165,1.7931937500000001,1.0,2121.5411465042957,0.16968693037175872,1.3365453221379717,0.8654563921238808,0.2883671375,0.6388305042954363
0.017,1.792775,1.0,2161.8721101317246,0.17434433033846802,1.3359423517639757,0.8714331891877792,0.28834955,0.6401235213370192
0.0175,1.7923437500000001,1.0,2200.0799202888675,0.17897560544883706,1.3353590693464916,0.8770033438414829,0.2883314375,0.64137211290515
0.018000000000000002,1.7919,1.0,2236.2518586191995,0.18358090228377139,1.3347939409319767,0.8822020641668195,0.2883128,0.6425797739644009
0.0185,1.79144375,1.0,2270.4802835698492,0.1881603677864467,1.3342454706317863,0.8870609402948431,0.2882936375,0.6437498895476266
0.019,1.790975,1.0,2302.8459904595456,0.1927141470730065,1.3337123561939905,0.8916083997600789,0.28827395,0.6448854060059158
0.0195,1.79049375,1.0,2333.4172460094587,0.1972423829821956,1.3331934850952907,0.8958700662277209,0.2882537375,0.6459888440371631
0.02,1.79,1.0,2362.2680238763683,0.2017452183527589,1.3326877448123884,0.899869032631708,0.288233,0.6470627055218341
0.0205,1.78949375,1.0,2389.477527797263,0.20622279602344135,1.332194022821985,0.9036261452041439,0.2882117375,0.6481094744940895
0.021,1.788975,1.0,2415.1168638731947,0.21067525694340827,1.3317113310454713,0.9071602786851773,0.28818995000000003,0.6491313547705412
0.021500000000000002,1.78844375,1.0,2439.2741225326736,0.2151027448613112,1.3312385575347803,0.9104885015749891,0.2881676375,0.6501307972011419
0.022,1.7879,1.0,2462.0126172769146,0.219505399163704,1.3307748656297984,0.9136263501788127,0.2881448,0.6511096564655257
0.0225,1.78734375,1.0,2483.3893445993576,0.22388335775792167,1.3303195085729889,0.9165879547156586,0.28812143749999997,0.6520695862758263
0.023,1.786775,1.0,2503.4640004929747,0.228236758551299,1.3298717396068147,0.9193861703442607,0.28809755,0.6530122302575696
0.0235,1.78619375,1.0,2522.298755168705,0.23256573945117082,1.3294308119737395,0.9220327098619858,0.28807313749999996,0.6539392223288352
0.024,1.7856,1.0,2539.9567653370214,0.23687043808821315,1.3289959909282614,0.9245382630497343,0.2880482,0.6548521618403425
0.0245,1.78499375,1.0,2556.491284480276,0.24115098949710354,1.3285666539364829,0.9269126167966258,0.2880227375,0.6557524040847689
0.025,1.784375,1.0,2571.9768646815146,0.24540753330330242,1.3281419950790267,0.9291646973383691,0.28799675,0.6566416806937372
0.025500000000000002,1.78374375,1.0,2586.4563138029157,0.24964020209853957,1.3277215215189944,0.9313027337584645,0.2879702375,0.6575210597362096
0.026000000000000002,1.7831000000000001,1.0,2599.973696283184,0.2538491284745447,1.3273047404194869,0.933334276309686,0.2879432,0.6583916036317995
0.0265,1.78244375,1.0,2612.574228412949,0.2580344450230476,1.3268911589436057,0.9352662615710413,0.2879156375,0.6592543692745738
0.027,1.781775,1.0,2624.3041789962717,0.2621962843357781,1.326480284254452,0.9371050705567374,0.28788755,0.6601104081413653
0.0275,1.7810937500000001,1.0,2635.210775396472,0.26633477900446584,1.3260716235151273,0.9388565806151277,0.2878589375,0.6609607663845953
0.028,1.7804,1.0,2645.333291372238,0.27045005779623327,1.325664765357735,0.9405262222857759,0.2878298,0.6618063157030978
0.0285,1.77969375,1.0,2654.7247686287774,0.2745422562567413,1.325259178193425,0.9421189948908362,0.2878001375,0.662648172834623
0.029,1.778975,1.0,2663.4191731354363,0.27861150257076633,1.3248545128037472,0.9436395425787486,0.28776995,0.6634870711448981
0.029500000000000002,1.7782437500000001,1.0,2671.4481516828323,0.28265792371767373,1.3244504462882816,0.9450921661391615,0.2877392375,0.6643236859162466
0.03,1.7775,1.0,2678.8438309695593,0.2866816466768287,1.3240466557466086,0.946480849857645,0.287708,0.6651586890925987
0.0305,1.77674375,1.0,2685.6387740559076,0.29068279842759664,1.3236428182783087,0.9478092888240272,0.2876762375,0.6659927492885003
0.031,1.775975,1.0,2691.8659391291226,0.29466150594934276,1.323238610982962,0.9490809135619555,0.28764395,0.6668265317914714
0.0315,1.7751937500000001,1.0,2697.5586405802705,0.29861789622143237,1.3228337109601491,0.9502989122715068,0.2876111375,0.6676606985577134
0.032,1.7744,1.0,2702.738171825546,0.30255208825515567,1.322427908034395,0.9514662622720347,0.2875778,0.6684956764048587
0.0325,1.77359375,1.0,2707.4489529222583,0.3064642179518005,1.3220207831747144,0.9525857160538512,0.2875439375,0.6693323188888507
0.033,1.772775,1.0,2711.714711393009,0.31035440804432685,1.3216121087210324,0.953659857899959,0.28750955,0.6701710826658509
0.0335,1.7719437500000002,1.0,2715.555916565857,0.3142227789802775,1.3212016884764417,0.9546911017946019,0.2874746375,0.6710123575251368
0.034,1.7711000000000001,1.0,2718.993203311927,0.3180694512071953,1.3207893262440342,0.9556817019177131,0.2874392,0.6718565311476358
0.0345,1.7702437500000001,1.0,2722.0473555100816,0.3218945451726231,1.3203748258269024,0.9566337651086187,0.2874032375,0.6727039890828508
0.035,1.7693750000000001,1.0,2724.739290364517,0.3256981813241038,1.3199579910281383,0.9575492622185028,0.28736675,0.6735551147233348
0.035500000000000004,1.76849375,1.0,2727.0900435767307,0.32948048010918013,1.3195386256508344,0.9584300384623282,0.2873297375,0.674410289276709
0.036000000000000004,1.7676,1.0,2729.1207553699596,0.333241561975395,1.3191165334980828,0.9592778228687973,0.2872922,0.6752698917352264
0.0365,1.76669375,1.0,2730.852657367856,0.3369815473702912,1.318691518372976,0.9600942369162614,0.2872541375,0.67613429884288
0.037,1.765775,1.0,2732.2993221686584,0.3407005516169442,1.3182634543794425,0.9608808083078955,0.28721555,0.6770037423675528
0.0375,1.76484375,1.0,2733.4804079431706,0.3443986966591633,1.317832160900148,0.9616389680128813,0.2871764375,0.677878563448796
0.038,1.7639,1.0,2734.416866800332,0.3480761031023278,1.317397446093717,0.9623700597340119,0.28713679999999997,0.678759123766537
0.0385,1.76294375,1.0,2735.1206618625065,0.3517328845922289,1.316959200189206,0.9630753538058917,0.28709663750000003,0.6796456167583507
0.039,1.761975,1.0,2735.60379325647,0.35536915477465797,1.3165173134156716,0.963756046064533,0.28705595,0.6805382344009105
0.0395,1.7609937500000001,1.0,2735.8782931023375,0.3589850272954061,1.3160716760021693,0.9644132630162231,0.2870147375,0.6814371671848842
0.04,1.76,1.0,2735.956220768562,0.3625806158002646,1.3156221781777562,0.9650480665945087,0.286973,0.6823426040890586
0.0405,1.7589937500000001,1.0,2735.8496583951096,0.36615603393502466,1.3151687101714882,0.9656614585421445,0.2869307375,0.6832547325537006
0.041,1.757975,1.0,2735.57070668311,0.36971139534547753,1.3147111622124215,0.9662543844512165,0.28688795,0.6841737384531472
0.0415,1.75694375,1.0,2735.1314809517908,0.3732468136774144,1.3142494245296124,0.9668277374914,0.2868446375,0.6850998060676259
0.042,1.7559,1.0,2734.5433797894207,0.3767624008810049,1.3137833939602914,0.9673823621246376,0.28680079999999997,0.6860331048302313
0.0425,1.75484375,1.0,2733.816040341494,0.38025826539916513,1.3133129834118205,0.9679190577666347,0.2867564375,0.686973770489746
0.043000000000000003,1.753775,1.0,2732.9619840062037,0.38373452664421825,1.3128380796463544,0.9684385805658022,0.28671155,0.6879219895509606
0.043500000000000004,1.75269375,1.0,2731.9879595695293,0.38719129184430323,1.312358621887913,0.9689416487881791,0.28666613750000003,0.688877842258558
0.044,1.7516,1.0,2730.9007192695553,0.390628668227559,1.3118745493605164,0.9694289429687477,0.2866202,0.689841407720583
0.0445,1.75049375,1.0,2729.707017367572,0.3940467630221246,1.3113858012881843,0.9699011082631147,0.2865737375,0.6908127638906743
0.045,1.7493750000000001,1.0,2728.4136088002774,0.39744568345613895,1.3108923168949365,0.9703587566302921,0.28652675,0.6917919875500587
0.0455,1.74824375,1.0,2727.027247914171,0.4008255367577412,1.3103940354047925,0.9708024688602441,0.2864792375,0.6927791542893127
0.046,1.7471,1.0,2725.5546872818745,0.4041864301550701,1.3098908960417728,0.9712327964586369,0.2864312,0.6937743384898827
0.0465,1.7459437500000001,1.0,2724.00267660065,0.4075284708762648,1.3093828380298964,0.9716502634001271,0.28638263750000004,0.6947776133053791
0.047,1.744775,1.0,2722.377961671655,0.4108517661494642,1.3088698005931838,0.9720553677605285,0.28633355,0.695789050642624
0.0475,1.74359375,1.0,2720.680089108893,0.4141563947931882,1.3083517884554825,0.9724485842566021,0.28628393750000003,0.6968085923351575
0.048,1.7424,1.0,2718.9246091648356,0.4174424979255065,1.3078286606237701,0.9728303622915229,0.2862338,0.6978364658755605
0.0485,1.74119375,1.0,2717.116698160662,0.42071018221071577,1.307300370452993,0.9732011318708457,0.2861831375,0.6988727114778484
0.049,1.739975,1.0,2715.2595061759725,0.4239595467584719,1.306766889717096,0.9735613029044147,0.28613195,0.6999173321852648
0.0495,1.73874375,1.0,2713.3561804876695,0.4271906906784308,1.3062281901900237,0.9739112660209791,0.2860802375,0.7009703301433121
0.05,1.7375,1.0,2711.409865294132,0.4304037130802483,1.3056842436457203,0.9742513936465436,0.286028,0.7020317065903823
0.0505,1.73624375,1.0,2709.4237014570895,0.43359871307358017,1.3051350218581306,0.9745820410130385,0.2859752375,0.703101461848336
0.051000000000000004,1.734975,1.0,2707.4008262615166,0.4367757897680823,1.304580496601199,0.9749035471023922,0.28592195,0.7041795953130328
0.051500000000000004,1.73369375,1.0,2705.3443731927373,0.43993504227341046,1.30402063964887,0.9752162355306778,0.2858681375,0.7052661054448084
0.052000000000000005,1.7324,1.0,2703.2574717314233,0.4430765696992206,1.3034554227750883,0.9755204153766349,0.2858138,0.7063609897589045
0.0525,1.73109375,1.0,2701.143247166645,0.4462004711551685,1.3028848177537984,0.9758163819585209,0.28575893750000003,0.707464244815843
0.053,1.729775,1.0,2699.004820425575,0.44930684575091,1.3023087963589448,0.9761044175629295,0.28570355000000003,0.708575866211754
0.0535,1.72844375,1.0,2696.845307921937,0.452395792596101,1.301727330364472,0.9763847921289424,0.2856476375,0.7096958485686503
0.054,1.7271,1.0,2694.66782142169,0.45546741080039727,1.3011403915443247,0.9766577638907006,0.2855912,0.7108241855246518
0.0545,1.7257437500000001,1.0,2692.4754679259877,0.45852179947345467,1.300547951672447,0.9769235799812601,0.2855342375,0.7119608697241597
0.055,1.724375,1.0,2690.271349572357,0.46155905772492906,1.2999499825227838,0.977182477000368,0.28547675,0.7131058928079773
0.0555,1.72299375,1.0,2688.0571816377383,0.46457926938797095,1.2993464685268288,0.9774346808529072,0.2854187375,0.7142592212388913
0.056,1.7216,1.0,2685.8337119924977,0.4675825270305943,1.2987374029556558,0.9776804093444933,0.2853602,0.7154208038115758
0.0565,1.72019375,1.0,2683.6046048985845,0.4705689560134864,1.298122752335133,0.9779198726912314,0.28530113749999997,0.7165906394774391
0.057,1.718775,1.0,2681.370916558711,0.47353864627376374,1.2975025070539115,0.9781532705682144,0.28524155,0.7177686807928487
0.0575,1.71734375,1.0,2679.133701448906,0.4764916877485426,1.2968766575006416,0.9783807945100799,0.2851814375,0.7189548795639246
0.058,1.7159,1.0,2676.8940123092298,0.4794281703749394,1.2962451940639745,0.9786026283060469,0.2851208,0.720149186843106
0.0585,1.71444375,1.0,2674.652900135927,0.4823481840900704,1.2956081071325605,0.9788189483727356,0.2850596375,0.7213515529257164
0.059000000000000004,1.7129750000000001,1.0,2672.411414175553,0.4852518188310521,1.2949653870950506,0.979029924106179,0.28499795,0.7225619273465145
0.059500000000000004,1.71149375,1.0,2670.1706019218395,0.4881391645350008,1.2943170243400952,0.9792357182143447,0.2849357375,0.7237802588762494
0.06,1.71,1.0,2667.9315091136264,0.49101031113903276,1.2936630092563455,0.9794364870313915,0.284873,0.7250064955182001
0.0605,1.7084937500000001,1.0,2665.695179735823,0.49386534858026454,1.2930033322324517,0.97963238081479,0.2848097375,0.726240584504718
0.061,1.7069750000000001,1.0,2663.462656021698,0.4967043667958124,1.292337983657065,0.9798235440263762,0.28474595,0.7274824722937552
0.0615,1.7054437500000001,1.0,2661.2349784574476,0.4995274557227927,1.2916669539188357,0.9800101155983131,0.2846816375,0.7287321045653947
0.062,1.7039,1.0,2659.0131857891347,0.5023347052983219,1.290990233406415,0.9801922291848876,0.2846168,0.7299894262183678
0.0625,1.70234375,1.0,2656.7983150310592,0.5051262054595163,1.290307812508453,0.9803700134009878,0.2845514375,0.7312543813665717
0.063,1.7007750000000001,1.0,2654.591401476603,0.5079020461434921,1.289619681613601,0.9805435920480711,0.28448555,0.7325269133355753
0.0635,1.69919375,1.0,2652.3934787112125,0.5106623172873659,1.2889258311105094,0.9807130843283569,0.28441913750000003,0.7338069646591243
0.064,1.6976,1.0,2650.205578626821,0.5134071088282539,1.288226251387829,0.9808786050479447,0.2843522,0.7350944770756376
0.0645,1.69599375,1.0,2648.0122361774,0.5161365083369911,1.2875210850591896,0.9810402722941988,0.2842847375,0.7363891123928133
0.065,1.694375,1.0,2645.84355720731,0.5188505997590604,1.2868100542533316,0.9811981786693277,0.28421675,0.7376913035051051
0.0655,1.69274375,1.0,2643.7061124700667,0.5215494683787655,1.2860930980134755,0.9813524242000048,0.2841482375,0.7390010818528441
0.066,1.6911,1.0,2641.581855376543,0.5242331985182319,1.285370382743467,0.9815031164241755,0.2840792,0.7403180633062727
0.0665,1.6894437500000001,1.0,2639.452768528883,0.5269018744995857,1.2846420748471523,0.9816503591096368,0.2840096375,0.7416418661565949
0.067,1.6877797786697892,1.0,2637.534249946248,0.5295555806449525,1.2839083407283773,0.9817942524170645,0.28393975070413113,0.7429721111762104
0.0675,1.6861157087541774,1.0,2636.1802689247916,0.5321944012764581,1.283169346790988,0.9819348930549722,0.2838698597676754,0.744308421677185
0.068,1.6844516388385655,1.0,2635.37870672881,0.5348184197886104,1.2824252456437621,0.982072373707446,0.2837999688312197,0.7456504484153719
0.0685,1.6827875689229534,1.0,2635.0678267382186,0.537427720169009,1.2816766060825024,0.9822068036914514,0.283730077894764,0.7469970968936313
0.069,1.6811234990073416,1.0,2635.1971445520085,0.5400223857056465,1.2809238943246175,0.9823382838993042,0.28366018695830836,0.7483474668287345
0.0695,1.6794594290917297,1.0,2635.7359507001834,0.5426024973915821,1.280167394728132,0.9824669033078721,0.28359029602185265,0.7497009914899588
0.07,1.6777953591761179,1.0,2636.6536235321523,0.5451681362198739,1.279407391651071,0.9825927480040098,0.28352040508539694,0.7510571093454879
0.07050000000000001,1.676131289260506,1.0,2637.919606232198,0.5477193831835808,1.2786441694514599,0.9827159013057273,0.28345051414894123,0.7524152641285272
0.07100000000000001,1.674467219344894,1.0,2639.5033856272726,0.5502563192757615,1.2778780124873235,0.9828364438775495,0.2833806232124855,0.7537749048982618
0.07150000000000001,1.672803149429282,1.0,2641.3762810278404,0.552779024946334,1.2771091884085422,0.9829544530456705,0.2833107322760299,0.755135515623594
0.07200000000000001,1.6711390795136702,1.0,2643.5132111364933,0.555287580227584,1.276337931708269,0.9830700021899786,0.28324084133957417,0.756496643811212
0.0725,1.6694750095980584,1.0,2645.8879309418276,0.5577820659258057,1.275564487632054,0.9831831629379847,0.28317095040311846,0.757857822564042
0.073,1.6678109396824465,1.0,2648.483590448866,0.5602625598364238,1.27478901460866,0.9832940006501257,0.28310105946666275,0.7592187418699032
0.0735,1.6661468697668345,1.0,2651.2833348639997,0.5627291397548622,1.2740116710668499,0.9834025786706156,0.28303116853020704,0.7605790947677056
0.074,1.6644827998512226,1.0,2654.270297746025,0.5651818834765452,1.2732326154353866,0.9835089584067167,0.28296127759375134,0.7619385773671498
0.0745,1.6628187299356108,1.0,2657.4275947141296,0.567620868796897,1.272452006143033,0.9836131994044397,0.28289138665729563,0.7632968888668261
