Time [s],Phi [rad],STIM [ ],Fsee [N],Gamma [ ],Lcerel [ ],q [ ],Lmtc [m],fisomrel [ ]
0.0,1.8,1.0,17.967542671309285,1.2114634252345336e-05,1.379339703142675,0.005000039056133041,0.288653,0.5411396352666682
0.0005,1.79999375,1.0,18.27755143485765,0.005621255989529923,1.3793022981164238,0.012946385442286792,0.2886527375,0.541230123225764
0.001,1.799975,1.0,21.62072565845841,0.01119893449671632,1.378938062704808,0.035619595767821546,0.28865195,0.5421107928365019
0.0015,1.79994375,1.0,31.07483111118427,0.016745326638375337,1.3780457270665378,0.07061678868369449,0.2886506375,0.5442647584398368
0.002,1.7999,1.0,53.594400271931434,0.02226060790541704,1.3763673524259166,0.1147357007142287,0.2886488,0.5483023470277613
0.0025,1.79984375,1.0,97.13908546357132,0.027744952804674216,1.3739341964346907,0.16459410951020373,0.28864643749999996,0.5541237778595094
0.003,1.7997750000000001,1.0,160.98451194751775,0.0331985348666021,1.3712133576734564,0.2173002793344497,0.28864354999999997,0.560588785346934
0.0035,1.79969375,1.0,237.71316530364385,0.03862152664488342,1.368583815303241,0.2706326074078803,0.2886401375,0.566791999669982
0.004,1.7996,1.0,321.498569435555,0.044014099727207254,1.3661552502068652,0.32293489539799697,0.2886362,0.5724819283990686
0.0045000000000000005,1.7994937500000001,1.0,409.3007388869882,0.04937642474045446,1.363922039825789,0.3730526331288652,0.2886317375,0.5776809595951431
0.005,1.799375,1.0,499.44719926652635,0.05470867134179015,1.3618576263408395,0.42026441937801945,0.28862675,0.5824587316931549
0.0055,1.79924375,1.0,590.82445294132,0.06001100826606078,1.3599381700705138,0.46418940007793036,0.2886212375,0.5868766381578123
0.006,1.7991000000000001,1.0,682.5522164067831,0.06528360326913002,1.3581457947610596,0.5046943928511601,0.2886152,0.5909808344865084
0.006500000000000001,1.79894375,1.0,773.8999499998897,0.07052662296824697,1.3564669345321285,0.5418141205469197,0.2886086375,0.5948065197234287
0.007,1.798775,1.0,864.3275646746731,0.07574023397495971,1.3548897205521662,0.5756887245839003,0.28860155,0.5983842035918541
0.0075,1.79859375,1.0,953.2904430049791,0.0809246005362387,1.3534060527909337,0.6065207214936413,0.2885939375,0.6017352099832007
0.008,1.7984,1.0,1040.3923771449472,0.08607988667213366,1.352008146907415,0.6345419858182606,0.2885858,0.6048796699961982
0.0085,1.79819375,1.0,1125.3515562494308,0.09120625588046889,1.3506887130652274,0.6599934220065653,0.2885771375,0.6078361815326996
0.009000000000000001,1.797975,1.0,1207.9170085484752,0.09630387020817617,1.349441805117211,0.6831125095239753,0.28856795,0.6106199771569678
0.0095,1.79774375,1.0,1287.9003567211678,0.10137289070132496,1.348262015944055,0.7041250991644995,0.2885582375,0.6132447967174195
0.01,1.7975,1.0,1365.1875065076747,0.10641347823653508,1.347144122349382,0.7232410831788735,0.288548,0.6157237191271596
0.0105,1.79724375,1.0,1439.6968991426293,0.11142579252117002,1.34608347830141,0.7406528021411204,0.2885372375,0.6180683228533084
0.011,1.796975,1.0,1511.3554716437063,0.1164099913136926,1.345076147391047,0.7565347534401404,0.28852595000000003,0.6202884327224246
0.0115,1.79669375,1.0,1580.1452747640478,0.12136623237256575,1.344118193209202,0.7710437970230749,0.2885141375,0.6223937152501098
0.012,1.7964,1.0,1646.0797224156645,0.12629467273387976,1.3432058991226619,0.7843203451813047,0.28850180000000003,0.6243932104827974
0.0125,1.79609375,1.0,1709.1953263662058,0.13119546913636027,1.3423357895347316,0.7964896936311039,0.2884889375,0.6262953035830099
0.013000000000000001,1.7957750000000001,1.0,1769.5163574674707,0.13606877582194696,1.341504962084501,0.807663556441093,0.28847555,0.6281070180856618
0.0135,1.79544375,1.0,1827.092414087605,0.14091474671995816,1.3407105852381673,0.8179412444691286,0.2884616375,0.6298351310799284
0.014,1.7951000000000001,1.0,1881.990232988409,0.14573353511819792,1.3399499521019556,0.8274110273554977,0.2884472,0.631486065261091
0.0145,1.79474375,1.0,1934.2932293490194,0.15052529470433929,1.3392204493265656,0.8361513634610904,0.2884322375,0.6330659654294737
0.015,1.794375,1.0,1984.068919490254,0.15529017673539106,1.3385198741744784,0.8442321326855817,0.28841675,0.6345800216482632
0.0155,1.79399375,1.0,2031.383203951126,0.16002833110225162,1.3378462382934997,0.8517155677526281,0.2884007375,0.6360329058384306
0.016,1.7936,1.0,2076.318184151775,0.16473990769581928,1.3371975533314353,0.8586570865933069,0.2883842,0.6374292411584626
0.0165,1.7931937500000001,1.0,2118.961447529242,0.16942505557416626,1.3365719271071723,0.8651061284936659,0.2883671375,0.6387733988627688
0.017,1.792775,1.0,2159.4093023208497,0.17408392437180203,1.335967512691169,0.8711068479013321,0.28834955,0.6400696122962666
0.0175,1.7923437500000001,1.0,2197.741341801106,0.17871666131518774,1.3353827522831965,0.8766988034827871,0.2883314375,0.6413214587721559
0.018000000000000002,1.7919,1.0,2234.0292748107827,0.1833234118849852,1.3348162660167784,0.8819174642883666,0.2883128,0.6425321046255801
0.0185,1.79144375,1.0,2268.3532462212784,0.18790432156185616,1.3342666740254376,0.8867946398017034,0.2882936375,0.6437046895279714
0.019,1.790975,1.0,2300.8011262616883,0.19245953582646255,1.3337325964426978,0.8913589038128636,0.28827395,0.6448423280344879
0.0195,1.79049375,1.0,2331.4480906202098,0.196989197967895,1.3332128476571534,0.89563601118767,0.2882537375,0.6459476982022024
0.02,1.79,1.0,2360.3929289517378,0.20149345434197422,1.3327060693176784,0.899649133401176,0.288233,0.6470238247422837
0.0205,1.78949375,1.0,2387.698511320991,0.20597244580864782,1.3322113089104415,0.9034192756402298,0.2882117375,0.6480728515051378
0.021,1.788975,1.0,2413.4308575492705,0.21042631306617812,1.3317276260061865,0.9069654301197777,0.28818995000000003,0.6490968818376901
0.021500000000000002,1.78844375,1.0,2437.6599993585605,0.2148551968128275,1.3312540801756583,0.9103047942480041,0.2881676375,0.6500980049967429
0.022,1.7879,1.0,2460.4596414964035,0.21925923774685818,1.330789730989601,0.9134529649944716,0.2881448,0.6510782967851638
0.0225,1.78734375,1.0,2481.8940182435626,0.22363857431648385,1.3303337602624188,0.9164241330558098,0.28812143749999997,0.652039562598504
0.023,1.786775,1.0,2502.04072064825,0.22799334831340606,1.3298852500234462,0.9192311906156923,0.28809755,0.6529838068143126
0.0235,1.78619375,1.0,2520.9558143896456,0.2323236966424257,1.3294435119759336,0.9218859244368092,0.28807313749999996,0.6539125395949072
0.024,1.7856,1.0,2538.6909019062136,0.23662975487253213,1.3290079202345895,0.9243990992865284,0.2880482,0.654827131450606
0.0245,1.78499375,1.0,2555.2994734903664,0.24091165857271468,1.3285778489141216,0.9267805507837311,0.2880227375,0.6557289451625278
0.025,1.784375,1.0,2570.836748002964,0.2451695433119628,1.328152672129238,0.9290392783462048,0.28799675,0.6566193360154362
0.025500000000000002,1.78374375,1.0,2585.359522273428,0.2494035446592658,1.327731763994647,0.9311835277094148,0.2879702375,0.6574996520056025
0.026000000000000002,1.7831000000000001,1.0,2598.915756757784,0.2536137944812275,1.3273145943144742,0.9332208781850121,0.2879432,0.6583710342753546
0.0265,1.78244375,1.0,2611.5671825504046,0.25780043129952196,1.3269005161059684,0.9351582771975986,0.2879156375,0.6592348615103684
0.027,1.781775,1.0,2623.3536404718775,0.2619635859672191,1.326489096555932,0.9370021455130264,0.28788755,0.6600920594071791
0.0275,1.7810937500000001,1.0,2634.3137132750617,0.2661033885350315,1.3260799227715423,0.9387583991935908,0.2878589375,0.6609435075424268
0.028,1.7804,1.0,2644.486784419118,0.27021996905367185,1.3256725818599762,0.9404324934783802,0.2878298,0.661790081073524
0.0285,1.77969375,1.0,2653.912967722164,0.27431345757385267,1.325266660928411,0.9420294647266068,0.2878001375,0.6626326507923538
0.029,1.778975,1.0,2662.633040794231,0.27838398414628673,1.3248617470840238,0.9435539680373041,0.28776995,0.6634720831680987
0.029500000000000002,1.7782437500000001,1.0,2670.686157880539,0.2824316775594111,1.3244574478740732,0.9450103133779288,0.2877392375,0.6643091980836834
0.03,1.7775,1.0,2678.103732691838,0.28645666257748353,1.3240534467363256,0.9464025021789454,0.287708,0.6651446545226638
0.0305,1.77674375,1.0,2684.9358967400585,0.2904590767385142,1.3236492595486156,0.9477342276771696,0.2876762375,0.6659794540613293
0.031,1.775975,1.0,2691.207632356981,0.2944390436388064,1.3232446367944601,0.9490089440332193,0.28764395,0.6668141096416376
0.0315,1.7751937500000001,1.0,2696.944235414577,0.29839668687466364,1.3228393289573768,0.9502298611309609,0.2876111375,0.6676491316273938
0.032,1.7744,1.0,2702.1712871949603,0.3023321300423894,1.322433086520883,0.9513999648708701,0.2875778,0.668485027795334
0.0325,1.77359375,1.0,2706.914627640962,0.3062454967382871,1.3220256599684965,0.952522035542561,0.2875439375,0.6693223033222393
0.033,1.772775,1.0,2711.2003299862918,0.3101369105586601,1.3216167997837345,0.9535986644789011,0.28750955,0.6701614607680779
0.0335,1.7719437500000002,1.0,2715.0546767669366,0.3140064950998119,1.3212062564501146,0.9546322691707892,0.2874746375,0.6710030000551761
0.034,1.7711000000000001,1.0,2718.50413721215,0.31785437395804583,1.320793780451154,0.955625107001257,0.2874392,0.6718474184434209
0.0345,1.7702437500000001,1.0,2721.572846975613,0.32168066844277227,1.3203791450187596,0.9565792896511952,0.2874032375,0.6726951640212009
0.035,1.7693750000000001,1.0,2724.2807124159885,0.32548549724970377,1.3199621631438256,0.9574967960732665,0.28736675,0.673546601263788
0.035500000000000004,1.76849375,1.0,2726.6576151042536,0.32926899044062624,1.3195425581545173,0.9583794722663307,0.2873297375,0.6744022752808257
0.036000000000000004,1.7676,1.0,2728.7187807584965,0.33303126466717525,1.3191201876838254,0.9592290586645442,0.2872922,0.6752624547596939
0.0365,1.76669375,1.0,2730.4795157801673,0.3367724365809864,1.3186949093647407,0.9600471873455063,0.2872541375,0.6761274067123717
0.037,1.765775,1.0,2731.955198389019,0.3404926228336953,1.3182665808302538,0.960835389996229,0.28721555,0.6769973964496796
0.0375,1.76484375,1.0,2733.1612702074585,0.3441919400769376,1.3178350597133557,0.9615951052079753,0.2871764375,0.6778726875542336
0.038,1.7639,1.0,2734.113228294346,0.3478705049623489,1.317400203647037,0.9623276851633115,0.28713679999999997,0.678753541852103
0.0385,1.76294375,1.0,2734.8266176282054,0.3515284341415647,1.3169618702642885,0.9630344017721231,0.28709663750000003,0.6796402193831772
0.039,1.761975,1.0,2735.3170240394907,0.3551658442662207,1.3165199171981008,0.9637164523075146,0.28705595,0.6805329783702405
0.0395,1.7609937500000001,1.0,2735.6000675929486,0.3587828519879525,1.316074202081465,0.9643749645873223,0.2870147375,0.6814320751867512
0.04,1.76,1.0,2735.6820816423383,0.36237956140847727,1.3156246671193745,0.9650110069919327,0.286973,0.6823375940873215
0.0405,1.7589937500000001,1.0,2735.5847650104956,0.3659561005306961,1.3151711152147303,0.965625579392061,0.2869307375,0.6832498983874464
0.041,1.757975,1.0,2735.321953798555,0.3695125864381614,1.314713420823243,0.9662196298039405,0.28688795,0.6841692052096059
0.0415,1.75694375,1.0,2734.9018069720155,0.3730491281905175,1.3142515100727983,0.966794056670252,0.2868446375,0.6850956263296109
0.042,1.7559,1.0,2734.3324950558863,0.3765658348474089,1.3137853090912819,0.9673497091471253,0.28680079999999997,0.6860292723166094
0.0425,1.75484375,1.0,2733.6221978552394,0.38006281546848003,1.313314744006579,0.9678873903087819,0.2867564375,0.6869702525130479
0.043000000000000003,1.753775,1.0,2732.779102295869,0.38354017911337535,1.3128397409465757,0.9684078601123794,0.28671155,0.6879186750142838
0.043500000000000004,1.75269375,1.0,2731.811400387582,0.38699803484173917,1.3123602260391571,0.9689118381432421,0.28666613750000003,0.6888746466478529
0.044,1.7516,1.0,2730.7272873063494,0.3904364917132159,1.3118761254122089,0.9694000061587895,0.2866202,0.6898382729523858
0.0445,1.75049375,1.0,2729.5349595996454,0.3938556587874502,1.3113873651936168,0.9698730104477763,0.2865737375,0.6908096581561771
0.045,1.7493750000000001,1.0,2728.2426135111405,0.3972556451240863,1.310893871511266,0.9703314640199504,0.28652675,0.6917889051554097
0.0455,1.74824375,1.0,2726.858443426911,0.40063655978276863,1.3103955704930421,0.9707759486398517,0.2864792375,0.6927761154920247
0.046,1.7471,1.0,2725.3906404431314,0.4039985118231416,1.3098923882668312,0.9712070167172595,0.2864312,0.6937713893312486
0.0465,1.7459437500000001,1.0,2723.8443974694137,0.4073416085634745,1.3093842781992988,0.971625194832248,0.28638263750000004,0.6947747716935551
0.047,1.744775,1.0,2722.2246450849993,0.4106659537293781,1.3088711960243686,0.9720309832153814,0.28633355,0.6957863018701405
0.0475,1.74359375,1.0,2720.5381554110672,0.4139716518527044,1.308353080685487,0.9724248565156732,0.28628393750000003,0.696806051121714
0.048,1.7424,1.0,2718.7912084737686,0.41725880740932203,1.3078298755564157,0.972807266681069,0.2862338,0.6978340807236021
0.0485,1.74119375,1.0,2716.9696665907504,0.4205275238093647,1.3073017099745348,0.9731786567839872,0.2861831375,0.6988700862459405
0.049,1.739975,1.0,2715.1215420587773,0.4237779064410486,1.3067681470589423,0.9735394100881946,0.28613195,0.6999148722896147
0.0495,1.7387446836171776,1.0,2713.278016083351,0.42701005759504573,1.3062293244240915,0.9738899305289226,0.2860802767119215,0.7009681149960605
0.05,1.7375120148105536,1.0,2711.859943956127,0.4302240786441448,1.3056855651898163,0.9742306154938307,0.28602850462204327,0.7020291302123169
0.0505,1.7362793460039299,1.0,2710.948045687618,0.4334200709611344,1.3051371924759505,0.9745618439465421,0.28597673253216505,0.7030972377802767
0.051000000000000004,1.7350466771973059,1.0,2710.5066416451427,0.4365981359188032,1.3045845294023277,0.9748839774544165,0.2859249604422868,0.7041717616350847
0.051500000000000004,1.7338140083906821,1.0,2710.502585723751,0.4397583740708039,1.3040278772596026,0.9751973596485628,0.28587318835240866,0.7052520722226405
0.052000000000000005,1.7325813395840581,1.0,2710.895124251514,0.44290088650419707,1.3034676077418774,0.9755023232574391,0.28582141626253044,0.7063374076894835
0.0525,1.7313486707774344,1.0,2711.650995860152,0.44602577279273997,1.3029040249605,0.9757991817456461,0.28576964417265227,0.7074271417816609
0.053,1.7301160019708104,1.0,2712.744201818806,0.4491331308133152,1.3023373673474175,0.9760882304699063,0.28571787208277405,0.7085207790351811
0.0535,1.7288833331641866,1.0,2714.1487885817805,0.4522230584428049,1.3017678733345772,0.9763697518917088,0.28566609999289583,0.7096178272421128
0.054,1.7276506643575626,1.0,2715.83883216353,0.4552956535580916,1.3011957813539266,0.9766440162566996,0.28561432790301766,0.7107177974955283
0.0545,1.7264179955509389,1.0,2717.7915632927643,0.4583510125440428,1.3006213012389662,0.976911280357553,0.28556255581313944,0.7118202590605571
0.055,1.725185326744315,1.0,2719.9863959711556,0.46138923134230303,1.3000446230084652,0.9771717888649345,0.2855107837232612,0.7129248220781504
0.0555,1.7239526579376911,1.0,2722.3909912427976,0.46441041238104036,1.2994660436539107,0.9774257831119874,0.28545901163338305,0.714030895083782
0.056,1.7227199891310672,1.0,2724.9920439222324,0.46741464904618174,1.2988856867324006,0.9776734833673023,0.28540723954350483,0.7151382215130782
0.0565,1.7214873203244434,1.0,2727.7762449141233,0.4704020347236539,1.2983036758010322,0.9779151008168532,0.2853554674536266,0.7162465465675787
0.057,1.7202546515178194,1.0,2730.730276512877,0.47337266279938384,1.2977201344169034,0.9781508380157087,0.28530369536374844,0.7173556172282558
0.0575,1.7190219827111957,1.0,2733.840808040483,0.4763266266592983,1.2971351861371119,0.9783808893137923,0.2852519232738702,0.7184651822680608
0.058,1.7177893139045717,1.0,2737.094491823648,0.47926401968932425,1.2965489545187552,0.9786054412573822,0.285200151183992,0.7195749922634991
0.0585,1.716556645097948,1.0,2740.477959508625,0.4821849352753885,1.2959615631189314,0.9788246729679113,0.28514837909411384,0.7206847996052257
0.059000000000000004,1.715323976291324,1.0,2743.9778187148795,0.48508946680341797,1.295373135494738,0.9790387564995199,0.2850966070042356,0.7217943585076759
0.059500000000000004,1.7140913074847002,1.0,2747.5838776577743,0.48797770473611174,1.2947837659620274,0.9792478553353505,0.2850448349143574,0.722903479991214
0.06,1.7128586386780762,1.0,2751.285259363699,0.49084974253340585,1.2941935548497436,0.9794521271926061,0.2849930628244792,0.7240119651941036
0.0605,1.7116259698714524,1.0,2755.0707596956017,0.49370567397698706,1.2936026052231409,0.9796517238950958,0.284941290734601,0.7251196116268639
0.061,1.7103933010648285,1.0,2758.9344268925533,0.49654558745732685,1.293010972413636,0.9798467885100909,0.2848895186447228,0.726226307542141
0.0615,1.7091606322582047,1.0,2762.870295324939,0.49936957136489696,1.2924187117526464,0.9800374586981012,0.2848377465548446,0.7273319420182482
0.062,1.7079279634515807,1.0,2766.872384690577,0.502177714090169,1.291825878571589,0.9802238669597131,0.2847859744649664,0.7284364049614802
0.0625,1.706695294644957,1.0,2770.9346992786213,0.5049701040236144,1.2912325282018808,0.9804061408693763,0.2847342023750882,0.7295395871082293
0.063,1.705462625838333,1.0,2775.0512273007807,0.507746829555705,1.290638715974939,0.9805844032969268,0.28468243028521,0.7306413800269091
0.0635,1.7042299570317092,1.0,2779.2159402909156,0.5105079790769124,1.290044497222181,0.9807587726175688,0.2846306581953318,0.731741676119682
0.064,1.7029972882250852,1.0,2783.4227925725413,0.513253640977708,1.289449927275023,0.9809293629110042,0.28457888610545357,0.7328403686239919
0.0645,1.7017646194184615,1.0,2787.6708773610353,0.5159838918767216,1.2888550150852291,0.9810962809841057,0.2845271140155754,0.7339374370539287
0.065,1.7005319506118375,1.0,2791.9509413839046,0.5186988313223885,1.2882598445974818,0.9812596351833887,0.2844753419256972,0.7350327231908025
0.0655,1.6992992818052137,1.0,2796.2574355291895,0.5213985500260042,1.2876644662390857,0.9814195277383511,0.28442356983581896,0.7361261315796618
0.066,1.6980666129985897,1.0,2800.5882069794843,0.5240831304605199,1.2870688998084079,0.9815760552170135,0.2843717977459408,0.7372176236058363
0.0665,1.696833944191966,1.0,2804.9410963434766,0.526752655098886,1.2864731651038153,0.9817293108203611,0.28432002565606257,0.7383071609547265
0.067,1.695601275385342,1.0,2809.3139375784,0.5294072064140536,1.2858772819236748,0.9818793845242652,0.28426825356618435,0.7393947056120274
0.0675,1.6943686065787182,1.0,2813.7045579200812,0.5320468668789733,1.2852812700663532,0.9820263632144647,0.2842164814763062,0.7404802198639301
0.068,1.6931359377720943,1.0,2818.1107778220803,0.534671718966596,1.2846851493302174,0.9821703308149906,0.28416470938642796,0.7415636662972954
0.0685,1.6919032689654705,1.0,2822.5304109038143,0.5372818451498725,1.2840889395136346,0.982311368410398,0.28411293729654974,0.7426450077998039
0.069,1.6906706001588465,1.0,2826.961263907112,0.5398773279017536,1.283492660414971,0.9824495543621432,0.2840611652066716,0.7437242075600827
0.0695,1.6894379313522228,1.0,2831.401136660889,0.5424582496951901,1.2828963318325943,0.9825849644194263,0.28400939311679335,0.7448012290678019
0.07,1.6882052625455988,1.0,2835.8478220559477,0.5450246930031328,1.2822999735648708,0.9827176718247962,0.28395762102691513,0.745876036113754
0.07050000000000001,1.686972593738975,1.0,2840.299106027035,0.5475767402985325,1.2817036054101678,0.982847747414802,0.28390584893703696,0.7469485927898996
0.07100000000000001,1.685739924932351,1.0,2844.7527675441556,0.5501144740543401,1.281107247166852,0.9829752597159521,0.28385407684715874,0.7480188634893952
0.07150000000000001,1.6845072561257273,1.0,2849.209526470115,0.5526379543782991,1.2805108924073094,0.9831002725136073,0.2838023047572805,0.7490868598241547
0.07200000000000001,1.6832745873191035,1.0,2853.6663180950372,0.555147280338702,1.2799145683676303,0.9832228513707466,0.28375053266740236,0.7501525332128929
0.0725,1.6820419185124795,1.0,2858.120533518097,0.5576425448116185,1.2793182981500668,0.9833430591990743,0.28369876057752413,0.7512158428525204
