Time [s],Phi [rad],STIM [ ],Fsee [N],Gamma [ ],Lcerel [ ],q [ ],Lmtc [m],fisomrel [ ]
0.0,1.8,1.0,19.248721338967243,0.0011555679567344494,1.3791986411379886,0.005342557715750478,0.288653,0.5414808372420374
0.0005,1.79999375,1.0,19.88922921198459,0.006758295443133472,1.3791270575312178,0.016424035353994837,0.2886527375,0.5416539357389052
0.001,1.799975,1.0,24.09063021365647,0.012329596051206364,1.378692631849543,0.041824727943335346,0.28865195,0.5427037327259775
0.0015,1.79994375,1.0,35.50732836448772,0.01786964608857173,1.3776807102253672,0.07894741577325974,0.2886506375,0.5451443913382086
0.002,1.7999,1.0,61.82293134527503,0.02337862080602451,1.3758526388409966,0.12449741799299278,0.2886488,0.5495369702686843
0.0025,1.79984375,1.0,109.8979291760398,0.028856694537430474,1.3733384023908395,0.17514750974273446,0.28864643749999996,0.5555434862890805
0.003,1.7997750000000001,1.0,176.91983910187017,0.03430404060673175,1.3706310033521283,0.22814402245883103,0.28864354999999997,0.5619663882467942
0.0035,1.79969375,1.0,255.3565562119339,0.03972083137246418,1.3680501121019433,0.2813871032322931,0.2886401375,0.5680456472632238
0.004,1.7996,1.0,340.0631634411821,0.045107238224594205,1.3656704694132882,0.3333262212269433,0.2886362,0.5736132264000813
0.0045000000000000005,1.7994937500000001,1.0,428.38827958663035,0.0504634315918796,1.3634791057098365,0.3829014699541033,0.2886317375,0.5787083536746731
0.005,1.799375,1.0,518.8158311681595,0.05578958094380795,1.361449973026791,0.4294685330499168,0.28862675,0.5833989700221047
0.0055,1.79924375,1.0,610.2935381487528,0.06108585483226783,1.3595608852345402,0.47270416592716763,0.2886212375,0.5877422506675823
0.006,1.7991000000000001,1.0,701.9713897581152,0.06635242078709723,1.3577952902494543,0.5125152759867283,0.2886152,0.5917810276636121
0.006500000000000001,1.79894375,1.0,793.165294129898,0.0715894454705561,1.3561400880514383,0.548962383858231,0.2886086375,0.5955492273045722
0.007,1.798775,1.0,883.3021771728588,0.07679709462688544,1.354584891063553,0.5822018370074707,0.28860155,0.5990738361908428
0.0075,1.79859375,1.0,971.8983398686582,0.08197553281832026,1.3531212343685044,0.6124439460686686,0.2885939375,0.6023768936162749
0.008,1.7984,1.0,1058.6006727188985,0.08712492433957165,1.3517412335823384,0.6399236804892818,0.2885858,0.6054786498659912
0.0085,1.79819375,1.0,1143.0957347797093,0.09224543177073709,1.350438507336156,0.6648824874782171,0.2885771375,0.6083955758163486
0.009000000000000001,1.797975,1.0,1225.1482989473325,0.09733721699723362,1.3492071953885045,0.6875559520973424,0.28856795,0.6111426488804044
0.0095,1.79774375,1.0,1304.6053125187411,0.10240044147699946,1.3480416775887762,0.7081667912258031,0.2885582375,0.6137340263430815
0.01,1.7975,1.0,1381.3429619819117,0.10743526546784449,1.3469370933179619,0.726921558088271,0.288548,0.6161819301023082
0.0105,1.79724375,1.0,1455.2714452486423,0.11244184781033029,1.3458890777751522,0.7440090255536876,0.2885372375,0.6184972763898429
0.011,1.796975,1.0,1526.3472340072774,0.11742034675314193,1.344893470440322,0.7595999272241764,0.28852595000000003,0.62069035091719
0.0115,1.79669375,1.0,1594.5831137793302,0.12237092103342599,1.343946104488549,0.7738475672096802,0.2885141375,0.6227712921146433
0.012,1.7964,1.0,1659.9742682676238,0.12729372671509795,1.343043608763938,0.7868893223674065,0.28850180000000003,0.6247483497647139
0.0125,1.79609375,1.0,1722.531151864569,0.1321889188741673,1.3421829038696234,0.7988477330088017,0.2884889375,0.6266290188117096
0.013000000000000001,1.7957750000000001,1.0,1782.2995833110983,0.13705665258664348,1.3413609104087398,0.8098317958089514,0.28847555,0.6284206914697585
0.0135,1.79544375,1.0,1839.3379437279752,0.14189708197628378,1.3405747667677252,0.819938451976358,0.2884616375,0.6301301920953748
0.014,1.7951000000000001,1.0,1893.7292276498529,0.14671036127990297,1.3398216499482498,0.8292538348831207,0.2884472,0.6317641780180139
0.0145,1.79474375,1.0,1945.5269138514718,0.1514966418180732,1.3390993283798223,0.8378546832210507,0.2884322375,0.6333279511873516
0.015,1.794375,1.0,1994.7992337391822,0.1562560746204799,1.3384056296386408,0.845809235595662,0.28841675,0.6348266257298312
0.0155,1.79399375,1.0,2041.630039578232,0.16098881046520533,1.3377384095416913,0.8531782166371666,0.2884007375,0.6362652000007933
0.016,1.7936,1.0,2086.109231638529,0.16569499946861235,1.3370956335469888,0.8600157499429318,0.2883842,0.6376483859807214
0.0165,1.7931937500000001,1.0,2128.327738739314,0.17037479149572946,1.3364754077589867,0.866370148511906,0.2883671375,0.6389805483846418
0.017,1.792775,1.0,2168.353923940947,0.17502833338807755,1.3358761996441053,0.8722846612671884,0.28834955,0.6402652376040596
0.0175,1.7923437500000001,1.0,2206.2666390479685,0.17965577198717755,1.3352964766687652,0.8777979670243569,0.2883314375,0.6415059717267609
0.018000000000000002,1.7919,1.0,2242.154344680729,0.18425725413455038,1.3347347062993866,0.882944711276187,0.2883128,0.642706238516146
0.0185,1.79144375,1.0,2276.0952785652266,0.18883292468203045,1.334189545163981,0.8877560237958778,0.2882936375,0.6438690940787358
0.019,1.790975,1.0,2308.19303710841,0.1933829312690971,1.3336594730797011,0.8922598350153957,0.28827395,0.6449979465056639
0.0195,1.79049375,1.0,2338.5134326858797,0.19790741629400407,1.3331434125609012,0.8964813876664387,0.2882537375,0.6460952380971849
0.02,1.79,1.0,2367.1258314905417,0.20240652192580105,1.3326403053233105,0.9004434409188058,0.288233,0.6471633522781084
0.0205,1.78949375,1.0,2394.1046193263064,0.20688039033353778,1.3321490930826578,0.9041665442644528,0.2882117375,0.6482046554986222
0.021,1.788975,1.0,2419.528777634565,0.21132916368626392,1.3316687175546724,0.9076692821914885,0.28818995000000003,0.6492214980728283
0.021500000000000002,1.78844375,1.0,2443.4652857294413,0.21575298182727706,1.3311982760737338,0.9109685205074192,0.2881676375,0.6502158862429428
0.022,1.7879,1.0,2465.9995122347373,0.22015198800190242,1.3307367238178247,0.914079533230401,0.2881448,0.651190113259732
0.0225,1.78734375,1.0,2487.1888494534664,0.22452632007927462,1.3302833154585358,0.9170162557427904,0.28812143749999997,0.6521458275820067
0.023,1.786775,1.0,2507.08885001514,0.22887611518106307,1.3298373482299592,0.9197913765468293,0.28809755,0.6530845781652699
0.0235,1.78619375,1.0,2525.7574261458512,0.23320151042893722,1.3293981193661866,0.9224164589205203,0.28807313749999996,0.6540079048406234
0.024,1.7856,1.0,2543.2546512408107,0.2375026429445665,1.3289649261013101,0.9249020562398226,0.2880482,0.6549173386325242
0.0245,1.78499375,1.0,2559.6384379675014,0.2417796490328038,1.3285371044766314,0.9272578205233227,0.2880227375,0.6558143207337723
0.025,1.784375,1.0,2574.9624895201423,0.24603266401967439,1.3281140462830237,0.9294925949507122,0.28799675,0.656700167830937
0.025500000000000002,1.78374375,1.0,2589.2958735550965,0.2502618256902835,1.3276950141473611,0.9316144638690877,0.2879702375,0.6575764595119924
0.026000000000000002,1.7831000000000001,1.0,2602.6795871993722,0.25446726581892815,1.327279546239186,0.9336308890694799,0.2879432,0.6584441920072466
0.0265,1.78244375,1.0,2615.1557219591004,0.25864911617990544,1.3268671807280394,0.9355487270775596,0.2879156375,0.6593043563868086
0.027,1.781775,1.0,2626.7673717843313,0.26280750854751245,1.3264574557834634,0.9373742863557462,0.28788755,0.6601579386587628
0.0275,1.7810937500000001,1.0,2637.5585458633427,0.2669425746960462,1.3260499095749996,0.9391133784034881,0.2878589375,0.6610059198537456
0.028,1.7804,1.0,2647.574086145304,0.2710544463998038,1.3256440802721896,0.940771363472493,0.2878298,0.6618492760959176
0.0285,1.77969375,1.0,2656.854394605907,0.27514325235306486,1.325239553906229,0.9423531971675791,0.2878001375,0.6626888793841748
0.029,1.778975,1.0,2665.4430364683685,0.27920912590777996,1.3248358933763675,0.9438634595936057,0.28776995,0.6635256453264579
0.029500000000000002,1.7782437500000001,1.0,2673.372706604325,0.28325219443067967,1.3244327669455422,0.9453064021195473,0.2877392375,0.6643602670027406
0.03,1.7775,1.0,2680.6751283862527,0.28727258435028996,1.3240298561691235,0.9466859653407249,0.287708,0.6651934066040088
0.0305,1.77674375,1.0,2687.382451444916,0.29127042209513704,1.3236268426024806,0.9480058044070813,0.2876762375,0.6660257230457565
0.031,1.775975,1.0,2693.527211413658,0.29524583409374694,1.3232234078009841,0.9492693132862916,0.28764395,0.6668578719691285
0.0315,1.7751937500000001,1.0,2699.1422919212882,0.29919894677464565,1.3228192333200033,0.9504796466797468,0.2876111375,0.6676905057356036
0.032,1.7744,1.0,2704.2460940930223,0.30312988117302353,1.3224141358197825,0.9516397546397414,0.2875778,0.6685239956109147
0.0325,1.77359375,1.0,2708.8773437196196,0.3070387667440854,1.3220077485955724,0.9527523651734955,0.2875439375,0.6693590875140647
0.033,1.772775,1.0,2713.076955028295,0.3109257326404119,1.321599687461541,0.9538200193784881,0.28750955,0.6701965593897933
0.0335,1.7719437500000002,1.0,2716.862073126615,0.3147908987987435,1.3211897869949414,0.9548451109079232,0.2874746375,0.6710367370221435
0.034,1.7711000000000001,1.0,2720.2499929260025,0.3186343851558209,1.320777881773026,0.9558298752023682,0.2874392,0.6718799444043704
0.0345,1.7702437500000001,1.0,2723.2581454868914,0.3224563116483848,1.3203638063730478,0.9567764018103866,0.2874032375,0.6727265037186617
0.035,1.7693750000000001,1.0,2725.9040849700377,0.32625679821317577,1.3199473953722591,0.957686645612498,0.28736675,0.6735767353141177
0.035500000000000004,1.76849375,1.0,2728.205476194948,0.3300359647869345,1.3195284833479128,0.9585624370575296,0.2873297375,0.6744309576829802
0.036000000000000004,1.7676,1.0,2730.1800828047863,0.33379393130640156,1.3191069048772615,0.9594054915085046,0.2872922,0.6752894874351225
0.0365,1.76669375,1.0,2731.845756038068,0.3375308177083177,1.318682494537558,0.9602174177847248,0.2872541375,0.6761526392707888
0.037,1.7657810076271656,1.0,2733.5191212920017,0.34124674392942356,1.3182550869060548,0.9609997259774188,0.28721580232034094,0.6770207259515929
0.0375,1.7648682628578507,1.0,2735.5408241028604,0.34494182185214384,1.3178245199849026,0.9617538332313519,0.2871774670400297,0.6778940513276985
0.038,1.7639555180885356,1.0,2737.835201269769,0.3486161776546331,1.3173914850540778,0.9624811564865096,0.2871391317597185,0.678771190099385
0.0385,1.7630427733192204,1.0,2740.373593284216,0.3522699281164129,1.3169562452012396,0.9631829855883193,0.2871007964794072,0.6796515900125374
0.039,1.7621300285499055,1.0,2743.1389361041342,0.3559031861510114,1.3165189582085326,0.9638605240008693,0.287062461199096,0.6805349142046722
0.0395,1.7612172837805904,1.0,2746.1141599554207,0.3595160646719569,1.3160797818581016,0.9645149053305542,0.2870241259187848,0.6814208274889506
0.04,1.7603045390112753,1.0,2749.282182446574,0.3631086765927778,1.3156388739320912,0.965147198131393,0.28698579063847357,0.6823089963739841
0.0405,1.7593917942419603,1.0,2752.6259022352597,0.3666811348270023,1.3151963922126464,0.9657584103312244,0.28694745535816235,0.6831990890820523
0.041,1.7584790494726452,1.0,2756.128193246745,0.3702335522881587,1.3147524944819118,0.966349493312333,0.2869091200778511,0.6840907755657337
0.0415,1.75756630470333,1.0,2759.771899444461,0.3737660418897753,1.3143073385220319,0.9669213456767979,0.28687078479753986,0.6849837275229492
0.042,1.7566535599340152,1.0,2763.5398301521354,0.3772787165453804,1.3138610821151515,0.9674748167239114,0.28683244951722864,0.685877618410415
0.0425,1.7557408151647,1.0,2767.414755928183,0.3807716891685023,1.3134138830434157,0.9680107096644051,0.2867941142369174,0.6867721234555109
0.043000000000000003,1.754828070395385,1.0,2771.3926469865273,0.38424506264497943,1.3129657796372889,0.9685297733295729,0.28675577895660614,0.687667158086811
0.043500000000000004,1.7539153256260698,1.0,2775.4507069817346,0.3876989600346223,1.3125169793303662,0.9690327335354422,0.2867174436762949,0.6885623011167841
0.044,1.7530025808567549,1.0,2779.582488908157,0.3911334876514874,1.3120675417209797,0.9695202637233278,0.2866791083959837,0.6894574279471448
0.0445,1.7520898360874397,1.0,2783.7815421947403,0.39454875179715365,1.3116175262883407,0.9699930024122602,0.2866407731156725,0.6903524148913753
0.045,1.7511770913181246,1.0,2788.041398707638,0.3979448587731996,1.3111669925116598,0.9704515553649578,0.2866024378353612,0.6912471389389307
0.0455,1.7502643465488097,1.0,2792.355572027893,0.40132191488120383,1.3107159998701479,0.9708964975888779,0.28656410255505,0.6921414777573159
0.046,1.7493516017794946,1.0,2796.7175568063635,0.4046800264227451,1.310264607843016,0.9713283751964279,0.2865257672747388,0.6930353096939397
0.0465,1.7484388570101794,1.0,2801.1208281984495,0.4080192996994021,1.3098128759094747,0.9717477071355104,0.2864874319944275,0.6939285137777438
0.047,1.7475261122408645,1.0,2805.5588413764895,0.4113398410127534,1.3093608635487348,0.9721549868005902,0.28644909671411634,0.6948209697206029
0.0475,1.7466133674715494,1.0,2810.025031120165,0.41464175666437775,1.3089086302400075,0.9725506835335862,0.28641076143380506,0.6957125579185024
0.048,1.7457006227022343,1.0,2814.5151064365728,0.4179251473220451,1.3084562149197416,0.9729352418735545,0.28637242615349384,0.696603199864114
0.0485,1.7447878779329193,1.0,2819.0259143247995,0.4211901148887526,1.308003646224139,0.9733090845849385,0.2863340908731826,0.6974928377316183
0.049,1.7438751331636042,1.0,2823.5479894791847,0.42443677831461574,1.3075510091121638,0.9736726203554384,0.28629575559287135,0.6983813035525821
0.0495,1.742962388394289,1.0,2828.0793905580254,0.4276652367925163,1.3070983210838947,0.974026231771986,0.28625742031256013,0.6992685624599908
0.05,1.7420496436249742,1.0,2832.618169958801,0.43087558951533583,1.3066455996394089,0.9743702837031202,0.2862190850322489,0.7001545797888629
0.0505,1.741136898855659,1.0,2837.162373801749,0.4340679356759562,1.3061928622787844,0.9747051242792459,0.2861807497519377,0.7010393210762926
0.051000000000000004,1.740224154086344,1.0,2841.7100419204885,0.437242374467259,1.3057401265020991,0.9750310858102269,0.28614241447162647,0.7019227520614809
0.051500000000000004,1.739311409317029,1.0,2846.2592078590133,0.44039900508212587,1.305287409809431,0.9753484856448374,0.2861040791913152,0.7028048386857417
0.052000000000000005,1.7383986645477139,1.0,2850.807898876098,0.44353792671343867,1.3048347297008576,0.9756576269762421,0.286065743911004,0.7036855470924908
0.0525,1.7374859197783987,1.0,2855.354135955596,0.4466592385540789,1.304382103676457,0.9759587995973316,0.28602740863069276,0.704564843627215
0.053,1.7365731750090838,1.0,2859.895933824233,0.44976303979692844,1.3039295492363068,0.9762522806094482,0.2859890733503815,0.7054426948374215
0.0535,1.7356604302397687,1.0,2864.431300976285,0.4528494296348689,1.3034770838804852,0.9765383350877526,0.28595073807007027,0.7063190674725668
0.054,1.7347476854704535,1.0,2868.9582397042473,0.4559185072607819,1.3030247251090699,0.9768172167062324,0.28591240278975905,0.707193928483969
0.0545,1.7338349407011386,1.0,2873.4747461370966,0.4589703718675493,1.3025724904221385,0.9770891683251277,0.2858740675094478,0.7080672450246968
0.055,1.7329221959318235,1.0,2877.982346211598,0.46200509506398424,1.3021203660195992,0.9773544180561025,0.2858357322291366,0.7089390447582379
0.0555,1.7320094511625084,1.0,2882.476823380391,0.4650228080472556,1.301668388938372,0.977613193101298,0.28579739694882533,0.7098092573830584
0.056,1.7310967063931932,1.0,2886.9574929100067,0.46802360578523783,1.301216564885885,0.9778657059875607,0.2857590616685141,0.7106778732090159
0.0565,1.7301839616238783,1.0,2891.424083564979,0.47100757940310867,1.3007648959014149,0.9781121599479567,0.2857207263882029,0.7115448896473568
0.057,1.7292712168545632,1.0,2895.876323554568,0.4739748200260459,1.300313384024238,0.9783527499430781,0.2856823911078916,0.7124103041323678
0.0575,1.728358472085248,1.0,2900.313940540293,0.4769254187792272,1.2998620312936313,0.9785876630647852,0.2856440558275804,0.7132741141213561
0.058,1.7274457273159332,1.0,2904.7366616424733,0.4798594667878302,1.299410839748871,0.9788170789171191,0.2856057205472692,0.7141363170946297
0.0585,1.726532982546618,1.0,2909.144213447806,0.48277705517703273,1.2989598114292342,0.9790411699758375,0.28556738526695796,0.7149969105554743
0.059000000000000004,1.725620237777303,1.0,2913.536322016634,0.4856782750720125,1.2985089483739973,0.9792601019279434,0.28552904998664674,0.7158558920301346
0.059500000000000004,1.724707493007988,1.0,2917.9127128903733,0.4885632175979471,1.298058252622437,0.9794740339924644,0.28549071470633547,0.716713259067792
0.06,1.7237947482386728,1.0,2922.2731110991626,0.4914319738800143,1.2976077262138297,0.9796831192236536,0.28545237942602425,0.7175690092405427
0.0605,1.7228820034693577,1.0,2926.6172411691405,0.4942846350433919,1.2971573711874522,0.9798875047977132,0.28541404414571303,0.718423140143376
0.061,1.7219692587000428,1.0,2930.9448271304145,0.4971212922132575,1.2967071895825812,0.9800873322840461,0.2853757088654018,0.7192756493941524
0.0615,1.7210565139307277,1.0,2935.2555925247925,0.49994203651478886,1.2962571834384933,0.9802827379019912,0.2853373735850906,0.7201265346335808
0.062,1.7201437691614125,1.0,2939.5492604136653,0.5027469590731637,1.295807354794465,0.9804738527639186,0.2852990383047793,0.720975793525196
0.0625,1.7192310243920976,1.0,2943.8255533861256,0.5055361510135596,1.295357705689773,0.980660803105511,0.2852607030244681,0.7218234237553364
0.063,1.7183182796227825,1.0,2948.084942115139,0.5083096544167475,1.2949082316167695,0.9808437065619005,0.2852223677441569,0.7226694353465237
0.0635,1.7174055348534674,1.0,2952.3271596745462,0.5110676001651894,1.2944589345291624,0.9810226833052941,0.2851840324638456,0.7235138261350462
0.064,1.7164927900841525,1.0,2956.551977147644,0.5138101003408136,1.294009816044894,0.9811978477174272,0.2851456971835344,0.72435659460857
0.0645,1.7155800453148373,1.0,2960.7595344290517,0.5165372364821719,1.2935608745603526,0.9813693077128286,0.28510736190322317,0.7251977453040845
0.065,1.7146673005455222,1.0,2964.949972145532,0.5192490901278157,1.2931121084719264,0.9815371673592959,0.28506902662291195,0.72603728273961
0.0655,1.713754555776207,1.0,2969.1234316496875,0.5219457428162971,1.2926635161760027,0.9817015270429168,0.2850306913426007,0.7268752114142174
0.066,1.7128418110068921,1.0,2973.2800550137586,0.5246272760861677,1.29221509606897,0.9818624836248712,0.28499235606228945,0.7277115358080442
0.0665,1.711929066237577,1.0,2977.419985023434,0.527293771475979,1.291766846547216,0.9820201305904761,0.28495402078197823,0.7285462603823127
0.067,1.7110163214682619,1.0,2981.5433651715894,0.529945310524283,1.291318766007129,0.9821745581909104,0.284915685501667,0.7293793895793482
0.0675,1.710103576698947,1.0,2985.650339652624,0.5325819747696312,1.2908708528450965,0.9823258535780278,0.28487735022135574,0.7302109278225963
0.068,1.7091908319296318,1.0,2989.7410533562106,0.5352038457505753,1.2904231054575068,0.9824741009326429,0.2848390149410445,0.7310408795166387
0.0685,1.7082780871603167,1.0,2993.815651861439,0.5378110050056674,1.2899755222407476,0.9826193815866457,0.2848006796607333,0.7318692490472121
0.069,1.7073653423910018,1.0,2997.8742814309185,0.5404035340734586,1.2895281015912072,0.9827617741392856,0.2847623443804221,0.7326960407812232
0.0695,1.7064525976216867,1.0,3001.9170890050004,0.5429815144925011,1.2890808419052733,0.9829013545679391,0.28472400910011086,0.7335212590667679
0.07,1.7055398528523715,1.0,3005.944222196064,0.5455450278013465,1.2886337415793339,0.9830381963336616,0.2846856738197996,0.7343449082331452
0.07050000000000001,1.7046271080830566,1.0,3009.9558292828556,0.5480941555385463,1.288186799009777,0.9831723704817968,0.28464733853948837,0.7351669925908748
0.07100000000000001,1.7037143633137415,1.0,3013.9520592046783,0.5506289792426524,1.2877400125929905,0.9833039457379149,0.28460900325917715,0.7359875164317145
0.07150000000000001,1.7028016185444264,1.0,3017.9330615558115,0.5531495804522166,1.2872933807253626,0.983432988599318,0.2845706679788659,0.736806484028673
