Time [s],Phi [rad],STIM [ ],Fsee [N],Gamma [ ],Lcerel [ ],q [ ],Lmtc [m],fisomrel [ ]
0.0,1.8,1.0,17.971750605053675,7.303436729650633e-05,1.3793392317460125,0.005001399475173052,0.288653,0.5411407756962534
0.0005,1.79999375,1.0,18.302069500264338,0.005681834011066793,1.3792995756094606,0.013116436872744483,0.2886527375,0.541236709000265
0.001,1.799975,1.0,21.690586181901207,0.011259172723450213,1.378930933621604,0.03593779981561918,0.28865195,0.5421280215072052
0.0015,1.79994375,1.0,31.241466414180977,0.01680522697631079,1.3780315505686178,0.07105188523224293,0.2886506375,0.5442989374192813
0.002,1.7999,1.0,53.95409109620211,0.02232017224976805,1.3763440591709302,0.11525069352122196,0.2886488,0.548358256143965
0.0025,1.79984375,1.0,97.74391106343398,0.027804183040187856,1.3739050995770479,0.16515419816042134,0.28864643749999996,0.5541931648924678
0.003,1.7997750000000001,1.0,161.77152133400315,0.03325743286731821,1.3711839374866392,0.2178779888676633,0.28864354999999997,0.5606584328823812
0.0035,1.79969375,1.0,238.6024042994235,0.03868009427434786,1.3685564516753623,0.2712071350534566,0.2886401375,0.5668563199249563
0.004,1.7996,1.0,322.4446281359383,0.04407233883855805,1.3661302123704748,0.3234911479347305,0.2886362,0.5725403940993335
0.0045000000000000005,1.7994937500000001,1.0,410.28038737757396,0.049434337176545294,1.363899058411453,0.37358063026144317,0.2886317375,0.5777342961966133
0.005,1.799375,1.0,500.4467958640703,0.054766258935655586,1.3618363963298377,0.42075837774805236,0.28862675,0.5825077241423363
0.0055,1.79924375,1.0,591.8328120755975,0.06006827283793246,1.3599184781442861,0.4646467152261279,0.2886212375,0.5869218402114191
0.006,1.7991000000000001,1.0,683.5617141952229,0.0653405466317071,1.3581274520165307,0.5051146528327357,0.2886152,0.5910227299494499
0.006500000000000001,1.79894375,1.0,774.9188483364698,0.07058324714255812,1.3564495472001172,0.5421982070874832,0.2886086375,0.5948460468776512
0.007,1.798775,1.0,865.2925623833307,0.07579653986053857,1.3548741374718258,0.5760391608657017,0.28860155,0.5984194724286597
0.0075,1.79859375,1.0,954.2431801799335,0.08098059064855422,1.3533914027310519,0.6068394070418835,0.2885939375,0.6017682285579704
0.008,1.7984,1.0,1041.3639194897007,0.0861355633611988,1.3519938464747185,0.6348312113090757,0.2885858,0.6049117730992739
0.0085,1.79819375,1.0,1126.3035631029106,0.09126162031329901,1.350675239220918,0.6602561287695115,0.2885771375,0.6078663156803314
0.009000000000000001,1.797975,1.0,1208.828618436366,0.09635892381968156,1.349429351487742,0.6833513566987043,0.28856795,0.6106477306085971
0.0095,1.79774375,1.0,1288.78940237738,0.10142763569525232,1.348250253559308,0.7043422949369482,0.2885582375,0.6132709212240999
0.01,1.7975,1.0,1366.0462068304425,0.10646791625691454,1.347133087546615,0.7234388526962668,0.288548,0.6157481490126089
0.0105,1.79724375,1.0,1440.5067163296185,0.11147992469099194,1.3460733443743456,0.7408332347030059,0.2885372375,0.6180906897753687
0.011,1.796975,1.0,1512.1210087807626,0.11646381923027908,1.3450667973106383,0.75669959327094,0.28852595000000003,0.6203090095464888
0.0115,1.79669375,1.0,1580.9018537919865,0.12141975913478013,1.3441091558573248,0.7711944495790153,0.2885141375,0.6224135486452785
0.012,1.7964,1.0,1646.8244910954356,0.12634790000477003,1.343197182781218,0.784458274731815,0.28850180000000003,0.6244122886831482
0.0125,1.79609375,1.0,1709.9026690522046,0.13124839734872581,1.342327665412083,0.7966163123420135,0.2884889375,0.6263130404767632
0.013000000000000001,1.7957750000000001,1.0,1770.1858597943715,0.1361214065802059,1.3414974047072032,0.8077800016526632,0.28847555,0.6281234776091984
0.0135,1.79544375,1.0,1827.736549150594,0.14096708204383843,1.3407034296425577,0.8180484732428704,0.2884616375,0.6298506793042051
0.014,1.7951000000000001,1.0,1882.624016898866,0.14578557802856051,1.3399430149158382,0.8275098852989774,0.2884472,0.631501105261257
0.0145,1.79474375,1.0,1934.898930138841,0.1505770458401822,1.3392139097388756,0.8362427276216149,0.2884322375,0.633080113009139
0.015,1.794375,1.0,1984.632761994978,0.15534163678451351,1.3385138633234999,0.844316766320429,0.28841675,0.6345929985261443
0.0155,1.79399375,1.0,2031.9105649855758,0.1600795017071204,1.3378406821775128,0.8517940837449681,0.2884007375,0.6360448771231912
0.016,1.7936,1.0,2076.8225862725894,0.1647907911157827,1.3371922969005943,0.8587300062311191,0.2883842,0.637440544996497
0.0165,1.7931937500000001,1.0,2119.4619128197496,0.1694756552155374,1.3365667644394748,0.8651739030352715,0.2883671375,0.6387844804679309
0.017,1.792775,1.0,2159.8947011293544,0.17413424081196036,1.335962552548177,0.8711699694816453,0.28834955,0.6400802400679635
0.0175,1.7923437500000001,1.0,2198.19777346539,0.1787666947106275,1.3353781289807236,0.8767577192269229,0.2883314375,0.6413313475809602
0.018000000000000002,1.7919,1.0,2234.457727795159,0.18337316371711473,1.3348119614911376,0.8819725348162712,0.2883128,0.6425412960537533
0.0185,1.79144375,1.0,2268.7599185435683,0.18795379348505,1.3342626193398226,0.8868461755859688,0.2882936375,0.643713333265564
0.019,1.790975,1.0,2301.1983671867347,0.19250873065633273,1.3337286638127912,0.8914071702396283,0.28827395,0.6448506981815338
0.0195,1.79049375,1.0,2331.8499198548784,0.19703811921170805,1.3332088958356378,0.8956812445996412,0.2882537375,0.6459560960969231
0.02,1.79,1.0,2360.7812807150576,0.20154210117490864,1.3327022735235938,0.899691618056219,0.288233,0.6470318788017595
0.0205,1.78949375,1.0,2388.0642125879426,0.20602081856966717,1.3322077549918903,0.9034592489467619,0.2882117375,0.6480803811328069
0.021,1.788975,1.0,2413.7751149108335,0.21047441341971632,1.331724298355759,0.9070030855032237,0.28818995000000003,0.6491039218124346
0.021500000000000002,1.78844375,1.0,2437.986073989105,0.21490302623591662,1.3312509439789053,0.910340302722897,0.2881676375,0.6501046304626408
0.022,1.7879,1.0,2460.7759307770616,0.2193067992726296,1.3307867030321208,0.9134864728587692,0.2881448,0.6510846846209808
0.0225,1.78734375,1.0,2482.210611222031,0.2236858721028153,1.3303307425128854,0.9164557710440564,0.28812143749999997,0.6520459201239981
0.023,1.786775,1.0,2502.345375001207,0.22804038172188235,1.3298823577832373,0.9192611162015268,0.28809755,0.6529898916561615
0.0235,1.78619375,1.0,2521.2378837334018,0.23237046512523948,1.3294408442052144,0.9219142782449877,0.28807313749999996,0.6539181446726903
0.024,1.7856,1.0,2538.947999933895,0.23667625930829544,1.3290054971408547,0.9244259961426602,0.2880482,0.6548322157241679
0.0245,1.78499375,1.0,2555.537596977772,0.24095790126645888,1.328575611952196,0.9268060824274177,0.2880227375,0.6557336327494894
0.025,1.784375,1.0,2571.0592174120757,0.2452155246748889,1.3281505885451386,0.9290635321987966,0.28799675,0.6566236965480841
0.025500000000000002,1.78374375,1.0,2585.5777094576315,0.24944926903532721,1.3277297262630459,0.9312065733523422,0.2879702375,0.6575039111082559
0.026000000000000002,1.7831000000000001,1.0,2599.1375383179093,0.2536592670245594,1.3273125284232716,0.9332427853139003,0.2879432,0.6583753467384088
0.0265,1.78244375,1.0,2611.780930924569,0.2578456501745357,1.3268985298706013,0.9351791355652996,0.2879156375,0.6592390024503814
0.027,1.781775,1.0,2623.5511384834886,0.2620085500172067,1.32648726544982,0.9370220331138459,0.28788755,0.6600958721272281
0.0275,1.7810937500000001,1.0,2634.4923476586855,0.2661480980845226,1.3260782700057132,0.9387773806966455,0.2878589375,0.6609469446112284
0.028,1.7804,1.0,2644.6495965534114,0.2702644259084338,1.3256710783830659,0.9404506214707912,0.2878298,0.6617932037780963
0.0285,1.77969375,1.0,2654.06463024561,0.27435766346486035,1.3252652628996278,0.9420467856093712,0.2878001375,0.6626355508636353
0.029,1.778975,1.0,2662.7739835854227,0.27842793964943996,1.3248604499978192,0.943570529789649,0.28776995,0.663474770494944
0.029500000000000002,1.7782437500000001,1.0,2670.8287943593705,0.28247538932759625,1.3244561371817345,0.9450261475799248,0.2877392375,0.6643119102203683
0.03,1.7775,1.0,2678.257168160546,0.28650013794418816,1.3240520387668981,0.9464176423625779,0.287708,0.6651475643208442
0.0305,1.77674375,1.0,2685.0876193817953,0.29050231094407464,1.323647869068835,0.9477487266963645,0.2876762375,0.6659823241301094
0.031,1.775975,1.0,2691.3490350058905,0.2944820337721147,1.323243342403069,0.9490228471013833,0.28764395,0.6668167780360087
0.0315,1.7751937500000001,1.0,2697.0706402047167,0.2984394318731671,1.322838173085125,0.9502432064409808,0.2876111375,0.6676515114765906
0.032,1.7744,1.0,2702.2819657483324,0.302374630692091,1.3224320754305279,0.9514127841595482,0.2875778,0.6684871069310026
0.0325,1.77359375,1.0,2707.0128172239883,0.3062877556737451,1.3220247637548015,0.952534354604709,0.2875439375,0.6693241439051796
0.033,1.772775,1.0,2711.2900880699594,0.31017893057348894,1.3216159811746666,0.9536105065237553,0.28750955,0.6701631398375527
0.0335,1.7719437500000002,1.0,2715.1379762842416,0.31404827810480135,1.321205497283254,0.9546436577759041,0.2874746375,0.6710045552137036
0.034,1.7711000000000001,1.0,2718.5898300070207,0.31789592588156446,1.3207929999684846,0.9556360582300425,0.2874392,0.6718490152143489
0.0345,1.7702437500000001,1.0,2721.663966579798,0.3217219931743998,1.3203783155775943,0.95658982376056,0.2874032375,0.6726968587616817
0.035,1.7693750000000001,1.0,2724.3788287216166,0.3255265992539289,1.3199612704578185,0.9575069335740858,0.28736675,0.6735484228540138
0.035500000000000004,1.76849375,1.0,2726.7529715493984,0.32930986339077334,1.3195416909563928,0.9583892406197155,0.2873297375,0.6744040425405904
0.036000000000000004,1.7676,1.0,2728.8050502665365,0.3330719048555546,1.3191194034205531,0.9592384810918108,0.2872922,0.6752640508944843
0.0365,1.76669375,1.0,2730.5538085203693,0.33681284291889424,1.318694234197535,0.9600562831138348,0.2872541375,0.6761287789835675
0.037,1.765775,1.0,2732.01806742792,0.34053279685141385,1.318266009634574,0.9608441746822222,0.28721555,0.6769985558395577
0.0375,1.76484375,1.0,2733.214528124576,0.3442318824676341,1.3178345759457195,0.96160359214645,0.2871764375,0.6778736681549893
0.038,1.7639,1.0,2734.1595269905633,0.347910215928162,1.31739978316635,0.9623358860552697,0.28713679999999997,0.6787543930036799
0.0385,1.76294375,1.0,2734.873754056681,0.35156792396619924,1.3169614422312612,0.9630423252465731,0.28709663750000003,0.6796410846258892
0.039,1.761975,1.0,2735.368468810689,0.35520511913643726,1.3165194500842536,0.9637241092480298,0.28705595,0.6805339212957962
0.0395,1.7609937500000001,1.0,2735.654962226255,0.3588219139935678,1.3160737036691268,0.9643823680135019,0.2870147375,0.6814330798752584
0.04,1.76,1.0,2735.7445523239735,0.36241842109228234,1.315624099929681,0.9650181666987276,0.286973,0.6823387357894728
0.0405,1.7589937500000001,1.0,2735.648579969138,0.3659947529872725,1.3151705358097163,0.9656325100603796,0.2869307375,0.6832510630019654
0.041,1.757975,1.0,2735.3784049039023,0.3695510222332299,1.3147129082530329,0.9662263465118568,0.28688795,0.6841702339888971
0.0415,1.75694375,1.0,2734.9454020159014,0.37308734138484606,1.3142511142034305,0.9668005718659006,0.2868446375,0.6850964197126992
0.042,1.7559,1.0,2734.3609578414653,0.3766038229968126,1.3137850506047095,0.9673560327912246,0.28680079999999997,0.6860297895950251
0.0425,1.75484375,1.0,2733.6364673053495,0.38010057962382116,1.3133146144006698,0.9678935300077214,0.2867564375,0.6869705114890294
0.043000000000000003,1.753775,1.0,2732.782673165216,0.38357772225772613,1.3128397085082126,0.9684138214800637,0.28671155,0.6879187397337263
0.043500000000000004,1.75269375,1.0,2731.8010271894163,0.3870353411359106,1.3123603202878007,0.9689176284592367,0.28666613750000003,0.6888744588957352
0.044,1.7516,1.0,2730.7136366108175,0.39047357994828574,1.311876249464142,0.9694056276560002,0.2866202,0.6898380262123094
0.0445,1.75049375,1.0,2729.525700735483,0.39389254306450644,1.3113874493527258,0.9698784665541975,0.2865737375,0.6908094910255218
0.045,1.7493750000000001,1.0,2728.242420172974,0.39729233485422755,1.3108938732690416,0.9703367593180559,0.28652675,0.6917889016701948
0.0455,1.74824375,1.0,2726.8689959127805,0.40067305968710387,1.3103954745285784,0.9707810888275593,0.2864792375,0.6927763054597533
0.046,1.7471,1.0,2725.410628448818,0.4040348219327903,1.309892206446826,0.9712120085704876,0.2864312,0.6937717486719319
0.0465,1.7459437500000001,1.0,2723.872516952239,0.40737772596094163,1.3093840223392732,0.9716300444025068,0.28638263750000004,0.6947752765343498
0.047,1.744775,1.0,2722.2598584923717,0.41070187614121273,1.3088708755214093,0.9720356961856733,0.28633355,0.6957869332099428
0.0475,1.74359375,1.0,2720.577847306607,0.41400737684325845,1.3083527193087243,0.9724294393148305,0.28628393750000003,0.6968067617822546
0.048,1.7424,1.0,2718.8316741176163,0.4172943324367336,1.3078295070167067,0.972811726140547,0.2862338,0.6978348042405973
0.0485,1.74119375,1.0,2717.0265255000772,0.42056284729129306,1.3073011919608464,0.9731829872965061,0.2861831375,0.6988711014650608
0.049,1.739975,1.0,2715.1675832945048,0.4238130257765917,1.3067677274566323,0.9735436329385904,0.28613195,0.6999156932113948
0.0495,1.73874375,1.0,2713.260024070257,0.42704497226228433,1.306229066819554,0.9738940539022864,0.2860802375,0.7009686180957435
0.05,1.7375,1.0,2711.3090186367963,0.4302587911180258,1.3056851633651008,0.9742346227844971,0.286028,0.7020299135792464
0.0505,1.73624375,1.0,2709.319340887138,0.43345458254105834,1.3051359739734207,0.9745656947162039,0.2859752375,0.7030996090155992
0.051000000000000004,1.734975,1.0,2707.2939257549833,0.4366324300692135,1.3045814722536715,0.9748876078086494,0.28592195,0.7041777001268685
0.051500000000000004,1.73369375,1.0,2705.2389326609004,0.43979246730025545,1.304021602342104,0.9752006884718504,0.2858681375,0.7052642388690675
0.052000000000000005,1.7324,1.0,2703.1565500429115,0.4429347898980077,1.3034563445656002,0.9755052465678478,0.2858138,0.706359205812767
0.0525,1.73109375,1.0,2701.048963485151,0.4460594935262935,1.3028856792510413,0.9758015781700481,0.28575893750000003,0.7074625806908015
0.053,1.729775,1.0,2698.918355609212,0.44916667384893627,1.3023095867253092,0.9760899662932889,0.28570355000000003,0.7085743423914949
0.0535,1.72844375,1.0,2696.766905975472,0.4522564265297593,1.301728047315285,0.9763706815791827,0.2856476375,0.7096944689518658
0.054,1.7271,1.0,2694.5967909920246,0.455328847232586,1.3011410413478508,0.9766439829398399,0.2855912,0.7108229375508036
0.0545,1.7257437500000001,1.0,2692.4101838324214,0.45838403162123964,1.3005485491498876,0.9769101181628274,0.2855342375,0.7119597245022244
0.055,1.724375,1.0,2690.209254361958,0.46142207535954366,1.2999505510482774,0.9771693244800048,0.28547675,0.7131048052481975
0.0555,1.72299375,1.0,2687.996169073102,0.46444307411132135,1.2993470273699015,0.9774218291026794,0.2854187375,0.7142581543520519
0.056,1.7216,1.0,2685.773091028516,0.4674471235403961,1.2987379584416414,0.9776678497253296,0.2853602,0.7154197454914546
0.0565,1.72019375,1.0,2683.5421798134826,0.4704343193105912,1.298123324590379,0.9779075949999972,0.28530113749999997,0.7165895514514655
0.057,1.718775,1.0,2681.3055914967154,0.4734047570857301,1.2975031061429954,0.9781412649832711,0.28524155,0.717767544117569
0.0575,1.71734375,1.0,2679.065478599255,0.4763585325296361,1.2968772834263724,0.9783690515576617,0.2851814375,0.7189536944686777
0.058,1.7159,1.0,2676.8239900726076,0.47929574130613256,1.2962458367673915,0.9785911388290239,0.2851208,0.720147972570115
0.0585,1.71444375,1.0,2674.580906484039,0.48221646160538173,1.2956087682076451,0.9788077032156787,0.2850596375,0.7213503066286949
0.059000000000000004,1.7129750000000001,1.0,2672.333760104141,0.4851207684724176,1.2949661004457718,0.9790189150133041,0.28499795,0.7225605854203281
0.059500000000000004,1.71149375,1.0,2670.0902318535527,0.4880088082582251,1.2943177629505969,0.9792249386396912,0.2849357375,0.7237788724864678
0.06,1.71,1.0,2667.85084435434,0.49088066707350525,1.2936637508861328,0.979425930594373,0.284873,0.7250051065544876
0.0605,1.7084937500000001,1.0,2665.616119350832,0.49373643102895903,1.2930040594163932,0.9796220413005904,0.2848097375,0.7262392256553404
0.061,1.7069750000000001,1.0,2663.3865777132582,0.4965761862352873,1.2923386837053905,0.9798134153860302,0.28474595,0.7274811671218101
0.0615,1.7054437500000001,1.0,2661.162739441261,0.4994000188031912,1.291667618917138,0.9800001919485145,0.2846816375,0.7287308675867574
0.062,1.7039,1.0,2658.9451236689265,0.5022080148433715,1.2909908602156488,0.980182504807552,0.2846168,0.7299882629813672
0.0625,1.70234375,1.0,2656.7342486691687,0.5050002604665293,1.2903084027649354,0.9803604827426078,0.2845514375,0.731253288533393
0.063,1.7007750000000001,1.0,2654.5306318595744,0.5077768417833656,1.2896202417290112,0.9805342497188845,0.28448555,0.732525878765399
0.0635,1.69919375,1.0,2652.334789808375,0.5105378449045812,1.288926372271889,0.980703925101356,0.28441913750000003,0.7338059674930031
0.064,1.6976,1.0,2650.147238240709,0.5132833559408772,1.288226789557582,0.9808696238577496,0.2843522,0.7350934878231163
0.0645,1.69599375,1.0,2647.968492046121,0.5160134610029544,1.2875214887501032,0.9810314567511219,0.2842847375,0.736388372152182
0.065,1.694375,1.0,2645.799065285667,0.5187282462015139,1.286810465013465,0.9811895305226325,0.28421675,0.737690552164413
0.0655,1.69274375,1.0,2643.6394712002507,0.5214277976472567,1.286093713511681,0.9813439480650848,0.2841482375,0.7389999588300262
0.066,1.6911,1.0,2641.490222219129,0.5241122014508837,1.285371229408764,0.9814948085877595,0.2840792,0.7403165224034776
0.0665,1.6894437500000001,1.0,2639.351829969183,0.5267815437230958,1.284643007868727,0.9816422077730381,0.2840096375,0.7416401724216959
0.067,1.687775,1.0,2637.224805284204,0.529435910574594,1.2839090440555827,0.9817862379252819,0.28393955,0.7429708377023125
0.0675,1.68609375,1.0,2635.109658215463,0.5320753881160795,1.2831693331333445,0.9819269881123962,0.2838689375,0.744308446341891
0.068,1.6844000000000001,1.0,2633.006898042122,0.5347000624582529,1.2824238702660253,0.9820645443004941,0.2837978,0.745652925714156
0.0685,1.68269375,1.0,2630.9170332824633,0.5373100197118152,1.281672650617638,0.9821989894820361,0.2837261375,0.747004202468221
0.069,1.680975,1.0,2628.8392253008205,0.5399053098100748,1.2809156818226126,0.982330402068741,0.28365395,0.7483621801853848
0.0695,1.67924375,1.0,2626.77320264557,0.5424860406658804,1.2801529662728182,0.9824588612545553,0.28358123749999997,0.7497267713282565
0.07,1.6775,1.0,2624.7194795657474,0.5450523153929709,1.2793844990816552,0.9825844428929158,0.283508,0.7510979007426423
0.07050000000000001,1.67574375,1.0,2622.6779345168247,0.5476042106346592,1.2786102812511948,0.9827072189038761,0.2834342375,0.7524754820826853
0.07100000000000001,1.673975,1.0,2620.6484461967934,0.5501418030342573,1.2778303137835079,0.9828272588095792,0.28335995,0.753859428389533
0.07150000000000001,1.67219375,1.0,2618.63089354412,0.5526651692350778,1.2770445976806652,0.9829446298287916,0.2832851375,0.7552496520917039
0.07200000000000001,1.6704,1.0,2616.6251557354376,0.5551743858804329,1.2762531339447378,0.9830593969670923,0.2832098,0.7566460650054552
0.0725,1.66859375,1.0,2614.631112182869,0.557669529613635,1.2754559235777967,0.983171623102947,0.2831339375,0.7580485783351499
0.073,1.6667750000000001,1.0,2612.6486425322137,0.5601506770779967,1.2746529675819127,0.9832813690698752,0.28305755,0.759457102673625
0.0735,1.66494375,1.0,2610.67762666048,0.5626179049168302,1.2738442669591568,0.9833886937349151,0.2829806375,0.7608715480025576
0.074,1.6631,1.0,2608.717944673566,0.5650712897734478,1.2730298227115997,0.9834936540735764,0.2829032,0.762291823692833
0.0745,1.6612437500000001,1.0,2606.7694769042537,0.5675109082911621,1.2722096358413129,0.9835963052414567,0.2828252375,0.7637178385049102
0.075,1.659375,1.0,2604.832103910131,0.5699368371132854,1.2713837073503667,0.9836967006426932,0.28274675,0.7651495005891918
0.0755,1.65749375,1.0,2602.9057064710823,0.5723491528831299,1.2705520382408324,0.9837948919954057,0.2826677375,0.7665867174863876
