Time [s],Phi [rad],STIM [ ],Fsee [N],Gamma [ ],Lcerel [ ],q [ ],Lmtc [m],fisomrel [ ]
0.0,1.8,1.0,19.47523120235129,0.0012543586292815155,1.3791741954923562,0.005403321664384969,0.288653,0.5415399536757795
0.0005,1.79999375,1.0,20.139977797017483,0.006856531978125637,1.3791004408131924,0.01675250083290752,0.2886527375,0.5417182900996276
0.001,1.799975,1.0,24.41524470699494,0.012427281553935871,1.378661329600513,0.04238343359217289,0.28865195,0.5427793286516953
0.0015,1.79994375,1.0,36.03181267750197,0.017966783659612618,1.3776390649309775,0.07968274802222841,0.2886506375,0.5452446959121713
0.002,1.7999,1.0,62.674749426813904,0.023475213508330713,1.3758013679173524,0.12534993544291254,0.2886488,0.5496598592839501
0.0025,1.79984375,1.0,111.12833223077857,0.02895274543139308,1.3732828209859391,0.17606317708396807,0.28864643749999996,0.5556758149131995
0.003,1.7997750000000001,1.0,178.40143497245117,0.034399552730928776,1.370578216899994,0.2290808250884536,0.28864354999999997,0.5620911516556791
0.0035,1.79969375,1.0,256.9709993356819,0.039815807747766295,1.3680022103048244,0.2823132401339817,0.2886401375,0.5681580778404458
0.004,1.7996,1.0,341.74243444581856,0.04520168185471287,1.3656272784178862,0.33421904940836517,0.2886362,0.5737139453977345
0.0045000000000000005,1.7994937500000001,1.0,430.1026826580159,0.050557345472145465,1.3634398097714004,0.38374626388671385,0.2886317375,0.5787994409226029
0.005,1.799375,1.0,520.549841364952,0.055882968051187566,1.3614138511764093,0.43025702211720024,0.28862675,0.583482232709937
0.0055,1.79924375,1.0,612.0269487639466,0.061178718100890206,1.359527587752647,0.4734330047474558,0.2886212375,0.5878186021835548
0.006,1.7991000000000001,1.0,703.6927263908401,0.06644476314744907,1.3577644564183293,0.513184350087693,0.2886152,0.5918513830475043
0.006500000000000001,1.79894375,1.0,794.8692524272219,0.07168126991257721,1.3561113715566904,0.5495736737205232,0.2886086375,0.5956144484949388
0.007,1.798775,1.0,884.9672706094211,0.07688840388686326,1.354558298095531,0.5827587801508491,0.28860155,0.5991339708278078
0.0075,1.79859375,1.0,973.541605314172,0.08206633013401915,1.3530962135666744,0.6129502703224747,0.2885939375,0.6024332396839205
0.008,1.7984,1.0,1060.2011715820056,0.08721521222828825,1.3517178821994091,0.6403837480073626,0.2885858,0.6055310310623807
0.0085,1.79819375,1.0,1144.6425879300118,0.09233521300275435,1.350416787911673,0.6653005479067556,0.2885771375,0.6084441159109233
0.009000000000000001,1.797975,1.0,1226.658539493328,0.09742649492367494,1.34918671183049,0.6879358721719186,0.28856795,0.6111882662022011
0.0095,1.79774375,1.0,1306.0678737601552,0.10248921868372365,1.3480224537463126,0.7085124086960812,0.2885582375,0.6137766954349353
0.01,1.7975,1.0,1382.7455274713063,0.10752354434542184,1.346919176966745,0.7272364064187817,0.288548,0.6162215709589167
0.0105,1.79724375,1.0,1456.6284785304463,0.11252963156798046,1.3458721887468221,0.7442961506618374,0.2885372375,0.6185345314141666
0.011,1.796975,1.0,1527.6729096734578,0.11750763886174143,1.344877360136825,0.759862088962411,0.28852595000000003,0.6207257859217308
0.0115,1.79669375,1.0,1595.8503817027217,0.12245772317479785,1.3439310368227608,0.7740874665004699,0.2885141375,0.6228043428253213
0.012,1.7964,1.0,1661.170708060424,0.12738004099064412,1.3430296659858616,0.7871092893476522,0.28850180000000003,0.6247788528495799
0.0125,1.79609375,1.0,1723.6803119523959,0.13227474904336253,1.3421697573148745,0.7990496729956967,0.2884889375,0.6266577078414537
0.013000000000000001,1.7957750000000001,1.0,1783.4183764050053,0.13714200217379718,1.3413483275690405,0.8100174411634168,0.28847555,0.6284480843935555
0.0135,1.79544375,1.0,1840.422025036079,0.14198195346184536,1.3405627647437033,0.8201094361997617,0.2884616375,0.6301562604276946
0.014,1.7951000000000001,1.0,1894.7550715836799,0.14679475598740446,1.3398104568342064,0.8294116849112628,0.2884472,0.6317884356700509
0.0145,1.79474375,1.0,1946.4946092485495,0.15158056209441445,1.3390889111213997,0.8380006648071616,0.2884322375,0.6333504794467586
0.015,1.794375,1.0,1995.7304390424765,0.15633952446877492,1.3383957296989881,0.8459444002906408,0.28841675,0.634847991458831
0.0155,1.79399375,1.0,2042.5351086846993,0.16107179333801683,1.337728898403932,0.8533035424553328,0.2884007375,0.6362856861698554
0.016,1.7936,1.0,2086.9780310905057,0.16577751748491995,1.3370866013545213,0.8601321755956417,0.2883842,0.6376678035307974
0.0165,1.7931937500000001,1.0,2129.1424076687554,0.1704568456922642,1.336467022669046,0.8664785338690202,0.2883671375,0.638998541633379
0.017,1.792775,1.0,2169.117732106216,0.175109926103881,1.335868410883611,0.8723857125107001,0.28834955,0.6402819214621106
0.0175,1.7923437500000001,1.0,2206.9970467488374,0.17973690690586683,1.3352890927351677,0.8778922782860819,0.2883314375,0.6415217611378448
0.018000000000000002,1.7919,1.0,2242.8669225319873,0.18433793514342878,1.3347275604732851,0.8830328221572296,0.2883128,0.6427214931747554
0.0185,1.79144375,1.0,2276.795960502397,0.1889131550546494,1.3341825712006226,0.8878384444385027,0.2882936375,0.643883957607592
0.019,1.790975,1.0,2308.8598980877937,0.19346271087761135,1.3336528820198394,0.8923370907773149,0.28827395,0.6450119716832114
0.0195,1.79049375,1.0,2339.141014785375,0.19798674685039724,1.3331372500335956,0.8965539133159621,0.2882537375,0.6461083311226199
0.02,1.79,1.0,2367.716525279424,0.2024854057199819,1.3326345401546253,0.9005116111606603,0.288233,0.6471755825769163
0.0205,1.78949375,1.0,2394.675911925758,0.2069588320535216,1.332143548759855,0.9042306666759401,0.2882117375,0.6482163999273274
0.021,1.788975,1.0,2420.0891925495416,0.211407167137496,1.3316633074393653,0.9077296541928129,0.28818995000000003,0.6492329416402456
0.021500000000000002,1.78844375,1.0,2444.016905472637,0.21583055032491166,1.331192977004614,0.9110254248633608,0.2881676375,0.6502270790268534
0.022,1.7879,1.0,2466.5229728732756,0.22022912096877525,1.3307317182670595,0.9141332663420553,0.2881448,0.6512006713396632
0.0225,1.78734375,1.0,2487.6744191559433,0.22460301842209351,1.3302786920381593,0.9170670694790488,0.28812143749999997,0.6521555662804934
0.023,1.786775,1.0,2507.5372573183176,0.22895238135356408,1.3298330956178164,0.9198394819282057,0.28809755,0.6530935237090829
0.0235,1.78619375,1.0,2526.172924228878,0.23327734740939363,1.3293941934346347,0.9224620425267392,0.28807313749999996,0.6540161522051864
0.024,1.7856,1.0,2543.656566309805,0.2375780562857168,1.3289611415919234,0.9249452641782714,0.2880482,0.6549252784519725
0.0245,1.78499375,1.0,2560.0346864174085,0.24185464212166544,1.3285333852826038,0.9272988044916796,0.2880227375,0.6558221133761232
0.025,1.784375,1.0,2575.3553687460326,0.24610723905637136,1.3281103696995968,0.929531502456629,0.28799675,0.6567078612742152
0.025500000000000002,1.78374375,1.0,2589.668147660128,0.25033598122896644,1.327691540035824,0.931651458995871,0.2879702375,0.6575837199902741
0.026000000000000002,1.7831000000000001,1.0,2603.023883350633,0.2545410027785825,1.3272763414842061,0.9336661086095976,0.2879432,0.6584508810737031
0.0265,1.78244375,1.0,2615.4691149558007,0.25872243722294774,1.3268642705813716,0.9355822910528343,0.2879156375,0.6593104228868236
0.027,1.781775,1.0,2627.0425321255107,0.26288041614987595,1.3264549063068183,0.9374063114816634,0.28788755,0.6601632466460667
0.0275,1.7810937500000001,1.0,2637.8301559674455,0.26701507514503603,1.3260473981450698,0.939143915351033,0.2878589375,0.6610111421008622
0.028,1.7804,1.0,2647.8561849241964,0.27112654290572735,1.3256414767999247,0.940800485860583,0.2878298,0.661854682996059
0.0285,1.77969375,1.0,2657.145395306468,0.2752149481292492,1.3252368729751824,0.9423809937072569,0.2878001375,0.6626944402338171
0.029,1.778975,1.0,2665.7230989172554,0.27928041951290083,1.3248333173746414,0.9438900340493636,0.28776995,0.6635309818985508
0.029500000000000002,1.7782455301355973,1.0,2673.7026379506965,0.28332308575398163,1.3244305407021004,0.9453318597163247,0.2877393122656951,0.6643648732772409
0.03,1.7775147012217103,1.0,2681.571599498017,0.28734307554979094,1.324028273661359,0.9467104110862011,0.2877086174513118,0.6651966768751261
0.0305,1.7767838723078235,1.0,2689.420091155144,0.2913405152870074,1.3236262999440063,0.9480293491148601,0.2876779226369286,0.666026843062985
0.031,1.7760530433939368,1.0,2697.2162610190508,0.29531553419575945,1.3232249095154007,0.949292138260192,0.28764722782254537,0.6668547763672226
0.0315,1.7753222144800498,1.0,2704.9476002114334,0.2992682583688643,1.3228242140640878,0.950501974169426,0.2876165330081621,0.667680251319847
0.032,1.774591385566163,1.0,2712.6099348965813,0.30319881113325153,1.3224242486690587,0.9516618192033617,0.28758583819377886,0.6685032011166868
0.0325,1.773860556652276,1.0,2720.199072922483,0.30710731581585066,1.3220250484093043,0.9527744318132033,0.2875551433793956,0.6693235593016109
0.033,1.7731297277383893,1.0,2727.710804402996,0.3109938957435911,1.3216266483638153,0.9538423830499917,0.28752444856501236,0.6701412597648557
0.0335,1.7723988988245025,1.0,2735.1409023258493,0.31485867424340247,1.321229083611583,0.9548680715502365,0.28749375375062913,0.6709562367412711
0.034,1.7716680699106155,1.0,2742.4851231890516,0.31870177464221416,1.3208323892315978,0.9558537371545086,0.28746305893624585,0.6717684248084965
0.0345,1.7709372409967288,1.0,2749.7444344871346,0.32252330931420425,1.3204365529681976,0.95680146532684,0.28743236412186257,0.6725778556181744
0.035,1.7702064120828418,1.0,2756.9109794918763,0.32632341611748306,1.3200416424841566,0.9577132220411437,0.28740166930747935,0.6733843975639137
0.035500000000000004,1.769475583168955,1.0,2763.985033048103,0.3301022122864469,1.319647651689326,0.9585908349889671,0.2873709744930961,0.6741880700558013
0.036000000000000004,1.7687447542550683,1.0,2770.967071707154,0.3338598145785736,1.319254572756025,0.9594360166553038,0.2873402796787129,0.6749888959641835
0.0365,1.7680139253411813,1.0,2777.8575819581674,0.3375963397513409,1.318862397856572,0.9602503731717201,0.2873095848643296,0.6757868980649143
0.037,1.7672830964272945,1.0,2784.6570600705663,0.3413119045622266,1.3184711191632863,0.9610354121240339,0.28727889004994633,0.6765820990398084
0.0375,1.7665522675134078,1.0,2791.366011937879,0.34500662576870844,1.3180807288484861,0.9617925497033376,0.2872481952355631,0.6773745214770913
0.038,1.7658214385995208,1.0,2797.984952922546,0.34868062012826423,1.3176912190844905,0.9625231172622387,0.2872175004211799,0.678164187871844
0.0385,1.765090609685634,1.0,2804.5144077027844,0.35233400439837165,1.3173025820436182,0.9632283673317684,0.28718680560679666,0.6789511206264445
0.039,1.764359780771747,1.0,2810.9549101201824,0.35596689533650855,1.316914809898188,0.9639094791487122,0.2871561107924134,0.6797353420510057
0.0395,1.7636289518578603,1.0,2817.307003029247,0.3595794097001527,1.3165278948205186,0.964567563738057,0.2871254159780301,0.6805168743638097
0.04,1.7628981229439735,1.0,2823.5718938507403,0.3631716346624346,1.3161418231229622,0.9652036626193419,0.28709472116364687,0.6812957515066634
0.0405,1.7621672940300865,1.0,2829.7513106733913,0.366743719960332,1.3157565765731876,0.9658187695216116,0.28706402634926365,0.6820720164246835
0.041,1.7614364651161998,1.0,2835.8468298093408,0.37029578359986787,1.3153721384129144,0.9664138169123488,0.2870333315348804,0.6828457089058213
0.0415,1.7607056362023128,1.0,2841.860099334557,0.37382793330051517,1.3149884913558472,0.9669896839087153,0.28700263672049714,0.6836168696217073
0.042,1.759974807288426,1.0,2847.7927797655957,0.377340276781747,1.3146056181156909,0.96754720163821,0.28697194190611386,0.6843855390626405
0.0425,1.7592439783745393,1.0,2853.646543759709,0.3808329217630363,1.3142235014061503,0.9680871563503837,0.28694124709173063,0.6851517575384536
0.043000000000000003,1.7585131494606523,1.0,2859.423075821347,0.3843059759638562,1.3138421239409301,0.968610292296335,0.2869105522773474,0.6859155651793554
0.043500000000000004,1.7577823205467655,1.0,2865.1240720157925,0.3877595471036797,1.3134614684337353,0.9691173143954942,0.2868798574629642,0.686677001936755
0.044,1.7570514916328785,1.0,2870.7512396888737,0.3911937429019798,1.3130815175982706,0.9696088907073868,0.2868491626485809,0.6874361075840681
0.0445,1.7563206627189918,1.0,2876.3062971940185,0.39460867107822956,1.312702254148241,0.9700856547244403,0.2868184678341976,0.688192921717503
0.045,1.755589833805105,1.0,2881.7909736250876,0.398004439351902,1.312323660797351,0.9705482075004312,0.2867877730198144,0.688947483756828
0.0455,1.754859004891218,1.0,2887.207008556405,0.4013811554424702,1.3119457202593054,0.9709971196278483,0.28675707820543117,0.6896998329461197
0.046,1.7541281759773313,1.0,2892.5561517891124,0.4047389270694073,1.3115684152478093,0.9714329330762665,0.28672638339104795,0.690450008354492
0.0465,1.7533973470634443,1.0,2897.8401631043826,0.4080778619521861,1.3111917284765675,0.9718561629027457,0.28669568857666466,0.6911980488768058
0.047,1.7526665181495575,1.0,2903.060812023361,0.4113980678102797,1.3108156426592847,0.9722672988443032,0.2866649937622814,0.6919439932343616
0.0475,1.7519356892356708,1.0,2908.219877573193,0.41469965236316125,1.3104401405096657,0.9726668068016351,0.28663429894789816,0.6926878799755708
0.048,1.7512048603217838,1.0,2913.3175834491262,0.4179826974465398,1.3100652185071624,0.9730551279499389,0.28660360413351493,0.6934297202554389
0.0485,1.750474031407897,1.0,2918.355229310257,0.42124729804279254,1.3096908637049365,0.9734326834838665,0.28657290931913165,0.6941695438064108
0.049,1.7497432024940103,1.0,2923.3379088428246,0.4244936140446406,1.3093170298965806,0.9737998802529475,0.2865422145047484,0.6949074458417024
0.0495,1.7490123735801233,1.0,2928.2667649709583,0.42772174218085457,1.3089437057206694,0.9741571007761576,0.28651151969036515,0.6956434524731518
0.05,1.7482815446662365,1.0,2933.1429467326316,0.4309317791802051,1.3085708798157782,0.9745047098841686,0.2864808248759819,0.6963775896993513
0.0505,1.7475507157523495,1.0,2937.9676091523033,0.4341238217714628,1.3081985408204815,0.9748430556958422,0.2864501300615987,0.6971098834060141
0.051000000000000004,1.7468198868384628,1.0,2942.7419131171473,0.43729796668339826,1.307826677373354,0.9751724705324127,0.2864194352472154,0.6978403593663298
0.051500000000000004,1.746089057924576,1.0,2947.4670252557567,0.4404543106447822,1.307455278112971,0.9754932717738491,0.2863887404328322,0.698569043241313
0.052000000000000005,1.745358229010689,1.0,2952.144117819619,0.4435929503843851,1.307084331677907,0.9758057626615331,0.2863580456184489,0.6992959605801441
0.0525,1.7446274000968023,1.0,2956.7743685679898,0.44671398263097767,1.3067138267067369,0.9761102330510592,0.2863273508040657,0.7000211368205032
0.053,1.7438965711829155,1.0,2961.3589606548144,0.44981750411333055,1.3063437518380354,0.9764069601186631,0.28629665598968246,0.7007445972888908
0.0535,1.7431657422690285,1.0,2965.899082519092,0.4529036115602143,1.3059740957103776,0.976696209024507,0.2862659611752992,0.7014663672009461
0.054,1.7424349133551418,1.0,2970.3959277783392,0.45597240170039954,1.3056048469623383,0.9769782335358086,0.28623526636091595,0.7021864716617533
0.0545,1.7417040844412548,1.0,2974.8506951239224,0.4590239712626569,1.3052359942324923,0.9772532766125589,0.28620457154653267,0.7029049356661414
0.055,1.740973255527368,1.0,2979.264588220456,0.4620584169757571,1.304867526159414,0.9775215709583773,0.28617387673214945,0.7036217840989765
0.0555,1.7402424266134813,1.0,2983.638815606924,0.46507583556847065,1.3044994313816791,0.9777833395388507,0.2861431819177662,0.7043370417354403
0.056,1.7395115976995943,1.0,2987.9745906015955,0.46807632376956815,1.3041316985378617,0.978038796069528,0.28611248710338294,0.7050507332413113
0.0565,1.7387807687857075,1.0,2992.273131209491,0.47105997830782026,1.303764316266537,0.9782881454755888,0.2860817922889997,0.7057628831732246
0.057,1.7380499398718205,1.0,2996.5356600321957,0.47402689591199765,1.3033972732062797,0.9785315843250402,0.28605109747461643,0.706473515978935
0.0575,1.7373191109579338,1.0,3000.763404181461,0.47697717331087086,1.303030557995665,0.9787693012371752,0.2860204026602332,0.7071826559975637
0.058,1.736588282044047,1.0,3004.957595194846,0.4799109072332105,1.302664159273267,0.9790014772678933,0.28598970784585,0.707890327459842
0.0585,1.73585745313016,1.0,3009.1183682300616,0.48282816874520446,1.302298075206641,0.9792282846388978,0.2859590130314667,0.7085965361172193
0.059000000000000004,1.7351266242162733,1.0,3013.2462121388476,0.48572904473069,1.3019323009142945,0.9794498899764743,0.2859283182170835,0.7093012935733416
0.059500000000000004,1.7343957953023863,1.0,3017.343826046032,0.4886136731081014,1.3015668124254245,0.9796664565339446,0.2858976234027002,0.7100046480981149
0.06,1.7336649663884995,1.0,3021.411794810183,0.4914821398462838,1.301201604105223,0.9798781379632306,0.28586692858831697,0.7107066125141598
0.0605,1.7329341374746128,1.0,3025.4507055758118,0.49433453091408264,1.3008366703188807,0.9800850820249444,0.28583623377393375,0.7114071995900799
0.061,1.7322033085607258,1.0,3029.461147738621,0.497170932280343,1.3004720054315895,0.9802874308594886,0.28580553895955046,0.7121064220405576
0.0615,1.731472479646839,1.0,3033.44371291211,0.49999142991391016,1.3001076038085404,0.9804853212436841,0.28577484414516724,0.7128042925264546
0.062,1.730741650732952,1.0,3037.3989948937096,0.5027961097836294,1.2997434598149247,0.9806788848338027,0.28574414933078396,0.7135008236549063
0.0625,1.7300108218190653,1.0,3041.3275896327655,0.505585057858346,1.2993795678159337,0.980868248395822,0.28571345451640073,0.7141960279794157
0.063,1.7292799929051785,1.0,3045.2300951982493,0.508358360106905,1.2990159221767588,0.9810535340236632,0.2856827597020175,0.7148899179999444
0.0635,1.7285491639912915,1.0,3049.1071117478073,0.511116102498152,1.2986525172625913,0.9812348593461261,0.2856520648876342,0.7155825061630026
0.064,1.7278183350774048,1.0,3052.9592414977114,0.5138583710009319,1.2982893474386226,0.9814123377231841,0.285621370073251,0.716273804861737
0.0645,1.727087506163518,1.0,3056.787088692305,0.5165852515840902,1.2979264070700436,0.9815860784322611,0.2855906752588677,0.7169638264360163
0.065,1.726356677249631,1.0,3060.591259575958,0.519296830216472,1.2975636905220462,0.9817561868450696,0.2855599804444845,0.7176525831725125
0.0655,1.7256258483357443,1.0,3064.3723623638825,0.5219931928669226,1.2972011921598214,0.9819227645955554,0.28552928563010127,0.718340087304786
0.066,1.7248950194218573,1.0,3068.1310072150445,0.5246744255042872,1.2968389063485604,0.9820859097394545,0.285498590815718,0.719026351013363
0.0665,1.7241641905079705,1.0,3071.8678062052577,0.5273406140974112,1.2964768274534546,0.9822457169059399,0.28546789600133476,0.7197113864258116
0.067,1.7234333615940838,1.0,3075.583373300492,0.5299918446151397,1.2961149498396956,0.9824022774418006,0.2854372011869515,0.7203952056168195
0.0675,1.7227025326801968,1.0,3079.278324332144,0.532628203026318,1.2957532678724744,0.9825556795485774,0.28540650637256826,0.7210778206082666
0.068,1.72197170376631,1.0,3082.9532769715443,0.5352497752997912,1.2953917759169822,0.9827060084130367,0.28537581155818503,0.7217592433692965
0.0685,1.721240874852423,1.0,3086.6088507061786,0.5378566474044049,1.2950304683384106,0.9828533463313597,0.28534511674380175,0.7224394858163843
0.069,1.7205100459385363,1.0,3090.245010958553,0.5404488764775078,1.294669345104693,0.9829977713033485,0.2853144219294185,0.7231185492843476
0.0695,1.7197792170246495,1.0,3093.8620682421947,0.5430265442359046,1.2943084032395091,0.9831393601158637,0.28528372711503525,0.7237964406333243
0.07,1.7190483881107625,1.0,3097.4613768002064,0.5455897769849385,1.2939476308695965,0.983278189292633,0.285253032300652,0.7244731833742074
0.07050000000000001,1.7183175591968758,1.0,3101.0432196852507,0.5481386508574572,1.293587025285807,0.9834143302190667,0.2852223374862688,0.7251487837494608
