Time [s],Phi [rad],STIM [ ],Fsee [N],Gamma [ ],Lcerel [ ],q [ ],Lmtc [m],fisomrel [ ]
0.0,1.8,1.0,18.65014658925852,0.0008423144990471882,1.379263942342622,0.005182522726639971,0.288653,0.5413229019092228
0.0005,1.79999375,1.0,19.20976526665626,0.006446799089657056,1.3792000372850948,0.015411721388763254,0.2886527375,0.5414774608513481
0.001,1.799975,1.0,23.17006038032819,0.01201984695298108,1.3787825670451197,0.04007663235855976,0.28865195,0.5424865016030275
0.0015,1.79994375,1.0,34.01448839493105,0.01756163442459547,1.3778009588476745,0.07663151196048339,0.2886506375,0.544854705018424
0.002,1.7999,1.0,59.26650329659549,0.02307233685011588,1.376008668451509,0.12180355749791157,0.2886488,0.5491628866368726
0.0025,1.79984375,1.0,106.11925642507109,0.02855212859254621,1.3735110712894676,0.17224808312985268,0.28864643749999996,0.5551322692098031
0.003,1.7997750000000001,1.0,172.32131564762295,0.03400118303624828,1.3707962632525013,0.2251734557135186,0.28864354999999997,0.5615756733354011
0.0035,1.79969375,1.0,250.336004765635,0.039419672592455185,1.3682000515356245,0.27844707115255396,0.2886401375,0.5676936289833019
0.004,1.7996,1.0,334.8186257697103,0.04480776870690342,1.3658060504682585,0.33048986625190496,0.2886362,0.5732969816352484
0.0045000000000000005,1.7994937500000001,1.0,423.02072915518795,0.05016564186549739,1.3636026468333358,0.38021625279258486,0.2886317375,0.5784219235197465
0.005,1.799375,1.0,513.3904663693405,0.05549346158603309,1.3615633825615179,0.4269611239071677,0.28862675,0.58313750124577
0.0055,1.79924375,1.0,604.8514739875287,0.06079139645165743,1.3596657315247116,0.4703859371532091,0.2886212375,0.5875017907104404
0.006,1.7991000000000001,1.0,696.5576033483195,0.06605961409582388,1.357892513149141,0.510386781179022,0.2886152,0.591559148698316
0.006500000000000001,1.79894375,1.0,787.8084760813152,0.07129828120341566,1.3562305670035328,0.5470174014708159,0.2886086375,0.5953436962128237
0.007,1.798775,1.0,878.0172366506291,0.07650756337917747,1.354669462539047,0.5804301113582538,0.28860155,0.5988825648669119
0.0075,1.79859375,1.0,966.7408932683122,0.08168762597073194,1.3531999007187498,0.6108326270859035,0.2885939375,0.6021997134319683
0.008,1.7984,1.0,1053.5622777353703,0.08683863230618323,1.35181485957878,0.63845966941823,0.2885858,0.6053134712358524
0.0085,1.79819375,1.0,1138.182017979502,0.09196074538494298,1.3505075986844142,0.6635525119566026,0.2885771375,0.6082411456137936
0.009000000000000001,1.797975,1.0,1220.3874595459665,0.09705412768278326,1.3492718499401617,0.6863470668370704,0.28856795,0.610998644258218
0.0095,1.79774375,1.0,1299.9955609651206,0.10211894017616774,1.3481023385760607,0.7070670900857562,0.2885582375,0.6135993682330282
0.01,1.7975,1.0,1376.87761378715,0.1071553428938803,1.3469941942702013,0.725920096718718,0.288548,0.6160555776236409
0.0105,1.79724375,1.0,1450.9613468844632,0.11216349514335679,1.345942771616788,0.7430957280721961,0.2885372375,0.6183788225959659
0.011,1.796975,1.0,1522.218048170568,0.11714355633057592,1.3449436953488862,0.7587656212067492,0.28852595000000003,0.620579869384741
0.0115,1.79669375,1.0,1590.608378593964,0.12209568307745453,1.3439934025004494,0.7730843086556809,0.2885141375,0.6226675351918489
0.012,1.7964,1.0,1656.1381867559762,0.12702003194030548,1.3430883466697061,0.7861899462425527,0.28850180000000003,0.6246504667711976
0.0125,1.79609375,1.0,1718.8368603162269,0.13191675870414996,1.3422251968261587,0.7982057565445317,0.2884889375,0.6265367176571969
0.013000000000000001,1.7957750000000001,1.0,1778.77018618714,0.13678601962916442,1.3414006307266118,0.8092413609940673,0.28847555,0.628334213454948
0.0135,1.79544375,1.0,1835.9783287217915,0.14162796806849823,1.340611984043024,0.8193944298371982,0.2884616375,0.630049350530213
0.014,1.7951000000000001,1.0,1890.5100053054102,0.14644275650414532,1.3398567949926794,0.828751799759442,0.2884472,0.6316880066878312
0.0145,1.79474375,1.0,1942.437642268271,0.15123053741809958,1.3391326017928626,0.8373906220845592,0.2884322375,0.6332559897997565
0.015,1.794375,1.0,1991.8380630147483,0.15599146236359376,1.338437126152713,0.8453795441124927,0.28841675,0.634758646815984
0.0155,1.79399375,1.0,2038.8112896708058,0.16072568329182935,1.3377680445721472,0.8527796291080407,0.2884007375,0.6362013650060843
0.016,1.7936,1.0,2083.427761842606,0.1654333491456575,1.3371235224474394,0.8596454173389975,0.2883842,0.6375884266984402
0.0165,1.7931937500000001,1.0,2125.760539145567,0.17011460820193888,1.3365018415092187,0.8660255794828059,0.2883671375,0.6389238222605378
0.017,1.792775,1.0,2165.8949800329992,0.17476960873753408,1.3359012834881139,0.871963576902028,0.28834955,0.6402115043081562
0.0175,1.7923437500000001,1.0,2203.9147120476014,0.17939849792349466,1.3353202613866748,0.8774983126701471,0.2883314375,0.6414551093863906
0.018000000000000002,1.7919,1.0,2239.9194903972448,0.18400142389319213,1.3347571250857122,0.8826646146063866,0.2883128,0.6426583775648879
0.0185,1.79144375,1.0,2273.9833470664175,0.1885785314305359,1.3342105719436783,0.8874938143871396,0.2882936375,0.6438242780646666
0.019,1.790975,1.0,2306.1788777902716,0.1931299644985721,1.3336793862270981,0.8920140838406013,0.28827395,0.6449555714512343
0.0195,1.79049375,1.0,2336.585176385382,0.19765586706034663,1.333162352202498,0.8962507754149598,0.2882537375,0.6460549970500595
0.02,1.79,1.0,2365.282179079624,0.2021563823432358,1.3326583039902018,0.9002267529126691,0.288233,0.64712516832386
0.0205,1.78949375,1.0,2392.3515737057646,0.2066316536644485,1.3321661103004476,0.9039626671646507,0.2882117375,0.6481686070404046
0.021,1.788975,1.0,2417.8724176088062,0.21108182375424328,1.3316847113328831,0.9074772083782607,0.28818995000000003,0.6491876666709885
0.021500000000000002,1.78844375,1.0,2441.9044101443274,0.21550703189044673,1.3312132736801403,0.9107873508880129,0.2881676375,0.6501842070729735
0.022,1.7879,1.0,2464.510641113326,0.21990741735088548,1.330750963934852,0.9139084922965603,0.2881448,0.6511600760719586
0.0225,1.78734375,1.0,2485.7573100871755,0.22428311941338622,1.33029694868965,0.9168546217405752,0.28812143749999997,0.6521171099690901
0.023,1.786775,1.0,2505.711586998226,0.22863427703224165,1.3298504123167816,0.9196384714834765,0.28809755,0.6530570966021977
0.0235,1.78619375,1.0,2524.430434175645,0.2329610270106173,1.3294106599255326,0.9222716657038474,0.28807313749999996,0.6539815597175545
0.024,1.7856,1.0,2541.9957756768695,0.23726351006054539,1.3289767818506941,0.9247647754590396,0.2880482,0.6548924649335486
0.0245,1.78499375,1.0,2558.4533582380486,0.24154186028962824,1.3285482293714346,0.9271275230770065,0.2880227375,0.6557910107681608
0.025,1.784375,1.0,2573.8505096415993,0.24579621180546812,1.3281244537669226,0.9293688058424336,0.28799675,0.6566783891586694
0.025500000000000002,1.78374375,1.0,2588.236008584528,0.25002669871566735,1.3277049063163266,0.931496777263574,0.2879702375,0.6575557856384171
0.026000000000000002,1.7831000000000001,1.0,2601.6599612220034,0.25423345512782813,1.327289038298815,0.9335189193443371,0.2879432,0.6584243794943777
0.0265,1.78244375,1.0,2614.1736843864487,0.25841661514955283,1.3268763009935565,0.9354421069519054,0.2879156375,0.6592853439055162
0.027,1.781775,1.0,2625.8222959095338,0.2625763090245788,1.3264662133272433,0.9372726739839945,0.28788755,0.660139705216106
0.0275,1.7810937500000001,1.0,2636.66136461695,0.2667126735664718,1.3260582062379538,0.9390164446319681,0.2878589375,0.6609886675538521
0.028,1.7804,1.0,2646.7261978669503,0.2708258374894117,1.3256519062159682,0.9406788161288778,0.2878298,0.6618330228887317
0.0285,1.77969375,1.0,2656.0527193182857,0.2749159294783747,1.3252469403392118,0.9422647721360334,0.2878001375,0.6626735580356544
0.029,1.778975,1.0,2664.6774729511862,0.27898307821833707,1.3248429356856104,0.9437789197436749,0.28776995,0.6635110559156709
0.029500000000000002,1.7782437500000001,1.0,2672.6375669023882,0.2830274123942752,1.3244395193330898,0.9452255227827221,0.2877392375,0.6643462955832706
0.03,1.7775,1.0,2679.970620383728,0.2870490606911653,1.3240363183595754,0.946608531791814,0.287708,0.6651800522448085
0.0305,1.77674375,1.0,2686.7018672558443,0.29104814642230353,1.3236330775383998,0.9479316245321197,0.2876762375,0.666012854346378
0.031,1.775975,1.0,2692.8730294162324,0.2950248016282351,1.3232293940069408,0.9491981997265182,0.28764395,0.6668455320468936
0.0315,1.7751937500000001,1.0,2698.5243014147895,0.29897915661933727,1.3228248824445858,0.9504114180291956,0.2876111375,0.6676788752380081
0.032,1.7744,1.0,2703.6781082528705,0.3029113335411082,1.322419322919386,0.9515742378006707,0.2875778,0.668513329745551
0.0325,1.77359375,1.0,2708.3571119480653,0.306821454539046,1.3220124954993913,0.9526894140470447,0.2875439375,0.669349339101577
0.033,1.772775,1.0,2712.584189653094,0.31070964175864874,1.3216041802526528,0.9537595148621931,0.28750955,0.6701873445281226
0.0335,1.7719437500000002,1.0,2716.382412847696,0.31457601734541446,1.321194157247221,0.9547869363530245,0.2874746375,0.671027784917881
0.034,1.7711000000000001,1.0,2719.7750276026204,0.31842070344484136,1.3207822065511465,0.9557739162038614,0.2874392,0.6718710968117907
0.0345,1.7702437500000001,1.0,2722.7854359163616,0.3222438222024274,1.32036810823248,0.9567225460184093,0.2874032375,0.6727177143735393
0.035,1.7693750000000001,1.0,2725.4371781239265,0.3260454957636708,1.3199516423592723,0.957634782562333,0.28736675,0.6735680693609831
0.035500000000000004,1.76849375,1.0,2727.753754825708,0.32982584603750714,1.3195325904684982,0.9585124581136834,0.2873297375,0.6744225881010555
0.036000000000000004,1.7676,1.0,2729.7536047835874,0.33358498694544564,1.3191107810698481,0.9593572927102694,0.2872922,0.6752815988679575
0.0365,1.76669375,1.0,2731.462098987864,0.33732304805281016,1.3186859804600193,0.9601708968021254,0.2872541375,0.676145554394886
0.037,1.765775,1.0,2732.892861459644,0.3410401447336321,1.3182580623887876,0.9609547894765441,0.28721555,0.6770146866216026
0.0375,1.76484375,1.0,2734.0595747225816,0.34473639236194265,1.3178269006059293,0.9617103976480192,0.2871764375,0.6778892259286631
0.038,1.7639,1.0,2734.975972904077,0.3484119063117731,1.3173923688612206,0.9624390626679582,0.28713679999999997,0.6787694011118077
0.0385,1.76294375,1.0,2735.655835190171,0.35206680195715484,1.3169543409044373,0.9631420463906853,0.28709663750000003,0.6796554393553372
0.039,1.761975,1.0,2736.1129796330033,0.355701194672119,1.3165126904853557,0.9638205367458935,0.28705595,0.6805475662044689
0.0395,1.7609937500000001,1.0,2736.361257313055,0.359315199830697,1.3160672913537517,0.9644756528625869,0.2870147375,0.6814460055366793
0.04,1.76,1.0,2736.414546853395,0.36290893280692005,1.3156180172594014,0.9651084497850373,0.286973,0.6823509795320286
0.0405,1.7589937500000001,1.0,2736.284908055172,0.3664825059699646,1.3151647586674282,0.9657199237456641,0.2869307375,0.6832626750449673
0.041,1.757975,1.0,2735.9762198982567,0.3700360179203999,1.3147074804791357,0.966311019225238,0.28688795,0.6841811279670742
0.0415,1.75694375,1.0,2735.5177954861715,0.37356961110441156,1.314245916817135,0.9668826163184355,0.2868446375,0.6851068359813721
0.042,1.7559,1.0,2734.916721633814,0.37708339297577576,1.3137800036705503,0.9674355578642216,0.28680079999999997,0.6860398893383592
0.0425,1.75484375,1.0,2734.1800936011446,0.38057747098826894,1.3133096770285055,0.967970641041387,0.2867564375,0.6869803771693035
0.043000000000000003,1.753775,1.0,2733.3150132991696,0.38405195259566727,1.312834872880125,0.9684886203013297,0.28671155,0.6879283874683549
0.043500000000000004,1.75269375,1.0,2732.328587588054,0.38750694525174706,1.3123555272145322,0.9689902100839906,0.28666613750000003,0.6888840070743993
0.044,1.7516,1.0,2731.227926664826,0.39094255641028464,1.3118715760208515,0.9694760873349756,0.2866202,0.6898473216526475
0.0445,1.75049375,1.0,2730.020142542853,0.3943588935250563,1.3113829552882068,0.9699468938402606,0.2865737375,0.6908184156759649
0.045,1.7493750000000001,1.0,2728.712347621632,0.3977560640498384,1.3108896010057225,0.9704032383933561,0.28652675,0.6917973724059396
0.0455,1.74824375,1.0,2727.31165334756,0.40113417543840707,1.3103914491625221,0.9708456988084845,0.2864792375,0.6927842738736909
0.046,1.7471,1.0,2725.825168965811,0.4044933351445387,1.30988843574773,0.9712748237920908,0.2864312,0.6937792008604113
0.0465,1.7459437500000001,1.0,2724.2600003625003,0.40783365062200966,1.30938049675047,0.9716911346839302,0.28638263750000004,0.6947822328776543
0.047,1.744775,1.0,2722.6232489981558,0.4111552293245961,1.3088675681598665,0.9720951270779733,0.28633355,0.6957934481473541
0.0475,1.74359375,1.0,2720.9220109321946,0.4144581787060744,1.3083495859650431,0.9724872723324918,0.28628393750000003,0.6968129235815895
0.048,1.7424,1.0,2719.1580276348955,0.4177425910440091,1.307826534861509,0.9728680204976132,0.2862338,0.6978406391427174
0.0485,1.74119375,1.0,2717.339207352684,0.4210085832948548,1.3072983433664151,0.9732377992277486,0.2861831375,0.6988766841972476
0.049,1.739975,1.0,2715.472241644399,0.4242562662124493,1.3067649510059631,0.9735970158247411,0.28613195,0.6999211251094039
0.0495,1.73874375,1.0,2713.5601717585378,0.4274857388721503,1.3062263305135549,0.97394605927542,0.2860802375,0.700973962054219
0.05,1.7375,1.0,2711.6060359382514,0.43069710034931596,1.305682454622592,0.9742853004558005,0.286028,0.7020351943109279
0.0505,1.73624375,1.0,2709.6128691771205,0.433890449719304,1.305133296066476,0.9746150931338415,0.2859752375,0.7031048202538528
0.051000000000000004,1.734975,1.0,2707.5837029920917,0.43706588605747243,1.304578827578609,0.9749357749080368,0.28592195,0.7041828373432397
0.051500000000000004,1.73369375,1.0,2705.521565212448,0.4402235084391792,1.3040190218923922,0.9752476680864772,0.2858681375,0.7052692421160497
0.052000000000000005,1.7324,1.0,2703.429479785225,0.443363415939782,1.3034538517412273,0.9755510805106535,0.2858138,0.7063640301767005
0.0525,1.73109375,1.0,2701.310466597637,0.44648570763463896,1.3028832898585163,0.9758463063279215,0.28575893750000003,0.7074671961877614
0.053,1.729775,1.0,2699.1675413152343,0.44959048259910794,1.3023073089776607,0.976133626716246,0.28570355000000003,0.7085787338606033
0.0535,1.72844375,1.0,2697.0037152373257,0.4526778399085468,1.301725881832062,0.976413310564561,0.2856476375,0.7096986359459966
0.054,1.7271,1.0,2694.821995168271,0.4557478786383135,1.3011389811551222,0.9766856151118133,0.2855912,0.7108268942246652
0.0545,1.7257437500000001,1.0,2692.625383305446,0.4588006978637659,1.3005465796802427,0.9769507865475318,0.2855342375,0.7119634994977919
0.055,1.724375,1.0,2690.4160837640225,0.4618363879588031,1.2999486574045387,0.9772090601745311,0.28547675,0.7131084276824448
0.0555,1.72299375,1.0,2688.195503198385,0.46485503313541615,1.2993452015974125,0.9774606612298052,0.2854187375,0.7142616399253969
0.056,1.7216,1.0,2685.9683376935227,0.46785676218311195,1.2987361693670385,0.9777058079276236,0.2853602,0.7154231540558293
0.0565,1.72019375,1.0,2683.7356450026746,0.47084166568495656,1.298121551102722,0.9779447077882976,0.28530113749999997,0.7165929233676887
0.057,1.718775,1.0,2681.498481161043,0.4738098342240159,1.2975013371937676,0.978177559806622,0.28524155,0.7177709004079088
0.0575,1.71734375,1.0,2679.2579004740255,0.47676135838335604,1.2968755180294806,0.9784045548688239,0.2851814375,0.7189570369729832
0.058,1.7159,1.0,2677.0149555077824,0.47969632874604284,1.2962440839991662,0.9786258761458767,0.2851208,0.7201512841055324
0.0585,1.71444375,1.0,2674.770697081988,0.48261483589514237,1.295607025492129,0.9788416994647013,0.2850596375,0.7213535920908667
0.059000000000000004,1.7129750000000001,1.0,2672.5261742640064,0.48551697041372055,1.2949643328976743,0.9790521936586619,0.28499795,0.7225639104535395
0.059500000000000004,1.71149375,1.0,2670.282434365802,0.48840282288484343,1.2943159966051072,0.9792575208986628,0.2849357375,0.7237821879538984
0.06,1.71,1.0,2668.040522942507,0.4912724838915769,1.2936620070037324,0.9794578370060646,0.284873,0.7250083725846297
0.0605,1.7084937500000001,1.0,2665.801483793065,0.494126044016987,1.2930023544828553,0.979653291748547,0.2848097375,0.7262424115672934
0.061,1.7069750000000001,1.0,2663.56635896319,0.4969635938441398,1.2923370294317806,0.9798440291199793,0.28474595,0.7274842513488592
0.0615,1.7054437500000001,1.0,2661.3361887498477,0.49978522395610114,1.2916660222398135,0.9800301876052673,0.2846816375,0.7287338375982291
0.062,1.7039,1.0,2659.1120117085343,0.502591024935937,1.290989323296259,0.980211900431101,0.2846168,0.7299911152027591
0.0625,1.70234375,1.0,2656.894864661756,0.5053810873667135,1.2903069229904223,0.9803892958034461,0.2845514375,0.7312560282647738
0.063,1.7007750000000001,1.0,2654.6857827102426,0.5081555018314965,1.289618811711608,0.9805624971325808,0.28448555,0.7325285200980743
0.0635,1.69919375,1.0,2652.4833723209968,0.5109143426938064,1.288925002226917,0.980731623193615,0.28441913750000003,0.7338084919903572
0.064,1.6976,1.0,2650.2842631356716,0.513657676629813,1.2882255255600077,0.9808967887765294,0.2843522,0.7350958112744176
0.0645,1.69599375,1.0,2648.097009928677,0.5163856460694471,1.2875203027376108,0.981058104415545,0.2842847375,0.7363905469185991
0.065,1.694375,1.0,2645.921610074856,0.5190983322441729,1.2868093336588078,0.9812156761487187,0.28421675,0.7376926215758631
0.0655,1.69274375,1.0,2643.7580609990123,0.5217958163854542,1.2860926182226813,0.9813696062029963,0.2841482375,0.7390019572655968
0.066,1.6911,1.0,2641.6063601761734,0.5244781797247551,1.2853701563283133,0.9815199931569415,0.2840792,0.7403184753735779
0.0665,1.6894437500000001,1.0,2639.4665051319444,0.5271455034935393,1.284641947874786,0.9816669320953874,0.2840096375,0.7416420966519377
0.067,1.687775,1.0,2637.338493442215,0.5297978689232707,1.2839079927611812,0.9818105147564631,0.28393955,0.7429727412191234
0.0675,1.68609375,1.0,2635.2223227340714,0.5324353572454136,1.2831682908865814,0.9819508296714289,0.2838689375,0.7443103285598611
0.068,1.6844000000000001,1.0,2633.1179906855973,0.5350580496914314,1.2824228421500683,0.9820879622977114,0.2837978,0.7456547775251199
0.0685,1.68269375,1.0,2631.025495026073,0.5376660274927885,1.2816716464507245,0.9822219951455181,0.2837261375,0.7470060063320729
0.069,1.680975,1.0,2628.9448335365873,0.5402593718809485,1.2809147036876316,0.9823530078983842,0.28365395,0.748363932564063
0.0695,1.67924375,1.0,2626.87600404972,0.5428381640873754,1.280152013759872,0.9824810775279765,0.28358123749999997,0.7497284731705627
0.07,1.6775,1.0,2624.8190044502535,0.5454024853435332,1.279383576566528,0.9826062784034726,0.283508,0.7510995444671397
0.07050000000000001,1.67574375,1.0,2622.773832675268,0.5479524168808858,1.2786093920066812,0.9827286823957984,0.2834342375,0.7524770621354191
0.07100000000000001,1.673975,1.0,2620.7404867139894,0.5504880399308971,1.2778294599794142,0.982848358977004,0.28335995,0.7538609412230456
0.07150000000000001,1.67219375,1.0,2618.7189646086254,0.553009435725031,1.2770437803838086,0.9829653753150348,0.2832851375,0.755251096143648
0.07200000000000001,1.6704,1.0,2616.7092644542427,0.5555166854947515,1.2762523531189471,0.9830797963641366,0.2832098,0.7566474406768002
0.0725,1.66859375,1.0,2614.7113843990287,0.5580098704715225,1.2754551780839114,0.9831916849511265,0.2831339375,0.7580498879679868
0.073,1.6667750000000001,1.0,2612.7253226445832,0.5604890718868079,1.2746522551777837,0.9833011018577448,0.28305755,0.7594583505285637
0.0735,1.66494375,1.0,2610.751077446118,0.5629543709720716,1.273843584299646,0.9834081058992858,0.2829806375,0.7608727402357227
0.074,1.6631,1.0,2608.7878581930036,0.5654058358579855,1.2730291726835903,0.9835127535758593,0.2829032,0.7622929555603133
0.0745,1.6612437500000001,1.0,2606.83387665491,0.5678435240366201,1.2722090368540768,0.9836150993991376,0.2828252375,0.7637188783640811
0.075,1.659375,1.0,2604.891684118697,0.5702675586048083,1.2713831529837805,0.9837151980730111,0.28274675,0.7651504600656315
0.0755,1.65749375,1.0,2602.9610845222364,0.5726780118486795,1.2705515227825543,0.9838131008385497,0.2826677375,0.7665876068878859
