Time [s],Phi [rad],STIM [ ],Fsee [N],Gamma [ ],Lcerel [ ],q [ ],Lmtc [m],fisomrel [ ]
0.0,1.8,1.0,18.45606714186969,0.0007125853919790904,1.3792853396973772,0.005130816228999839,0.288653,0.5412711450594554
0.0005,1.79999375,1.0,18.980247786361048,0.006317797660294743,1.3792249800848844,0.015005565233999856,0.2886527375,0.5414171380089894
0.001,1.799975,1.0,22.843669563469078,0.0118915691195109,1.378814881684891,0.039363190192127355,0.28865195,0.5424084356315753
0.0015,1.79994375,1.0,33.45955619745916,0.01743407612849522,1.3778463297691304,0.07567970238721804,0.2886506375,0.5447453797193801
0.002,1.7999,1.0,58.27140121331597,0.02294549405527909,1.3760703116167496,0.1206922060929092,0.2886488,0.5490150533178597
0.0025,1.79984375,1.0,104.61726750630719,0.028425997284767583,1.3735805580325262,0.17104906544159196,0.28864643749999996,0.5549667304212574
0.003,1.7997750000000001,1.0,170.46872468058274,0.0338757592255318,1.3708634632730923,0.22394314012311825,0.28864354999999997,0.5614167462024482
0.0035,1.79969375,1.0,248.2940980290277,0.039294952310884396,1.3682614630689967,0.2772281436732521,0.2886401375,0.5675494094970728
0.004,1.7996,1.0,332.6785985981806,0.04468374800814032,1.3658616789861717,0.3293129517961268,0.2886362,0.5731671933973834
0.0045000000000000005,1.7994937500000001,1.0,420.8251930603213,0.05004231681579769,1.3636534056801355,0.37910138558010736,0.2886317375,0.5783042108968075
0.005,1.799375,1.0,511.1702481367608,0.0553708283023764,1.361609965775155,0.42591959347334835,0.28862675,0.5830300786099848
0.0055,1.79924375,1.0,602.624493194781,0.060669451041934594,1.359708772270118,0.46942265571811426,0.2886212375,0.587403058520167
0.006,1.7991000000000001,1.0,694.3413128885567,0.06593835270898202,1.3579324231196037,0.5095021354354543,0.2886152,0.5914680499991358
0.006500000000000001,1.79894375,1.0,785.6119258068368,0.07117769996463177,1.3562677565807268,0.5462089337848094,0.2886086375,0.5952592015973723
0.007,1.798775,1.0,875.864777389648,0.07638765871124491,1.3547039798703393,0.5796934394060042,0.28860155,0.5988044855361669
0.0075,1.79859375,1.0,964.6088449575724,0.0815683935503794,1.3532324820646666,0.6101629065805542,0.2885939375,0.602126318923581
0.008,1.7984,1.0,1051.4804208065368,0.08672006872861157,1.351845333115057,0.6378511536115127,0.2885858,0.6052450942766407
0.0085,1.79819375,1.0,1136.1647177464858,0.09184284710812121,1.3505360069434524,0.66299960538292,0.2885771375,0.6081776397836093
0.009000000000000001,1.797975,1.0,1218.419251577593,0.09693689057462547,1.3492986160161307,0.6858446155769138,0.28856795,0.6109390205651012
0.0095,1.79774375,1.0,1298.0852826957837,0.10200236042873233,1.348127507967219,0.7066100671741314,0.2885582375,0.6135434891471105
0.01,1.7975,1.0,1375.047844032209,0.10703941742897861,1.3470176193193972,0.7255037858607744,0.288548,0.6160037368682969
0.0105,1.79724375,1.0,1449.203454058624,0.1120482202381093,1.3459646937822298,0.7427160395802219,0.2885372375,0.6183304548984947
0.011,1.796975,1.0,1520.5076562770055,0.1170289273155623,1.3449645194671187,0.7584189447367368,0.28852595000000003,0.6205340571072063
0.0115,1.79669375,1.0,1588.9591831906857,0.12198169671377042,1.3440130447162133,0.7727671889731312,0.2885141375,0.6226244421718132
0.012,1.7964,1.0,1654.57041995233,0.12690668565500093,1.343106645501855,0.7858992681657567,0.28850180000000003,0.6246104266979096
0.0125,1.79609375,1.0,1717.3467536037108,0.13180404898489784,1.3422422687150648,0.7979388622027146,0.2884889375,0.6264994563289712
0.013000000000000001,1.7957750000000001,1.0,1777.3290102919852,0.13667394154910506,1.3414168612468635,0.8089959927658379,0.28847555,0.6282988739041452
0.0135,1.79544375,1.0,1834.569721283768,0.1415165174453302,1.3406275985006832,0.8191685209139172,0.2884616375,0.6300154309300299
0.014,1.795100030598313,1.0,1889.165616656852,0.14633193120599328,1.3398714946905816,0.8285433231812179,0.28844720128512913,0.6316561450790495
0.0145,1.7947509052169859,1.0,1941.4521436841785,0.15112033473064193,1.3391464531914155,0.8371979059272096,0.2884325380191134,0.6332260308918465
0.015,1.794401779835659,1.0,1991.69041255847,0.15588187863524752,1.3384507913697916,0.8452013033986796,0.28841787475309766,0.6347291512154394
0.0155,1.794052654454332,1.0,2039.9353203003159,0.16061671353578147,1.3377828265923173,0.8526149268440849,0.2884032114870819,0.6361695218727823
0.016,1.793703529073005,1.0,2086.250893532775,0.16532498966023615,1.33714091574184,0.8594934778073727,0.2883885482210662,0.6375510297600562
0.0165,1.793354403691678,1.0,2130.7015000499773,0.17000685664527937,1.3365235332518404,0.8658857667464014,0.28837388495505045,0.6388772690296476
0.017,1.793005278310351,1.0,2173.344025673916,0.17466246224694926,1.3359293356342468,0.8718354265402577,0.2883592216890347,0.6401514077179005
0.0175,1.7926561529290241,1.0,2214.235875574077,0.1792919532057471,1.3353570641668904,0.8773814950827129,0.288344558423019,0.6413764015094521
0.018000000000000002,1.792307027547697,1.0,2253.440417821078,0.18389547596722336,1.3348054800247882,0.88255893744166,0.28832989515700325,0.6425551356676378
0.0185,1.79195790216637,1.0,2291.019085175324,0.18847317581775258,1.334273435925133,0.8873991388990148,0.2883152318909875,0.6436902743456826
0.019,1.791608776785043,1.0,2327.053159843839,0.19302520053312147,1.3337596526880093,0.8919302652816893,0.2883005686249718,0.6447847392779955
0.0195,1.791259651403716,1.0,2361.591267060438,0.19755169231790656,1.3332632324573996,0.8961777511933734,0.28828590535895604,0.6458406182782055
0.02,1.7909105260223892,1.0,2394.686805594682,0.20205279337668436,1.3327832773772863,0.9001645205747255,0.28827124209294036,0.6468599818177045
0.0205,1.7905614006410622,1.0,2426.397611046471,0.20652864591403147,1.3323188895916518,0.9039112683867142,0.2882565788269246,0.6478448839941695
0.021,1.7902122752597351,1.0,2456.785637013909,0.2109793921345244,1.3318691712444783,0.9074367077588507,0.2882419155609089,0.6487973634486707
0.021500000000000002,1.789863149878408,1.0,2485.904821063646,0.21540517195483216,1.3314333371844638,0.910757809385051,0.28822725229489315,0.6497192060037295
0.022,1.789514024497081,1.0,2513.8235342040516,0.2198061286336426,1.3310104965144007,0.9138899479005681,0.2882125890288774,0.6506124081546234
0.0225,1.7891648991157543,1.0,2540.5907634968257,0.2241824008720514,1.3305999717817127,0.9168471315751769,0.2881979257628617,0.6514785033735037
0.023,1.7888157737344272,1.0,2566.2492983590314,0.22853412554697763,1.3302011676874785,0.9196421209891014,0.28818326249684595,0.6523188420211279
0.0235,1.7884666483531002,1.0,2590.8441467278426,0.2328614395353404,1.3298134889327762,0.9222865438644284,0.2881685992308302,0.6531347656823645
0.024,1.7881175229717732,1.0,2614.4223842924466,0.23716447971405868,1.3294363402186848,0.9247910113147143,0.2881539359648145,0.653927607599869
0.0245,1.7877683975904461,1.0,2637.0330115827182,0.24144338296005166,1.329069126246283,0.9271652207635743,0.28813927269879874,0.6546986930851653
0.025,1.7874192722091193,1.0,2658.716654885509,0.2456982831887835,1.328711345325491,0.9294180617736036,0.288124609432783,0.655449143668067
0.025500000000000002,1.7870701468277923,1.0,2679.526682583517,0.24992931901322385,1.3283623926657184,0.931557666062853,0.2881099461667673,0.6561802904427441
0.026000000000000002,1.7867210214464653,1.0,2699.5020876942535,0.25413662424561173,1.3280218092061988,0.9335915175441913,0.28809528290075154,0.656893152694809
0.0265,1.7863718960651382,1.0,2718.6747854010523,0.2583203301055684,1.327689211533881,0.935526503689216,0.2880806196347358,0.6575885862382125
0.027,1.7860227706838112,1.0,2737.077723787021,0.2624805678127153,1.327364216235713,0.9373689610971532,0.28806595636872007,0.6582674423736521
0.0275,1.7856736453024844,1.0,2754.7448175786994,0.2666174685866737,1.3270464398986437,0.9391247269087355,0.28805129310270433,0.6589305680791545
0.028,1.7853245199211574,1.0,2771.710885149146,0.27073116364706495,1.3267354991096207,0.9407991847969683,0.2880366298366886,0.6595788061912852
0.0285,1.7849753945398303,1.0,2788.011588780333,0.27482178421351033,1.3264310104555928,0.9423973061657615,0.28802196657067286,0.6602129955769793
0.029,1.7846262691585033,1.0,2803.6719972593637,0.2788894564452237,1.3261326925941668,0.943923699433148,0.2880073033046571,0.6608337589964245
0.029500000000000002,1.7842771437771763,1.0,2818.7346268196907,0.28293431604159974,1.3258401135973836,0.945382612788877,0.2879926400386414,0.6614420292437632
0.03,1.7839280183958495,1.0,2833.224610690038,0.2869564898804275,1.32555300328946,0.9467780010254866,0.28797797677262565,0.6620383993916226
0.0305,1.7835788930145224,1.0,2847.1640239893136,0.29095610310772607,1.3252711233016292,0.9481135359831914,0.2879633135066099,0.6626233939607664
0.031,1.7832297676331954,1.0,2860.575392030247,0.2949332808695144,1.3249942352651252,0.949392627081667,0.2879486502405942,0.6631975352182286
0.0315,1.7828806422518684,1.0,2873.481663307057,0.29888814831181154,1.3247221008111814,0.9506184433579374,0.28793398697457845,0.6637613432550158
0.032,1.7825315168705413,1.0,2885.9061837430067,0.3028208305806364,1.3244544815710315,0.9517939333965736,0.2879193237085627,0.6643153360601823
0.0325,1.7821823914892145,1.0,2897.87267219773,0.30673145282200803,1.3241911391759096,0.9529218433765277,0.28790466044254703,0.664860029591282
0.033,1.7818332661078875,1.0,2909.4051972337984,0.31062014018194545,1.3239318352570488,0.9540047334328392,0.2878899971765313,0.6653959378411995
0.0335,1.7814841407265605,1.0,2920.5161806231226,0.31448700929735296,1.3236764366697962,0.9550450021205411,0.28787533391051556,0.6659233556911461
0.034,1.7811350153452334,1.0,2931.239084697696,0.3183321945919513,1.323424627639615,0.9560448740157987,0.2878606706444998,0.6664429535592358
0.0345,1.7807858899639064,1.0,2941.588267115199,0.3221558149785245,1.3231762627733183,0.9570064432749542,0.2878460073784841,0.6669550484052013
0.035,1.7804367645825796,1.0,2951.5778680081685,0.32595798904446105,1.3229312003108178,0.9579316695279817,0.28783134411246836,0.6674599485517043
0.035500000000000004,1.7800876392012526,1.0,2961.2222120410815,0.32973883537714926,1.322689298492025,0.9588223878006347,0.2878166808464526,0.6679579612204232
0.036000000000000004,1.7797385138199255,1.0,2970.535798253464,0.33349847256397736,1.3224504155568526,0.9596803178739083,0.2878020175804369,0.6684493925612662
0.0365,1.7793893884385985,1.0,2979.5332903489602,0.33723701919233373,1.3222144097452118,0.9605070728384366,0.28778735431442115,0.6689345476803086
0.037,1.7790402630572715,1.0,2988.229507429417,0.3409545938496068,1.3219811392970144,0.9613041669213446,0.2877726910484054,0.6694137306664432
0.0375,1.7786911376759447,1.0,2996.639415174795,0.34465131512318486,1.3217504624521728,0.9620730226548749,0.2877580277823897,0.6698872446167505
0.038,1.7783420122946176,1.0,3004.778117468673,0.3483273016004562,1.3215222374505986,0.9628149774488204,0.28774336451637395,0.6703553916605896
0.0385,1.7779928869132906,1.0,3012.6513163880504,0.3519826600515451,1.3212964050030274,0.9635312949348755,0.2877287012503582,0.6708183039927635
0.039,1.7776437615319636,1.0,3020.2818908386307,0.35561752221357673,1.3210727580393435,0.9642231562485256,0.2877140379843425,0.6712764159598507
0.0395,1.7772946361506365,1.0,3027.6793529223373,0.3592320012242108,1.3208512061885758,0.9648916811854321,0.28769937471832674,0.6717299218346175
0.04,1.7769455107693097,1.0,3034.85206329141,0.36282620856036557,1.3206316697059313,0.9655379262038931,0.287684711452311,0.6721789935637328
0.0405,1.7765963853879827,1.0,3041.8084540951045,0.3664002556989594,1.3204140688466168,0.9661628880944434,0.28767004818629527,0.6726238025674601
0.041,1.7762472600066557,1.0,3048.5570254868217,0.36995425411691063,1.3201983238658388,0.9667675079776644,0.28765538492027953,0.6730645197497047
0.0415,1.7758981346253286,1.0,3055.1063422720254,0.3734883152911374,1.319984355018804,0.9673526749939763,0.2876407216542638,0.6735013155076532
0.042,1.7755490092440016,1.0,3061.4650306977423,0.37700255069855815,1.3197720825607195,0.9679192297120982,0.28762605838824806,0.6739343597410088
0.0425,1.7751998838626748,1.0,3067.641775382744,0.38049707181609116,1.3195614267467919,0.9684679672803027,0.2876113951222323,0.6743638218608252
0.043000000000000003,1.7748507584813478,1.0,3073.645316388478,0.38397199012065464,1.3193523078322276,0.968999640342305,0.2875967318562166,0.6747898707979278
0.043500000000000004,1.7745016331000207,1.0,3079.484446431376,0.38742741708916695,1.3191446460722338,0.9695149617375761,0.28758206859020086,0.6752126750109331
0.044,1.7741525077186937,1.0,3085.165335302952,0.39086345772526654,1.3189383845746452,0.9700146078048398,0.2875674053241851,0.6756323560105731
0.0445,1.7738033823373667,1.0,3090.6938129748833,0.39428021884995645,1.3187334696739448,0.9704992203936232,0.2875527420581694,0.6760490284107414
0.045,1.7734542569560399,1.0,3096.082705327925,0.3976778251765879,1.3185297882952134,0.9709694065606229,0.28753807879215365,0.6764629271958117
0.0455,1.7731051315747128,1.0,3101.3365475064825,0.4010563804462849,1.3183272985465888,0.9714257448582321,0.2875234155261379,0.6768741422194864
0.046,1.7727560061933858,1.0,3106.459900976834,0.4044159884001716,1.3181259585362086,0.9718687848136479,0.2875087522601222,0.6772827630912579
0.0465,1.7724068808120588,1.0,3111.457352439828,0.4077567527793721,1.3179257263722102,0.9722990486624657,0.28749408899410644,0.6776888791795362
0.047,1.7720577554307317,1.0,3116.333512782452,0.41107877732501064,1.3177265601627313,0.9727170329628212,0.2874794257280907,0.6780925796146631
0.0475,1.771708630049405,1.0,3121.0930160683142,0.41438216577821113,1.3175284180159093,0.973123210099366,0.287464762462075,0.6784939532918176
0.048,1.771359504668078,1.0,3125.7405185670345,0.4176670218800978,1.3173312580398817,0.9735180296855609,0.28745009919605924,0.6788930888738074
0.0485,1.7710103792867509,1.0,3130.2806978225412,0.4209334493717947,1.3171350383427864,0.9739019198720438,0.2874354359300435,0.679290074793748
0.049,1.7706612539054238,1.0,3134.7182517602123,0.4241815519944261,1.316939717032761,0.9742752885681808,0.28742077266402777,0.6796849992576319
0.0495,1.7703121285240968,1.0,3139.057897833239,0.4274114334891159,1.3167452522179428,0.9746385245833005,0.28740610939801203,0.6800779502467851
0.05,1.76996300314277,1.0,3143.3043722073703,0.4306231975969883,1.3165516020064696,0.9749919986935779,0.28739144613199635,0.6804690155202096
0.0505,1.769613877761443,1.0,3147.462428984817,0.4338169480591675,1.3163587245064787,0.9753360646400433,0.2873767828659806,0.6808582826168172
0.051000000000000004,1.769264752380116,1.0,3151.5310661049707,0.43699276067558007,1.3161666266638088,0.9756710601153582,0.2873621195999649,0.6812457403827417
0.051500000000000004,1.768915626998789,1.0,3155.5191423206056,0.44015076534374503,1.315975232078938,0.9759973082246659,0.28734745633394915,0.6816315456398638
0.052000000000000005,1.7685665016174619,1.0,3159.4316233104996,0.4432910712136487,1.315784497466188,0.9763151174264956,0.2873327930679334,0.6820157881378414
0.0525,1.768217376236135,1.0,3163.2707009044457,0.4464137732351202,1.315594403093432,0.976624782484119,0.2873181298019177,0.6823985100003203
0.053,1.767868250854808,1.0,3167.038575389898,0.4495189663579887,1.3154049292285421,0.976926585250505,0.28730346653590194,0.6827797532472524
0.0535,1.767519125473481,1.0,3170.737455236052,0.45260674553208324,1.315216056139391,0.9772207953440006,0.2872888032698862,0.6831595597956897
0.054,1.767170000092154,1.0,3174.3695568267635,0.4556772057072329,1.3150277640938517,0.9775076707830906,0.28727414000387047,0.6835379714605502
0.0545,1.766820874710827,1.0,3177.9371042021007,0.45873044183326683,1.3148400333597963,0.9777874585830453,0.28725947673785474,0.6839150299553647
0.055,1.7664717493295001,1.0,3181.442328808319,0.46176654886001406,1.3146528442050975,0.9780603953170443,0.287244813471839,0.6842907768929931
0.0555,1.766122623948173,1.0,3184.8874692566433,0.46478562173730364,1.3144661768976282,0.9783267076441687,0.28723015020582326,0.6846652537863189
0.056,1.765773498566846,1.0,3188.274771090826,0.46778775541496476,1.3142800117052607,0.9785866128064814,0.28721548693980753,0.6850385020489198
0.0565,1.765424373185519,1.0,3191.6064865629464,0.47077304484282645,1.3140943288958675,0.978840319097237,0.2872008236737918,0.6854105629957099
0.057,1.765075247804192,1.0,3194.884874418021,0.47374158497071783,1.3139091087373214,0.9790880263021294,0.28718616040777606,0.6857814778435605
0.0575,1.7647261224228652,1.0,3198.1121996875295,0.476693470748468,1.313724331497495,0.9793299261153285,0.2871714971417603,0.6861512877118939
0.058,1.7643769970415382,1.0,3201.2907334911133,0.47962879712590606,1.3135399774442609,0.9795662025319413,0.2871568338757446,0.6865200336232538
0.0585,1.7640278716602111,1.0,3204.422752847261,0.48254765905286107,1.3133560268454914,0.9797970322184112,0.28714217060972885,0.6868877565038511
0.059000000000000004,1.763678746278884,1.0,3207.510540492305,0.4854501514791621,1.3131724599690595,0.9800225848622607,0.2871275073437131,0.687254497184081
0.059500000000000004,1.763329620897557,1.0,3210.554030146655,0.4883363439371089,1.3129892768164868,0.9802430225107344,0.2871128440776974,0.6876202570085861
0.06,1.7629804955162303,1.0,3213.555475482904,0.4912063397527212,1.3128064579629861,0.980458502599975,0.2870981808116817,0.6879850760735032
0.0605,1.7626313701349032,1.0,3216.518549154431,0.4940602558696062,1.3126239721462178,0.9806691769219856,0.28708351754566597,0.688349017983166
0.061,1.7622822447535762,1.0,3219.444227617498,0.49689817792670316,1.3124418107336906,0.980875190195775,0.28706885427965023,0.6887121011015711
0.0615,1.7619331193722492,1.0,3222.3334899158854,0.4997201915629514,1.312259965092912,0.981076681666599,0.2870541910136345,0.6890743437505527
0.062,1.7615839939909221,1.0,3225.1873176198724,0.5025263824172903,1.3120784265913903,0.9812737853543217,0.28703952774761876,0.689435764209956
0.0625,1.7612348686095953,1.0,3228.0066947664177,0.5053168361286594,1.3118971865966336,0.9814666302887013,0.287024864481603,0.6897963807178085
0.063,1.7608857432282683,1.0,3230.792607801197,0.5080916383359979,1.3117162364761499,0.981655340732388,0.2870102012155873,0.690156211470488
0.0635,1.7605366178469413,1.0,3233.546045522512,0.5108508746782452,1.311535567597447,0.9818400363923577,0.28699553794957156,0.6905152746228844
0.064,1.7601874924656142,1.0,3236.267999026349,0.5135946307943406,1.3113551713280331,0.9820208326204619,0.2869808746835558,0.6908735882885559
0.0645,1.7598383670842872,1.0,3238.9594616536647,0.5163229923232237,1.3111750390354167,0.9821978406037323,0.2869662114175401,0.6912311705398818
0.065,1.7594892417029604,1.0,3241.6214289387467,0.5190360449038336,1.3109951620871052,0.9823711675450313,0.28695154815152435,0.6915880394082117
0.0655,1.7591401163216334,1.0,3244.2548985598055,0.5217338741751097,1.310815531850607,0.982540916834607,0.2869368848855086,0.6919442128840062
0.066,1.7587909909403063,1.0,3246.8608702906395,0.5244165657759916,1.31063613969343,0.9827071882130695,0.2869222216194929,0.6922997089169765
0.0665,1.7584418655589793,1.0,3249.440345954459,0.5270842053454184,1.3104569769830825,0.9828700779262807,0.28690755835347714,0.6926545454162174
0.067,1.7580927401776523,1.0,3251.9943293791434,0.5297368785223298,1.3102780350870722,0.9830296788726052,0.2868928950874614,0.6930087402503368
0.0675,1.7577436147963255,1.0,3254.5238263539372,0.5323746709456648,1.3100993053729075,0.9831860807429598,0.2868782318214457,0.6933623112475773
0.068,1.7573944894149984,1.0,3257.0298445882295,0.534997668254363,1.3099207792080962,0.9833393701540531,0.28686356855542994,0.693715276195939
0.0685,1.7570453640336714,1.0,3259.5133936716975,0.5376059560873636,1.3097424479601465,0.983489630775198,0.2868489052894142,0.6940676528432906
0.069,1.7566962386523444,1.0,3261.974341481264,0.5401995899325011,1.309564312504893,0.9836369420674006,0.28683424202339847,0.6944194401255515
0.0695,1.7563471132710173,1.0,3264.413033926286,0.5427786472648392,1.3093863697457462,0.9837813819804179,0.28681957875738273,0.6947706448199886
