Time [s],Phi [rad],STIM [ ],Fsee [N],Gamma [ ],Lcerel [ ],q [ ],Lmtc [m],fisomrel [ ]
0.0,1.8,1.0,17.966824025765053,1.2427599507980173e-05,1.3793397836549532,0.00500004109186033,0.288653,0.5411394404866495
0.0005,1.79999375,1.0,18.277004691226253,0.005621567199298351,1.3793023588481117,0.012947256084075626,0.2886527375,0.5412299763145992
0.001,1.799975,1.0,21.620451341929066,0.011199243960843786,1.3789380907207738,0.03562123159901499,0.28865195,0.5421107251304038
0.0015,1.79994375,1.0,31.075056484864277,0.01674563436665413,1.3780457078672377,0.07061902944897906,0.2886506375,0.5442648047294617
0.002,1.7999,1.0,53.595602564619526,0.022260913907582995,1.3763672744365416,0.11473835493364873,0.2886488,0.5483025342257939
0.0025,1.79984375,1.0,97.14155875772633,0.0277452570904103,1.3739340772656676,0.16459699629302438,0.28864643749999996,0.5541240620518932
0.003,1.7997750000000001,1.0,160.9879709883742,0.033198837445535694,1.3712132282095553,0.21730325623248356,0.28864354999999997,0.5605890918438796
0.0035,1.79969375,1.0,237.71721211664172,0.03862182752658804,1.3685836906590485,0.2706355671600925,0.2886401375,0.56679229266631
0.004,1.7996,1.0,321.5029669668963,0.04401439892120319,1.3661551337392148,0.32293776041605077,0.2886362,0.57248220037123
0.0045000000000000005,1.7994937500000001,1.0,409.30535999420755,0.04937672225620963,1.3639219313554658,0.37305535217125585,0.2886317375,0.577681211347282
0.005,1.799375,1.0,499.4519694624231,0.05470896718872532,1.361857524978234,0.42026696274491365,0.28862675,0.5824589656142433
0.0055,1.79924375,1.0,590.8293055565322,0.06001130245351534,1.3599380752651058,0.4641917544922567,0.2886212375,0.586876855785877
0.006,1.7991000000000001,1.0,682.5571134684428,0.06528389580642027,1.358145705747897,0.5046965561902308,0.2886152,0.5909810378008318
0.006500000000000001,1.79894375,1.0,773.9225264404821,0.07052691408133868,1.35646654914494,0.5418159071320753,0.2886086375,0.5948073958568181
0.007,1.798775,1.0,864.3265283693593,0.07574052316277811,1.3548897372914184,0.5756905862014228,0.28860155,0.5983841657054467
0.0075,1.79859375,1.0,953.2825642403833,0.08092488802798571,1.353406173971724,0.6065224795767773,0.2885939375,0.6017349368579961
0.008,1.7984,1.0,1040.396107977283,0.08608017265746074,1.3520080919793702,0.6345434832718192,0.2885858,0.6048797933068981
0.0085,1.79819375,1.0,1125.3582934319145,0.0912065403420236,1.3506886176932185,0.6599947572859653,0.2885771375,0.6078363948355219
0.009000000000000001,1.797975,1.0,1207.9176248510655,0.09630415303651352,1.3494417966962284,0.6831137683031687,0.28856795,0.6106199959238259
0.0095,1.79774375,1.0,1287.9084239358099,0.10137317218460407,1.3482619091937367,0.7041261914831966,0.2885582375,0.6132450338161146
0.01,1.7975,1.0,1365.1950812438424,0.10641375819349232,1.3471440249944107,0.7232420796456234,0.288548,0.6157239346641581
0.0105,1.79724375,1.0,1439.6716314572845,0.11142606958118817,1.3460837945431632,0.7406539096685499,0.2885372375,0.6180676248552475
0.011,1.796975,1.0,1511.3207103974105,0.11641026626724388,1.3450765720124715,0.7565358219400456,0.28852595000000003,0.6202874982401835
0.0115,1.79669375,1.0,1580.1459090093533,0.12136650713868952,1.3441181856322226,0.7710445885318642,0.2885141375,0.6223937318787855
0.012,1.7964,1.0,1646.1131113445838,0.12629494734767283,1.3432055083157548,0.7843209048578904,0.28850180000000003,0.6243940658856006
0.0125,1.79609375,1.0,1709.228108921822,0.1311957420463416,1.3423354129764065,0.7964902055115656,0.2884889375,0.6262961257087796
0.013000000000000001,1.7957750000000001,1.0,1769.5331486288508,0.13606904638684364,1.341504772527516,0.8076640943097217,0.28847555,0.6281074309340866
0.0135,1.79544375,1.0,1827.10287842325,0.14091501544130447,1.3407104689814222,0.8179417643998695,0.2884616375,0.6298353836940668
0.014,1.7951000000000001,1.0,1882.0101033364294,0.14573380291958982,1.3399497345900553,0.8274114685220374,0.2884472,0.6314865368372161
0.0145,1.79474375,1.0,1934.3115040454727,0.15052556102015882,1.3392202520046295,0.8361517752794754,0.2884322375,0.6330663923147821
0.015,1.794375,1.0,1984.0756041588427,0.15529044088463878,1.3385198029074723,0.844232553405952,0.28841675,0.6345801755085654
0.0155,1.79399375,1.0,2031.3745797649422,0.1600285924446636,1.337846329161304,0.8517160082639386,0.2884007375,0.6360327100517595
0.016,1.7936,1.0,2076.316157772563,0.16474016784986512,1.3371975744498468,0.8586574747802368,0.2883842,0.6374291957434313
0.0165,1.7931937500000001,1.0,2118.9822801168957,0.16942531622576135,1.3365717121915426,0.8651064202592539,0.2883671375,0.6387738601800172
0.017,1.792775,1.0,2159.438894620626,0.1740841843708429,1.3359672102804896,0.8711070928590667,0.28834955,0.6400702602562032
0.0175,1.7923437500000001,1.0,2197.7626328253878,0.17871691908360018,1.335382536610786,0.8766990528226826,0.2883314375,0.6413219200781719
0.018000000000000002,1.7919,1.0,2234.0399186610575,0.1833236671625238,1.33481615907653,0.8819177238081277,0.2883128,0.6425323329758922
0.0185,1.79144375,1.0,2268.3613836289555,0.18790457482258988,1.3342665928886668,0.8867948878333064,0.2882936375,0.643704862495543
0.019,1.790975,1.0,2300.8148816576177,0.19245978772350839,1.3337324602605172,0.8913591215806161,0.28827395,0.6448426178841273
0.0195,1.79049375,1.0,2331.4824567166133,0.19698945062392031,1.333212509667733,0.8956361670340729,0.2882537375,0.6459484164570504
0.02,1.79,1.0,2360.4303867568956,0.20149370551970702,1.3327057031872456,0.89964927076642,0.288233,0.6470246016156902
0.0205,1.78949375,1.0,2387.7299993690567,0.20597269440674987,1.3322110028959866,0.9034194152529059,0.2882117375,0.6480734998560038
0.021,1.788975,1.0,2413.457251341264,0.2104265592809302,1.3317273708708872,0.9069655701896131,0.28818995000000003,0.6490974216042374
0.021500000000000002,1.78844375,1.0,2437.682395317542,0.2148554404009039,1.3312538647638639,0.9103049323807719,0.2881676375,0.6500984600733539
0.022,1.7879,1.0,2460.4872992432115,0.21925948051891805,1.3307894662037154,0.9134530843053619,0.2881448,0.651078855384761
0.0225,1.78734375,1.0,2481.936152844503,0.22363881884186076,1.3303333586262611,0.916424218980178,0.28812143749999997,0.6520404087330802
0.023,1.786775,1.0,2502.0842570113136,0.22799359240139527,1.329884836699613,0.9192312682345753,0.28809755,0.6529846763892528
0.0235,1.78619375,1.0,2520.989318420711,0.23232393822918476,1.3294431950918828,0.9218860135532242,0.28807313749999996,0.6539132053815422
0.024,1.7856,1.0,2538.711248145231,0.2366299933568925,1.3290077284711828,0.9243992042939898,0.2880482,0.6548275338208944
0.0245,1.78499375,1.0,2555.311971290719,0.24091189481618175,1.328577731505625,0.926780662333256,0.2880227375,0.6557291911945706
0.025,1.784375,1.0,2570.844453993875,0.24516977631185607,1.3281525999556505,0.9290393905886392,0.28799675,0.6566194870610549
0.025500000000000002,1.78374375,1.0,2585.3729647397636,0.24940377731677074,1.327731638447948,0.9311836255724412,0.2879702375,0.6574999144139779
0.026000000000000002,1.7831000000000001,1.0,2598.9418977932773,0.25361403046735437,1.3273143508066207,0.9332209537045185,0.2879432,0.6583715425894145
0.0265,1.78244375,1.0,2611.593729639244,0.2578006673232171,1.3269002694153824,0.9351583483530534,0.2879156375,0.6592353758168061
0.027,1.781775,1.0,2623.3719648830393,0.26196381944396907,1.326488926657947,0.9370022238607911,0.28788755,0.6600924131688194
0.0275,1.7810937500000001,1.0,2634.3210469054575,0.26610361838922053,1.3260798549180277,0.9387584878079769,0.2878589375,0.6609436486499937
0.028,1.7804,1.0,2644.4862733652553,0.2702201957185815,1.3256725865793388,0.9404325877542363,0.2878298,0.6617900712714383
0.0285,1.77969375,1.0,2653.9084631096534,0.2743136811013819,1.3252667024526483,0.9420295593262821,0.2878001375,0.6626325646542741
0.029,1.778975,1.0,2662.624895910752,0.2783842040878197,1.3248618220418407,0.943554062367059,0.28776995,0.6634719278687993
0.029500000000000002,1.7782437500000001,1.0,2670.6866448162064,0.2824318991885571,1.3244574433995422,0.9450103939758496,0.2877392375,0.6643092073425794
0.03,1.7775,1.0,2678.1217506637645,0.2864568918471807,1.324053281395974,0.9464025608995745,0.287708,0.6651449962260896
0.0305,1.77674375,1.0,2684.9586630783588,0.29045930750727733,1.3236490509013576,0.9477342787725785,0.2876762375,0.6659798847278393
0.031,1.775975,1.0,2691.2262043164233,0.2944392716124335,1.3232444667859142,0.9490089969297802,0.28764395,0.6668144601157207
0.0315,1.7751937500000001,1.0,2696.95353491296,0.29839690960623594,1.322839243919865,0.9502299208137109,0.2876111375,0.6676493067131692
0.032,1.7744,1.0,2702.1701211305767,0.30233234693227135,1.3224330971734317,0.9514000322347541,0.2875778,0.6684850058901415
0.0325,1.77359375,1.0,2706.9057042119202,0.3062457090341264,1.3220257414168353,0.9525221077134101,0.2875439375,0.6693221360489081
0.033,1.772775,1.0,2711.1880447537224,0.31013711996388066,1.3216169118282102,0.9535987370866055,0.28750955,0.6701612309505272
0.0335,1.7719437500000002,1.0,2715.0410677163095,0.3140067016120592,1.3212063804800342,0.954632340102059,0.2874746375,0.6710027459786845
0.034,1.7711000000000001,1.0,2718.49787543641,0.3178545824375232,1.3207938374833559,0.9556251687927775,0.2874392,0.6718473017624434
0.0345,1.7702437500000001,1.0,2721.5766910782554,0.3216808816519747,1.3203791100264817,0.9565793406353943,0.2874032375,0.6726952355186211
0.035,1.7693750000000001,1.0,2724.295863149453,0.32548571846711594,1.3199620252977189,0.9574968363166289,0.28736675,0.6735468825490495
0.035500000000000004,1.76849375,1.0,2726.673852572945,0.3292692120946491,1.3195424104853741,0.9583795101541711,0.2873297375,0.6744025762155506
0.036000000000000004,1.7676,1.0,2728.729220420049,0.33303148174627634,1.3191200927777549,0.9592290996091019,0.2872922,0.6752626479130011
0.0365,1.76669375,1.0,2730.4806163065323,0.3367726466336997,1.3186948993631675,0.9600472339784296,0.2872541375,0.6761274270404991
0.037,1.765775,1.0,2731.9467674499774,0.3404928259686215,1.3182666574299198,0.9608354423468277,0.28721555,0.6769972409706189
0.0375,1.76484375,1.0,2733.1450564633965,0.3441921370754148,1.3178352069916366,0.96159516172012,0.2871764375,0.6778723890197179
0.038,1.7639,1.0,2734.088789912688,0.3478706910696933,1.317400425595705,0.9623277451222662,0.28713679999999997,0.6787530925754635
0.0385,1.76294375,1.0,2734.8044437194494,0.35152861958530673,1.3169620716207706,0.9630344581833978,0.28709663750000003,0.6796398123529002
0.039,1.761975,1.0,2735.302794663824,0.3551660349405784,1.3165200464003142,0.9637165016801623,0.28705595,0.6805327175597671
0.0395,1.7609937500000001,1.0,2735.594650287423,0.35878304945383144,1.3160742512678174,0.9643750067319503,0.2870147375,0.6814319760379102
0.04,1.76,1.0,2735.6908446828447,0.3623797754433891,1.3156245875567616,0.9650110395830501,0.286973,0.682337754239873
0.0405,1.7589937500000001,1.0,2735.6022344994894,0.36595632522757476,1.315170956600628,0.965625606007627,0.2869307375,0.6832502172048631
0.041,1.757975,1.0,2735.3396951648883,0.36951281112471146,1.3147132597328979,0.9662196553709372,0.28688795,0.6841695285340994
0.0415,1.75694375,1.0,2734.9141173221383,0.37304934545312257,1.314251398287053,0.9667940843769199,0.2868446375,0.6850958503655358
0.042,1.7559,1.0,2734.336403483212,0.3765660405311313,1.313785273596574,0.9673497405293867,0.28680079999999997,0.6860293433479694
0.0425,1.75484375,1.0,2733.6174648978413,0.38006300867706083,1.3133147869949426,0.9678874253314219,0.2867564375,0.6869701666145208
0.043000000000000003,1.753775,1.0,2732.7682186380507,0.3835403622092345,1.3128398398156405,0.9684078972452618,0.28671155,0.6879184777554987
0.043500000000000004,1.75269375,1.0,2731.792439308252,0.38699820070588165,1.312360398315574,0.9689118776591767,0.28666613750000003,0.6888743034570661
0.044,1.7516,1.0,2730.7023610887027,0.3904366426549007,1.3118763519317054,0.9694000468781089,0.2866202,0.6898378224036067
0.0445,1.75049375,1.0,2729.5119821961016,0.3938558089207646,1.3113875740486343,0.9698730488745171,0.2865737375,0.6908092433931962
0.045,1.7493750000000001,1.0,2728.226509922822,0.3972558037532194,1.3108940179207411,0.9703314981382407,0.28652675,0.6917886148631949
0.0455,1.74824375,1.0,2726.8511518997148,0.40063673140201106,1.3103956368024074,0.9707759778558389,0.2864792375,0.6927759842284056
0.046,1.7471,1.0,2725.391115222528,0.4039986961168857,1.3098923839480137,0.9712070418039145,0.2864312,0.693771397866763
0.0465,1.7459437500000001,1.0,2723.8516056256317,0.4073418021475893,1.309384212611941,0.9716252161103845,0.28638263750000004,0.6947749011048765
0.047,1.744775,1.0,2722.2378267046483,0.410666153743868,1.3088710760485704,0.972031000894082,0.28633355,0.6957865382034382
0.0475,1.74359375,1.0,2720.5549791880217,0.41397185515546775,1.308352927512283,0.9724248717921634,0.28628393750000003,0.6968063523424898
0.048,1.7424,1.0,2718.808260255723,0.4172590106321346,1.307829720257459,0.9728072813839828,0.2862338,0.6978343856065516
0.0485,1.74119375,1.0,2717.002862908079,0.42052772442361464,1.30730140753848,0.9731786605193503,0.2861831375,0.6988706789696081
0.049,1.739975,1.0,2715.1439753816035,0.4237781007796539,1.3067679426097265,0.973539419558419,0.28613195,0.6999152722799603
0.0495,1.73874375,1.0,2713.236780614033,0.4270102439499984,1.3062292787255798,0.9738899495298385,0.2860802375,0.7009682042449336
0.05,1.7375,1.0,2711.286455757841,0.43022425818439425,1.3056853691404207,0.9742306232132559,0.286028,0.7020295124154489
0.0505,1.73624375,1.0,2709.29709170553,0.4334202437821236,1.3051361769622842,0.9745617963545097,0.2859752375,0.7030992139950305
0.051000000000000004,1.734975,1.0,2707.2689709216656,0.4365982886176297,1.3045817000125672,0.9748838092986483,0.28592195,0.7041772577087198
0.051500000000000004,1.73369375,1.0,2705.2126418871435,0.43975852007281324,1.3040218423850716,0.9751969852568475,0.2858681375,0.7052637734463862
0.052000000000000005,1.7324,1.0,2703.1301181262083,0.4429010341210924,1.3034565859901877,0.975501634422951,0.2858138,0.7063587385815684
0.0525,1.73109375,1.0,2701.023410536648,0.4460259267358852,1.3028859127383055,0.9757980531844173,0.28575893750000003,0.7074621296705472
0.053,1.729775,1.0,2698.8945272940437,0.4491332938906099,1.3023098045398147,0.9760865248535414,0.28570355000000003,0.7085739224461066
0.0535,1.72844375,1.0,2696.74547376432,0.45222323155868466,1.3017282433051056,0.9763673203538765,0.2856476375,0.7096940918112723
0.054,1.7271,1.0,2694.5782524229,0.4552958357135275,1.3011412109445681,0.9766406988649573,0.2855912,0.710822611833033
0.0545,1.7257437500000001,1.0,2692.394862781044,0.45835120232855664,1.3005486893685925,0.9769069084281912,0.2855342375,0.7119594557360374
0.055,1.724375,1.0,2690.1973013200395,0.4613894273771902,1.2999506604875686,0.9771661865165623,0.28547675,0.7131045958962735
0.0555,1.72299375,1.0,2687.9875614320513,0.4644106068328463,1.2993471062118864,0.9774187605705927,0.2854187375,0.7142580038347245
0.056,1.7216,1.0,2685.7676333685254,0.4674148366689431,1.2987380084519362,0.9776648485028239,0.2853602,0.7154196502110042
0.0565,1.72019375,1.0,2683.5395041957804,0.47040221285889877,1.2981233491181077,0.9779046591729079,0.28530113749999997,0.7165895048169735
0.057,1.718775,1.0,2681.305157757987,0.47337283137613134,1.297503110120791,0.9781383928352502,0.28524155,0.7177675365703333
0.0575,1.71734375,1.0,2679.0665746468794,0.4763267881940591,1.2968772733703764,0.9783662415609957,0.2851814375,0.7189537135081978
0.058,1.7159,1.0,2676.8254242741264,0.479264170702923,1.2962458236033998,0.9785883890477473,0.2851208,0.7201479974411459
0.0585,1.71444375,1.0,2674.5832877906387,0.4821850558265209,1.2956087463413741,0.9788050107716945,0.2850596375,0.7213503478522996
0.059000000000000004,1.7129750000000001,1.0,2672.3428471500806,0.4850895744538695,1.2949660169692427,0.9790162792389486,0.28499795,0.7225607424531263
0.059500000000000004,1.71149375,1.0,2670.104755705355,0.48797781399269674,1.2943176294738457,0.9792223574678975,0.2849357375,0.7237791230258166
0.06,1.71,1.0,2667.869665713471,0.4908498618507305,1.293663577842023,0.9794234020943433,0.284873,0.7250054306410145
0.0605,1.7084937500000001,1.0,2665.6382283377347,0.4937058054356987,1.293003856060615,0.9796195636689072,0.2848097375,0.7262396056556455
0.061,1.7069750000000001,1.0,2663.4110936508446,0.49654573215532927,1.2923384581164614,0.9798109869383543,0.28474595,0.727481587710746
0.0615,1.7054437500000001,1.0,2661.1889106382337,0.49936972941735003,1.2916673779964027,0.9799978111118285,0.2846816375,0.7287313157292842
0.062,1.7039,1.0,2658.972327203219,0.5021778846294889,1.2909906096872792,0.9801801701129106,0.2846168,0.7299887279139845
0.0625,1.70234375,1.0,2656.7619901717208,0.5049702851994738,1.2903081471759306,0.9803581928183596,0.2845514375,0.7312537617451474
0.063,1.7007750000000001,1.0,2654.5585452986625,0.5077470185350328,1.2896199844491971,0.9805320032843301,0.28448555,0.7325263539784657
0.0635,1.69919375,1.0,2652.3626372751323,0.5105081720438935,1.2889261154939191,0.9807017209608153,0.28441913750000003,0.7338064406428397
0.064,1.6976,1.0,2650.1749097355437,0.5132538331337839,1.2882265342969366,0.9808674608950072,0.2843522,0.7350939570381915
0.0645,1.69599375,1.0,2647.996005266889,0.5159840892124321,1.2875212348450897,0.981029333924225,0.2842847375,0.7363888377332741
0.065,1.694375,1.0,2645.8265654175325,0.5186990276875657,1.2868102111252187,0.9811874468590186,0.28421675,0.7376910165634806
0.0655,1.69274375,1.0,2643.6672307075523,0.5213987359669128,1.2860934571241633,0.9813419026570137,0.2841482375,0.7390004266286496
0.066,1.6911,1.0,2641.5186406397193,0.5240833014582013,1.285370966828764,0.9814928005880318,0.2840792,0.7403170002908688
0.0665,1.6894437500000001,1.0,2639.3814337113413,0.526752811569159,1.284642734225861,0.9816402363909799,0.2840096375,0.7416406691722762
0.067,1.687775,1.0,2637.251978945131,0.5294073227572605,1.283908792773898,0.9817843022531983,0.28393955,0.74297129268389
0.0675,1.68609375,1.0,2635.129927850009,0.5320469253378396,1.2831691456195962,0.9819250879631047,0.2838689375,0.7443087849778953
0.068,1.6844000000000001,1.0,2633.0211613356423,0.5346717456578673,1.2824237382639951,0.9820626797904006,0.2837978,0.7456531634725458
0.0685,1.68269375,1.0,2630.9255485616477,0.5372818617206958,1.2816725717802289,0.9821971604690528,0.2837261375,0.74700434409028
0.069,1.680975,1.0,2628.842958959485,0.5398773515296768,1.2809156472414314,0.9823286099000462,0.28365395,0.7483622421394378
0.0695,1.67924375,1.0,2626.773262229208,0.5424582930881622,1.2801529657207367,0.9824571052663366,0.28358123749999997,0.7497267723146548
0.07,1.6775,1.0,2624.7163283372447,0.5450247643995039,1.2793845282912786,0.9825827211423667,0.283508,0.7510978486972569
0.07050000000000001,1.67574375,1.0,2622.6720275134253,0.5475768434670537,1.2786103360261916,0.9827055295984487,0.2834342375,0.7524753847556525
0.07100000000000001,1.673975,1.0,2620.6402302484908,0.5501146082941638,1.2778303899986092,0.9828256003002769,0.28335995,0.7538592933457293
0.07150000000000001,1.67219375,1.0,2618.620807291559,0.5526381368841858,1.277044691281666,0.9829430006038354,0.2832851375,0.7552494867112449
0.07200000000000001,1.6704,1.0,2616.61362964752,0.5551475072404717,1.2762532409484952,0.9830577956459373,0.2832098,0.756645876484224
0.0725,1.66859375,1.0,2614.618568574335,0.5576427973663733,1.2754560400722317,0.9831700484306288,0.2831339375,0.7580483736853479
0.073,1.6667750000000001,1.0,2612.6354955807665,0.5601240852652426,1.2746530897260089,0.9832798199116688,0.28305755,0.7594568887243525
0.0735,1.66494375,1.0,2610.664282423696,0.5625914489404316,1.273844390982961,0.9833871690712875,0.2829806375,0.7608713314004182
0.074,1.6631,1.0,2608.704801105684,0.5650449663952919,1.2730299449162223,0.9834921529954176,0.2829032,0.7622916109025657
0.0745,1.6612437500000001,1.0,2606.7569238726583,0.5674847156331756,1.2722097525989264,0.9835948269455713,0.2828252375,0.7637176358100487
0.075,1.659375,1.0,2604.8205232113305,0.5699107746574346,1.2713838151042074,0.9836952444275403,0.28274675,0.7651493140927468
