Time [s],Phi [rad],STIM [ ],Fsee [N],Gamma [ ],Lcerel [ ],q [ ],Lmtc [m],fisomrel [ ]
0.0,1.8,1.0,17.97103068664448,5.472794049847784e-05,1.3793393123914524,0.005000787622537121,0.288653,0.5411405805943243
0.0005,1.79999375,1.0,18.29516091290632,0.0056636302688408,1.3793003425602897,0.013065151544695407,0.2886527375,0.5412348537424966
0.001,1.799975,1.0,21.669988146948224,0.011241071089824356,1.3789330344020478,0.03584202111524458,0.28865195,0.5421229446392106
0.0015,1.79994375,1.0,31.191695280476907,0.016787226878529737,1.3780357808794503,0.07092101706589818,0.2886506375,0.5442887384402558
0.002,1.7999,1.0,53.846202142846955,0.02230227311831852,1.3763510377891366,0.1150958569190729,0.2886488,0.5483415062341833
0.0025,1.79984375,1.0,97.56236289494309,0.02778638430870151,1.3739138239896713,0.1649858455688435,0.28864643749999996,0.5541723604254499
0.003,1.7997750000000001,1.0,161.53529158682207,0.033239733972645326,1.3711927607564887,0.21770436905956653,0.28864354999999997,0.5606375457971179
0.0035,1.79969375,1.0,238.33548111944674,0.038662494656491145,1.368564660061384,0.2710344926970496,0.2886401375,0.5668370260007538
0.004,1.7996,1.0,322.1606244066341,0.04405483794064798,1.3661377247844049,0.32332401237058356,0.2886362,0.5725228523268476
0.0045000000000000005,1.7994937500000001,1.0,409.9862725261294,0.04941693444480328,1.3639059551189627,0.37342199518150676,0.2886317375,0.5777182902709039
0.005,1.799375,1.0,500.14665405222155,0.05474895381922433,1.3618427686861698,0.4206099769821908,0.28862675,0.582493018971706
0.0055,1.79924375,1.0,591.5300695946652,0.060051064789868935,1.359924388542924,0.4645093274992051,0.2886212375,0.5869082733801094
0.006,1.7991000000000001,1.0,683.2586944722489,0.06532343510726889,1.3581329565123723,0.5049883995260744,0.2886152,0.5910101577159033
0.006500000000000001,1.79894375,1.0,774.6200969375418,0.07056623159902245,1.356454644158382,0.5420827458749804,0.2886086375,0.5948344600061264
0.007,1.798775,1.0,865.0175437471087,0.07577962014359564,1.3548785776717924,0.5759337394325258,0.28860155,0.5984094231812678
0.0075,1.79859375,1.0,953.960875837374,0.08096376563586186,1.3533957429089247,0.6067436370879301,0.2885939375,0.6017584467278354
0.008,1.7984,1.0,1041.0675091905603,0.08611883236604478,1.351998208722313,0.6347443675047144,0.2885858,0.6049019804090656
0.0085,1.79819375,1.0,1126.0072874762086,0.09124498306406773,1.3506794318277504,0.6601772951471884,0.2885771375,0.6078569390719584
0.009000000000000001,1.797975,1.0,1208.5462247511996,0.09634237995325762,1.3494332088049827,0.68327967127534,0.28856795,0.610639134516114
0.0095,1.79774375,1.0,1288.5256121260197,0.10141118495188402,1.3482537431731125,0.7042770262058893,0.2885582375,0.6132631708096805
0.01,1.7975,1.0,1365.7935643278488,0.1064515577742664,1.34713633379076,0.7233794073761668,0.288548,0.6157409622522642
0.0105,1.79724375,1.0,1440.2620900389952,0.11146365787564196,1.3460764052895835,0.7407790402125617,0.2885372375,0.6180839339982142
0.011,1.796975,1.0,1511.8928001095844,0.11644764395287703,1.3450695843469902,0.7566500642563632,0.28852595000000003,0.6203028761434803
0.0115,1.79669375,1.0,1580.678857175974,0.12140367439773113,1.3441118193316346,0.7711491691477973,0.2885141375,0.6224077034319914
0.012,1.7964,1.0,1646.6035111510107,0.12633190517793844,1.3431997687968709,0.7844168251729908,0.28850180000000003,0.6244066285005561
0.0125,1.79609375,1.0,1709.6902561345448,0.13123249220590594,1.3423301048855314,0.7965782737884672,0.2884889375,0.62630771456971
0.013000000000000001,1.7957750000000001,1.0,1769.9776187349717,0.13610559040833256,1.341499755190027,0.8077450511028677,0.28847555,0.6281183584347949
0.0135,1.79544375,1.0,1827.5486663884697,0.14095135545221163,1.3407055166724882,0.8180162362637969,0.2884616375,0.6298461444800156
0.014,1.7951000000000001,1.0,1882.4449983060679,0.1457699395907104,1.3399449742749654,0.8274801412306607,0.2884472,0.6314968573507433
0.0145,1.79474375,1.0,1934.7244535521631,0.15056149473408864,1.3392157934104456,0.836215251446444,0.2884322375,0.6330760379493683
0.015,1.794375,1.0,1984.4661417657126,0.15532617279260602,1.3385156394919162,0.8442913301205183,0.28841675,0.6345891639648567
0.0155,1.79399375,1.0,2031.7498015860065,0.16006412448208304,1.3378423758555495,0.851770503215538,0.2884007375,0.6360412279218035
0.016,1.7936,1.0,2076.6786708260165,0.16477550111555417,1.337193796594451,0.8587080749523449,0.2883842,0.6374373199560589
0.0165,1.7931937500000001,1.0,2119.3200675314347,0.1694604506420247,1.3365682276160868,0.8651535159119524,0.2883671375,0.6387813397938966
0.017,1.792775,1.0,2159.7496022922774,0.17411912075455893,1.3359640352107143,0.8711510039078668,0.28834955,0.6400770632810393
0.0175,1.7923437500000001,1.0,2198.0539580623386,0.1787516591462212,1.3353795856685893,0.8767400377867123,0.2883314375,0.6413282318774407
0.018000000000000002,1.7919,1.0,2234.3131827538905,0.18335821208159633,1.3348134136413,0.8819560319526368,0.2883128,0.6425381952992979
0.0185,1.79144375,1.0,2268.6320048803714,0.1879389273358555,1.3342638946509986,0.8868307078189656,0.2882936375,0.6437106145814608
0.019,1.790975,1.0,2301.080173112557,0.19249394864800698,1.3337298338822117,0.8913926675537586,0.28827395,0.6448482078346665
0.0195,1.79049375,1.0,2331.7289901533336,0.19702341931544198,1.3332100850925714,0.895667656295005,0.2882537375,0.6459535688539583
0.02,1.79,1.0,2360.6555864173347,0.20152748263555154,1.3327035020397107,0.8996788748545658,0.288233,0.6470292720998477
0.0205,1.78949375,1.0,2387.9382931061778,0.20600628126940349,1.3322089786582774,0.90344727408519,0.2882117375,0.6480777885804343
0.021,1.788975,1.0,2413.655657532195,0.21045995762486147,1.331725453024288,0.9069918053696593,0.28818995000000003,0.649101479004563
0.021500000000000002,1.78844375,1.0,2437.8857339727037,0.21488865391973336,1.331251909030214,0.9103296397750955,0.2881676375,0.6501025917214249
0.022,1.7879,1.0,2460.6866806912385,0.21929250874355827,1.3307875574374004,0.9134763954631484,0.2881448,0.6510828821575209
0.0225,1.78734375,1.0,2482.1197049866278,0.22367166068587524,1.3303316090071924,0.9164462586415218,0.28812143749999997,0.6520440946770389
0.023,1.786775,1.0,2502.248810461793,0.22802624833622337,1.329883274500935,0.9192521346725975,0.28809755,0.6529879630246835
0.0235,1.78619375,1.0,2521.1390603166155,0.2323564099889954,1.3294417788456951,0.9219057839516284,0.28807313749999996,0.6539161809661482
0.024,1.7856,1.0,2538.8456423404577,0.2366622815924127,1.3290064618245065,0.924417956749264,0.2880482,0.6548301915743607
0.0245,1.78499375,1.0,2555.4470498558226,0.24094400351433198,1.3285764625509426,0.9267984423701043,0.2880227375,0.6557318503109344
0.025,1.784375,1.0,2570.987760674151,0.24520170915726544,1.3281512577784378,0.9290562536914317,0.28799675,0.6566222959771342
0.025500000000000002,1.78374375,1.0,2585.513678792713,0.24943553192372528,1.3277303242604257,0.9311996484866318,0.2879702375,0.657502661224988
0.026000000000000002,1.7831000000000001,1.0,2599.0720163175524,0.25364560521622376,1.3273131387503407,0.9332362029400837,0.2879432,0.6583740727085465
0.0265,1.78244375,1.0,2611.711181456479,0.2578320624372731,1.3268991780016164,0.9351728771086762,0.2879156375,0.6592376512176898
0.027,1.781775,1.0,2623.480672582682,0.26199503698938553,1.3264879187676872,0.9370160732977889,0.28788755,0.6600945117944645
0.0275,1.7810937500000001,1.0,2634.4228810242107,0.266134658497329,1.3260789127201111,0.9387716979181072,0.2878589375,0.660945608033387
0.028,1.7804,1.0,2644.591667387772,0.27025106316651526,1.3256716133204636,0.9404451857176177,0.2878298,0.6617920927208114
0.0285,1.77969375,1.0,2654.0218920700327,0.2743443796217107,1.3252656568571142,0.9420415777372009,0.2878001375,0.6626347336393816
0.029,1.778975,1.0,2662.74732044609,0.2784147357225633,1.3248606953741087,0.9435655352517401,0.28776995,0.663474262120697
0.029500000000000002,1.7782437500000001,1.0,2670.8022696731205,0.28246225932872093,1.3244563809154937,0.9450213715089363,0.2877392375,0.6643114058776151
0.03,1.7775,1.0,2678.221558806138,0.28648707829983144,1.3240523655253154,0.9464130821707523,0.287708,0.6651468890224727
0.0305,1.77674375,1.0,2685.0404615976727,0.2904893204955428,1.3236483012476197,0.9477443727303341,0.2876762375,0.665981432077583
0.031,1.775975,1.0,2691.293037831519,0.29446911263026654,1.3232438549937875,0.9490186847623407,0.28764395,0.6668157213289391
0.0315,1.7751937500000001,1.0,2697.0053761673066,0.2984265757882868,1.322838769869964,0.950239224348505,0.2876111375,0.6676502827450526
0.032,1.7744,1.0,2702.2234009090016,0.30236184767756974,1.322432610439858,0.9514089572031817,0.2875778,0.6684860067759526
0.0325,1.77359375,1.0,2706.968497536829,0.30627504958577634,1.3220251682754416,0.9525306672417627,0.2875439375,0.6693233131287422
0.033,1.772775,1.0,2711.2622623339385,0.3101663028005678,1.321616234948687,0.9536069491559709,0.28750955,0.6701626193157874
0.0335,1.7719437500000002,1.0,2715.1264827088344,0.31403572860960505,1.3212056020315663,0.9546402235497919,0.2874746375,0.6710043406362851
0.034,1.7711000000000001,1.0,2718.58311848052,0.3178834483005492,1.3207930610960517,0.9556327506931803,0.2874392,0.6718488901550539
0.0345,1.7702437500000001,1.0,2721.654284126965,0.3217095831610614,1.320378403714115,0.9565866430343709,0.2874032375,0.6726966786785571
0.035,1.7693750000000001,1.0,2724.362231996609,0.32551425447880267,1.3199614214577287,0.9575038765959093,0.28736675,0.6735481147281561
0.035500000000000004,1.76849375,1.0,2726.7293364835114,0.32929758354143407,1.3195419058988647,0.9583863013656564,0.2873297375,0.6744036045105903
0.036000000000000004,1.7676,1.0,2728.778079165058,0.3330596916366167,1.319119648609495,0.9592356507818717,0.2872922,0.6752635518856904
0.0365,1.76669375,1.0,2730.5190230027156,0.33680069201024204,1.3186945503247332,0.9600535596650063,0.2872541375,0.6761281364582785
0.037,1.765775,1.0,2731.979838129297,0.3405207116597659,1.3182663569654918,0.9608415498660808,0.28721555,0.676997850841563
0.0375,1.76484375,1.0,2733.1811744272036,0.34421987084422817,1.3178348789130685,0.9616010556268335,0.2871764375,0.6778730540379946
0.038,1.7639,1.0,2734.1353413136135,0.3478982836450068,1.3174000028180968,0.9623334311099356,0.28713679999999997,0.6787539483771434
0.0385,1.76294375,1.0,2734.854691662529,0.35155606414347973,1.3169616153312096,0.9630399500911652,0.28709663750000003,0.6796407347150202
0.039,1.761975,1.0,2735.3516162994542,0.35519332642102486,1.3165196031030402,0.9637218116030225,0.28705595,0.6805336124091006
0.0395,1.7609937500000001,1.0,2735.6385387819832,0.35881018455902014,1.316073852784222,0.9643801451234925,0.2870147375,0.6814327792925319
0.04,1.76,1.0,2735.727910464168,0.36240675263884353,1.3156242510253882,0.9650160153510983,0.286973,0.6823384316475216
0.0405,1.7589937500000001,1.0,2735.6322058466344,0.36598314474187293,1.3151706844771718,0.9656304266032819,0.2869307375,0.6832507641779051
0.041,1.757975,1.0,2735.363918210834,0.36953947494948636,1.3147130397902063,0.9662243268714767,0.28688795,0.684169969980893
0.0415,1.75694375,1.0,2734.935555538555,0.37307585734306165,1.3142512036151248,0.9667986115629892,0.2868446375,0.6850962405180019
0.042,1.7559,1.0,2734.3556422415204,0.37659240032838853,1.3137850988785615,0.9673541290530502,0.28680079999999997,0.6860296929903424
0.0425,1.75484375,1.0,2733.6355791870496,0.38008921887692554,1.31331462246722,0.9678916806058762,0.2867564375,0.6869704953706102
0.043000000000000003,1.753775,1.0,2732.7880622184593,0.3835664291382448,1.3128396595532086,0.9684120236784984,0.28671155,0.6879188374063538
0.043500000000000004,1.75269375,1.0,2731.8199666110695,0.387024138240935,1.3123601482084313,0.9689158783068508,0.28666613750000003,0.6888748016938995
0.044,1.7516,1.0,2730.73817111949,0.39046245331358476,1.3118760265047926,0.9694039266852421,0.2866202,0.6898384696797892
0.0445,1.75049375,1.0,2729.549556515233,0.3938814814847828,1.311387232514197,0.9698768155259658,0.2865737375,0.6908099216426957
0.045,1.7493750000000001,1.0,2728.261004207679,0.39728132988311776,1.310893704308549,0.9703351582493656,0.28652675,0.6917892366750911
0.0455,1.74824375,1.0,2726.8793949508668,0.4006621056371783,1.3103953799597527,0.9707795370180774,0.2864792375,0.6927764926646707
0.046,1.7471,1.0,2725.411607635797,0.404023915875553,1.3098921975397124,0.971210504627944,0.2864312,0.6937717662755353
0.0465,1.7459437500000001,1.0,2723.86451816646,0.40736686772683056,1.3093840951203328,0.9716285862669815,0.28638263750000004,0.6947751329291226
0.047,1.744775,1.0,2722.244998422102,0.4106910683195997,1.308871010773518,0.9720342811527761,0.28633355,0.6957866667849023
0.0475,1.74359375,1.0,2720.556794095042,0.4139966183847752,1.3083529109883683,0.972428065264406,0.28628393750000003,0.6968063848373707
0.048,1.7424,1.0,2718.8029535222745,0.41728361987360857,1.3078297685884357,0.9728103921221087,0.2862338,0.6978342907231829
0.0485,1.74119375,1.0,2716.996790681435,0.4205521947020355,1.3073014628595465,0.9731816894309036,0.2861831375,0.6988705705496899
0.049,1.739975,1.0,2715.1414997960846,0.42380244254849664,1.306767965171279,0.9735423681378362,0.28613195,0.6999152281399013
0.0495,1.73874375,1.0,2713.240272222777,0.42703446309143256,1.3062292468932108,0.9738928198484399,0.2860802375,0.7009682664133192
0.05,1.7375,1.0,2711.296296172495,0.4302483560092839,1.305685279394921,0.9742334179091275,0.286028,0.7020296873764321
0.0505,1.73624375,1.0,2709.3127564502292,0.43344422098049123,1.3051360340459868,0.9745645184195929,0.2859752375,0.7030994921131581
0.051000000000000004,1.734975,1.0,2707.2928342126934,0.43662215768349516,1.3045814822159871,0.9748864611803395,0.28592195,0.7041776807752307
0.051500000000000004,1.73369375,1.0,2705.2397067442216,0.4397822657967363,1.3040215952744996,0.9751995705800299,0.2858681375,0.7052642525725394
0.052000000000000005,1.7324,1.0,2703.1565472508332,0.4429246449986552,1.3034563445911027,0.9755041564269714,0.2858138,0.7063592057634118
0.0525,1.73109375,1.0,2701.046524672735,0.4460493949676924,1.3028857015353743,0.9758005147287199,0.28575893750000003,0.7074625376448475
0.053,1.729775,1.0,2698.9128035144104,0.44915661538228874,1.302309637476893,0.9760889284234505,0.28570355000000003,0.7085742445426964
0.0535,1.72844375,1.0,2696.758543693536,0.4522464059208846,1.3017281237852367,0.9763696680664804,0.2856476375,0.7096943218017885
0.054,1.7271,1.0,2694.5869004078068,0.4553188662619207,1.3011411318299835,0.9766429924750424,0.2855912,0.7108227637760093
0.0545,1.7257437500000001,1.0,2692.397095938662,0.4583740856447412,1.3005486689306447,0.976909150484688,0.2855342375,0.7119594949107708
0.055,1.724375,1.0,2690.190043623968,0.46141216054970596,1.2999507269374764,0.9771683801199409,0.28547675,0.7131044687808658
0.0555,1.72299375,1.0,2687.975247688143,0.46443320692746387,1.2993472190002684,0.9774209065326563,0.2854187375,0.7142577885102211
0.056,1.7216,1.0,2685.7537788640916,0.4674373164508352,1.2987381354054475,0.9776669476515398,0.2853602,0.7154194083369787
0.0565,1.72019375,1.0,2683.5267061667264,0.47042458079264005,1.2981234664394412,0.9779067123639316,0.28530113749999997,0.7165892817542454
0.057,1.718775,1.0,2681.2950968794657,0.4733950916256987,1.2975032023886766,0.9781404009623766,0.28524155,0.7177673615066396
0.0575,1.71734375,1.0,2679.060016541721,0.47634894062283134,1.2968773335395805,0.9783682055656413,0.2851814375,0.7189535995868263
0.058,1.7159,1.0,2676.8225289395805,0.47928621945685823,1.2962458501785805,0.9785903105158267,0.2851208,0.7201479472320473
0.0585,1.71444375,1.0,2674.58369609823,0.48220701980059955,1.2956087425921037,0.978806892753124,0.2850596375,0.7213503549206486
0.059000000000000004,1.7129750000000001,1.0,2672.3445782761987,0.48511143332687545,1.2949660010665769,0.9790181221696285,0.28499795,0.7225607723685975
0.059500000000000004,1.71149375,1.0,2670.106233961996,0.48799955170850623,1.2943176158884278,0.9792241619435444,0.2849357375,0.7237791485259946
0.06,1.71,1.0,2667.869719872644,0.49087146661831205,1.293663577344083,0.9794251688550084,0.284873,0.7250054315735835
0.0605,1.7084937500000001,1.0,2665.6360909544637,0.4937272697291131,1.29300387571997,0.9796212935846781,0.2848097375,0.7262395689192487
0.061,1.7069750000000001,1.0,2663.4064003860462,0.4965670527137297,1.2923385013025157,0.9798126809961499,0.28474595,0.7274815071945122
0.0615,1.7054437500000001,1.0,2661.181699582644,0.4993909072449819,1.2916674443781475,0.9799994704032022,0.2846816375,0.7287311922510211
0.062,1.7039,1.0,2658.963038204009,0.5021989249956901,1.2909906952332926,0.9801817958227841,0.2846168,0.7299885691570314
0.0625,1.70234375,1.0,2656.74992906235,0.504991170758247,1.2903082582976113,0.9803597849079619,0.2845514375,0.7312535560083144
0.063,1.7007750000000001,1.0,2654.544932406985,0.507767763258918,1.2896201099198534,0.9805335631638792,0.28448555,0.7325261222258037
0.0635,1.69919375,1.0,2652.3487585449857,0.5105287936340195,1.2889262434677666,0.9807032502201724,0.28441913750000003,0.7338062048329237
0.064,1.6976,1.0,2650.161670282438,0.5132743454919769,1.2882266564264697,0.9808689609533247,0.2843522,0.7350937325421485
0.0645,1.69599375,1.0,2647.983930012886,0.5160045024412157,1.287521346281082,0.9810308060429425,0.2842847375,0.7363886333951345
0.065,1.694375,1.0,2645.8157997211815,0.5187193480901614,1.286810310516722,0.9811888921539925,0.28421675,0.7376908347618034
0.0655,1.69274375,1.0,2643.6575409878064,0.5214189660472397,1.2860935466185093,0.981343322109848,0.2841482375,0.7390002633394224
0.066,1.6911,1.0,2641.5094149937836,0.5241034399208759,1.2853710520715629,0.9814941950566594,0.2840792,0.7403168451516879
0.0665,1.6894437500000001,1.0,2639.3716825253423,0.5267728533194959,1.2846428243610017,0.9816416066195517,0.2840096375,0.7416405055478059
0.067,1.687775,1.0,2637.2446039783335,0.5294272898515248,1.283908860971945,0.9817856490511048,0.28393955,0.7429711692015717
0.0675,1.68609375,1.0,2635.12843936366,0.5320668331253884,1.2831691593895118,0.9819264113725488,0.2838689375,0.7443087601104504
0.068,1.6844000000000001,1.0,2633.023448312328,0.5346915667495122,1.282423717098821,0.9820639795080853,0.2837978,0.7456532015946591
0.0685,1.68269375,1.0,2630.929890080352,0.5373015743323217,1.281672531584992,0.9821984364127077,0.2837261375,0.7470044162962427
0.069,1.680975,1.0,2628.848023554632,0.5398969394822424,1.2809156003331437,0.9823298621938825,0.28365395,0.7483623261781553
0.0695,1.67924375,1.0,2626.77810725811,0.5424777458076999,1.2801529208283953,0.982458334227424,0.28358123749999997,0.7497268525233383
0.07,1.6775,1.0,2624.72039935583,0.5450440769171198,1.2793844905558656,0.9825839272678786,0.283508,0.7510979159337994
0.07050000000000001,1.67574375,1.0,2622.675157660277,0.5475960164189274,1.278610307000674,0.9827067135537115,0.2834342375,0.752475436329688
0.07100000000000001,1.673975,1.0,2620.64001030499,0.5501336446219407,1.2778303920389131,0.9828267638258666,0.28335995,0.7538592897305607
0.07150000000000001,1.67219375,1.0,2618.619541754604,0.5526570394595003,1.2770447030259338,0.9829441433986534,0.2832851375,0.7552494659606893
0.07200000000000001,1.6704,1.0,2616.6132267404964,0.5551662800795771,1.276253244688933,0.98305891763898,0.2832098,0.7566458698942491
0.0725,1.66859375,1.0,2614.6199525733427,0.5576614455312637,1.2754560272188047,0.9831711500145405,0.2831339375,0.7580483962654118
0.073,1.6667750000000001,1.0,2612.6386083285242,0.5601426148636526,1.2746530608064432,0.9832809019306796,0.28305755,0.7594569393802685
0.0735,1.66494375,1.0,2610.667088945855,0.5626098666140305,1.2738443648985989,0.9833882331926427,0.2829806375,0.7608713769556219
0.074,1.6631,1.0,2608.706436215389,0.565063279592155,1.273029929713487,0.983493200411289,0.2829032,0.7622916373745163
0.0745,1.6612437500000001,1.0,2606.7575704676674,0.5675029310455684,1.2722097465848432,0.9835958583443194,0.2828252375,0.763717646250687
0.075,1.659375,1.0,2604.8205421106554,0.5699288977231826,1.2713838149283563,0.9836962603323959,0.28274675,0.7651493143971035
0.0755,1.65749375,1.0,2602.8954015298027,0.5723412563739095,1.2705521341597152,0.9837944580314678,0.2826677375,0.7665865519822177
