Time [s],Phi [rad],STIM [ ],Fsee [N],Gamma [ ],Lcerel [ ],q [ ],Lmtc [m],fisomrel [ ]
0.0,1.8,1.0,17.96713536393408,2.3671832331530522e-05,1.379339748774493,0.0050001483326168284,0.288653,0.541139524871507
0.0005,1.79999375,1.0,18.28108240988739,0.0056327483608719095,1.379301905921432,0.012978514354432698,0.2886527375,0.5412310719527078
0.001,1.799975,1.0,21.632899001230403,0.011210362404941127,1.3789368196193743,0.03567985775092621,0.28865195,0.5421137969921996
0.0015,1.79994375,1.0,31.105306490806722,0.016756690445076074,1.3780431315388042,0.07069926097857192,0.2886506375,0.5442710162510662
0.002,1.7999,1.0,53.66139785230393,0.02227190797013721,1.3763630078126303,0.11483336414601177,0.2886488,0.5483127753514987
0.0025,1.79984375,1.0,97.25261549886098,0.027756189484973364,1.3739287278579961,0.1647003540771368,0.28864643749999996,0.5541368191406271
0.003,1.7997750000000001,1.0,161.1327547205143,0.033209708518007905,1.3712078105361625,0.21740988486512522,0.28864354999999997,0.5606019177198613
0.0035,1.79969375,1.0,237.88095383297247,0.03863263762093215,1.3685786482086475,0.2707416220682597,0.2886401375,0.5668041456782082
0.004,1.7996,1.0,321.6772583995147,0.044025148379461386,1.3661505183101799,0.32304045151911326,0.2886362,0.572492978128784
0.0045000000000000005,1.7994937500000001,1.0,409.48589694176536,0.0493874114185267,1.3639176941270554,0.37315283372998803,0.2886317375,0.5776910456034661
0.005,1.799375,1.0,499.6362113349548,0.054719596393393244,1.3618536103654868,0.42035816463894166,0.28862675,0.58246799957099
0.0055,1.79924375,1.0,591.0152382938811,0.060021872036580694,1.3599344429956133,0.46427619323821345,0.2886212375,0.5868851937035638
0.006,1.7991000000000001,1.0,682.7433150775344,0.0652944061024141,1.3581423214257708,0.5047741545685223,0.2886152,0.5909887678691321
0.006500000000000001,1.79894375,1.0,774.1071918380159,0.07053736541791203,1.3564633970575102,0.5418868630246455,0.2886086375,0.5948145617290175
0.007,1.798775,1.0,864.5121635007694,0.07575091588999452,1.3548867389208274,0.5757552169986445,0.28860155,0.5983909519711113
0.0075,1.79859375,1.0,953.4659625894866,0.08093522243938327,1.3534033533094587,0.6065812528604825,0.2885939375,0.6017412942271362
0.008,1.7984,1.0,1040.5787758502627,0.0860904491648836,1.3520054027296704,0.6345968586325321,0.2885858,0.6048858305137836
0.0085,1.79819375,1.0,1125.534308162884,0.09121675910477134,1.3506861261179834,0.6600432625379924,0.2885771375,0.6078419673098272
0.009000000000000001,1.797975,1.0,1208.095174948558,0.09631431453716482,1.3494393707918635,0.6831577996769069,0.28856795,0.6106254022340132
0.0095,1.79774375,1.0,1288.070313457627,0.10138327645547117,1.3482597670432375,0.7041663106359001,0.2885582375,0.6132497916421875
0.01,1.7975,1.0,1365.3527074509213,0.10642380598516074,1.3471419991508253,0.7232786024192377,0.288548,0.6157284197243891
0.0105,1.79724375,1.0,1439.843363174521,0.11143606205543555,1.3460816452620783,0.7406870902133617,0.2885372375,0.6180723686629241
0.011,1.796975,1.0,1511.4877300780236,0.11642020302524925,1.3450745318502006,0.756566112827607,0.28852595000000003,0.6202919881006532
0.0115,1.79669375,1.0,1580.2718653916095,0.1213763867808498,1.3441166809308873,0.7710724802920407,0.2885141375,0.6223970341361923
0.012,1.7964,1.0,1646.2130048328763,0.12630477079937447,1.3432043391175728,0.7843465633403938,0.28850180000000003,0.6243966250346624
0.0125,1.79609375,1.0,1709.3213650408113,0.13120551035618824,1.3423343418054745,0.7965137629802925,0.2884889375,0.6262984643514431
0.013000000000000001,1.7957750000000001,1.0,1769.6335900004997,0.13607876034327226,1.341503638654294,0.8076856994427658,0.28847555,0.6281099004651702
0.0135,1.79544375,1.0,1827.200221354577,0.1409246749462676,1.340709387536233,0.8179616551432746,0.2884616375,0.6298377335608577
0.014,1.7951000000000001,1.0,1882.1060837569282,0.14574340862706667,1.3399486839510646,0.8274298066421877,0.2884472,0.6314888146681734
0.0145,1.79474375,1.0,1934.406391082507,0.15053511301766617,1.3392192274721515,0.8361687095871259,0.2884322375,0.6330686087793264
0.015,1.794375,1.0,1984.1663537278134,0.15529993926517727,1.3385188354143764,0.8442482285753273,0.28841675,0.6345822642528518
0.0155,1.79399375,1.0,2031.4684641846889,0.16003803835485517,1.3378453399686558,0.8517305185189142,0.2884007375,0.6360348413949725
0.016,1.7936,1.0,2076.402316227707,0.16474956047877573,1.3371966765373124,0.8586709621094378,0.2883842,0.6374311266970379
0.0165,1.7931937500000001,1.0,2119.0553927877086,0.1694346555812491,1.3365709579462324,0.8651189939569596,0.2883671375,0.6387754791682254
0.017,1.792775,1.0,2159.4985142909954,0.17409347077446183,1.3359666010193318,0.8711188358855783,0.28834955,0.6400715656872357
0.0175,1.7923437500000001,1.0,2197.813377936297,0.17872615317060053,1.3353820225805275,0.8767100252739277,0.2883314375,0.6413230195465387
0.018000000000000002,1.7919,1.0,2234.0875291150537,0.1833328493618159,1.3348156807307772,0.881927976623206,0.2883128,0.6425333543902625
0.0185,1.79144375,1.0,2268.406745486783,0.1879137053728513,1.3342661405956138,0.8868044797041087,0.2882936375,0.643705826694239
0.019,1.790975,1.0,2300.866101966334,0.1924688683453802,1.3337319531690368,0.8913680887066139,0.28827395,0.6448436971746805
0.0195,1.79049375,1.0,2331.5303928710223,0.1969984806608431,1.3332120382214019,0.8956445817327103,0.2882537375,0.6459494183174075
0.02,1.79,1.0,2360.4700479450607,0.20150268470068033,1.3327053155230641,0.8996571886179193,0.288233,0.6470254241795228
0.0205,1.78949375,1.0,2387.7606682615133,0.2059816228463324,1.332210704844379,0.903426877110641,0.2882117375,0.6480741313354621
0.021,1.788975,1.0,2413.48258799643,0.21043543747923968,1.3317271259557015,0.9069726039509712,0.28818995000000003,0.6490979397486293
0.021500000000000002,1.78844375,1.0,2437.70391481421,0.21486426861055255,1.331253657783108,0.9103115676963612,0.2881676375,0.650098897338366
0.022,1.7879,1.0,2460.5103079234427,0.21926825965090516,1.33078924592755,0.9134593410874329,0.2881448,0.6510793200850854
0.0225,1.78734375,1.0,2481.9603935611613,0.2236475488164297,1.3303331275600354,0.9164301254602095,0.28812143749999997,0.6520408955242518
0.023,1.786775,1.0,2502.1092635793466,0.22800227328351652,1.3298845992948543,0.9192368506146628,0.28809755,0.6529851758548261
0.0235,1.78619375,1.0,2521.0144130257077,0.23233257022855588,1.3294429577462974,0.9218912961986989,0.28807313749999996,0.6539137040541178
0.024,1.7856,1.0,2538.7355392231316,0.2366385768279382,1.3290074995286556,0.9244042099052289,0.2880482,0.6548280142024927
0.0245,1.78499375,1.0,2555.3343518179854,0.24092043025805382,1.3285775212562196,0.9267854120991765,0.2880227375,0.655729631776526
0.025,1.784375,1.0,2570.862916209484,0.24517826404091128,1.3281524270407112,0.9290439052589355,0.28799675,0.6566198489390647
0.025500000000000002,1.78374375,1.0,2585.390653051771,0.2494122178918862,1.3277314732474226,0.9311879161583063,0.2879702375,0.6575002597036796
0.026000000000000002,1.7831000000000001,1.0,2598.9591658788627,0.25362242362827603,1.3273141899523622,0.9332250342124201,0.2879432,0.6583718783668016
0.0265,1.78244375,1.0,2611.6111003450133,0.25780901304270376,1.3269001079976244,0.9351622315371524,0.2879156375,0.6592357123442013
0.027,1.781775,1.0,2623.3901313123733,0.26197211792779235,1.326488758225304,0.9370059213344681,0.28788755,0.6600927638791423
0.0275,1.7810937500000001,1.0,2634.3408732701682,0.2661118700761648,1.3260796714774958,0.9387620101442994,0.2878589375,0.6609440301311492
0.028,1.7804,1.0,2644.508795633966,0.27022840128044406,1.3256723785962945,0.9404359445765554,0.2878298,0.6617905032507392
0.0285,1.77969375,1.0,2653.926030237372,0.2743218384063794,1.3252665405162602,0.9420327699445938,0.2878001375,0.662632900575842
0.029,1.778975,1.0,2662.6473548347053,0.2783923175638233,1.3248616153513895,0.9435571245321174,0.28776995,0.6634723560946616
0.029500000000000002,1.7782437500000001,1.0,2670.71136473586,0.2824399682738729,1.3244572162447201,0.9450133194624347,0.2877392375,0.6643096773811445
0.03,1.7775,1.0,2678.146715802879,0.2864649161535876,1.3240530523064669,0.946405359937156,0.287708,0.6651454696774944
0.0305,1.77674375,1.0,2684.98247780603,0.2904672868200269,1.3236488326468443,0.9477369601770751,0.2876762375,0.6659803352242825
0.031,1.775975,1.0,2691.2480974367713,0.2944472058902503,1.3232442663760666,0.9490115682229604,0.28764395,0.6668148732621125
0.0315,1.7751937500000001,1.0,2696.9733631966933,0.2984047989813172,1.3228390626043482,0.9502323883314563,0.2876111375,0.6676496800278882
0.032,1.7744,1.0,2702.188372162716,0.3023401917102871,1.3224329304419036,0.9514024012252907,0.2875778,0.6684853487456843
0.0325,1.77359375,1.0,2706.9234986287215,0.30625350969421933,1.322025578998947,0.9525243824264842,0.2875439375,0.6693224696122224
0.033,1.772775,1.0,2711.203978667865,0.3101448758911576,1.3216167665068705,0.9536009238642,0.28750955,0.6701615290231668
0.0335,1.7719437500000002,1.0,2715.0554116154376,0.31401441434803357,1.3212062497528743,0.954634443720259,0.2874746375,0.671003013774535
0.034,1.7711000000000001,1.0,2718.5109688950683,0.31786225226479436,1.3207937182283174,0.9556271932971588,0.2874392,0.6718475457437849
0.0345,1.7702437500000001,1.0,2721.588780961057,0.3216885088145141,1.3203789999742892,0.956581289890889,0.2874032375,0.672695460380977
0.035,1.7693750000000001,1.0,2724.307103265349,0.3254933031702669,1.3199619230318804,0.9574987140216797,0.28736675,0.6735470912300416
0.035500000000000004,1.76849375,1.0,2726.684303399891,0.3292767545051271,1.3195423154421804,0.9583813198536141,0.2873297375,0.6744027699038588
0.036000000000000004,1.7676,1.0,2728.738848894372,0.3330389819921687,1.319120005246279,0.9592308447059025,0.2872922,0.6752628260574454
0.0365,1.76669375,1.0,2730.489295669699,0.3367801048044659,1.3186948204852666,0.9600489177443939,0.2872541375,0.6761275873592592
0.037,1.765775,1.0,2731.954277146981,0.340500242115093,1.318266589200233,0.9608370679323943,0.28721555,0.6769973794606191
0.0375,1.76484375,1.0,2733.1524940123904,0.34419951309712404,1.317835139432268,0.9615967313114717,0.2871764375,0.6778725259632358
0.038,1.7639,1.0,2734.1020442149033,0.3478780303252533,1.3174003052203964,0.9623292568823832,0.28713679999999997,0.67875333624362
0.0385,1.76294375,1.0,2734.8188703789024,0.3515359187468872,1.3169619406152953,0.9630359180203922,0.28709663750000003,0.6796400771727872
0.039,1.761975,1.0,2735.3149460421364,0.35517329202195247,1.31651993606622,0.9637179144551788,0.28705595,0.6805329402826401
0.0395,1.7609937500000001,1.0,2735.60219253171,0.35879026319582596,1.3160741827881253,0.9643763762714,0.2870147375,0.6814321140778661
0.04,1.76,1.0,2735.692558553403,0.36238694531388493,1.3156245719959654,0.9650123687421857,0.286973,0.6823377855623841
0.0405,1.7589937500000001,1.0,2735.5980157491986,0.3659634514215063,1.315170994904695,0.9656268967294536,0.2869307375,0.6832501402129615
0.041,1.757975,1.0,2735.3305545167295,0.36951989456406725,1.3147133427292683,0.9662209087408103,0.28688795,0.684169361952073
0.0415,1.75694375,1.0,2734.9021800908763,0.3730563877869448,1.3142515066846399,0.9667953006731497,0.2868446375,0.6850956331200057
0.042,1.7559,1.0,2734.32490888841,0.37657304413551596,1.3137853779857642,0.9673509192701497,0.28680079999999997,0.6860291344462088
0.0425,1.75484375,1.0,2733.5829858765587,0.3800699745387873,1.313315100161088,0.9678885858180802,0.2867564375,0.686969540851554
0.043000000000000003,1.753775,1.0,2732.7330440775145,0.38354729144107147,1.3128401593488903,0.9684090241212117,0.28671155,0.687917840237758
0.043500000000000004,1.75269375,1.0,2731.7946625979307,0.38700510500500057,1.312360378115196,0.9689129463798205,0.28666613750000003,0.6888743436981244
0.044,1.7516,1.0,2730.7479253074116,0.3904435231476886,1.3118759378630926,0.9694010553797832,0.2866202,0.6898386459885726
0.0445,1.7504947624759706,1.0,2729.6232423444226,0.3938626537862495,1.3113870199956672,0.9698740172105426,0.28657378002399075,0.690810343680542
0.045,1.749387293569218,1.0,2728.8605218908647,0.3972626048377973,1.3108938059160073,0.9703324635457394,0.28652726632990716,0.6917890352138392
0.0455,1.7482798246624656,1.0,2728.5505035908786,0.40064348421944584,1.3103964770272003,0.9707769937609502,0.28648075263582357,0.6927743209473939
0.046,1.747172355755713,1.0,2728.6738394014496,0.4040053996233093,1.3098952085207054,0.9712081764078568,0.2864342389417399,0.6937658154844022
0.0465,1.7460648868489606,1.0,2729.2000345184933,0.4073484562557578,1.3093902778643094,0.9716265587454417,0.2863877252476563,0.6947629335556296
0.047,1.744957417942208,1.0,2730.076172539879,0.41067276348398496,1.3088821670539972,0.9720326762546442,0.2863412115535727,0.6957646902934521
0.0475,1.7438499490354553,1.0,2731.278660665957,0.41397842477258684,1.3083710919997462,0.972427018249834,0.28629469785948913,0.6967706301622578
0.048,1.7427424801287028,1.0,2732.783946558379,0.4172655435861594,1.3078572686115326,0.9728100502936742,0.28624818416540554,0.6977803002648172
0.0485,1.7416350112219503,1.0,2734.5685046666736,0.42053422338929886,1.3073409127993334,0.9731822155761302,0.2862016704713219,0.6987932503816089
0.049,1.7405275423151978,1.0,2736.6088235888474,0.42378456764660105,1.3068222404731253,0.973543936201305,0.2861551567772383,0.69980903300718
0.0495,1.7394200734084453,1.0,2738.8813944650706,0.4270166798226621,1.3063014675428855,0.9738956143890385,0.2861086430831547,0.700827203383529
0.05,1.7383126045016928,1.0,2741.366578772409,0.4302306615353312,1.3057787747420693,0.9742376310245352,0.2860621293890711,0.7018473881289504
0.0505,1.73720513559494,1.0,2744.0426393907687,0.4334266167200356,1.305254361738228,0.9745703509315274,0.28601561569498746,0.7028691793360557
0.051000000000000004,1.7360976666881875,1.0,2746.8930542729313,0.43660464661789833,1.3047283807497674,0.9748941188408023,0.28596910200090386,0.7038922639209975
0.051500000000000004,1.734990197781435,1.0,2749.9050824689416,0.4397648504247026,1.3042009495964069,0.9752092614351581,0.28592258830682027,0.7049163975275649
0.052000000000000005,1.7338827288746825,1.0,2753.06596929633,0.44290732733623156,1.3036721860978653,0.9755160907656827,0.2858760746127367,0.7059413373422943
0.0525,1.73277525996793,1.0,2756.362942705754,0.4460321765482683,1.3031422080738617,0.9758149050377061,0.2858295609186531,0.706966842104922
0.053,1.7316677910611775,1.0,2759.783209954444,0.4491394972565961,1.3026111333441157,0.9761059893480142,0.2857830472245695,0.7079926721179522
0.0535,1.730560322154425,1.0,2763.3148967480297,0.45222938765459253,1.3020790712170214,0.9763896157495288,0.28573653353048584,0.7090186056526203
0.054,1.7294528532476725,1.0,2766.9530036447386,0.45530193944329306,1.301546068719284,0.976666040109399,0.28569001983640224,0.7100445422192121
0.0545,1.72834538434092,1.0,2770.6757639508924,0.458357263631568,1.3010123240798903,0.9769355183998298,0.28564350614231865,0.7110700916837471
0.055,1.7272379154341673,1.0,2774.477551486672,0.4613954540286943,1.3004778895176705,0.9771982853332216,0.285596992448235,0.7120951463998935
0.0555,1.7261304465274148,1.0,2778.352727525671,0.4644166044439492,1.2999428172514536,0.9774545657832642,0.2855504787541514,0.7131195994236643
0.056,1.7250229776206623,1.0,2782.2956400258577,0.4674208086866098,1.2994071595000696,0.9777045752800825,0.2855039650600678,0.7141433445156247
0.0565,1.7239155087139097,1.0,2786.3006229216858,0.4704081605659531,1.2988709684823476,0.9779485204765527,0.2854574513659842,0.7151662761429323
0.057,1.7228080398071572,1.0,2790.361995476534,0.47337875389125617,1.2983342964171174,0.9781865995876908,0.2854109376719006,0.7161882894811975
0.0575,1.7217005709004047,1.0,2794.474061695433,0.4763326824717962,1.2977971955232086,0.9784190028048735,0.285364423977817,0.717209280416173
0.058,1.7205931019936522,1.0,2798.631109798354,0.47927004011685026,1.2972597180194505,0.9786459126865252,0.2853179102837334,0.7182291455452703
0.0585,1.7194856330868995,1.0,2802.82741175415,0.4821909206356954,1.2967219161246728,0.9788675045267853,0.2852713965896498,0.7192477821788987
0.059000000000000004,1.718378164180147,1.0,2807.05722287436,0.48509541783760873,1.296183842057705,0.979083946703559,0.2852248828955662,0.7202650883416342
0.059500000000000004,1.7172706952733945,1.0,2811.3187436562202,0.48798361491452924,1.2956455125505169,0.979295398193589,0.28517836920148254,0.7212810296834891
0.06,1.716163226366642,1.0,2815.606160012447,0.4908556111709706,1.2951069802171633,0.9795020150752504,0.28513185550739895,0.7222955045507232
0.0605,1.7150557574598895,1.0,2819.913111914498,0.4937115070044524,1.2945683023966474,0.9797039477512451,0.28508534181331535,0.7233084031350678
0.061,1.713948288553137,1.0,2824.2377706007555,0.49655138952487016,1.2940294957637224,0.9799013376676826,0.28503882811923176,0.7243196926687856
0.0615,1.7128408196463845,1.0,2828.5783017130884,0.49937534584211946,1.2934905769931415,0.9800943209266842,0.28499231442514816,0.7253293406129875
0.062,1.7117333507396317,1.0,2832.9328652522804,0.502183463066096,1.2929515627596575,0.9802830285293961,0.2849458007310645,0.726337314657763
0.0625,1.7106258818328792,1.0,2837.299615539955,0.5049758283066951,1.2924124697380237,0.9804675866061873,0.2848992870369809,0.7273435827222876
0.063,1.7095184129261267,1.0,2841.676701185695,0.5077525286738126,1.291873314602993,0.9806481166348004,0.2848527733428973,0.7283481129549179
0.0635,1.7084109440193742,1.0,2846.0622650617347,0.5105136512773439,1.2913341140293184,0.9808247356471671,0.28480625964881373,0.7293508737332657
0.064,1.7073034751126217,1.0,2850.454444282406,0.5132592832271848,1.2907948846917532,0.9809975564255605,0.2847597459547301,0.7303518336642538
0.0645,1.7061960062058692,1.0,2854.851370191129,0.5159895116332307,1.2902556432650503,0.9811666876887079,0.2847132322606465,0.7313509615841578
0.065,1.7050885372991167,1.0,2859.251168352253,0.5187044236053773,1.2897164064239628,0.9813322342684451,0.2846667185665629,0.7323482265586263
0.0655,1.703981068392364,1.0,2863.651958549976,0.52140410625352,1.2891771908432437,0.981494297277462,0.2846202048724793,0.7333435978826857
0.066,1.7028735994856115,1.0,2868.0518547930174,0.5240886466875545,1.288638013197646,0.9816529742686444,0.2845736911783957,0.7343370450807255
0.0665,1.701766130578859,1.0,2872.4500726417223,0.52675812100949,1.2880988803504818,0.9818083581694552,0.28452717748431205,0.7353285559336695
0.067,1.7006586616721064,1.0,2876.8469450043053,0.5294126023454135,1.2875597892514015,0.9819605380239397,0.28448066379022846,0.7363181364977347
0.0675,1.699551192765354,1.0,2881.2382653842815,0.5320522111943824,1.2870207770197446,0.9821096048495559,0.28443415009614487,0.7373057192569581
0.068,1.6984437238586014,1.0,2885.6236609696975,0.5346770268208876,1.286481846771048,0.9822556422381733,0.2843876364020613,0.7382912993324293
0.0685,1.697336254951849,1.0,2890.0027579208063,0.5372871284894205,1.2859430016208477,0.9823987309543535,0.2843411227079776,0.739274871887946
0.069,1.6962287860450962,1.0,2894.375181375667,0.5398825954644725,1.285404244684681,0.9825389490507732,0.28429460901389403,0.740256432129996
0.0695,1.6951213171383437,1.0,2898.740555456032,0.5424635070105345,1.2848655790780834,0.982676371978174,0.28424809531981043,0.741235975307743
0.07,1.6940138482315912,1.0,2903.098503273578,0.545029942392098,1.2843270079165923,0.9828110726901312,0.28420158162572684,0.7422134967130041
0.07050000000000001,1.6929063793248387,1.0,2907.448646936427,0.5475819808736543,1.2837885343157436,0.9829431217429232,0.28415506793164325,0.7431889916802361
0.07100000000000001,1.6917989104180862,1.0,2911.7906075555743,0.5501197017196944,1.2832501613910738,0.9830725873907572,0.2841085542375596,0.7441624555865134
0.07150000000000001,1.6906914415113337,1.0,2916.124005252072,0.5526431841947097,1.28271189225812,0.9831995356766017,0.284062040543476,0.7451338838515088
0.07200000000000001,1.6895839726045812,1.0,2920.4484591638216,0.5551525075631915,1.282173730032418,0.983324030518852,0.2840155268493924,0.7461032719374746
