Time [s],Phi [rad],STIM [ ],Fsee [N],Gamma [ ],Lcerel [ ],q [ ],Lmtc [m],fisomrel [ ]
0.0,1.8,1.0,17.967452218082165,1.1341295962697043e-05,1.3793397132763656,0.0050000342468059485,0.288653,0.5411396107506529
0.0005,1.79999375,1.0,18.277208766889228,0.0056204869890562476,1.3793023361795027,0.012944238052848583,0.2886527375,0.5412300311504195
0.001,1.799975,1.0,21.619811518414654,0.011198169809727295,1.3789381560666838,0.03561556606405499,0.28865195,0.5421105672091251
0.0015,1.79994375,1.0,31.072694124847423,0.016744566240675378,1.3780459091171744,0.07061127286886511,0.2886506375,0.54426431951457
0.002,1.7999,1.0,53.589818905559696,0.022259851772947592,1.3763676496143997,0.11472916820205643,0.2886488,0.5483016336853714
0.0025,1.79984375,1.0,97.13139210446204,0.027744200913509598,1.3739345671281957,0.16458700237160812,0.28864643749999996,0.5541228938349774
0.003,1.7997750000000001,1.0,160.97450213976742,0.03319778719295249,1.3712137323252518,0.21729294679886713,0.28864354999999997,0.5605878983837893
0.0035,1.79969375,1.0,237.70185640786852,0.038620783165092286,1.3685841636294294,0.2706253139549909,0.2886401375,0.56679118087243
0.004,1.7996,1.0,321.48653990945667,0.044013360417750155,1.3661555688102878,0.3229278330055036,0.2886362,0.5724811844043833
0.0045000000000000005,1.7994937500000001,1.0,409.288284279719,0.04937568957793749,1.3639223321733365,0.3730459288211518,0.2886317375,0.5776802810762748
0.005,1.799375,1.0,499.4344940753665,0.05470794030294731,1.3618578963177062,0.4202581468156284,0.28862675,0.5824581086496309
0.0055,1.79924375,1.0,590.811634491409,0.06001028132777873,1.3599384205060843,0.4641835925721722,0.2886212375,0.5868760632767387
0.006,1.7991000000000001,1.0,682.5393826037192,0.0652828804084013,1.3581460280407067,0.5046890557425454,0.2886152,0.5909803016539072
0.006500000000000001,1.79894375,1.0,773.8814911451118,0.0705259040656516,1.3564672496349643,0.5418093020692739,0.2886086375,0.5948058033727168
0.007,1.798775,1.0,864.3105137430247,0.07573951917362026,1.3548899959740546,0.5756843224356432,0.28860155,0.5983835802217332
0.0075,1.79859375,1.0,953.277555424326,0.08092388985460293,1.3534062510110025,0.6065166819433958,0.2885939375,0.6017347632217739
0.008,1.7984,1.0,1040.377311454902,0.08607917994230803,1.3520083687165345,0.6345383368239798,0.2885858,0.604879172045677
0.0085,1.79819375,1.0,1125.336232424047,0.09120555306546337,1.3506889299913947,0.6599901120639633,0.2885771375,0.6078356963695495
0.009000000000000001,1.797975,1.0,1207.893035644777,0.09630317098861078,1.3494421326777863,0.6831095694166682,0.28856795,0.6106192471607155
0.0095,1.79774375,1.0,1287.8860977842153,0.1013721956672135,1.3482622046278474,0.704122361559824,0.2885582375,0.6132443776395132
0.01,1.7975,1.0,1365.1884749245548,0.10641278765261745,1.3471441099027028,0.7232384939539944,0.288548,0.6157237466832277
0.0105,1.79724375,1.0,1439.6877898584617,0.11142510550806965,1.3460835923097914,0.7406505038124267,0.2885372375,0.6180680712179533
0.011,1.796975,1.0,1511.3351475656975,0.11640930779681713,1.3450763956565515,0.7565327212874835,0.28852595000000003,0.6202878863542193
0.0115,1.79669375,1.0,1580.1247097206744,0.12136555271882178,1.3441184388892635,0.7710419433438458,0.2885141375,0.6223931760727558
0.012,1.7964,1.0,1646.0709002892092,0.126293997420783,1.3432060023835382,0.7843185912010343,0.28850180000000003,0.6243929844640013
0.0125,1.79609375,1.0,1709.1856737340106,0.13119479731689854,1.3423359004108217,0.7964880890164989,0.2884889375,0.6262950615111988
0.013000000000000001,1.7957750000000001,1.0,1769.5036418014197,0.13606810738150663,1.3415051056334382,0.8076620961348008,0.28847555,0.6281067054409892
0.0135,1.79544375,1.0,1827.0873339271448,0.14091408210550108,1.3407106416778878,0.8179398688063553,0.2884616375,0.629835008442098
0.014,1.7951000000000001,1.0,1882.0015170616346,0.1457328751320846,1.3399498285800624,0.8274096943590799,0.2884472,0.631486333062456
0.0145,1.79474375,1.0,1934.3015598004204,0.1505246382425787,1.3392203593779903,0.8361501421993972,0.2884322375,0.6330661600238109
0.015,1.794375,1.0,1984.061485103663,0.15528952301133675,1.3385199534345662,0.8442310581106375,0.28841675,0.6345798505314386
0.0155,1.79399375,1.0,2031.3658859890556,0.1600276802534445,1.337846420762528,0.8517146056052581,0.2884007375,0.636032512684786
0.016,1.7936,1.0,2076.3161481553043,0.1647392615396625,1.3371975745500755,0.8586561458066962,0.2883842,0.6374291955278899
0.0165,1.7931937500000001,1.0,2118.976164325018,0.16942441451077062,1.336571775283896,0.8651052032086481,0.2883671375,0.6387737247520622
0.017,1.792775,1.0,2159.4219490829273,0.1740832868075488,1.335967383450676,0.871105991351963,0.28834955,0.6400698892133496
0.0175,1.7923437500000001,1.0,2197.7406257024345,0.1787160260707769,1.3353827595371035,0.876698040641327,0.2883314375,0.6413214432566244
0.018000000000000002,1.7919,1.0,2234.0177572808425,0.18332277871582106,1.334816381735295,0.8819167798094892,0.2883128,0.6425318575308842
0.0185,1.79144375,1.0,2268.3504827983884,0.18790369236119595,1.3342667015791116,0.8867939778143157,0.2882936375,0.6437046307889704
0.019,1.790975,1.0,2300.814794097501,0.19245891151246974,1.333732461127385,0.8913582440640623,0.28827395,0.6448426160390893
0.0195,1.79049375,1.0,2331.479584188878,0.19698857910276335,1.3332125379188529,0.8956353506211246,0.2882537375,0.6459483564211641
0.02,1.79,1.0,2360.419510951257,0.20149283806519774,1.332705809492252,0.8996485221014202,0.288233,0.647024376052632
0.0205,1.78949375,1.0,2387.7145143006383,0.20597183133289385,1.3322111533863192,0.9034187217615102,0.2882117375,0.6480731810131743
0.021,1.788975,1.0,2413.4367497434864,0.2104257000182246,1.3317275690492352,0.9069649280409654,0.28818995000000003,0.6490970023363678
0.021500000000000002,1.78844375,1.0,2437.6727155670183,0.21485458772337812,1.3312539578668077,0.9103043071421223,0.2881676375,0.6500982633851251
0.022,1.7879,1.0,2460.4863006322184,0.219258633956854,1.3307894757640524,0.9134524785101975,0.2881448,0.6510788352160186
0.0225,1.78734375,1.0,2481.934732389514,0.22363797667910976,1.3303333721662909,0.9164236474008339,0.28812143749999997,0.6520403802080573
0.023,1.786775,1.0,2502.0779581952906,0.2279927538506029,1.3298848964988454,0.9192307361553204,0.28809755,0.652984550580185
0.0235,1.78619375,1.0,2520.97841818453,0.23232310343179094,1.3294432981870374,0.9218855178161124,0.28807313749999996,0.6539129887743838
0.024,1.7856,1.0,2538.698631787782,0.23662916295358374,1.329007847380326,0.9243987377871112,0.2880482,0.6548272843181255
0.0245,1.78499375,1.0,2555.292195979374,0.24091106787223796,1.3285779172816146,0.9267802316630609,0.2880227375,0.6557288018969276
0.025,1.784375,1.0,2570.834306835635,0.24516895750882378,1.328152694993005,0.9290389686340292,0.28799675,0.6566192881659052
0.025500000000000002,1.78374375,1.0,2585.367781132468,0.24940296452460523,1.327731686860512,0.9311832178689845,0.2879702375,0.6574998132256482
0.026000000000000002,1.7831000000000001,1.0,2598.936699423919,0.2536132215808463,1.3273143992301506,0.9332205658303984,0.2879432,0.6583714415070332
0.0265,1.78244375,1.0,2611.586300832505,0.25779986133881105,1.326900338447936,0.9351579818533601,0.2879156375,0.6592352318961252
0.027,1.781775,1.0,2623.3628832435397,0.26196301645976344,1.3264890108598828,0.9370018766261853,0.28788755,0.6600922378435439
0.0275,1.7810937500000001,1.0,2634.313708901762,0.2661028196049676,1.3260799228120057,0.9387581544169875,0.2878589375,0.6609435074582795
0.028,1.7804,1.0,2644.4485847750075,0.27021939972686704,1.3256729346185372,0.9404323105215241,0.2878298,0.6617893483958865
0.0285,1.77969375,1.0,2653.8873927640784,0.2743128921795413,1.325266896682925,0.9420292745149739,0.2878001375,0.6626321617418984
0.029,1.778975,1.0,2662.650950483603,0.27838342496608626,1.3248615822605578,0.9435537318291382,0.28776995,0.6634724246529554
0.029500000000000002,1.7782437500000001,1.0,2670.7488968115076,0.28243112522070446,1.3244568713592024,0.9450100319448983,0.2877392375,0.6643103910325191
0.03,1.777500231096323,1.0,2678.202586419112,0.2864561200775986,1.3240526439866265,0.9464022034056513,0.2877080097060456,0.6651463135372344
0.0305,1.776752634720269,1.0,2685.426042073837,0.29045853667097116,1.3236487801505967,0.9477339815675351,0.2876766106582513,0.6659804435810929
0.031,1.7760050383442147,1.0,2692.632613739862,0.29443850213502476,1.3232451598588808,0.9490088336241956,0.28764521161045703,0.6668130313386691
0.0315,1.7752574419681606,1.0,2699.835695929796,0.298396143236843,1.3228416597161425,0.9502299806622343,0.2876138125626627,0.6676443327542297
0.032,1.7745098455921064,1.0,2707.026522097521,0.3023315836800947,1.3224383592564808,0.9514004425411656,0.28758241351486846,0.6684741852040454
0.0325,1.7737622492160523,1.0,2714.1780885392086,0.3062449526538141,1.3220355038294616,0.9525230519347114,0.2875510144670742,0.6693020863306915
0.033,1.773014652839998,1.0,2721.2858069481135,0.3101363718453601,1.3216331334461602,0.9536004217912771,0.2875196154192799,0.6701279574923613
0.0335,1.7722670564639438,1.0,2728.345067525413,0.31400596294209165,1.3212312881176516,0.9546349893417678,0.28748821637148564,0.670951720453681
0.034,1.7715194600878896,1.0,2735.3512394276213,0.3178538476313678,1.320830007855011,0.9556290300149378,0.2874568173236913,0.6717732973844183
0.0345,1.7707718637118355,1.0,2742.299671250833,0.3216801476005476,1.3204293326693137,0.9565846700950711,0.28742541827589707,0.672592610858094
0.035,1.7700242673357813,1.0,2749.1856915491567,0.3254849845369899,1.3200293025716348,0.9575038982488382,0.2873940192281028,0.6734095838504881
0.035500000000000004,1.7692766709597272,1.0,2756.00633431775,0.3292684760129736,1.3196299419696806,0.9583885733944322,0.28736262018030856,0.6742241715448297
0.036000000000000004,1.768529074583673,1.0,2762.7589622699415,0.3330307420912736,1.319231272206828,0.9592404374469078,0.28733122113251425,0.6750363356033485
0.0365,1.7677814782076189,1.0,2769.4378169722354,0.3367719122631456,1.3188333427149839,0.9600611287354708,0.28729982208472,0.6758459807818548
0.037,1.7670338818315647,1.0,2776.0428656337663,0.3404921016114966,1.31843615111338,0.9608521762110218,0.28726842303692574,0.6766531175513286
0.0375,1.7662862854555106,1.0,2782.5740803506783,0.3441914252192334,1.318039695021249,0.9616150159015746,0.2872370239891314,0.6774577563481854
0.038,1.7655386890794564,1.0,2789.031438067705,0.3478699981692627,1.317643972057823,0.9623509975937707,0.28720562494133717,0.6782599075743908
0.0385,1.7647910927034023,1.0,2795.414920538645,0.3515279355444913,1.3172489798423346,0.9630613909635592,0.2871742258935429,0.6790595815975702
0.039,1.7640434963273481,1.0,2801.7245142883894,0.3551653524278261,1.3168547159940156,0.9637473912069529,0.2871428268457486,0.6798567887511215
0.0395,1.763295899951294,1.0,2807.9602105740455,0.3587823639021739,1.3164611781320987,0.9644101242166002,0.28711142779795434,0.6806515393343242
0.04,1.7625483035752398,1.0,2814.1220053466545,0.3623790850504415,1.316068363875816,0.965050651345285,0.2870800287501601,0.6814438436124516
0.0405,1.7618007071991857,1.0,2820.2098992128986,0.3659556309555356,1.3156762708443996,0.965669973793363,0.2870486297023658,0.682233711816879
0.041,1.7610531108231315,1.0,2826.2238973971357,0.3695121167003632,1.3152848966570823,0.9662690366534855,0.2870172306545715,0.6830211541451945
0.0415,1.7603055144470774,1.0,2832.165573810468,0.373048623727476,1.3148942249760123,0.9668487256978856,0.28698583160677726,0.6838062087906778
0.042,1.7595579180710232,1.0,2838.0350951662017,0.3765653093724374,1.3145042521055044,0.9674098921490986,0.28695443255898295,0.6845888884169559
0.0425,1.758810321694969,1.0,2843.8336324189677,0.3800622833075081,1.3141149654513828,0.9679533322638838,0.2869230335111887,0.6853692234677187
0.043000000000000003,1.758062725318915,1.0,2849.562466684552,0.38353965165093334,1.3137263515190094,0.9684797990123467,0.28689163446339444,0.6861472460541165
0.043500000000000004,1.7573151289428608,1.0,2855.2228882318605,0.38699752052095826,1.3133383968137464,0.9689900054895849,0.28686023541560013,0.6869229881447423
0.044,1.7565675325668066,1.0,2860.816196284065,0.390435996035828,1.3129510878409552,0.9694846274265365,0.2868288363678059,0.6876964815662079
0.0445,1.7558199361907525,1.0,2866.343698822679,0.3938551843137878,1.312564411105998,0.9699643055187008,0.2867974373200116,0.6884677580037012
0.045,1.7550723398146983,1.0,2871.806712397011,0.39725519147308275,1.3121783531142364,0.9704296475876208,0.28676603827221736,0.6892368490015407
0.0455,1.7543247434386442,1.0,2877.20656193652,0.40063612363195805,1.3117929003710322,0.9708812305886548,0.28673463922442305,0.6900037859637104
0.046,1.75357714706259,1.0,2882.5445805682093,0.4039980869086589,1.3114080393817478,0.9713196024773635,0.2867032401766288,0.6907686001543872
0.0465,1.752829550686536,1.0,2887.8221094370215,0.40734118742143044,1.3110237566517444,0.9717452839457371,0.2866718411288345,0.6915313226984581
0.047,1.7520819543104817,1.0,2893.040497531343,0.4106655312885178,1.3106400386863841,0.9721587700384998,0.2866404420810402,0.692291984582021
0.0475,1.7513343579344276,1.0,2898.2011015115063,0.41397122462816616,1.310256871991029,0.9725605316588398,0.28660904303324597,0.6930506166528769
0.048,1.7505867615583734,1.0,2903.3052855432015,0.4172583735586207,1.3098742430710406,0.972951016972095,0.2865776439854517,0.6938072496210128
0.0485,1.7498391651823193,1.0,2908.3544211342887,0.4205270841981266,1.309492138431781,0.97333065271521,0.2865462449376574,0.6945619140590666
0.049,1.7490915688062652,1.0,2913.3498869762893,0.42377746266492905,1.3091105445786118,0.9736998454190987,0.28651484588986315,0.6953146404027872
0.0495,1.748343972430211,1.0,2918.2915573980335,0.427009582318165,1.3087294613030651,0.9740589795843458,0.28648344684206883,0.6960654327918343
0.05,1.7475963760541569,1.0,2923.1813678896506,0.430223553178843,1.3083488703087403,0.9744084250147085,0.2864520477942746,0.6968143309289658
0.0505,1.7468487796781027,1.0,2928.022803846874,0.43341952238510384,1.3079687397728392,0.9747485377914676,0.2864206487464803,0.69756140090156
0.051000000000000004,1.7461011833020486,1.0,2932.8168297033835,0.43659758522424885,1.3075890600967643,0.9750796533022171,0.28638924969868607,0.6983066648877203
0.051500000000000004,1.7453535869259942,1.0,2937.5644148441106,0.4397578369835792,1.307209821681919,0.9754020918318496,0.28635785065089175,0.6990501449686337
0.052000000000000005,1.7446059905499403,1.0,2942.2665335108873,0.4429003729503962,1.3068310149297062,0.9757161593751189,0.2863264516030975,0.699791863128847
0.0525,1.7438583941738859,1.0,2946.9241647088447,0.44602528841200106,1.3064526302415287,0.9760221483986377,0.2862950525553032,0.7005318412565336
0.053,1.743110797797832,1.0,2951.538292116254,0.4491326786556951,1.3060746580187896,0.9763203385558706,0.28626365350750893,0.7012701011437531
0.0535,1.7423632014217776,1.0,2956.1099039952455,0.4522226389687796,1.3056970886628918,0.9766109973584014,0.2862322544597147,0.7020066644867093
0.054,1.7416156050457234,1.0,2960.639993105155,0.4552952646385558,1.3053199125752382,0.9768943808065014,0.28620085541192036,0.7027415528859979
0.0545,1.7408680086696693,1.0,2965.129556618185,0.45835065095232486,1.304943120157232,0.9771707339817912,0.2861694563641261,0.7034747878468496
0.055,1.7401204122936151,1.0,2969.579596036047,0.4613888931973882,1.3045667018102758,0.9774402916045754,0.28613805731633185,0.7042063907793704
0.0555,1.739372815917561,1.0,2973.9911171099166,0.4644100866610469,1.3041906479357728,0.977703278558234,0.28610665826853754,0.7049363829987716
0.056,1.7386252195415068,1.0,2978.3651297617057,0.46741432663060234,1.3038149489351258,0.9779599103828753,0.2860752592207433,0.705664785725596
0.0565,1.7378776231654527,1.0,2982.7026480072504,0.4704017083933557,1.303439595209738,0.9782103937402927,0.286043860172949,0.7063916200859387
0.057,1.7371300267893985,1.0,2987.0046898821115,0.4733723272366084,1.3030645771610123,0.9784549268521123,0.2860124611251547,0.7071169071116608
0.0575,1.7363824304133444,1.0,2991.2722773691553,0.47632627844766146,1.3026898851903514,0.978693699912884,0.28598106207736046,0.7078406677405991
0.058,1.7356348340372902,1.0,2995.5064363277233,0.47926365731381626,1.3023155096991585,0.9789268954797417,0.2859496630295662,0.7085629228167665
0.0585,1.734887237661236,1.0,2999.708196425708,0.4821845591223741,1.3019414410888366,0.9791546888401345,0.2859182639817719,0.7092836930905505
0.059000000000000004,1.734139641285182,1.0,3003.878591073081,0.4850890791606362,1.3015676697607885,0.979377248359033,0.28588686493397764,0.710002999218903
0.059500000000000004,1.7333920449091278,1.0,3008.018657357439,0.48797731271590383,1.3011941861164174,0.9795947358069053,0.2858554658861834,0.710720861765526
0.06,1.7326444485330736,1.0,3012.1282358286367,0.49084932226546335,1.3008209909416684,0.9798073045860467,0.2858240668383891,0.711437281278293
0.0605,1.7318968521570195,1.0,3016.2083456623427,0.4937052097749031,1.3004480748337455,0.9800151048375455,0.2857926677905948,0.7121522778338523
0.061,1.7311492557809653,1.0,3020.260929751338,0.4965451010189665,1.300075420438003,0.9802182823872839,0.28576126874280056,0.7128658866357008
0.0615,1.7304016594049112,1.0,3024.2864993140442,0.49936908069242475,1.2997030228133568,0.9804169749669748,0.28572986969500624,0.7135781189940578
0.062,1.729654063028857,1.0,3028.285567537064,0.5021772334900492,1.2993308770187229,0.9806113151464211,0.285698470647212,0.7142889861709254
0.0625,1.728906466652803,1.0,3032.2586495470828,0.5049696441066109,1.2989589781130173,0.9808014305658623,0.28566707159941773,0.7149984993801672
0.063,1.7281588702767487,1.0,3036.2062623835513,0.5077463972368814,1.2985873211551562,0.9809874441561871,0.2856356725516235,0.715706669787588
0.0635,1.7274112739006946,1.0,3040.1289249720458,0.5105075775756318,1.298215901204055,0.9811694743477261,0.28560427350382916,0.7164135085110117
0.064,1.7266636775246405,1.0,3044.0271580981384,0.5132532698176334,1.29784471331863,0.9813476352683022,0.2855728744560349,0.7171190266203544
0.0645,1.7259160811485863,1.0,3047.9014843811838,0.5159835586576577,1.297473752557797,0.981522036931161,0.2855414754082406,0.7178232351376994
0.065,1.7251684847725322,1.0,3051.7524282497893,0.5186985287904755,1.2971030139804722,0.9816927854133715,0.28551007636044634,0.7185261450373703
0.0655,1.724420888396478,1.0,3055.5805159168585,0.5213982649108585,1.2967324926455712,0.9818599830252449,0.2854786773126521,0.7192277672460013
0.066,1.7236732920204239,1.0,3059.386275355485,0.5240828517135777,1.2963621836120103,0.9820237284712868,0.28544727826485783,0.7199281126426056
0.0665,1.7229256956443697,1.0,3063.170236275601,0.5267523738934046,1.2959920819387052,0.9821841170031581,0.2854158792170635,0.7206271920586442
0.067,1.7221780992683156,1.0,3066.932930101054,0.5294069161451102,1.2956221826845717,0.9823412405651023,0.28538448016926926,0.7213250162780922
0.0675,1.7214305028922614,1.0,3070.6748899466784,0.532046563163466,1.2952524809085262,0.9824951879322563,0.28535308112147495,0.7220215960375012
0.068,1.7206829065162073,1.0,3074.3966505971903,0.5346713996432432,1.2948829716694843,0.9826460448422407,0.2853216820736807,0.7227169420260655
0.0685,1.719935310140153,1.0,3078.098748485023,0.537281510279213,1.294513650026362,0.9827938941204036,0.28529028302588644,0.7234110648856809
0.069,1.719187713764099,1.0,3081.7817216699577,0.5398769797661467,1.2941445110380754,0.9829388157990611,0.2852588839780922,0.7241039752110063
0.0695,1.7184401173880448,1.0,3085.446109818668,0.5424578927988156,1.2937755497635404,0.9830808872310658,0.28522748493029787,0.7247956835495205
0.07,1.7176925210119907,1.0,3089.092454185365,0.545024334071991,1.2934067612616726,0.9832201831980089,0.2851960858825036,0.7254862004015812
0.07050000000000001,1.7169449246359365,1.0,3092.720536234029,0.5475763505115451,1.293038147092772,0.9833567740513584,0.2851646868347093,0.7261755240702643
0.07100000000000001,1.7161973282598824,1.0,3096.3310012304514,0.5501140418666892,1.2926697014433242,0.9834907306593131,0.28513328778691505,0.7268636666360826
