Time [s],Phi [rad],STIM [ ],Fsee [N],Gamma [ ],Lcerel [ ],q [ ],Lmtc [m],fisomrel [ ]
0.0,1.8,1.0,17.967376685439273,2.0393079324075323e-05,1.3793397217384875,0.005000110217221564,0.288653,0.5411395902785934
0.0005,1.79999375,1.0,18.280193617712182,0.005629487999074666,1.3793020046384268,0.012969392799579003,0.2886527375,0.5412308331545628
0.001,1.799975,1.0,21.629550376908146,0.011207120331195877,1.3789371615305148,0.03566275533812744,0.28865195,0.5421129706989685
0.0015,1.79994375,1.0,31.096761777515955,0.016753466556799573,1.3780438591467936,0.0706758583271526,0.2886506375,0.544269261994258
0.002,1.7999,1.0,53.6424899620465,0.022268702165327784,1.3763642336637323,0.1148056529240216,0.2886488,0.5483098329678302
0.0025,1.79984375,1.0,97.22050487325839,0.027753001662192037,1.3739302742562582,0.16467020963334628,0.28864643749999996,0.5541331313604576
0.003,1.7997750000000001,1.0,161.09079155934967,0.033206538576392275,1.3712093805082721,0.21737878804850536,0.28864354999999997,0.5605982009651302
0.0035,1.79969375,1.0,237.83343773483776,0.03862948546018473,1.3685801112951437,0.27071069380898644,0.2886401375,0.5668007064976388
0.004,1.7996,1.0,321.62664130765336,0.04402201389984461,1.3661518585776409,0.3230105051391904,0.2886362,0.5724898484060564
0.0045000000000000005,1.7994937500000001,1.0,409.43343669283354,0.04938429452085612,1.3639189252804333,0.37312440718812573,0.2886317375,0.57768818821025
0.005,1.799375,1.0,499.582650119865,0.05471649697902244,1.361854748313666,0.4203315697908877,0.28862675,0.5824653734784866
0.0055,1.79924375,1.0,590.9611688360841,0.06001879000752663,1.359935499204912,0.464251570866666,0.2886212375,0.5868827691712717
0.006,1.7991000000000001,1.0,682.6891514872241,0.06529134136112734,1.358143305832804,0.5047515271030641,0.2886152,0.5909865194105568
0.006500000000000001,1.79894375,1.0,774.053467737784,0.07053431786876713,1.3564643140452155,0.541866172613272,0.2886086375,0.5948124770799552
0.007,1.798775,1.0,864.4587121384818,0.07574788543112342,1.3548876022319085,0.5757363653180961,0.28860155,0.5983889980296131
0.0075,1.79859375,1.0,953.4143816862503,0.08093220898951144,1.3534041465951079,0.6065640980710666,0.2885939375,0.6017395062799219
0.008,1.7984,1.0,1040.5281843365437,0.08608745260244648,1.352006147517976,0.6345812721528097,0.2885858,0.6048841585126048
0.0085,1.79819375,1.0,1125.4863404582238,0.09121377937145261,1.3506868051051624,0.6600290920121173,0.2885771375,0.6078404487408606
0.009000000000000001,1.797975,1.0,1208.046057719937,0.09631135147495727,1.3494400418730625,0.6831449407485761,0.28856795,0.6106239066828836
0.0095,1.79774375,1.0,1288.032651384902,0.10138033028990445,1.3482602653823619,0.7041545454197946,0.2885582375,0.6132486848080577
0.01,1.7975,1.0,1365.3137543052221,0.1064208760966843,1.347142499773577,0.7232679064378146,0.288548,0.6157273113869646
0.0105,1.79724375,1.0,1439.8058558701764,0.11143314843421641,1.34608211466786,0.7406773375366832,0.2885372375,0.6180713326116778
0.011,1.796975,1.0,1511.4586745330503,0.11641730589001592,1.3450748867585183,0.7565571670053252,0.28852595000000003,0.6202912070427162
0.0115,1.79669375,1.0,1580.2526925568047,0.1213735061643186,1.3441169099697199,0.7710642520872254,0.2885141375,0.6223965314824353
0.012,1.7964,1.0,1646.1915532379073,0.12630190607059472,1.3432045901936684,0.7843390416452235,0.28850180000000003,0.624396075478304
0.0125,1.79609375,1.0,1709.294991758803,0.13120266132690112,1.3423346447348374,0.7965068885877541,0.2884889375,0.6262978029791857
0.013000000000000001,1.7957750000000001,1.0,1769.6192909496222,0.13607592776034103,1.3415038000729735,0.8076793312543931,0.28847555,0.6281095489021638
0.0135,1.79544375,1.0,1827.1997946738186,0.14092185879044838,1.340709392276441,0.8179557358841751,0.2884616375,0.6298377232608999
0.014,1.7951000000000001,1.0,1882.097345864355,0.1457406077317681,1.3399487795983247,0.8274243812774933,0.2884472,0.6314886073010513
0.0145,1.79474375,1.0,1934.388506221912,0.15053232727835372,1.3392194205800698,0.836163733336629,0.2884322375,0.6330681910118677
0.015,1.794375,1.0,1984.1562921735533,0.15529716952401462,1.3385189426808397,0.8442435978512803,0.28841675,0.6345820326729794
0.0155,1.79399375,1.0,2031.4661531716902,0.16003528454986377,1.3378453643178645,0.8517262013579437,0.2884007375,0.6360347889315352
0.016,1.7936,1.0,2076.3978303489575,0.16474682231628937,1.337196723287073,0.8586669622198169,0.2883842,0.6374310261621848
0.0165,1.7931937500000001,1.0,2119.045685776013,0.16943193218831673,1.336571058085007,0.8651152910245488,0.2883671375,0.6387752642204684
0.017,1.792775,1.0,2159.485422308978,0.174090762418293,1.3359667348072766,0.8711153983226881,0.28834955,0.6400712790272229
0.0175,1.7923437500000001,1.0,2197.800977999561,0.17872346014211557,1.3353821481870098,0.8767068185368821,0.2883314375,0.6413227508847786
0.018000000000000002,1.7919,1.0,2234.0667118470355,0.18333017060103474,1.3348158898827815,0.8819250046435889,0.2883128,0.6425329077869933
0.0185,1.79144375,1.0,2268.398520213141,0.18791104333448402,1.3342662226076625,0.8868016701752748,0.2882936375,0.6437056518609842
0.019,1.790975,1.0,2300.861122524321,0.19246622154191217,1.3337320024662787,0.8913654500931314,0.28827395,0.6448435922507901
0.0195,1.79049375,1.0,2331.5235887413805,0.1969958482101562,1.3332121051389059,0.8956421114855201,0.2882537375,0.6459492761125598
0.02,1.79,1.0,2360.4607601034672,0.20150006632605308,1.3327054063058192,0.8996548745547972,0.288233,0.6470252315525502
0.0205,1.78949375,1.0,2387.7527653819243,0.20597901887643977,1.3322107816472943,0.9034246986369574,0.2882117375,0.6480739686138193
0.021,1.788975,1.0,2413.47450383958,0.21043284736542378,1.3317272041005563,0.906970553493405,0.28818995000000003,0.6490977744248336
0.021500000000000002,1.78844375,1.0,2437.7075399203804,0.2148616946856882,1.3312536229158762,0.9103096127862352,0.2881676375,0.6500989709984263
0.022,1.7879,1.0,2460.5193558488754,0.21926570097920503,1.3307891593065095,0.9134574863039748,0.2881448,0.6510795028229996
0.0225,1.78734375,1.0,2481.9665982347174,0.22364500411774524,1.330333068416318,0.9164283783890483,0.28812143749999997,0.6520410201232787
0.023,1.786775,1.0,2502.1086216456056,0.22799974197307965,1.3298846053891633,0.919235210554365,0.28809755,0.6529851630332781
0.0235,1.78619375,1.0,2521.0072632584356,0.23233005241697915,1.3294430253689071,0.9218897550882428,0.28807313749999996,0.6539135619763445
0.024,1.7856,1.0,2538.7265848499437,0.2366360733093761,1.3290075839231703,0.9244027532202475,0.2880482,0.6548278371206571
0.0245,1.78499375,1.0,2555.3201472276196,0.24091793905564557,1.3285776546983077,0.9267840387189915,0.2880227375,0.6557293521459173
0.025,1.784375,1.0,2570.8616156437492,0.2451757899857434,1.3281524392216364,0.9290425827083543,0.28799675,0.6566198234467163
0.025500000000000002,1.78374375,1.0,2585.394024621879,0.2494097586826396,1.3277314417586055,0.9311866526826974,0.2879702375,0.6575003255192149
0.026000000000000002,1.7831000000000001,1.0,2598.9616755349634,0.25361997772930395,1.3273141665746633,0.9332238335987922,0.2879432,0.6583719271668801
0.0265,1.78244375,1.0,2611.6100309212175,0.2578065797087063,1.3269001179352586,0.9351610934362394,0.2879156375,0.6592356916260014
0.027,1.781775,1.0,2623.385614249794,0.2619696972038167,1.3264888001058404,0.9370048416616099,0.28788755,0.6600926766755377
0.0275,1.7810937500000001,1.0,2634.335915134246,0.2661094627976049,1.3260797173518566,0.9387609814404895,0.2878589375,0.6609439347312924
0.028,1.7804,1.0,2644.499208096294,0.2702260050097577,1.3256724671327944,0.9404349684174023,0.2878298,0.6617903193610937
0.0285,1.77969375,1.0,2653.9290563187255,0.27431945978614486,1.3252665126214478,0.9420318229594861,0.2878001375,0.6626329584409488
0.029,1.778975,1.0,2662.6610514782224,0.2783899559199512,1.3248614893010136,0.9435562070756593,0.28776995,0.6634726172484933
0.029500000000000002,1.7782437500000001,1.0,2670.7265418759653,0.28243762020842395,1.3244570767803636,0.9450124400020484,0.2877392375,0.6643099659666494
0.03,1.7775,1.0,2678.157355996853,0.28646257944881065,1.3240529546683693,0.9464045228713023,0.287708,0.6651456714626908
0.0305,1.77674375,1.0,2684.9857592077715,0.29046496043835873,1.3236488025739022,0.9477361661783565,0.2876762375,0.6659803972974467
0.031,1.775975,1.0,2691.244412732134,0.29444488997431556,1.3232443001058336,0.9490108145502505,0.28764395,0.6668148037279649
0.0315,1.7751937500000001,1.0,2696.966334899848,0.29840249485392867,1.322839126873035,0.9502316691138576,0.2876111375,0.6676495477036236
0.032,1.7744,1.0,2702.1830306541497,0.3023379014397352,1.3224329792389695,0.9514017096346411,0.2875778,0.6684852484026857
0.0325,1.77359375,1.0,2706.9235066546794,0.30625123426057643,1.3220255789256905,0.9525237132444225,0.2875439375,0.6693224697626718
0.033,1.772775,1.0,2711.2130089445145,0.3101426166412385,1.3216166841486463,0.953600272302737,0.28750955,0.6701616979503504
0.0335,1.7719437500000002,1.0,2715.072330106314,0.3140121711230915,1.3212060955618923,0.9546338098943364,0.2874746375,0.6710033296361113
0.034,1.7711003150096325,1.0,2718.5380519580654,0.3178600202475058,1.3207936138194836,0.9556265885530308,0.28743921323040456,0.671847759351518
0.0345,1.7702531212955788,1.0,2722.044785190065,0.3216862844648793,1.3203790814201095,0.9565807268553183,0.2874036310944143,0.6726952939681341
0.035,1.769405927581525,1.0,2725.749251335758,0.32549108851734204,1.3199627709943431,0.9574982538671367,0.28736804895842405,0.673545360898028
0.035500000000000004,1.7685587338674713,1.0,2729.632363937394,0.3292745515208854,1.3195448596496788,0.9583810569807538,0.2873324668224338,0.674397585049321
0.036000000000000004,1.7677115401534176,1.0,2733.6767642065765,0.33303679196544483,1.3191255084649294,0.9592309023568057,0.28729688468644354,0.6752516257876285
0.0365,1.7668643464393639,1.0,2737.8650557347987,0.3367779283409559,1.3187048785189084,0.9600494457950269,0.2872613025504533,0.6761071441589537
0.037,1.7660171527253101,1.0,2742.179799638794,0.34049807913735414,1.3182831308904286,0.9608382408803955,0.28722572041446304,0.6769638029036553
0.0375,1.7651699590112564,1.0,2746.6035102812225,0.34419736284457497,1.3178604266583034,0.961598746441316,0.2871901382784728,0.6778212664687543
0.038,1.7643227652972027,1.0,2751.121507790008,0.3478758966254394,1.3174369010415707,0.962332330624632,0.28715455614248253,0.6786792533709313
0.0385,1.763475571583149,1.0,2755.720576002717,0.35153379761497144,1.3170126756196279,0.9630402788415445,0.2871189740064922,0.6795375111495044
0.039,1.7626283778690952,1.0,2760.390680958256,0.3551711806551018,1.3165878428366704,0.963723797740377,0.287083391870502,0.6803958474745653
0.0395,1.7617811841550415,1.0,2765.122013179825,0.35878816042094436,1.3161624928215119,0.9643840236195014,0.2870478097345117,0.6812540756788503
0.04,1.7609339904409878,1.0,2769.90473102739,0.3623848515876132,1.315736715702966,0.9650220275154372,0.28701222759852146,0.6821120100672973
0.0405,1.760086796726934,1.0,2774.736459617455,0.36596135909740507,1.3153105339968485,0.9656388119344637,0.2869766454625312,0.6829696018833618
0.041,1.7592396030128803,1.0,2779.597898006645,0.36951781148133234,1.3148841226092625,0.9662353405886389,0.28694106332654096,0.6838264965835299
0.0415,1.7583924092988266,1.0,2784.4830549255435,0.3730543205431623,1.3144575360604926,0.9668125103665252,0.2869054811905507,0.6846825829552423
0.042,1.7575452155847728,1.0,2789.3880258837676,0.37657099533277266,1.31403080991857,0.9673711669117171,0.28686989905456045,0.6855377883350987
0.0425,1.756698021870719,1.0,2794.308892627445,0.38006794490004114,1.3136039797515258,0.9679121100236422,0.2868343169185702,0.6863920404464433
0.043000000000000003,1.7558508281566654,1.0,2799.2417230430246,0.38354527829484547,1.3131770811273902,0.968436096610731,0.28679873478257994,0.6872452673996431
0.043500000000000004,1.7550036344426116,1.0,2804.1825710894623,0.3870031045670633,1.312750149614195,0.9689438434246866,0.2867631526465897,0.6880973976922791
0.044,1.754156440728558,1.0,2809.127476758131,0.3904415327665723,1.3123232207799704,0.9694360295941247,0.28672757051059944,0.6889483602092661
0.0445,1.7533092470145042,1.0,2814.072466060907,0.39386067194325025,1.311896330192748,0.9699132989741515,0.2866919883746092,0.6897980842228837
0.045,1.7524620533004505,1.0,2819.013551046407,0.3972606311469748,1.3114695134205583,0.9703762623269404,0.28665640623861893,0.6906464993927317
0.0455,1.7516148595863967,1.0,2823.9467298440413,0.4006415194276236,1.3110428060314323,0.9708254993470037,0.2866208241026287,0.691493535765602
0.046,1.750767665872343,1.0,2828.8697144248495,0.40400343863614196,1.3106162281676457,0.9712615584063983,0.28658524196663837,0.6923391543332433
0.0465,1.7499204721582893,1.0,2833.781482650033,0.40734649161037356,1.3101897886095377,0.9716849598960571,0.2865496598306482,0.6931833387830686
0.047,1.7490732784442355,1.0,2838.675833460794,0.41067080474372136,1.3097635422683898,0.9720962050103493,0.28651407769465786,0.6940259817644755
0.0475,1.7482260847301818,1.0,2843.5520974037104,0.41397647923379777,1.3093374946065068,0.972495763599324,0.28647849555866767,0.6948670740770706
0.048,1.747378891016128,1.0,2848.4096031779727,0.4172636162782152,1.308911651086194,0.9728840828433949,0.28644291342267736,0.6957066065790866
0.0485,1.7465316973020744,1.0,2853.2476776609146,0.42053231707458605,1.3084860171697563,0.9732615885579708,0.2864073312866871,0.6965445701873113
0.049,1.7456845035880206,1.0,2858.0656459323295,0.4237826828205227,1.3080605983194986,0.973628686411396,0.28637174915069685,0.697380955877017
0.0495,1.744837309873967,1.0,2862.8628313004215,0.42701481471363767,1.3076353999977262,0.9739857630627057,0.2863361670147066,0.6982157546818847
0.05,1.7439901161599132,1.0,2867.638555328217,0.4302288139515433,1.307210427666744,0.9743331872251625,0.28630058487871635,0.6990489576939294
0.0505,1.7431429224458594,1.0,2872.392137860566,0.43342478173185195,1.306785686788857,0.9746713106610381,0.2862650027427261,0.6998805560634227
0.051000000000000004,1.7422957287318057,1.0,2877.1228970518787,0.43660281925217603,1.3063611828263701,0.9750004691126672,0.28622942060673584,0.7007105409988119
0.051500000000000004,1.741448535017752,1.0,2881.8301493943845,0.43976302771012804,1.3059369212415886,0.9753209831743873,0.2861938384707456,0.7015389037666392
0.052000000000000005,1.7406013413036983,1.0,2886.513209747325,0.4429055083033203,1.3055129074968173,0.9756331591096057,0.28615825633475533,0.7023656356914578
0.0525,1.7397541475896445,1.0,2891.1713913664007,0.44603036222936526,1.3050891470543613,0.975937289616901,0.2861226741987651,0.7031907281557472
0.053,1.7389069538755908,1.0,2895.8040059343202,0.44913769068587533,1.3046656453765257,0.976233654548752,0.28608709206277483,0.7040141725998248
0.0535,1.738059760161537,1.0,2900.412060303066,0.45222755880067744,1.3042423929644456,0.9765225170266473,0.2860515099267845,0.7048359895512369
0.054,1.7372125664474833,1.0,2904.9943649914185,0.4553001065482447,1.3038193997045862,0.9768041375380413,0.2860159277907943,0.7056561618722734
0.0545,1.7363653727334296,1.0,2909.550798677625,0.45835543584016597,1.3033966660521106,0.9770787610535115,0.285980345654804,0.7064746907795412
0.055,1.7355181790193759,1.0,2914.081596611224,0.46139363884080886,1.3029741893279292,0.9773466210525055,0.2859447635188138,0.7072915835493754
0.0555,1.7346709853053222,1.0,2918.586995430764,0.4644148077145411,1.3025519668529524,0.9776079412411379,0.2859091813828235,0.7081068474279656
0.056,1.7338237915912684,1.0,2923.067233149576,0.4674190346257302,1.3021299959480903,0.9778629360421676,0.28587359924683325,0.7089204896313996
0.0565,1.7329765978772147,1.0,2927.5225491400356,0.4704064117387439,1.3017082739342536,0.9781118110565188,0.285838017110843,0.7097325173457061
0.057,1.732129404163161,1.0,2931.9531841190055,0.47337703121794983,1.3012867981323524,0.9783547634982243,0.28580243497485275,0.7105429377268978
0.0575,1.7312822104491072,1.0,2936.3593801331654,0.47633098522771555,1.3008655658632973,0.9785919826045196,0.2857668528388625,0.7113517579010138
0.058,1.7304350167350535,1.0,2940.7413805443994,0.4792683659324088,1.3004445744479982,0.9788236500227008,0.28573127070287224,0.7121589849641622
0.0585,1.7295878230209998,1.0,2945.0994300153056,0.4821892654963971,1.300023821207366,0.9790499401752342,0.285695688566882,0.7129646259825588
0.059000000000000004,1.728740629306946,1.0,2949.43377449521,0.4850937760840482,1.299603303462311,0.9792710206045084,0.28566010643089174,0.7137686879925715
0.059500000000000004,1.7278934355928923,1.0,2953.7446612058234,0.4879819898597297,1.299183018533743,0.979487052298511,0.2856245242949015,0.7145711780007591
0.06,1.7270462418788386,1.0,2958.032338627573,0.4908539989878091,1.298762963742573,0.9796981899986299,0.28558894215891123,0.7153721029839094
0.0605,1.7261990481647849,1.0,2962.2970564857524,0.49370989563265427,1.298343136409711,0.9799045824906911,0.285553360022921,0.7161714698890833
0.061,1.7253518544507311,1.0,2966.5390657368566,0.4965497719586327,1.2979235338560675,0.980106372880267,0.2855177778869307,0.7169692856336498
0.0615,1.7245046607366774,1.0,2970.758618555261,0.4993737201301121,1.2975041534025529,0.9803036988532224,0.28548219575094047,0.7177655571053262
0.062,1.7236574670226237,1.0,2974.955968319875,0.5021818323114601,1.2970849923700773,0.9804966929223933,0.28544661361495016,0.7185602911622164
0.0625,1.72281027330857,1.0,2979.130930639894,0.5049741391504589,1.2966660518987205,0.9806854782593634,0.28541103147895996,0.7193534874069696
0.063,1.7219630795945162,1.0,2983.284500845699,0.5077507874356088,1.296247322871188,0.980870181614472,0.28537544934296966,0.7201451648330808
0.0635,1.7211158858804625,1.0,2987.4172095938557,0.5105118877464232,1.2958288002354972,0.9810509225728474,0.2853398672069794,0.7209353346659002
0.064,1.7202686921664088,1.0,2991.529333888927,0.5132575219206751,1.2954104811584486,0.9812278143917833,0.28530428507098915,0.7217240038958351
0.0645,1.719421498452355,1.0,2995.6211519113067,0.5159877717961374,1.294992362806842,0.981400966252679,0.2852687029349989,0.7225111794822592
0.065,1.7185743047383013,1.0,2999.692943004215,0.5187027192105832,1.2945744423474776,0.9815704834374724,0.28523312079900864,0.7232968683535477
0.0655,1.7177271110242476,1.0,3003.744987661209,0.5214024460017854,1.2941567169471555,0.9817364674961998,0.2851975386630184,0.7240810774071142
0.066,1.7168799173101938,1.0,3007.7775675139483,0.5240870340075171,1.2937391837726755,0.9818990164061974,0.28516195652702814,0.7248638135094463
0.0665,1.7160327235961401,1.0,3011.79096531989,0.5267565650655511,1.293321839990838,0.9820582247234135,0.2851263743910379,0.7256450834961392
0.067,1.7151855298820864,1.0,3015.785464950476,0.5294111210136606,1.2929046827684427,0.9822141837262803,0.28509079225504763,0.7264248941719322
0.0675,1.7143383361680327,1.0,3019.7613513791543,0.5320507836896186,1.2924877092722897,0.9823669815525534,0.2850552101190574,0.7272032523107415
0.068,1.713491142453979,1.0,3023.7189106696783,0.5346756349311977,1.2920709166691795,0.9825167033295173,0.2850196279830671,0.7279801646556926
0.0685,1.7126439487399252,1.0,3027.658429965103,0.5372857565761714,1.2916543021259117,0.9826634312979191,0.2849840458470769,0.7287556379191563
0.069,1.7117967550258715,1.0,3031.58019747596,0.5398812304623124,1.2912378628092864,0.9828072449299708,0.2849484637110866,0.7295296787827783
0.0695,1.7109495613118177,1.0,3035.4845024694027,0.5424621384273937,1.2908215958861038,0.9829482210417512,0.2849128815750963,0.7303022938975119
0.07,1.710102367597764,1.0,3039.3716352585648,0.5450285623091883,1.2904054985231639,0.9830864339002983,0.2848772994391061,0.7310734898836502
0.07050000000000001,1.7092551738837103,1.0,3043.241887191092,0.5475805839454692,1.2899895678872668,0.9832219553256885,0.2848417173031158,0.7318432733308555
0.07100000000000001,1.7084079801696566,1.0,3047.095550639519,0.5501182851740094,1.2895738011452125,0.983354854788361,0.2848061351671256,0.7326116507981918
