Time [s],Phi [rad],STIM [ ],Fsee [N],Gamma [ ],Lcerel [ ],q [ ],Lmtc [m],fisomrel [ ]
0.0,1.8,1.0,18.56753358075624,0.0007892780539878098,1.3792730367924568,0.0051603507717115785,0.288653,0.5413009042162873
0.0005,1.79999375,1.0,19.112760182868506,0.006394060137115404,1.3792105610262666,0.015244744221158065,0.2886527375,0.541452010223674
0.001,1.799975,1.0,23.033329455495714,0.011967403824265326,1.3787960763400358,0.03978420630932396,0.28865195,0.5424538665478119
0.0015,1.79994375,1.0,33.78381811954238,0.017509485460364713,1.3778197730242379,0.07624185882559523,0.2886506375,0.5448093721680911
0.002,1.7999,1.0,58.85563404921215,0.02302048040044161,1.3760340571840732,0.12134889608330486,0.2886488,0.5491020020334347
0.0025,1.79984375,1.0,105.50479697202178,0.028500563015720803,1.3735394382986499,0.1717577029133799,0.28864643749999996,0.5550646939908455
0.003,1.7997750000000001,1.0,171.56410899090776,0.033949906701590905,1.3708236859503116,0.22467041605177315,0.28864354999999997,0.5615108225070942
0.0035,1.79969375,1.0,249.49916317676474,0.03936868387826985,1.368225189631526,0.2779488291603676,0.2886401375,0.5676345973240646
0.004,1.7996,1.0,333.94262845796345,0.04475706599947652,1.3658287998548344,0.3300088581455459,0.2886362,0.5732439068774602
0.0045000000000000005,1.7994937500000001,1.0,422.11818642017516,0.050115223539990754,1.363623496838295,0.37976070876621737,0.2886317375,0.5783735731731201
0.005,1.799375,1.0,512.4815428729966,0.055443326099362526,1.3615824408176251,0.42653553333588884,0.28862675,0.5830935538659714
0.0055,1.79924375,1.0,603.9316921699402,0.06074154215403003,1.3596834984806703,0.46999244379510946,0.2886212375,0.587461036099189
0.006,1.7991000000000001,1.0,695.6425713077994,0.06601003947610258,1.3579089829314497,0.5100254228210194,0.2886152,0.5915215559214773
0.006500000000000001,1.79894375,1.0,786.8958145657003,0.0712489846061555,1.356246012882473,0.5466872327110172,0.2886086375,0.5953086042899902
0.007,1.798775,1.0,877.1319440388194,0.07645854350128975,1.3546836541668206,0.5801291785551609,0.28860155,0.5988504638611966
0.0075,1.79859375,1.0,965.8595960826858,0.0816388808230947,1.3532133640870945,0.6105590882186545,0.2885939375,0.6021693859383854
0.008,1.7984,1.0,1052.6973134527789,0.08679016048816691,1.3518275169818839,0.63821116785818,0.2885858,0.6052850710917164
0.0085,1.79819375,1.0,1137.3524892805765,0.09191254574961291,1.3505192773194314,0.6633266497582186,0.2885771375,0.6082150389906362
0.009000000000000001,1.797975,1.0,1219.5772592190096,0.0970061983034528,1.3492828654099245,0.6861418211634167,0.28856795,0.6109741069229355
0.0095,1.79774375,1.0,1299.2006564408673,0.10207127928246312,1.348112809808898,0.7068804594852804,0.2885582375,0.6135761213231954
0.01,1.7975,1.0,1376.122085259087,0.10710794970966764,1.3470038647977303,0.7257500503765582,0.288548,0.6160341767073934
0.0105,1.79724375,1.0,1450.2414116801597,0.11211636824835709,1.345951748110875,0.7429406028934459,0.2885372375,0.6183590177902735
0.011,1.796975,1.0,1521.5097868392104,0.1170966932204886,1.3449523170507762,0.7586240261195075,0.28852595000000003,0.6205609023000662
0.0115,1.79669375,1.0,1589.915793789493,0.12204908231402993,1.3440016500700065,0.7729548350900034,0.2885141375,0.6226494411642628
0.012,1.7964,1.0,1655.482984153083,0.1269736931160333,1.343095993081216,0.7860712489722821,0.28850180000000003,0.6246337357513205
0.0125,1.79609375,1.0,1718.2214908570713,0.13187068064303542,1.3422322461078162,0.7980967340682098,0.2884889375,0.6265213320280585
0.013000000000000001,1.7957750000000001,1.0,1778.1685206652999,0.13674019954250055,1.3414074058828056,0.8091411591121026,0.28847555,0.6283194617613943
0.0135,1.79544375,1.0,1835.3830992064795,0.1415824039222749,1.3406185814498441,0.8193022030779452,0.2884616375,0.6300350190404844
0.014,1.7951000000000001,1.0,1889.9421793599101,0.14639744804685817,1.339862997192229,0.8286666839333524,0.2884472,0.6316745635826372
0.0145,1.79474375,1.0,1941.9091324528715,0.1511854839624476,1.3391382968283807,0.8373118862549971,0.2884322375,0.6332436722715087
0.015,1.794375,1.0,1991.3461692078606,0.1559466623519953,1.338442360451798,0.845306591200467,0.28841675,0.6347473490172678
0.0155,1.79399375,1.0,2038.3336621384194,0.16068113389845354,1.3377730681559794,0.852711992565046,0.2884007375,0.6361905434582147
0.016,1.7936,1.0,2082.9554182093934,0.16538904830952325,1.337128436964395,0.8595826354853751,0.2883842,0.6375778602995662
0.0165,1.7931937500000001,1.0,2125.311196468122,0.1700705561367623,1.336506469908617,0.8659671586604705,0.2883671375,0.6389138893802326
0.017,1.792775,1.0,2165.4765660884887,0.17472580483116168,1.3359055531728279,0.8719091054693755,0.28834955,0.6402023576137006
0.0175,1.7923437500000001,1.0,2203.5251830268585,0.17935494077332675,1.335324201865482,0.8774474500936998,0.2883314375,0.6414466825359613
0.018000000000000002,1.7919,1.0,2239.540192628851,0.18395811034386297,1.3347609310950348,0.8826170985463313,0.2883128,0.6426502519527595
0.0185,1.79144375,1.0,2273.6084915789274,0.18853545932128912,1.334214305094275,0.8874493755160959,0.2882936375,0.6438163210151495
0.019,1.790975,1.0,2305.817615993079,0.19308713328828808,1.3336829587903782,0.8919724438342246,0.28827395,0.6449479687911313
0.0195,1.79049375,1.0,2336.253312489051,0.1976132773538542,1.3331656126108635,0.8962116690683162,0.2882537375,0.6460480694312118
0.02,1.79,1.0,2364.9803371692756,0.20211403325903637,1.3326612513916678,0.9001899751676292,0.288233,0.6471189152504133
0.0205,1.78949375,1.0,2392.0683741460675,0.2065895427448834,1.3321688599687274,0.9039280578971964,0.2882117375,0.6481627821016454
0.021,1.788975,1.0,2417.5916276445655,0.2110399475524441,1.3316874231779787,0.9074446317657212,0.28818995000000003,0.649181930183522
0.021500000000000002,1.78844375,1.0,2441.6236231710914,0.21546538847561744,1.331215972118419,0.9107566560760324,0.2881676375,0.6501785070588353
0.022,1.7879,1.0,2464.2376850007613,0.21986600648699373,1.3307535750551394,0.9138795231980054,0.2881448,0.6511545682023097
0.0225,1.78734375,1.0,2485.5060871217615,0.22424194246264564,1.33029934161046,0.9168272260457273,0.28812143749999997,0.652112069297502
0.023,1.786775,1.0,2505.4834391865475,0.2285933331125833,1.3298525767691398,0.9196125324047226,0.28809755,0.6530525433633888
0.0235,1.78619375,1.0,2524.226706759929,0.23292031514681685,1.3294125855159369,0.9222470766631687,0.28807313749999996,0.653977514361306
0.024,1.7856,1.0,2541.795014596779,0.23722302527535635,1.3289786728356099,0.9247414760722725,0.2880482,0.6548884975105892
0.0245,1.78499375,1.0,2558.249460629915,0.241501600208212,1.3285501437129172,0.9271054336798538,0.2880227375,0.6557869995734102
0.025,1.784375,1.0,2573.642144693693,0.2457561741366621,1.328126404191541,0.9293478457199075,0.28799675,0.6566743076286016
0.025500000000000002,1.78374375,1.0,2588.035167095566,0.24998688499853783,1.3277067810833179,0.9314768534345685,0.2879702375,0.6575518674490127
0.026000000000000002,1.7831000000000001,1.0,2601.479784451013,0.25419386720278625,1.32729071582161,0.9334999448649,0.2879432,0.6584208779878128
0.0265,1.78244375,1.0,2614.0163504158722,0.25837725193119476,1.3268777623265722,0.9354240167593229,0.2879156375,0.6592822975011894
0.027,1.781775,1.0,2625.686207680355,0.26253717036555096,1.3264674745183578,0.9372554140258048,0.28788755,0.660137079341854
0.0275,1.7810937500000001,1.0,2636.531603566392,0.2666737536876422,1.3260594063171212,0.9389999812304818,0.2878589375,0.6609861720412198
0.028,1.7804,1.0,2646.595610036951,0.27078713307925595,1.3256531116430164,0.9406631086651877,0.2878298,0.6618305193788939
0.0285,1.77969375,1.0,2655.9220481177817,0.27487743972217965,1.325248144416197,0.9422497736155723,0.2878001375,0.6626710604394792
0.029,1.778975,1.0,2664.546321612462,0.27894480045294817,1.3248441422295005,0.9437645874482312,0.28776995,0.6635085563111609
0.029500000000000002,1.7782437500000001,1.0,2672.516844513574,0.28298934986464563,1.324440628278247,0.9452118051271703,0.2877392375,0.6643440010281133
0.03,1.7775,1.0,2679.864882380454,0.28701121481106373,1.3240372883283427,0.9465953880358611,0.287708,0.6651780477449443
0.0305,1.77674375,1.0,2686.618972149878,0.2910105206095568,1.3236338370071008,0.9479190135683702,0.2876762375,0.6660112868114201
0.031,1.775975,1.0,2692.8080183362185,0.2949873925774792,1.323229988941835,0.9491860960571646,0.28764395,0.6668443056398634
0.0315,1.7751937500000001,1.0,2698.461258921427,0.2989419560321851,1.3228254587598591,0.9503998088680973,0.2876111375,0.6676776887005309
0.032,1.7744,1.0,2703.6082330502422,0.3028743362910289,1.3224199610884864,0.9515631043820422,0.2875778,0.6685120175117951
0.0325,1.77359375,1.0,2708.2787505311267,0.3067846586713649,1.3220132105550304,0.9526787320880704,0.2875439375,0.6693478706251328
0.033,1.772775,1.0,2712.4947800233736,0.3106730435459433,1.3216049954891984,0.9537492621825516,0.28750955,0.6701856724374766
0.0335,1.7719437500000002,1.0,2716.28617785285,0.3145396175381021,1.3211950341042689,0.9547770864344377,0.2874746375,0.671025988733283
0.034,1.7711000000000001,1.0,2719.6862140611297,0.31838450934233564,1.3207830152812716,0.9557644357595193,0.2874392,0.6718694423056616
0.0345,1.7702437500000001,1.0,2722.7124558381092,0.3222078375499281,1.3203687724157065,0.9567134087129775,0.2874032375,0.6727163573369046
0.035,1.7693750000000001,1.0,2725.382591517091,0.3260097207521638,1.3199521389030726,0.9576259685159043,0.28736675,0.6735670561586382
0.035500000000000004,1.76849375,1.0,2727.7144182452816,0.32979027754032697,1.31953294813887,0.958503953348021,0.2873297375,0.674421859227303
0.036000000000000004,1.7676,1.0,2729.7258302697674,0.3335496265057018,1.319111033518598,0.9593490857445809,0.2872922,0.6752810850978705
0.0365,1.76669375,1.0,2731.434807838977,0.3372878862395726,1.3186862284377565,0.9601629811846597,0.2872541375,0.6761450503957847
0.037,1.765775,1.0,2732.859406719161,0.3410051753332237,1.3182583662918448,0.9609471559487155,0.28721555,0.6770140697871363
0.0375,1.76484375,1.0,2734.0177483270463,0.34470161237793934,1.3178272804763627,0.9617030343150371,0.2871764375,0.6778884559470648
0.038,1.7639,1.0,2734.9280104769496,0.34837731596500376,1.3173928043868095,0.962431955157407,0.28713679999999997,0.678768519526392
0.0385,1.76294375,1.0,2735.6062660813295,0.3520324029564819,1.3169547909637234,0.9631351794925838,0.28709663750000003,0.6796545296082348
0.039,1.761975,1.0,2736.0649713071925,0.3556669890745542,1.3165131263371426,0.963813897307358,0.28705595,0.6805466864039798
0.0395,1.7609937500000001,1.0,2736.3168824370036,0.3592811885727672,1.3160676942002336,0.9644692291446415,0.2870147375,0.6814451935042973
0.04,1.76,1.0,2736.3743368580012,0.3628751149147355,1.3156183822923373,0.9651022315921602,0.286973,0.6823502447677552
0.0405,1.7589937500000001,1.0,2736.2496941136596,0.36644888156407346,1.3151650783527942,0.9657139014088966,0.2869307375,0.6832620324836642
0.041,1.757975,1.0,2735.955331648968,0.37000260198439555,1.3147076701209448,0.9663051795369587,0.28688795,0.6841807473438986
0.0415,1.75694375,1.0,2735.518532065645,0.37353637432456643,1.3142459101292745,0.9668769406861183,0.2868446375,0.6851068493846426
0.042,1.7559000906147737,1.0,2734.9379869583445,0.3770503313389472,1.313779851491475,0.9674300427917071,0.2868008038058205,0.6860401938711351
0.0425,1.7548515957291686,1.0,2734.5620375072804,0.3805445871413461,1.3133097516289345,0.96796531083729,0.2867567670206251,0.6869802281065542
0.043000000000000003,1.7538031008435635,1.0,2734.605932629286,0.3840192486444661,1.3128358391906192,0.9684835218564124,0.28671273023542965,0.6879264595596335
0.043500000000000004,1.7527546059579584,1.0,2735.044501891842,0.38747442276101046,1.3123583428254948,0.9689854115113155,0.28666869345023427,0.6888783981738222
0.044,1.7517061110723533,1.0,2735.8526559707493,0.3909102164036821,1.3118774911825273,0.9694716767138044,0.28662465666503883,0.6898355564212137
0.0445,1.7506576161867482,1.0,2737.005369061662,0.39432673648518446,1.3113935129106824,0.9699429780553968,0.2865806198798434,0.6907974493531399
0.045,1.749609121301143,1.0,2738.477662449609,0.39772408991822045,1.3109066366589266,0.97039994206235,0.286536583094648,0.6917635946474305
0.0455,1.7485606264155378,1.0,2740.2445892382993,0.4011023836154932,1.3104170910762254,0.9708431632897594,0.2864925463094526,0.6927335126523418
0.046,1.7475121315299327,1.0,2742.2812202384375,0.40446172448970596,1.3099251048115448,0.9712732062676359,0.28644850952425716,0.693706726427146
0.0465,1.7464636366443276,1.0,2744.56263101517,0.4078022194535617,1.309430906513851,0.9716906073107396,0.2864044727390618,0.6946827617793891
0.047,1.7454151417587225,1.0,2747.0638900944664,0.41112397541976364,1.3089347248321095,0.9720958762028961,0.28636043595386634,0.6956611472988163
0.0475,1.7443666468731174,1.0,2749.760048328904,0.4144270993010149,1.3084367884152865,0.9724894977655929,0.2863163991686709,0.6966414143879585
0.048,1.7433181519875123,1.0,2752.6264558567204,0.4177116977497742,1.307937322957676,0.9728719330790407,0.28627236238347553,0.6976231030920278
0.0485,1.7422696571019072,1.0,2755.668989331331,0.42097785801934207,1.3074362776845994,0.9732435994984374,0.2862283255982801,0.6986062983527995
0.049,1.741221162216302,1.0,2758.8457871559895,0.424225709119974,1.3069340336871953,0.9736049293719933,0.28618428881308466,0.6995902390449862
0.0495,1.740172667330697,1.0,2762.148930153791,0.4274553500166314,1.306430664590897,0.9739563101976991,0.2861402520278893,0.7005747697652462
0.05,1.7391241724450919,1.0,2765.5704884526135,0.43066687967427586,1.3059262440211368,0.9742981114893113,0.28609621524269385,0.7015597360303568
0.0505,1.7380756775594866,1.0,2769.1025197088834,0.43386039705786905,1.305420845603348,0.9746306857743628,0.2860521784574984,0.7025449842823209
0.051000000000000004,1.7370271826738815,1.0,2772.737067451152,0.4370360011323724,1.3049145429629636,0.9749543695282376,0.28600814167230304,0.7035303618931347
0.051500000000000004,1.7359786877882764,1.0,2776.4661595436996,0.4401937908627475,1.3044074097254161,0.9752694840489402,0.2859641048871076,0.7045157171692049
0.052000000000000005,1.7349301929026713,1.0,2780.2818067710837,0.44333386521395596,1.3038995195161387,0.9755763362768111,0.2859200681019122,0.705500899355421
0.0525,1.7338816980170662,1.0,2784.1760015420427,0.4464563231509592,1.3033909459605642,0.975875219563103,0.2858760313167168,0.7064857586388842
0.053,1.732833203131461,1.0,2788.1407167138213,0.4495612636387189,1.3028817626841254,0.9761664143910265,0.28583199453152136,0.7074701461522869
0.0535,1.731784708245856,1.0,2792.1679045371056,0.4526487856421966,1.3023720433122552,0.9764501890525837,0.2857879577463259,0.7084539139769505
0.054,1.7307362133602509,1.0,2796.2494957207177,0.45571898812635386,1.3018618614703865,0.9767268002842593,0.28574392096113055,0.709436915145514
0.0545,1.7296877184746458,1.0,2800.3773986162623,0.45877197005615217,1.3013512907839522,0.9769964938643915,0.2856998841759351,0.710419003644279
0.055,1.7286392235890407,1.0,2804.546240157488,0.46180782455025354,1.3008403802936455,0.9772595031501906,0.2856558473907397,0.7114000815841033
0.0555,1.7275907287034356,1.0,2808.753709427342,0.46482664484555236,1.3003291514637243,0.9775160501187323,0.2856118106055443,0.712380104531503
0.056,1.7265422338178305,1.0,2812.9897268161003,0.4678285415313224,1.2998176952590967,0.9777663531972953,0.28556777382034887,0.7133588954385313
0.0565,1.7254937389322254,1.0,2817.251887247051,0.4708136062156078,1.2993060337112388,0.9780106160812988,0.28552373703515344,0.7143364100256595
0.057,1.72444524404662,1.0,2821.5377784914276,0.4737819305064525,1.2987941888516266,0.9782490341674753,0.28547970024995806,0.715312604300059
0.0575,1.723396749161015,1.0,2825.8449810732504,0.47673360601190057,1.2982821827117363,0.9784817949596878,0.2854356634647626,0.7162874345558747
0.058,1.7223482542754098,1.0,2830.1710681857967,0.4796687243399961,1.297770037323044,0.9787090784517591,0.2853916266795672,0.7172608573744673
0.0585,1.7212997593898047,1.0,2834.5136056177025,0.48258737709878297,1.2972577747170257,0.9789310574887947,0.2853475898943718,0.7182328296246236
0.059000000000000004,1.7202512645041996,1.0,2838.870151690257,0.4854896558963054,1.2967454169251575,0.979147898108362,0.2853035531091764,0.7192033084627374
0.059500000000000004,1.7192027696185945,1.0,2843.2382572059937,0.48837565234060726,1.2962329859789157,0.9793597598628025,0.28525951632398094,0.7201722513329578
0.06,1.7181542747329894,1.0,2847.615465407243,0.49124545803973263,1.2957205039097761,0.9795667961238608,0.28521547953878557,0.7211396159673089
0.0605,1.7171057798473843,1.0,2851.9993119457413,0.4940991646017256,1.2952079927492148,0.9797691543707262,0.28517144275359013,0.7221053603857766
0.061,1.7160572849617792,1.0,2856.3873248632467,0.4969368636346302,1.294695474528708,0.9799669764625157,0.2851274059683947,0.7230694428963635
0.0615,1.7150087900761741,1.0,2860.777024582605,0.4997586467464904,1.294182971279732,0.9801603988961485,0.2850833691831993,0.7240318220951162
0.062,1.713960295190569,1.0,2865.1683532798743,0.5025645892353868,1.2936704834808428,0.9803495506871794,0.2850393323980039,0.7249924972325512
0.0625,1.7129118003049637,1.0,2869.5588517664864,0.5053547921064679,1.29315803289729,0.9805345591057308,0.28499529561280845,0.725951427767192
0.063,1.7118633054193586,1.0,2873.945766816545,0.508129356171338,1.2926456438324634,0.9807155468245251,0.2849512588276131,0.7269085687049841
0.0635,1.7108148105337535,1.0,2878.3285329153136,0.5108883655400446,1.292133321151215,0.9808926298084184,0.28490722204241764,0.7278639115853351
0.064,1.7097663156481484,1.0,2882.7065829018707,0.5136319043226348,1.291621069718396,0.9810659198196221,0.2848631852572222,0.7288174480111556
0.0645,1.7087178207625433,1.0,2887.079347976229,0.5163600566291559,1.2911088943988591,0.9812355246011002,0.28481914847202683,0.7297691696488326
0.065,1.7076693258769382,1.0,2891.446257707148,0.519072906569655,1.2905968000574555,0.9814015480506726,0.2847751116868314,0.7307190682282119
0.0655,1.706620830991333,1.0,2895.806740041043,0.5217705382541796,1.2900847915590368,0.9815640903863655,0.28473107490163596,0.7316671355425708
0.066,1.705572336105728,1.0,2900.1602213104456,0.5244530357927769,1.2895728737684553,0.9817232483035064,0.2846870381164406,0.7326133634485914
0.0665,1.704523841220123,1.0,2904.5061262439253,0.527120483295494,1.2890610515505623,0.9818791151240311,0.28464300133124515,0.7335577438663368
0.067,1.7034753463345178,1.0,2908.8438779760713,0.5297729648723783,1.2885493297702098,0.9820317809384412,0.2845989645460497,0.7345002687792179
0.0675,1.7024268514489127,1.0,2913.172898057862,0.5324105646334771,1.2880377132922496,0.9821813327408269,0.28455492776085434,0.7354409302339663
0.068,1.7013783565633074,1.0,2917.4926064678916,0.5350333666888376,1.2875262069815334,0.9823278545573347,0.2845108909756589,0.7363797203406008
0.0685,1.7003298616777023,1.0,2921.8024216241292,0.537641455148507,1.2870148157029129,0.9824714275684444,0.28446685419046347,0.7373166312723947
0.069,1.6992813667920972,1.0,2926.1017603958608,0.5402349141225327,1.28650354432124,0.9826121302253973,0.2844228174052681,0.7382516552658395
0.0695,1.698232871906492,1.0,2930.3900381163567,0.5428138277209618,1.2859923977013663,0.982750038361086,0.28437878062007266,0.7391847846206108
0.07,1.697184377020887,1.0,2934.667427429277,0.5453782529808,1.2854813740561133,0.9828852233294317,0.2843347438348772,0.7401160238106936
0.07050000000000001,1.6961358821352819,1.0,2938.9339383833444,0.5479282704384029,1.2849704730286946,0.983017755653359,0.28429070704968185,0.7410453746868688
0.07100000000000001,1.6950873872496768,1.0,2943.1882412746795,0.5504640079576678,1.2844597059916656,0.9831477069179534,0.2842466702644864,0.7419728178161198
0.07150000000000001,1.6940388923640717,1.0,2947.4303237017475,0.5529855408323784,1.2839490727630893,0.9832751427176023,0.284202633479291,0.7428983548373145
0.07200000000000001,1.6929903974784666,1.0,2951.6601734421083,0.5554929443563181,1.2834385731610292,0.9834001265419051,0.2841585966940956,0.743821987386607
