Time [s],Phi [rad],STIM [ ],Fsee [N],Gamma [ ],Lcerel [ ],q [ ],Lmtc [m],fisomrel [ ]
0.0,1.8,1.0,18.25725606145761,0.0005492530738210147,1.379307375694373,0.005077888339213952,0.288653,0.5412178403821677
0.0005,1.79999375,1.0,18.735059476420908,0.006155381507281166,1.379251793097052,0.01450516364879956,0.2886527375,0.541352287731731
0.001,1.799975,1.0,22.476963223382867,0.011730063992671467,1.3788514644363339,0.03847380521423038,0.28865195,0.5423200506838177
0.0015,1.79994375,1.0,32.81136311669987,0.017273476917795356,1.3778998047284332,0.07448754570804873,0.2886506375,0.544616510160115
0.002,1.7999,1.0,57.07503901409316,0.022785795679120657,1.3761451231921817,0.11929656529440219,0.2886488,0.5488356068199567
0.0025,1.79984375,1.0,102.77728544935158,0.028267194689768668,1.3736663648044416,0.16954100242417441,0.28864643749999996,0.5547622698145216
0.003,1.7997750000000001,1.0,168.17417695895884,0.033717847388007816,1.3709472028909007,0.22239418974666544,0.28864354999999997,0.5612186628425286
0.0035,1.79969375,1.0,245.7570463194362,0.039137926234038604,1.368338119248711,0.2756923449875119,0.2886401375,0.5673693555750077
0.004,1.7996,1.0,330.0114628958378,0.044527602723232515,1.3659312603824552,0.32782929919336784,0.2886362,0.5730048235807009
0.0045000000000000005,1.7994937500000001,1.0,418.0878226341121,0.04988704738859523,1.3637168770773382,0.3776953414571871,0.2886317375,0.5781569940341469
0.005,1.799375,1.0,508.3871000324096,0.05521642978647167,1.3616685031535634,0.4246058130599986,0.28862675,0.5828950696003219
0.0055,1.79924375,1.0,599.8352128734927,0.060515918616664666,1.3597627928901663,0.4682072711957689,0.2886212375,0.5872791226143728
0.006,1.7991000000000001,1.0,691.5539683481112,0.06578568145825561,1.3579827069140207,0.5083859195519518,0.2886152,0.5913532574952499
0.006500000000000001,1.79894375,1.0,782.8537321132275,0.07102588510883326,1.356314528996099,0.5451886809125702,0.2886086375,0.5951529222777047
0.007,1.798775,1.0,873.1465714000258,0.07623669537631991,1.354747630303565,0.578763879671227,0.28860155,0.5987057359502715
0.0075,1.79859375,1.0,961.9408825308575,0.08141827698097116,1.3532733038577822,0.6093175701451536,0.2885939375,0.6020343519815277
0.008,1.7984,1.0,1048.8761818837897,0.08657079428793843,1.3518834956106114,0.6370830513473573,0.2885858,0.6051594563675282
0.0085,1.79819375,1.0,1133.62681334195,0.09169440989888279,1.350571782361521,0.6623018138125115,0.2885771375,0.6080976575633492
0.009000000000000001,1.797975,1.0,1215.955369948313,0.09678928588554983,1.3493321533523694,0.6852104172238956,0.28856795,0.6108643068692495
0.0095,1.79774375,1.0,1295.7030466255826,0.10185558395345007,1.3481589217294256,0.706033160832085,0.2885582375,0.6134737411358535
0.01,1.7975,1.0,1372.7354387995967,0.10689346408751774,1.3470472454627052,0.724978490103971,0.288548,0.6159381677830003
0.0105,1.79724375,1.0,1446.965170444279,0.1119030854805511,1.3459926260117225,0.742237072037943,0.2885372375,0.6182688225303326
0.011,1.796975,1.0,1518.3523118778185,0.11688460666673048,1.3449907775935113,0.7579815107853631,0.28852595000000003,0.6204762862736749
0.0115,1.79669375,1.0,1586.894508272206,0.12183818611292803,1.344037649742737,0.7723669952612895,0.2885141375,0.622570457778998
0.012,1.7964,1.0,1652.5779699767552,0.12676397968914194,1.3431299137121921,0.7855326092737072,0.28850180000000003,0.6245595099357895
0.0125,1.79609375,1.0,1715.42656437837,0.13166214311472124,1.3422642789084505,0.7976023408077557,0.2884889375,0.6264514138497399
0.013000000000000001,1.7957750000000001,1.0,1775.4821962045316,0.13653283131666988,1.3414376696859849,0.8086865795825046,0.28847555,0.6282535641562637
0.0135,1.79544375,1.0,1832.8226532324122,0.14137619975409002,1.3406469731353121,0.8188834159893231,0.2884616375,0.6299733408601721
0.014,1.7951000000000001,1.0,1887.4967396744717,0.14619240089161897,1.339889718679662,0.828280227035959,0.2884472,0.6316166426526157
0.0145,1.79474375,1.0,1939.561229048976,0.15098158644066645,1.3391636063819081,0.8369547022411956,0.2884322375,0.6331889289094965
0.015,1.794375,1.0,1989.0938122671234,0.15574390811264222,1.3384663363049245,0.8449759011785118,0.28841675,0.6346955969015362
0.0155,1.79399375,1.0,2036.1731037490126,0.160479516610392,1.3377957998016146,0.8524053265397123,0.2884007375,0.6361415740956236
0.016,1.7936,1.0,2080.903149148031,0.16518856314345984,1.3371497963473524,0.8592977255451157,0.2883842,0.6375319350221262
0.0165,1.7931937500000001,1.0,2123.3552002742854,0.16987119576821508,1.3365266231114943,0.8657020671591958,0.2883671375,0.638870637554765
0.017,1.792775,1.0,2163.6036311323933,0.17452756199786634,1.335924670504095,0.8716621022998329,0.28834955,0.6401614022535562
0.0175,1.7923437500000001,1.0,2201.7337072571595,0.17915780934562223,1.3353423289352087,0.8772169530934826,0.2883314375,0.6414079158938467
0.018000000000000002,1.7919,1.0,2237.8280160010117,0.18376208417886347,1.3347781156995828,0.8824016901110587,0.2883128,0.6426135626550917
0.0185,1.79144375,1.0,2271.9850581098176,0.18834053389356906,1.3342304762693147,0.8872477535158657,0.2882936375,0.6437818518264894
0.019,1.790975,1.0,2304.2777573901553,0.1928933024669098,1.3336981897852038,0.891783472231756,0.28827395,0.6449155552744837
0.0195,1.79049375,1.0,2334.777570334739,0.19742053308980836,1.3331801138960964,0.8960343563950111,0.2882537375,0.6460172567097713
0.02,1.79,1.0,2363.56172603797,0.20192236895318738,1.3326751062508384,0.9000233983293203,0.288233,0.647089520666433
0.0205,1.78949375,1.0,2390.699671156551,0.20639895253770502,1.3321821514057148,0.9037713833562491,0.2882117375,0.6481346246411694
0.021,1.788975,1.0,2416.2797058749866,0.2108504262786098,1.3317000956918537,0.9072970750507259,0.28818995000000003,0.6491551228253034
0.021500000000000002,1.7884440711966183,1.0,2440.4087219975595,0.21527693240010695,1.3312277944901978,0.910617469582061,0.288167650990258,0.6501535336644111
0.022,1.7879094049071633,1.0,2463.50490518502,0.21967860937301303,1.3307648329789767,0.9137481334192736,0.28814519500610086,0.6511308203583853
0.0225,1.7873747386177086,1.0,2485.7727657756254,0.22405559566814479,1.3303107963364194,0.9167032052710942,0.28812273902194374,0.652087939488522
0.023,1.7868400723282538,1.0,2507.243423808153,0.22840802975631877,1.3298652697407547,0.9194955467194063,0.2881002830377867,0.6530258412591172
0.0235,1.786305406038799,1.0,2527.949247791216,0.23273605010835163,1.3294278383702116,0.9221368751939769,0.28807782705362955,0.6539454697280923
0.024,1.785770739749344,1.0,2547.918752065874,0.23703979378111006,1.328998134689907,0.9246378893607538,0.28805537106947243,0.6548476638091897
0.0245,1.7852360734598893,1.0,2567.1779513635925,0.24131939770853078,1.32857582418725,0.9270083703149847,0.28803291508531537,0.6557331880091497
0.025,1.7847014071704346,1.0,2585.751580816221,0.24557499630370688,1.3281605928100826,0.929257269664441,0.28801045910115824,0.6566027593320637
0.025500000000000002,1.7841667408809798,1.0,2603.665094022669,0.2498067239077941,1.3277521275199642,0.9313927893794355,0.2879880031170011,0.6574570883486517
0.026000000000000002,1.783632074591525,1.0,2620.940893837335,0.2540147121458011,1.3273501507913839,0.933422459110857,0.28796554713284406,0.6582968073241653
0.0265,1.78309740830207,1.0,2637.6006206874504,0.2581990914563711,1.3269543984665424,0.9353531978702118,0.28794309114868694,0.6591225169750683
0.027,1.7825627420126153,1.0,2653.687362135549,0.2623600077206727,1.3265644144521855,0.9371913474487227,0.2879206351645298,0.6599352143287667
0.0275,1.7820280757231606,1.0,2669.2191660197996,0.26649758901084125,1.3261799804795253,0.9389427773188863,0.28789817918037275,0.6607353964744147
0.028,1.7814934094337058,1.0,2684.214567296065,0.2706119633990123,1.3258008782797743,0.9406129000984108,0.2878757231962156,0.6615235577555092
0.0285,1.7809587431442508,1.0,2698.692561707974,0.2747032589573212,1.325426889584145,0.9422067131079274,0.2878532672120585,0.6623001898456272
0.029,1.780424076854796,1.0,2712.6725805123638,0.27877160375790344,1.3250577961238497,0.9437288356485061,0.28783081122790144,0.6630657818211282
0.029500000000000002,1.7798894105653413,1.0,2726.1744662611313,0.2828171258728945,1.3246933796301006,0.9451835424863857,0.2878083552437443,0.6638208202308145
0.03,1.7793547442758866,1.0,2739.218449640474,0.2868399533744297,1.32433342183411,0.9465747939721406,0.28778589925958725,0.6645657891625549
0.0305,1.7788200779864316,1.0,2751.8251273645396,0.29084021433464463,1.3239777044670908,0.9479062631692309,0.28776344327543013,0.6653011703068697
0.031,1.7782854116969768,1.0,2764.0154411271355,0.29481803682567465,1.323626009260255,0.9491813603214253,0.287740987291273,0.6660274430174788
0.0315,1.777750745407522,1.0,2775.80813997955,0.29877354641648624,1.3232781406374186,0.9504032569868561,0.28771853130711594,0.666745037582951
0.032,1.7772160791180673,1.0,2787.216162243222,0.30270686436741756,1.3229339578568011,0.951574909207549,0.2876960753229588,0.6674542693333603
0.0325,1.7766814128286126,1.0,2798.2669131776315,0.3066181271447689,1.3225931922865564,0.9526990590669159,0.28767361933880176,0.6681557152116355
0.033,1.7761467465391576,1.0,2808.972450323725,0.310507455115256,1.3222557156656083,0.953778274405252,0.28765116335464463,0.6688496610996385
0.0335,1.7756120802497029,1.0,2819.3450142957663,0.3143749686455949,1.3219213997328816,0.9548149511233726,0.2876287073704875,0.669536391562571
0.034,1.775077413960248,1.0,2829.3970196105583,0.31822078810250126,1.3215901162273007,0.9558113267517242,0.28760625138633045,0.6702161898753547
0.0345,1.7745427476707933,1.0,2839.141045881461,0.32204503385269095,1.3212617368877901,0.9567694927960739,0.2875837954021733,0.6708893380479601
0.035,1.7740080813813384,1.0,2848.5898293778955,0.3258478262628799,1.3209361334532743,0.9576914059829779,0.2875613394180162,0.6715561168496879
0.035500000000000004,1.7734734150918836,1.0,2857.7562549485774,0.32962928569978384,1.3206131776626775,0.9585788985145998,0.28753888343385914,0.6722168058323992
0.036000000000000004,1.7729387488024289,1.0,2866.6533483098683,0.33338953253011866,1.3202927412549246,0.9594336874304757,0.287516427449702,0.6728716833526975
0.0365,1.772404082512974,1.0,2875.294268699298,0.3371286871206001,1.3199746959689396,0.9602573831632513,0.2874939714655449,0.6735210265930633
0.037,1.7718694162235193,1.0,2883.6908274842367,0.3408468674391409,1.319658926582247,0.9610514981332149,0.28747151548138783,0.6741650850009109
0.0375,1.7713347499340644,1.0,2891.8490315514896,0.34454418367020956,1.3193453701158022,0.9618174565419346,0.2874490594972307,0.674804000591841
0.038,1.7708000836446096,1.0,2899.78908905269,0.34822077040738647,1.319033839001709,0.9625565904773434,0.2874266035130736,0.6754381682775246
0.0385,1.7702654173551549,1.0,2907.5182004480716,0.35187674029392385,1.3187242615125239,0.9632701595614177,0.2874041475289165,0.6760677459288785
0.039,1.7697307510657,1.0,2915.0436355463994,0.3555122059730738,1.3184165659208045,0.9639593497518558,0.2873816915447594,0.6766928907755165
0.0395,1.7691960847762451,1.0,2922.3727304555514,0.3591272800880886,1.3181106804991074,0.9646252784469852,0.2873592355606023,0.6773137594145243
0.04,1.7686614184867904,1.0,2929.5128846464204,0.3627220752822204,1.31780653351999,0.9652689991843256,0.2873367795764452,0.6779305078189014
0.0405,1.7681267521973356,1.0,2936.4715581312266,0.36629670419872135,1.3175040532560094,0.9658915059691225,0.2873143235922881,0.6785432913456797
0.041,1.7675920859078809,1.0,2943.2562687561667,0.3698512794808437,1.3172031679797223,0.9664937372656071,0.28729186760813097,0.679152264743712
0.0415,1.767057419618426,1.0,2949.8745896076603,0.37338591377183955,1.316903805963686,0.9670765796805135,0.2872694116239739,0.6797575821611304
0.042,1.7665227533289711,1.0,2956.3341465327608,0.37690071971496114,1.3166058954804574,0.9676408713655428,0.2872469556398168,0.68035939715248
0.0425,1.7659880870395164,1.0,2962.6426157740143,0.3803958099534607,1.3163093648025939,0.9681874051628911,0.28722449965565966,0.6809578626855217
0.043000000000000003,1.7654534207500616,1.0,2968.807721718014,0.3838712971305903,1.3160141422026521,0.9687169315156825,0.2872020436715026,0.6815531311477103
0.043500000000000004,1.7649187544606069,1.0,2974.8301556758092,0.3873272743743403,1.315720217588981,0.9692301630484583,0.2871795876873455,0.6821452302473421
0.044,1.7643840881711519,1.0,2980.7233275661565,0.39076387525300454,1.3154274703803654,0.9697277726103349,0.28715713170318835,0.6827344098515424
0.0445,1.7638494218816971,1.0,2986.4927764051536,0.3941812090962614,1.315135848954072,0.9702103998409769,0.2871346757190313,0.6833207803061105
0.045,1.7633147555922424,1.0,2992.1424253292193,0.39757938035693907,1.314845315990508,0.9706786519832792,0.28711221973487416,0.6839044228279246
0.0455,1.7627800893027876,1.0,2997.6762217796254,0.40095849348786566,1.3145558341700798,0.9711331054980537,0.2870897637507171,0.684485418334073
0.046,1.7622454230133329,1.0,3003.098136616862,0.4043186529418693,1.3142673661731943,0.971574307921552,0.28706730776656,0.6850638474443986
0.0465,1.761710756723878,1.0,3008.4121632666374,0.40765996317177816,1.3139798746802585,0.9720027795936946,0.28704485178240285,0.685639790483958
0.047,1.7611760904344231,1.0,3013.622316896414,0.41098252863042034,1.313693322371679,0.972419015267157,0.2870223957982458,0.6862133274853888
0.0475,1.7606414241449684,1.0,3018.7326336225105,0.41428645377062406,1.3134076719278627,0.9728234856065792,0.28699993981408867,0.6867845381911901
0.048,1.7601067578555136,1.0,3023.7471697491596,0.41757184304521744,1.3131228860292161,0.9732166385863692,0.2869774838299316,0.6873535020559137
0.0485,1.7595720915660586,1.0,3028.670001036815,0.42083880090702863,1.3128389273561463,0.9735989007948379,0.2869550278457745,0.6879202982482648
0.049,1.759037425276604,1.0,3033.5052220028274,0.42408743180888575,1.3125557585890602,0.9739706786517563,0.28693257186161736,0.688485005653116
0.0495,1.7585027589871491,1.0,3038.2569452526195,0.42731784020361696,1.3122733424083641,0.9743323595458281,0.2869101158774603,0.689047702873433
0.05,1.7579680926976944,1.0,3042.929300840564,0.4305301305440505,1.3119916414944652,0.9746843128980224,0.28688765989330317,0.6896084682321081
0.0505,1.7574334264082396,1.0,3047.522188203058,0.43372438352137477,1.311710655065635,0.975026890866545,0.28686520390914605,0.6901673071382421
0.051000000000000004,1.7568987601187847,1.0,3052.0419958267607,0.4369007226157432,1.3114303265923524,0.9753604307830488,0.286842747924989,0.6907243357097601
0.051500000000000004,1.75636409382933,1.0,3056.4932920224333,0.4400592592578311,1.3111506153733543,0.9756852544049176,0.28682029194083186,0.6912796382422925
0.052000000000000005,1.7558294275398751,1.0,3060.878003756943,0.44320008909100433,1.3108715035205964,0.9760016688492916,0.28679783595667474,0.6918332535039662
0.0525,1.7552947612504204,1.0,3065.1980664076586,0.44632330775862866,1.3105929731460342,0.9763099676614783,0.2867753799725177,0.6923852201285297
0.053,1.7547600949609654,1.0,3069.45542352818,0.44942901090407006,1.3103150063616227,0.9766104315316603,0.28675292398836055,0.692935576616027
0.0535,1.7542254286715107,1.0,3073.6520266215102,0.45251729417069425,1.3100375852793174,0.9769033289678107,0.28673046800420343,0.6934843613334504
0.054,1.753690762382056,1.0,3077.7898349201196,0.45558825320186713,1.3097606920110738,0.977188916927846,0.28670801202004637,0.694031612515372
0.0545,1.7531560960926011,1.0,3081.870815172538,0.45864198364095454,1.3094843086688475,0.9774674414138056,0.28668555603588924,0.6945773682645585
0.055,1.7526214298031464,1.0,3085.8969414383373,0.4616785811313223,1.3092084173645933,0.9777391380306462,0.2866631000517321,0.6951216665525621
0.0555,1.7520867635136914,1.0,3089.8701948889507,0.46469814131633636,1.308933000210267,0.9780042325120322,0.28664064406757506,0.6956645452202908
0.056,1.7515520972242367,1.0,3093.7925636159357,0.4677007598393624,1.3086580393178242,0.9782629412153303,0.28661818808341794,0.6962060419785603
0.0565,1.751017430934782,1.0,3097.666042447134,0.47068653234376634,1.3083835167992197,0.9785154715878522,0.2865957320992608,0.6967461944086268
0.057,1.7504827646453271,1.0,3101.4926327685303,0.473655554472914,1.3081094147664094,0.9787620226062356,0.28657327611510375,0.6972850399626935
0.0575,1.7499480983558722,1.0,3105.274342354322,0.4766079218701713,1.3078357153313485,0.9790027851907183,0.2865508201309466,0.6978226159644036
0.058,1.7494134320664174,1.0,3109.0131852036666,0.479543730178904,1.3075624006059923,0.9792379425959283,0.2865283641467895,0.6983589596093085
0.0585,1.7488787657769627,1.0,3112.711181384588,0.482463075042478,1.3072894527022962,0.9794676707797029,0.28650590816263244,0.6988941079653165
0.059000000000000004,1.748344099487508,1.0,3116.365423087393,0.4853659910056315,1.3070168957027328,0.9796921359915729,0.2864834521784753,0.6994280157941878
0.059500000000000004,1.747809433198053,1.0,3119.982887447989,0.48825264793647083,1.3067446696016392,0.9799115045449575,0.2864609961943182,0.6999608025222617
0.06,1.7472747669085982,1.0,3123.5645506201254,0.4911231334923873,1.306472765529376,0.9801259323026584,0.28643854021016113,0.7004924872091076
0.0605,1.7467401006191434,1.0,3127.111257222758,0.4939775335481808,1.3062011757596121,0.9803355690576133,0.286416084226004,0.701023086618084
0.061,1.7462054343296887,1.0,3130.6238546075233,0.49681593397865126,1.3059298925660159,0.9805405588952042,0.2863936282418469,0.7015526174570982
0.0615,1.745670768040234,1.0,3134.103192805175,0.4996384206585986,1.3056589082222563,0.9807410404541926,0.2863711722576898,0.7020810963787574
0.062,1.745136101750779,1.0,3137.5501244735856,0.5024450794628226,1.305388215002002,0.9809371471738129,0.2863487162735327,0.7026085399805199
0.0625,1.7446014354613242,1.0,3140.965504847637,0.5052359962661233,1.3051178051789214,0.9811290075278635,0.2863262602893756,0.7031349648048398
0.063,1.7440667691718694,1.0,3144.3501916898,0.5080112569433004,1.3048476710266836,0.9813167452465672,0.2863038043052185,0.7036603873393077
0.0635,1.7435321028824147,1.0,3147.7050452421436,0.5107709473691538,1.3045778048189574,0.981500479526927,0.28628134832106145,0.7041848240167893
0.064,1.7429974365929597,1.0,3151.0309281798422,0.5135151534184836,1.304308198829411,0.9816803252322552,0.2862588923369043,0.7047082912155602
0.0645,1.742462770303505,1.0,3154.328705566116,0.5162439609660895,1.3040388453317133,0.9818563930815088,0.2862364363527472,0.705230805259434
0.065,1.7419281040140502,1.0,3157.5992448081724,0.5189574558867714,1.3037697365995333,0.9820287898290211,0.28621398036859014,0.7057523824178895
0.0655,1.7413934377245954,1.0,3160.843415614476,0.5216557240553292,1.3035008649065394,0.9821976184351813,0.286191524384433,0.7062730389061944
0.066,1.7408587714351405,1.0,3164.0620899536916,0.5243388513465629,1.3032322225264004,0.982362978228586,0.2861690684002759,0.7067927908855217
0.0665,1.7403241051456857,1.0,3167.256142014811,0.5270069236352722,1.3029638017327847,0.982524965060136,0.28614661241611883,0.7073116544630673
0.067,1.739789438856231,1.0,3170.426448168038,0.5296600267962572,1.3026955947993615,0.9826836714495454,0.2861241564319617,0.707829645692158
0.0675,1.7392547725667762,1.0,3173.573886928197,0.5322982467043176,1.3024275939997993,0.9828391867246747,0.2861017004478046,0.7083467805723613
0.068,1.7387201062773214,1.0,3176.699338918374,0.5349216692342533,1.3021597916077667,0.982991597154099,0.2860792444636475,0.7088630750495886
0.0685,1.7381854399878665,1.0,3179.8036868350155,0.5375303802608643,1.3018921798969325,0.9831409860732752,0.2860567884794904,0.7093785450161931
0.069,1.7376507736984117,1.0,3182.8875288779864,0.5401244568302025,1.301624753552856,0.983287433575774,0.2860343324953333,0.7098932016714887
0.0695,1.737116107408957,1.0,3185.9500023086416,0.542703940019016,1.301357519564709,0.9834310154671396,0.2860118765111762,0.7104070325312695
0.07,1.7365814411195022,1.0,3188.993653187029,0.5452689785087682,1.3010904562445829,0.9835718101909756,0.2859894205270191,0.7109200802245821
