Time [s],Phi [rad],STIM [ ],Fsee [N],Gamma [ ],Lcerel [ ],q [ ],Lmtc [m],fisomrel [ ]
0.0,1.8,1.0,18.22720746427545,0.000519882531962837,1.3793107166648055,0.0050698125431420105,0.288653,0.5412097583648967
0.0005,1.79999375,1.0,18.696430230562495,0.006126175710936559,1.3792560334314565,0.014416480429137332,0.2886527375,0.5413420315874934
0.001,1.799975,1.0,22.416506186746382,0.011701022017750277,1.3788575242287275,0.03831492654714007,0.28865195,0.5423054092323952
0.0015,1.79994375,1.0,32.70099321984786,0.017244597845401596,1.3779089625369074,0.07427390700447015,0.2886506375,0.5445944388848161
0.002,1.7999,1.0,56.8669106856108,0.022757078595480415,1.3761582177829403,0.11904602326193696,0.2886488,0.5488041938595728
0.0025,1.79984375,1.0,102.44563582891367,0.02823863868717501,1.373681912609603,0.1692701186033124,0.28864643749999996,0.5547252174375927
0.003,1.7997750000000001,1.0,167.76657719386114,0.0336894515612602,1.370962137884281,0.22211565692956337,0.28864354999999997,0.5611833298989917
0.0035,1.79969375,1.0,245.30820256737528,0.039109689684700924,1.3683517220390597,0.2754159925809454,0.2886401375,0.5673374007361585
0.004,1.7996,1.0,329.5392907166854,0.044499524557977684,1.365943607872586,0.32756222431063114,0.2886362,0.5729760071976884
0.0045000000000000005,1.7994937500000001,1.0,417.5919355745703,0.049859126685287136,1.3637283974155412,0.37744231755253016,0.2886317375,0.5781302707701599
0.005,1.799375,1.0,507.9021608350888,0.05518866577064993,1.3616787191565054,0.42436909182614924,0.28862675,0.582871505450605
0.0055,1.79924375,1.0,599.3355911518076,0.06048831028588038,1.3597724824304762,0.46798841090246374,0.2886212375,0.5872568905797599
0.006,1.7991000000000001,1.0,691.0597237362791,0.06575822800101151,1.3579916336748594,0.5081848373423753,0.2886152,0.5913328769732311
0.006500000000000001,1.79894375,1.0,782.3614592605908,0.07099858564236086,1.3563228854349685,0.545004906799509,0.2886086375,0.5951339327656197
0.007,1.798775,1.0,872.6592207174177,0.07620954901274152,1.354755463625828,0.5785964561576977,0.28860155,0.5986880134809431
0.0075,1.79859375,1.0,961.4737286683408,0.08139128305802165,1.3532804574777986,0.6091652079651206,0.2885939375,0.6020182345799661
0.008,1.7984,1.0,1048.405349293636,0.08654395144628141,1.3518904002424839,0.6369447363877875,0.2885858,0.6051439611517364
0.0085,1.79819375,1.0,1133.1697928269782,0.09166771770119474,1.3505782289774444,0.662176145653186,0.2885771375,0.6080832441550975
0.009000000000000001,1.797975,1.0,1215.5219820970415,0.09676274378691081,1.3493380559611057,0.6850961262336507,0.28856795,0.610851156432766
0.0095,1.79774375,1.0,1295.2744448423516,0.10182919051498018,1.3481645766242376,0.7059292637061203,0.2885582375,0.6134611848981677
0.01,1.7975,1.0,1372.3091862665424,0.1068672182519106,1.34705270926084,0.7248839558651944,0.288548,0.6159260746004811
0.0105,1.79724375,1.0,1446.5631388693391,0.11187698722992018,1.3459976453755012,0.7421508126252089,0.2885372375,0.6182577467940337
0.011,1.796975,1.0,1517.9744590611983,0.11685865534010832,1.3449953828177974,0.7579026811496822,0.28852595000000003,0.620466153808678
0.0115,1.79669375,1.0,1586.5178083160688,0.12181237985605005,1.344042140656285,0.7722949582660674,0.2885141375,0.622560604121942
0.012,1.7964,1.0,1652.205247371124,0.12673831762223703,1.3431342679948906,0.7854666561758156,0.28850180000000003,0.6245499812742686
0.0125,1.79609375,1.0,1715.078896197482,0.13163662536801693,1.3422682653762843,0.797541755158541,0.2884889375,0.6264427121055786
0.013000000000000001,1.7957750000000001,1.0,1775.1702710838376,0.1365074576648487,1.3414411852794212,0.8086307760931319,0.28847555,0.6282459087850254
0.0135,1.79544375,1.0,1832.5184137964113,0.14135096803111533,1.3406503480335885,0.8188320387680244,0.2884616375,0.6299660088794484
0.014,1.7951000000000001,1.0,1887.1890532201921,0.14616730991502463,1.3398930820163917,0.8282328866612267,0.2884472,0.6316093520325206
0.0145,1.79474375,1.0,1939.2608376289895,0.15095663578645277,1.3391668455983727,0.8369109675012836,0.2884322375,0.6331819223432704
0.015,1.794375,1.0,1988.8179322976555,0.1557190982604312,1.338469273920578,0.8449353679894777,0.28841675,0.6346892557770306
0.0155,1.79399375,1.0,2035.9232226531522,0.1604548468763266,1.3377984296260512,0.8523676899503353,0.2884007375,0.6361359086166254
0.016,1.7936,1.0,2080.6554190713305,0.1651640311735056,1.3371523753578367,0.8592627946937769,0.2883842,0.6375263896382921
0.0165,1.7931937500000001,1.0,2123.1021715069737,0.16984680016296402,1.3365292308190864,0.8656696188863827,0.2883671375,0.6388650408300832
0.017,1.792775,1.0,2163.354517567619,0.17450330257245855,1.3359272138674243,0.8716318880984147,0.28834955,0.6401559533905287
0.0175,1.7923437500000001,1.0,2201.5092462063376,0.17913368724983358,1.3353446006669354,0.877188719932369,0.2883314375,0.6414030574092272
0.018000000000000002,1.7919,1.0,2237.6324835387745,0.18373809913223701,1.3347800786185928,0.8823752559075534,0.2883128,0.6426093716840842
0.0185,1.79144375,1.0,2271.79848384696,0.18831668315681674,1.3342323351233702,0.8872230157186909,0.2882936375,0.6437778895343722
0.019,1.790975,1.0,2304.088957898006,0.19286958426072065,1.333700057582241,0.8917603164118214,0.28827395,0.6449115802602328
0.0195,1.79049375,1.0,2334.5836711812426,0.1973969468968408,1.3331820195742357,0.8960126601106277,0.2882537375,0.6460132073738318
0.02,1.79,1.0,2363.365517240935,0.2018989145678001,1.3326770228504345,0.9000030381277712,0.288233,0.6470854542964651
0.0205,1.7894944199788392,1.0,2390.568913408718,0.20637563152290622,1.3321837239607677,0.9037521742545197,0.2882117656391112,0.6481312931618511
0.021,1.7889860125905939,1.0,2416.6371108474004,0.21082723776452902,1.3317016164241433,0.9072789906780245,0.28819041252880495,0.649151905808707
0.021500000000000002,1.7884776052023488,1.0,2441.734732094918,0.2152538732950384,1.3312301937594702,0.9106006207023133,0.28816905941849863,0.6501484653764792
0.022,1.7879691978141035,1.0,2465.897552664225,0.21965567811680412,1.3307689494856567,0.913732602423667,0.2881477063081923,0.6511221366586577
0.0225,1.7874607904258584,1.0,2489.163101064959,0.22403279223219613,1.3303173771216117,0.916689049242175,0.28812635319788604,0.6520740764397288
0.023,1.7869523830376133,1.0,2511.565546116992,0.2283853542674552,1.329875017576811,0.919482808507077,0.2881050000875798,0.6530053341157481
0.0235,1.786443975649368,1.0,2533.13749263371,0.23271350276487707,1.3294414401989882,0.9221255902594395,0.28808364697727346,0.6539168924732668
0.024,1.7859355682611229,1.0,2553.908452863482,0.2370173736613985,1.3290162556990022,0.9246280847423648,0.28806229386696713,0.6548096412175026
0.0245,1.7854271608728778,1.0,2573.9088535701358,0.24129710277888733,1.3285990770723215,0.9270000600898437,0.28804094075666087,0.6556844596531203
0.025,1.7849187534846325,1.0,2593.167887548457,0.24555282466723316,1.3281895389323344,0.9292504572578885,0.28801958764635455,0.6565421764521102
0.025500000000000002,1.7844103460963874,1.0,2611.708763185402,0.24978467003123822,1.327787340645566,0.931387477507392,0.2879982345360483,0.6573834799505984
0.026000000000000002,1.7839019387081423,1.0,2629.5823091887796,0.2539927848943949,1.327391933466739,0.933418612347687,0.28797688142574196,0.658209572388107
0.0265,1.783393531319897,1.0,2646.8101066150944,0.25817729911277243,1.3270030490590516,0.9353507818094726,0.2879555283154357,0.6590210647515418
0.027,1.7828851239316519,1.0,2663.414406490591,0.26233834254244,1.3266204190857027,0.9371903515507926,0.2879341752051294,0.6598185645289538
0.0275,1.7823767165434068,1.0,2679.418091803281,0.2664760450394667,1.3262437752098906,0.9389431846564799,0.28791282209482305,0.6606026758188724
0.028,1.7818683091551615,1.0,2694.8446410905167,0.27059053645992187,1.3258728490948137,0.9406146879698097,0.2878914689845168,0.6613739994350407
0.0285,1.7813599017669164,1.0,2709.718093623332,0.27468194665987467,1.325507372403671,0.9422098535927947,0.2878701158742105,0.6621331330065621
0.029,1.7808514943786713,1.0,2724.063016187314,0.2787504054953942,1.3251470767996605,0.9437332961114969,0.2878487627639042,0.6628806710734556
0.029500000000000002,1.780343086990426,1.0,2737.904471459944,0.2827960428225498,1.324791693945981,0.9451892860333354,0.2878274096535979,0.6636172051776157
0.03,1.779834679602181,1.0,2751.26798798414,0.2868189884974105,1.324440955505831,0.9465817798631997,0.2878060565432916,0.6643433239491818
0.0305,1.7793262722139358,1.0,2764.165529003299,0.2908193624347495,1.3240947196211923,0.9479144603105982,0.2877847034329853,0.6650593517654999
0.031,1.7788178648256905,1.0,2776.6326170583707,0.2947973043689288,1.3237526346773552,0.9491907263351959,0.28776335032267897,0.6657660444498438
0.0315,1.7783094574374454,1.0,2788.684267660465,0.29875293709089323,1.3234145377173023,0.9504137551771336,0.2877419972123727,0.6664637652841314
0.032,1.7778010500492,1.0,2800.3355226910044,0.30268638320376207,1.32308026793013,0.9515865029888181,0.2877206441020664,0.6671528714100621
0.0325,1.777292642660955,1.0,2811.6016735157714,0.3065977653106547,1.3227496645049328,0.9527117227479146,0.2876992909917601,0.6678337183098002
0.033,1.77678423527271,1.0,2822.4982476252103,0.3104872060146904,1.322422566630807,0.9537919806964679,0.2876779378814538,0.6685066598443969
0.0335,1.7762758278844646,1.0,2833.0409958496834,0.3143548279189885,1.3220988134968477,0.9548296712622029,0.2876565847711475,0.6691720482905706
0.034,1.7757674204962195,1.0,2843.245880146987,0.31820075362666833,1.3217782442921504,0.955827030618325,0.2876352316608412,0.6698302343758329
0.0345,1.7752590131079744,1.0,2853.129061963859,0.32202510574084925,1.321460698205811,0.9567861490204759,0.28761387855053494,0.670481567311966
0.035,1.774750605719729,1.0,2862.7068911703786,0.3258280068646506,1.321146014426925,0.957708982044024,0.2875925254402286,0.6711263948268538
0.035500000000000004,1.774242198331484,1.0,2871.9878711266238,0.3296095699680376,1.3208341032513002,0.9585973659848951,0.28757117232992235,0.6717649177006825
0.036000000000000004,1.773733790943239,1.0,2880.993051499755,0.333369926069923,1.3205247650138996,0.9594530146396011,0.28754981921961603,0.6723975606275014
0.0365,1.7732253835549936,1.0,2889.7356571448354,0.33710919575173814,1.320217870831348,0.9602775401483282,0.2875284661093097,0.673024602041576
0.037,1.7727169761667485,1.0,2898.2248782198594,0.3408274942590809,1.319913328553024,0.9610724582336583,0.28750711299900344,0.6736462443052453
0.0375,1.7722085687785034,1.0,2906.470003898409,0.34452493683754876,1.3196110460283073,0.9618391927719715,0.2874857598886971,0.6742626889562859
0.038,1.771700161390258,1.0,2914.480417658975,0.3482016387327395,1.3193109311065765,0.9625790823801454,0.28746440677839086,0.6748741367214641
0.0385,1.771191754002013,1.0,2922.265592761646,0.35185771519025083,1.3190128916372106,0.9632933864603359,0.28744305366808454,0.6754807875295452
0.039,1.770683346613768,1.0,2929.8350879139484,0.3554932814556803,1.3187168354695888,0.963983290752858,0.28742170055777827,0.6760828405237597
0.0395,1.7701749392255226,1.0,2937.1985431243147,0.3591084527746258,1.3184226704530904,0.9646499124420859,0.28740034744747195,0.6766804940737329
0.04,1.7696665318372775,1.0,2944.365675744377,0.3627033443926848,1.318130304437094,0.9652943048557714,0.2873789943371656,0.6772739457868683
0.0405,1.7691581244490324,1.0,2951.3462766992207,0.3662780715554551,1.3178396452709786,0.9659174617941425,0.28735764122685936,0.6778633925191915
0.041,1.768649717060787,1.0,2958.1480727657704,0.369832744803939,1.3175506194378706,0.9665203222999331,0.28733628811655304,0.6784489926486758
0.0415,1.768141309672542,1.0,2964.7763335719096,0.3733674715322207,1.3172631753483357,0.967103774858476,0.2873149350062468,0.6790308595914898
0.042,1.7676329022842967,1.0,2971.246034197073,0.3768823817342358,1.3169771772376708,0.96766865617171,0.28729358189594045,0.6796092765001219
0.0425,1.7671244948960516,1.0,2977.5623046314745,0.3803775828172599,1.3166925757404349,0.9682157610379851,0.2872722287856342,0.680184350991355
0.043000000000000003,1.7666160875078065,1.0,2983.730312228328,0.3838531821885687,1.3164093214911878,0.9687458417718976,0.28725087567532787,0.6807561902853512
0.043500000000000004,1.7661076801195612,1.0,2989.7552602028773,0.3873092872554378,1.3161273651244885,0.969259610903159,0.28722952256502154,0.6813249012099756
0.044,1.7655992727313161,1.0,2995.6423861843623,0.39074600542514276,1.3158466572748966,0.9697577436779816,0.2872081694547153,0.6818905902049555
0.0445,1.765090865343071,1.0,3001.3969608226957,0.3941634441049593,1.3155671485769713,0.9702408803792608,0.287186816344409,0.682453363325892
0.045,1.7645824579548257,1.0,3007.0242864488696,0.39756171070216306,1.3152887896652723,0.9707096284803419,0.2871654632341027,0.6830133262481113
0.0455,1.7640740505665806,1.0,3012.529695789625,0.40094091262402964,1.3150115311743586,0.9711645646458221,0.28714411012379637,0.6835705842703638
0.046,1.7635656431783355,1.0,3017.918550736091,0.40430115727783467,1.31473532373879,0.9716062365916388,0.2871227570134901,0.6841252423183644
0.0465,1.7630572357900902,1.0,3023.196241165935,0.40764255207085376,1.3144601179931255,0.9720351648155986,0.2871014039031838,0.6846774049481812
0.047,1.7625488284018451,1.0,3028.3681838205066,0.4109652044103626,1.3141858645719249,0.9724518442085327,0.28708005079287746,0.6852271763494646
0.0475,1.7620404210136,1.0,3033.4398212353594,0.4142692217036368,1.313912514109747,0.9728567455553634,0.2870586976825712,0.6857746603485266
0.048,1.7615320136253547,1.0,3038.4094656006628,0.417554683064438,1.313640078883779,0.9732503176857559,0.28703734457226493,0.6863198371102579
0.0485,1.7610236062371096,1.0,3043.2894479613265,0.4208217304633807,1.3133684505004082,0.9736329875008698,0.2870159914619586,0.6868629280324402
0.049,1.7605151988488645,1.0,3048.0824682981292,0.4240704632116779,1.3130976037958173,0.974005162103726,0.2869946383516523,0.6874039875552214
0.0495,1.7600067914606192,1.0,3052.7911548185007,0.4273009802556977,1.3128275143378725,0.9743672295579089,0.286973285241346,0.6879430684731767
0.05,1.7594983840723741,1.0,3057.418148399639,0.4305133805418084,1.3125581576944392,0.9747195599454647,0.2869519321310397,0.6884802234013332
0.0505,1.758989976684129,1.0,3061.9661021853162,0.4337077630163781,1.3122895094333837,0.975062506361259,0.28693057902073343,0.6890155047763282
0.051000000000000004,1.7584815692958837,1.0,3066.4376811951456,0.4368842266257751,1.3120215451225716,0.9753964058437748,0.2869092259104271,0.689548964857535
0.051500000000000004,1.7579731619076386,1.0,3070.8355619477866,0.4400428703163676,1.311754240329869,0.975721580246945,0.28688787280012085,0.6900806557281451
0.052000000000000005,1.7574647545193933,1.0,3075.162432096823,0.4431837930345237,1.3114875706231415,0.9760383370572397,0.2868665196898145,0.6906106292962164
0.0525,1.7569563471311482,1.0,3079.420990080295,0.4463070937266117,1.311221511570255,0.976346970159898,0.2868451665795082,0.6911389372956812
0.053,1.7564479397429031,1.0,3083.6139447832584,0.44941287133899976,1.3109560387390755,0.9766477605578829,0.28682381346920194,0.6916656312873168
0.0535,1.7559395323546578,1.0,3087.744015213403,0.4525012248180562,1.3106911276974689,0.9769409770468593,0.2868024603588956,0.6921907626596783
0.054,1.7554311249664127,1.0,3091.8139301905703,0.4555722531101491,1.3104267540133008,0.9772268768492386,0.28678110724858935,0.6927143826299925
0.0545,1.7549227175781676,1.0,3095.826428048383,0.45862605516164673,1.3101628932544374,0.9775057062101017,0.28675975413828303,0.6932365422450144
0.055,1.7544143101899223,1.0,3099.784256350587,0.4616627299189172,1.3098995209887443,0.9777777009575899,0.28673840102797676,0.6937572923818458
0.0555,1.7539059028016772,1.0,3103.6871541635614,0.4646823486775266,1.3096366385051663,0.978043085956671,0.28671704791767044,0.6942766329566995
0.056,1.7533974954134322,1.0,3107.53813459829,0.4676850196856676,1.3093742192119924,0.9783020785576114,0.2866956948073641,0.6947946188997771
0.0565,1.7528890880251868,1.0,3111.3421820579215,0.47067086888924886,1.3091122198132212,0.9785548877624991,0.28667434169705786,0.695311337889486
0.057,1.7523806806369417,1.0,3115.1004773780637,0.473639985734673,1.30885062949191,0.9788017125762977,0.28665298858675153,0.6958268133368971
0.0575,1.7518722732486967,1.0,3118.814205596187,0.4765924596683429,1.308589437431115,0.9790427439611633,0.28663163547644527,0.69634106857764
0.058,1.7513638658604513,1.0,3122.4845558540082,0.4795283801366613,1.3083286328138937,0.9792781652257957,0.28661028236613895,0.6968541268721784
0.0585,1.7508554584722062,1.0,3126.112721304151,0.4824478365860311,1.3080682048233019,0.9795081523929451,0.2865889292558327,0.6973660114060846
0.059000000000000004,1.7503470510839612,1.0,3129.699899017856,0.48535091846285494,1.3078081426423969,0.9797328745464654,0.28656757614552636,0.6978767452902994
0.059500000000000004,1.7498386436957158,1.0,3133.247289896268,0.4882377152135357,1.3075484354542353,0.9799524941592033,0.28654622303522004,0.6983863515613906
0.06,1.7493302363074708,1.0,3136.756098584072,0.4911083162844761,1.3072890724418738,0.9801671674029202,0.28652486992491377,0.6988948531818012
0.0605,1.7488218289192257,1.0,3140.2275333853036,0.49396281112207896,1.3070300427883688,0.9803770444413694,0.2865035168146075,0.6994022730400907
0.061,1.7483134215309803,1.0,3143.662806182275,0.4968012891727471,1.3067713356767776,0.980582269707559,0.2864821637043012,0.6999086339511665
0.0615,1.7478050141427353,1.0,3147.063132357209,0.4996238398828833,1.3065129402901565,0.980782982166177,0.28646081059399486,0.7004139586565146
0.062,1.7472966067544902,1.0,3150.429730715826,0.5024305526988903,1.3062548458115621,0.9809793155620692,0.2864394574836886,0.7009182698244143
0.0625,1.7467881993662449,1.0,3153.7638234138476,0.5052215170671708,1.3059970414240516,0.9811713986556219,0.2864181043733823,0.7014215900501507
0.063,1.7462797919779998,1.0,3157.0666358863396,0.5079968224341278,1.3057395163106815,0.9813593554458232,0.28639675126307595,0.7019239418562198
0.0635,1.7457713845897544,1.0,3160.339396779681,0.510756558246164,1.3054822596545084,0.9815433053817404,0.2863753981527697,0.702425347692524
0.064,1.7452629772015094,1.0,3163.58333788504,0.5135008139496821,1.3052252606385892,0.9817233635630938,0.2863540450424634,0.7029258299365602
0.0645,1.7447545698132643,1.0,3166.7996940760972,0.516229678991085,1.3049685084459803,0.981899640930565,0.2863326919321571,0.7034254108936034
0.065,1.744246162425019,1.0,3169.989703248272,0.5189432428167754,1.3047119922597388,0.9820722444464393,0.2863113388218508,0.7039241127968778
0.0655,1.7437377550367739,1.0,3173.15194385521,0.5216415414964074,1.304455723707739,0.982241274757599,0.2862899857115445,0.7044219142270309
0.066,1.7432293476485288,1.0,3176.289660166414,0.5243247205713752,1.3041996750833047,0.9824068344016488,0.2862686326012382,0.704918870150548
0.0665,1.7427209402602835,1.0,3179.403771473958,0.526992868941088,1.3039438383183641,0.9825690194739175,0.28624727949093187,0.7054149972841204
0.067,1.7422125328720384,1.0,3182.4947861454903,0.5296460663471687,1.303688208822345,0.9827279222994854,0.2862259263806256,0.7059103055557265
0.0675,1.7417041254837933,1.0,3185.56321389772,0.5322843925312407,1.3034327820046756,0.9828836320266308,0.28620457327031934,0.7064048048625734
0.068,1.741195718095548,1.0,3188.6095657764386,0.534907927234927,1.303177553274784,0.9830362347583703,0.286183220160013,0.7068985050711591
0.0685,1.7406873107073029,1.0,3191.6343541356996,0.5375167501998507,1.3029225180420982,0.9831858136776709,0.2861618670497067,0.70739141601733
0.069,1.7401789033190578,1.0,3194.638092618035,0.5401109411676348,1.3026676717160466,0.9833324491666809,0.28614051393940043,0.7078835475063376
0.0695,1.7396704959308125,1.0,3197.621296134709,0.5426905798799027,1.302413009706057,0.9834762189203057,0.2861191608290941,0.7083749093128966
0.07,1.7391620885425674,1.0,3200.584480847223,0.5452557460782773,1.3021585274215575,0.98361719805443,0.28609780771878784,0.708865511181237
