Time [s],Phi [rad],STIM [ ],Fsee [N],Gamma [ ],Lcerel [ ],q [ ],Lmtc [m],fisomrel [ ]
0.0,1.8,1.0,17.98066401347148,0.00012023578684041099,1.3793382333975486,0.0050037780483914345,0.288653,0.5411431909528922
0.0005,1.79999375,1.0,18.326432891052697,0.0057287706679846895,1.3792968720834633,0.01324938391272518,0.2886527375,0.5412432488128218
0.001,1.799975,1.0,21.7500056711745,0.011305846102838104,1.3789248790485287,0.03618532085307354,0.28865195,0.5421426531825826
0.0015,1.79994375,1.0,31.376420184309236,0.01685163855496012,1.3780200970626388,0.07138969203806964,0.2886506375,0.544326550436075
0.002,1.7999,1.0,54.23945892590932,0.022366323496121204,1.3763256341885848,0.11565011608437391,0.2886488,0.5484024778461718
0.0025,1.79984375,1.0,98.21903340638488,0.027850075414569297,1.3738823055441514,0.16558833047589555,0.28864643749999996,0.5542475178602992
0.003,1.7997750000000001,1.0,162.3867821598679,0.03330306782175755,1.3711609874565018,0.2183256053330606,0.28864354999999997,0.5607127595354416
0.0035,1.79969375,1.0,239.29594045586146,0.03872547325274912,1.3685351455815784,0.27165216316521645,0.2886401375,0.5669063981861123
0.004,1.7996,1.0,323.1815097277202,0.04411746327675651,1.366110735929371,0.32392193241449424,0.2886362,0.5725858706545103
0.0045000000000000005,1.7994937500000001,1.0,411.04278198299323,0.04947920850240002,1.3638811924990568,0.3739894715106581,0.2886317375,0.5777757581169145
0.005,1.799375,1.0,501.2242296612675,0.054810878569384165,1.361819899394598,0.4211408207127201,0.28862675,0.5825457920984789
0.0055,1.79924375,1.0,592.6166226573625,0.060112642189921496,1.3599031829407886,0.4650007613284977,0.2886212375,0.5869569480519428
0.006,1.7991000000000001,1.0,684.3456310848266,0.06538466710636326,1.3581132174556438,0.5054400000747653,0.2886152,0.5910552407001491
0.006500000000000001,1.79894375,1.0,775.6975225586825,0.07062712012076279,1.3564362669576322,0.5424956728310276,0.2886086375,0.5948762359608022
0.007,1.798775,1.0,866.0837159684388,0.07584016715249851,1.3548613681610688,0.576310015664648,0.28860155,0.598448371769306
0.0075,1.79859375,1.0,955.0108622536443,0.08102397308008233,1.3533796035483827,0.6070858389627808,0.2885939375,0.6017948207780226
0.008,1.7984,1.0,1042.0878553478403,0.08617870188303654,1.3519831949753742,0.6350553624735982,0.2885858,0.6049356838486215
0.0085,1.79819375,1.0,1127.0141403959426,0.09130451697711534,1.3506651860632903,0.6604597195106088,0.2885771375,0.6078887987346875
0.009000000000000001,1.797975,1.0,1209.530892662697,0.09640158008510775,1.349419760823682,0.6835362888895843,0.28856795,0.6106691031438805
0.0095,1.79774375,1.0,1289.4609697929952,0.10147005244224165,1.348241371177219,0.7045105580223736,0.2885582375,0.6132906485988853
0.01,1.7975,1.0,1366.6994469384183,0.10651009526045468,1.3471246953506821,0.7235920365706338,0.288548,0.615766727926327
0.0105,1.79724375,1.0,1441.1452639428937,0.11152186737321598,1.3460653556966513,0.7409728514786765,0.2885372375,0.6181083213856831
0.011,1.796975,1.0,1512.7425368775052,0.11650552704145992,1.3450592078615795,0.7568270465724977,0.28852595000000003,0.6203257113199594
0.0115,1.79669375,1.0,1581.4789613335208,0.1214612320851928,1.3441022637498052,0.7713111321392606,0.2885141375,0.6224286737316949
0.012,1.7964,1.0,1647.374918573389,0.12638914014585184,1.3431907421632225,0.7845651942897947,0.28850180000000003,0.6244263855020935
0.0125,1.79609375,1.0,1710.443136113072,0.13128940662674118,1.3423214590572776,0.7967143786538545,0.2884889375,0.6263265901431652
0.013000000000000001,1.7957750000000001,1.0,1770.712347019792,0.13616218608501549,1.3414914626956187,0.8078701224693016,0.28847555,0.6281364187053791
0.0135,1.79544375,1.0,1828.239404048231,0.14100763279110756,1.3406978443825426,0.8181314791785843,0.2884616375,0.6298628151565332
0.014,1.7951000000000001,1.0,1883.0983171922155,0.14582590068713056,1.3399378241477864,0.8275864929679161,0.2884472,0.6315123587808311
0.0145,1.79474375,1.0,1935.3583844073357,0.1506171425102814,1.3392089498180124,0.8363135043309813,0.2884322375,0.6330908429954119
0.015,1.794375,1.0,1985.0803479261701,0.15538150891774524,1.3385090924352632,0.844382257442474,0.28841675,0.6346032982737706
0.0155,1.79399375,1.0,2032.3433483720114,0.1601191505667073,1.3378361230415803,0.8518547957886108,0.2884007375,0.6360547001538082
0.016,1.7936,1.0,2077.231526772305,0.16483021715186238,1.3371880357544939,0.8587864094815622,0.2883842,0.6374497083674304
0.0165,1.7931937500000001,1.0,2119.844073453324,0.16951485939958008,1.3365628225817736,0.8652263979473556,0.2883671375,0.6387929415044311
0.017,1.792775,1.0,2160.2596993960465,0.1741732252631472,1.3359588231088682,0.8712188776082744,0.28834955,0.6400882307885978
0.0175,1.7923437500000001,1.0,2198.5493258787465,0.17880546098613084,1.3353745683517864,0.8768033455038555,0.2883314375,0.6413389633381792
0.018000000000000002,1.7919,1.0,2234.7934064826604,0.183411712812098,1.3348085893265367,0.882015169153901,0.2883128,0.6425484965343575
0.0185,1.79144375,1.0,2269.081124075821,0.18799212698461576,1.3342594170491273,0.8868860687920463,0.2882936375,0.6437201598022244
0.019,1.790975,1.0,2301.491737437021,0.19254684786855947,1.3337257597060166,0.8914445827805038,0.28827395,0.6448568791729659
0.0195,1.79049375,1.0,2332.1224213897726,0.19707602216825043,1.3332062160913998,0.8957163641017917,0.2882537375,0.6459617906825619
0.02,1.79,1.0,2361.0399781355077,0.20157979187482947,1.332699745158984,0.899724613865284,0.288233,0.6470372435304438
0.0205,1.78949375,1.0,2388.3119601624594,0.2060582984428398,1.332205347512789,0.9034902832714923,0.2882117375,0.6480854817726628
0.021,1.788975,1.0,2414.010444447027,0.21051168332682452,1.331722023756836,0.9070323140780602,0.28818995000000003,0.6491087339115726
0.021500000000000002,1.78844375,1.0,2438.2116509188627,0.21494008798132686,1.3312487744951447,0.9103678589008346,0.2881676375,0.6501092136334974
0.022,1.7879,1.0,2460.9812932890923,0.21934365162918285,1.3307847371229422,0.9135125016941077,0.2881448,0.6510888319085013
0.0225,1.78734375,1.0,2482.4021311293227,0.2237225168328203,1.3303289170474675,0.9164803740163437,0.28812143749999997,0.6520497658234929
0.023,1.786775,1.0,2502.531403243119,0.22807682111251662,1.3298805918081895,0.9192843825395703,0.28809755,0.6529936069779294
0.0235,1.78619375,1.0,2521.4222952843065,0.23240670085586856,1.329439100148333,0.9219362971125343,0.28807313749999996,0.6539218089714816
0.024,1.7856,1.0,2539.1301159068635,0.23671229245047287,1.329003780811123,0.9244468565690944,0.2880482,0.654835817002508
0.0245,1.78499375,1.0,2555.7121186608406,0.24099373228392634,1.3285739725397838,0.9268258732427482,0.2880227375,0.6557370681423004
0.025,1.784375,1.0,2571.2273335824634,0.24525115674382567,1.3281490140775405,0.9290823256201645,0.28799675,0.6566269915814353
0.025500000000000002,1.78374375,1.0,2585.7257327739185,0.2494846984356057,1.3277283438669625,0.9312244554752273,0.2879702375,0.6575068004662563
0.026000000000000002,1.7831000000000001,1.0,2599.2741473454294,0.25369449658098886,1.3273112559565285,0.9332598041969375,0.2879432,0.6583780029469384
0.0265,1.78244375,1.0,2611.912189343964,0.2578806821902852,1.3268973102051598,0.9351953390765393,0.2879156375,0.6592415452188507
0.027,1.781775,1.0,2623.6803914135526,0.26204338625125506,1.326486067116434,0.9370374690241341,0.28788755,0.6600983672794749
0.0275,1.7810937500000001,1.0,2634.6201921453667,0.26618273975165857,1.3260770871939296,0.9387920966714498,0.2878589375,0.6609494043594466
0.028,1.7804,1.0,2644.77385687545,0.27029887367925604,1.3256699309412245,0.9404646650611393,0.2878298,0.6617955869921495
0.0285,1.77969375,1.0,2654.184402764904,0.2743919190218076,1.3252641588618967,0.9420601994648907,0.2878001375,0.662637841070991
0.029,1.7789773207093762,1.0,2663.0108395752322,0.27846200233606383,1.324859318369072,0.9435833413666255,0.2877700474697938,0.6634771150152485
0.029500000000000002,1.7782599376467136,1.0,2671.706257102873,0.2825092575339194,1.32445538546122,0.9450384475345501,0.287739917381162,0.6643134657053927
0.03,1.777542554584051,1.0,2680.306952860424,0.28653381515012183,1.3240524513998915,0.9464295671269407,0.28770978729253016,0.6651467115488552
0.0305,1.7768251715213885,1.0,2688.809849254749,0.2905357999111487,1.3236505395661455,0.9477604432202474,0.2876796572038983,0.6659768119851495
0.031,1.776107788458726,1.0,2697.2118593785835,0.29451533654347756,1.3232496733410408,0.9490345499858309,0.2876495271152665,0.6668037266738214
0.0315,1.7753904053960636,1.0,2705.509887546252,0.298472549773586,1.3228498761056364,0.9502551153600227,0.28761939702663464,0.6676274154929056
0.032,1.774673022333401,1.0,2713.700829842284,0.3024075643279517,1.322451171240991,0.9514251415405376,0.28758926693800285,0.6684478385373505
0.0325,1.7739556392707385,1.0,2721.78157468085,0.3063205049330521,1.3220535821281634,0.9525474235409261,0.287559136849371,0.6692649561174053
0.033,1.773238256208076,1.0,2729.7490033789472,0.3102114963153648,1.3216571321482125,0.9536245660077968,0.28752900676073917,0.6700787287569752
0.0335,1.7725208731454134,1.0,2737.5999907403375,0.3140806632013675,1.321261844682197,0.9546589984819259,0.2874988766721074,0.6708891171919384
0.034,1.7718034900827508,1.0,2745.336763199976,0.3179281169137665,1.32086769455373,0.9556529802627564,0.28746874658347554,0.6716961817339737
0.0345,1.7710861070200883,1.0,2752.9547674166583,0.32175399847641356,1.3204747181697494,0.9566086373157994,0.2874386164948437,0.6724998565498077
0.035,1.770368723957426,1.0,2760.4554593687967,0.3255584255611178,1.320082897501627,0.9575279460940915,0.28740848640621186,0.6733001872671013
0.035500000000000004,1.7696513408947634,1.0,2767.8404051796624,0.3293415155264575,1.319692213705464,0.9584127567789895,0.2873783563175801,0.6740972209697063
0.036000000000000004,1.7689339578321008,1.0,2775.111190812404,0.333103385731011,1.3193026479373617,0.959264802958474,0.28734822622894823,0.6748910045286647
0.0365,1.7682165747694383,1.0,2782.2694215995975,0.3368441535333565,1.3189141813534213,0.9600857103072418,0.2873180961403164,0.6756815846035622
0.037,1.7674991917067757,1.0,2789.3167217797723,0.3405639362920723,1.318526795109744,0.9608770045268726,0.2872879660516846,0.6764690076438624
0.0375,1.7667818086441132,1.0,2796.254734041982,0.34426285136573676,1.3181404703624309,0.9616401186166926,0.28725783596305277,0.6772533198902144
0.038,1.7660644255814508,1.0,2803.0851190787057,0.3479410161129281,1.3177551882675833,0.9623763995385369,0.2872277058744209,0.678034567375742
0.0385,1.7653470425187883,1.0,2809.8095551461315,0.35159854789222467,1.3173709299813021,0.963087114332042,0.2871975757857891,0.6788127959273069
0.039,1.7646296594561257,1.0,2816.4297376324384,0.35523556406220463,1.316987676659689,0.9637734557312688,0.2871674456971573,0.6795880511667488
0.0395,1.7639122763934632,1.0,2822.9468647784947,0.3588521695859035,1.3166054140516383,0.9644365453863638,0.28713731560852546,0.6803603692384906
0.04,1.7631948933308006,1.0,2829.363315513525,0.362448473932371,1.3162241174897429,0.9650774406875497,0.2871071855198936,0.681129807135948
0.0405,1.762477510268138,1.0,2835.683121792702,0.36602462348916526,1.3158437477333422,0.9656971445615545,0.2870770554312618,0.6818964509494798
0.041,1.7617601272054755,1.0,2841.908376224855,0.3695807263819223,1.3154642830447332,0.9662965982969082,0.28704692534263,0.6826603511577567
0.0415,1.7610427441428131,1.0,2848.0411876520025,0.373116890736278,1.315085701686212,0.9668766911155603,0.28701679525399815,0.6834215580130976
0.042,1.7603253610801506,1.0,2854.083680718892,0.3766332246778685,1.314707981920075,0.9674382635922506,0.2869866651653663,0.6841801215427095
0.0425,1.759607978017488,1.0,2860.0379954521077,0.3801298363323296,1.3143311020086186,0.9679821108155254,0.28695653507673446,0.6849360915498961
0.043000000000000003,1.7588905949548255,1.0,2865.9062868503256,0.38360683382529737,1.313955040214139,0.9685089853123684,0.2869264049881027,0.6856895176152373
0.043500000000000004,1.758173211892163,1.0,2871.6907244844415,0.3870643252824078,1.3135797747989322,0.9690195997563383,0.28689627489947084,0.6864404490977392
0.044,1.7574558288295004,1.0,2877.393492108816,0.3905024188292968,1.3132052840252952,0.9695146294772555,0.286866144810839,0.6871889351359507
0.0445,1.756738445766838,1.0,2883.0167872827224,0.3939212225916005,1.312831546155524,0.969994714788818,0.2868360147222072,0.687935024649057
0.045,1.7560210627041755,1.0,2888.5628210018044,0.39732084469495477,1.312458539451915,0.9704604631490266,0.28680588463357537,0.6886787663379339
0.0455,1.755303679641513,1.0,2894.0338173409864,0.4007013932649956,1.3120862421767645,0.970912451166952,0.28677575454494353,0.6894202086861796
0.046,1.7545862965788503,1.0,2899.43201310705,0.40406297642735894,1.311714632592369,0.971351226468167,0.2867456244563117,0.6901593999611111
0.0465,1.7538689135161878,1.0,2904.7596575019907,0.40740570230768086,1.3113436889610244,0.9717773094300651,0.2867154943676799,0.690896388214735
0.047,1.7531515304535252,1.0,2910.01901179672,0.41072967903159724,1.3109733895450275,0.9721911947973032,0.28668536427904806,0.6916312212846829
0.0475,1.7524341473908627,1.0,2915.2123490154736,0.41403501472474413,1.3106037126066745,0.9725933531867132,0.2866552341904162,0.6923639467951223
0.048,1.7517167643282003,1.0,2920.3368453966345,0.41732175019771967,1.3102346812974246,0.9729842271877368,0.28662510410178443,0.6930945233427468
0.0485,1.7509993812655378,1.0,2925.399939807537,0.420590060607736,1.3098662286052787,0.9733642487932084,0.2865949740131526,0.6938230879143532
0.049,1.7502819982028752,1.0,2930.4047178138203,0.42384006656014955,1.3094983259605764,0.9737338253068336,0.28656484392452075,0.6945497009808701
0.0495,1.7495646151402127,1.0,2935.352434581755,0.4270718647383554,1.309130960953113,0.9740933431507353,0.2865347138358889,0.6952743908807556
0.05,1.74884723207755,1.0,2940.244352005234,0.4302855518257489,1.3087641211726835,0.974443170844423,0.28650458374725707,0.6959971858305498
0.0505,1.7481298490148875,1.0,2945.0817385597516,0.43348122450572535,1.3083977942090825,0.9747836599949057,0.2864744536586253,0.6967181139252946
0.051000000000000004,1.747412465952225,1.0,2949.865869159047,0.4366589794616799,1.3080319676521055,0.9751151462235093,0.28644432356999344,0.6974372031389421
0.051500000000000004,1.7466950828895627,1.0,2954.5980250163907,0.43981891337700796,1.307666629091547,0.9754379500339722,0.28641419348136166,0.6981544813247589
0.052000000000000005,1.7459776998269,1.0,2959.279493507991,0.44296112293510465,1.3073017661172024,0.9757523776260283,0.2863840633927298,0.6988699762157151
0.0525,1.7452603167642375,1.0,2963.9115680407663,0.4460857048193652,1.3069373663188666,0.9760587216583464,0.286353933304098,0.6995837154248657
0.053,1.744542933701575,1.0,2968.495547923367,0.44919275571318507,1.3065734172863341,0.976357261964391,0.28632380321546613,0.7002957264457246
0.0535,1.7438255506389124,1.0,2973.03273823989,0.4522823722999594,1.3062099066094004,0.9766482662244929,0.2862936731268343,0.7010060366526221
0.054,1.7431081675762499,1.0,2977.524449728071,0.4553546512630834,1.3058468218778605,0.9769319905971596,0.2862635430382025,0.7017146733010595
0.0545,1.7423907845135873,1.0,2981.9719986599293,0.4584096892859524,1.305484150681509,0.9772086803124234,0.28623341294957066,0.7024216635280522
0.055,1.741673401450925,1.0,2986.3767067268604,0.46144758305196165,1.305121880610141,0.9774785702298102,0.2862032828609389,0.703127034352458
0.0555,1.7409560183882624,1.0,2990.7399009268374,0.46446842924450643,1.3047599992535517,0.9777418853633217,0.28617315277230704,0.7038308126753035
0.056,1.7402386353255999,1.0,2995.0629134563965,0.46747232454698195,1.3043984942015356,0.9779988413756306,0.2861430226836752,0.7045330252800946
0.0565,1.7395212522629373,1.0,2999.347081605015,0.4704593656427835,1.3040373530438885,0.9782496450435445,0.28611289259504336,0.7052336988331185
0.057,1.7388038692002747,1.0,3003.593747653447,0.4734296492153064,1.3036765633704046,0.978494494696622,0.2860827625064115,0.7059328598837393
0.0575,1.7380864861376122,1.0,3007.8042587752,0.4763832719479458,1.303316112770879,0.9787335806307009,0.28605263241777973,0.7066305348646793
0.058,1.7373691030749496,1.0,3011.9799669413956,0.47932033052409695,1.3029559888351072,0.97896708549796,0.2860225023291479,0.7073267500922908
0.0585,1.7366517200122873,1.0,3016.122228829623,0.48224092162715526,1.3025961791528835,0.9791951846750292,0.28599237224051605,0.7080215317668241
0.059000000000000004,1.7359343369496247,1.0,3020.230478589186,0.48514510152876184,1.302236687966599,0.9794180441646898,0.28596224215188426,0.7087148738743007
0.059500000000000004,1.7352169538869622,1.0,3024.30639282132,0.48803298663074296,1.3018775001487628,0.9796358274116501,0.2859321120632524,0.7094068077293805
0.06,1.7344995708242996,1.0,3028.352025799584,0.49090469593561514,1.3015185973589964,0.9798486915046746,0.2859019819746206,0.7100973706845134
0.0605,1.733782187761637,1.0,3032.36797811721,0.4937603151111925,1.3011599738469575,0.9800567854632083,0.28587185188598874,0.71078657574139
0.061,1.7330648046989747,1.0,3036.3548526600684,0.49659992982528883,1.3008016238623035,0.9802602526299978,0.28584172179735695,0.7114744358475806
0.0615,1.7323474216363122,1.0,3040.313254571292,0.49942362574571814,1.3004435416546927,0.980459230930664,0.2858115917087251,0.7121609638966357
0.062,1.7316300385736496,1.0,3044.2437912173887,0.5022314885402943,1.3000857214737822,0.9806538531195054,0.28578146162009327,0.7128461727281875
0.0625,1.730912655510987,1.0,3048.147072153883,0.5050236038768312,1.2997281575692305,0.9808442470123584,0.2857513315314615,0.7135300751280438
0.063,1.7301952724483245,1.0,3052.023709092481,0.5078000574231427,1.2993708441906948,0.9810305357072913,0.28572120144282964,0.7142126838282867
0.0635,1.729477889385662,1.0,3055.8743158687666,0.510560934847043,1.2990137755878333,0.98121283779385,0.2856910713541978,0.7148940115073625
0.064,1.7287605063229994,1.0,3059.699508410693,0.5133063218163457,1.2986569460103035,0.9813912675515319,0.28566094126556596,0.7155740707901743
0.0645,1.728043123260337,1.0,3063.4999047076394,0.5160363039988649,1.2983003497077632,0.9815659351381169,0.2856308111769341,0.7162528742481702
0.065,1.7273257401976745,1.0,3067.27612478041,0.5187509670624145,1.2979439809298703,0.9817369467684419,0.28560068108830233,0.7169304343994295
0.0655,1.726608357135012,1.0,3071.0287906515773,0.5214503966748084,1.2975878339262823,0.981904404884175,0.2855705509996705,0.7176067637087482
0.066,1.7258909740723494,1.0,3074.758526317226,0.5241346785038605,1.2972319029466572,0.9820684083150959,0.28554042091103865,0.7182818745877199
0.0665,1.7251735910096868,1.0,3078.4659577189736,0.5268038982173848,1.2968761822406527,0.9822290524323737,0.28551029082240686,0.7189557793948175
0.067,1.7244562079470243,1.0,3082.1517127163443,0.5294581414831951,1.2965206660579265,0.9823864292942859,0.285480160733775,0.7196284904354708
0.0675,1.7237388248843617,1.0,3085.816421060952,0.5320974939691056,1.2961653486481366,0.9825406277848074,0.2854500306451432,0.7203000199621419
0.068,1.7230214418216994,1.0,3089.4607143704798,0.5347220413429298,1.2958102242609404,0.9826917337454625,0.28541990055651134,0.720970380174401
0.0685,1.7223040587590368,1.0,3093.085226103737,0.5373318692724819,1.2954552871459961,0.982839830100814,0.28538977046787956,0.7216395832189955
0.069,1.7215866756963742,1.0,3096.6905915362445,0.5399270634255758,1.2951005315529611,0.9829849969779376,0.2853596403792477,0.7223076411899229
0.0695,1.7208692926337117,1.0,3100.2766251715916,0.5425076757726369,1.2947459587469774,0.9831273100809552,0.2853295102906159,0.7229745529410877
0.07,1.7201519095710491,1.0,3103.8440388407084,0.5450738062865605,1.2943915623434328,0.9832668451813652,0.2852993802019841,0.7236403316995942
0.07050000000000001,1.7194345265083866,1.0,3107.393846871949,0.5476255633935453,1.2940373333972133,0.9834036759219461,0.28526925011335225,0.7243049954357654
