Time [s],Phi [rad],STIM [ ],Fsee [N],Gamma [ ],Lcerel [ ],q [ ],Lmtc [m],fisomrel [ ]
0.0,1.8,1.0,17.96772590402371,1.668251877624642e-05,1.379339682614755,0.0050000738746335946,0.288653,0.5411396849290081
0.0005,1.79999375,1.0,18.279258005273967,0.005625798251835649,1.3793021085582804,0.012959075903980492,0.2886527375,0.5412305817705436
0.001,1.799975,1.0,21.625827939728673,0.011203451280521755,1.3789375416408656,0.03564340520514075,0.28865195,0.5421120520892133
0.0015,1.79994375,1.0,31.087161363089525,0.01674981808659693,1.3780446767701688,0.07064937655870032,0.2886506375,0.5442672907070745
0.002,1.7999,1.0,53.62116658373923,0.022265074160161522,1.376365616376876,0.11477429355336949,0.2886488,0.5483065140601218
0.0025,1.79984375,1.0,97.18423846140296,0.02774939400726378,1.373932021097909,0.164636095407184,0.28864643749999996,0.5541289655536767
0.003,1.7997750000000001,1.0,161.0433668798641,0.03320295115755616,1.3712111550588908,0.21734359523110883,0.28864354999999997,0.560593999871952
0.0035,1.79969375,1.0,237.77972016858072,0.038625918163934236,1.368581765509457,0.27067569120363705,0.2886401375,0.5667968180291189
0.004,1.7996,1.0,321.56940717370475,0.04401846661330686,1.3661533741818688,0.3229766133744977,0.2886362,0.5724863092322461
0.0045000000000000005,1.7994937500000001,1.0,409.37411080053283,0.04938076713178412,1.3639203176538934,0.373092235230486,0.2886317375,0.5776849566284736
0.005,1.799375,1.0,499.52207312411224,0.054712989375777815,1.3618560353908784,0.420301470692698,0.28862675,0.582462403224475
0.0055,1.79924375,1.0,590.9000120891172,0.060015302079223724,1.3599366939177167,0.4642237040395247,0.2886212375,0.586880026695102
0.006,1.7991000000000001,1.0,682.6278832379589,0.06528787299736882,1.3581444194119572,0.504725917997345,0.2886152,0.5909839759058422
0.006500000000000001,1.79894375,1.0,773.9928094784062,0.07053086896218042,1.3564653494265948,0.541842754517969,0.2886086375,0.5948101232722439
0.007,1.798775,1.0,864.3975177024204,0.0757444558637241,1.3548885906367711,0.5757150368650515,0.28860155,0.5983867609561424
0.0075,1.79859375,1.0,953.3539046528226,0.0809287986694125,1.353405076725629,0.6065447028266098,0.2885939375,0.6017374098997205
0.008,1.7984,1.0,1040.4636968326156,0.08608406133794815,1.352007096903817,0.634563695433527,0.2885858,0.6048820271981723
0.0085,1.79819375,1.0,1125.4256403340985,0.09121040719871278,1.3506876643416255,0.6600131069821699,0.2885771375,0.6078385270364013
0.009000000000000001,1.797975,1.0,1207.990957615762,0.0963079982880237,1.3494407947136138,0.6831303842551115,0.28856795,0.6106222289219325
0.0095,1.79774375,1.0,1287.9739797014595,0.10137699576447823,1.348261041732147,0.7041413432215649,0.2885582375,0.6132469604963002
0.01,1.7975,1.0,1365.2588313142633,0.10641756035392629,1.3471432056516524,0.7232558735154049,0.288548,0.6157257486284905
0.0105,1.79724375,1.0,1439.7535779680613,0.11142985132980829,1.3460827689386081,0.7406663620238362,0.2885372375,0.6180698885324809
0.011,1.796975,1.0,1511.401205373404,0.11641402700278852,1.345075588744136,0.7565471856006682,0.28852595000000003,0.6202896621584439
0.0115,1.79669375,1.0,1580.1993421810341,0.121370245726987,1.3441175473010334,0.7710551120531365,0.2885141375,0.6223951327790851
0.012,1.7964,1.0,1646.150319414704,0.1262986642839452,1.3432050728116711,0.7843306168864642,0.28850180000000003,0.624395019120968
0.0125,1.79609375,1.0,1709.260605203427,0.13119943794017958,1.3423350397099445,0.7964991325735822,0.2884889375,0.6262969406466541
0.013000000000000001,1.7957750000000001,1.0,1769.5725487225332,0.1360727219221491,1.341504327739719,0.8076722632136945,0.28847555,0.6281083996653145
0.0135,1.79544375,1.0,1827.147716411595,0.1409186704434739,1.3407099708438126,0.8179492565676153,0.2884616375,0.62983646609569
0.014,1.7951000000000001,1.0,1882.058583663909,0.14573743794751082,1.3399492039021978,0.8274183588382676,0.2884472,0.6314876873924169
0.0145,1.79474375,1.0,1934.3563935145191,0.15052917576375802,1.3392197673123303,0.8361581493061994,0.2884322375,0.6330674408946699
0.015,1.794375,1.0,1984.1132580530502,0.15529403522171364,1.3385194014716657,0.8442384732718553,0.28841675,0.6345810421787794
0.0155,1.79399375,1.0,2031.4131727811218,0.16003216705668327,1.3378459225316657,0.8517214889579369,0.2884007375,0.6360335861885451
0.016,1.7936,1.0,2076.3482274721005,0.16474372204624407,1.3371972402287577,0.858662580402529,0.2883842,0.6374299144837674
0.0165,1.7931937500000001,1.0,2119.0094621232547,0.16942885022360865,1.3365714317748694,0.8651111798492218,0.2883671375,0.6387744620950716
0.017,1.792775,1.0,2159.4629858045237,0.17408769839590416,1.3359669640885388,0.8711115320688234,0.28834955,0.6400707877587071
0.0175,1.7923437500000001,1.0,2197.7855873919475,0.1787204133702576,1.3353823040883048,0.8767031943370246,0.2883314375,0.6413224174248082
0.018000000000000002,1.7919,1.0,2234.063844352014,0.18332714195379607,1.334815918692706,0.8819215877096799,0.2883128,0.6425328462690029
0.0185,1.79144375,1.0,2268.384101324898,0.18790802990185937,1.3342663663749792,0.8867985030572997,0.2882936375,0.6437053453777685
0.019,1.790975,1.0,2300.839133926467,0.19246322368005095,1.3337322201574164,0.891362502477783,0.28827395,0.6448431289183729
0.0195,1.79049375,1.0,2331.507250796913,0.19699286747590442,1.3332122658203212,0.8956393351231616,0.2882537375,0.6459489346520653
0.02,1.79,1.0,2360.4548434468493,0.2014971032885926,1.3327054641374743,0.8996522451594375,0.288233,0.6470251088426908
0.0205,1.78949375,1.0,2387.7533585522,0.2059760731172884,1.3322107758826562,0.9034222129254796,0.2882117375,0.6480739808273073
0.021,1.788975,1.0,2413.4788768021517,0.21042991896116475,1.3317271618296476,0.9069682062190313,0.28818995000000003,0.6490978638534657
0.021500000000000002,1.78844375,1.0,2437.703946253788,0.21485878139602416,1.3312536574807137,0.9103074159233966,0.2881676375,0.6500988979772004
0.022,1.7879,1.0,2460.506443224921,0.21926280251821037,1.3307892829266006,0.9134554311827766,0.2881448,0.6510792420309484
0.0225,1.78734375,1.0,2481.9531760058944,0.22364212211661094,1.3303331963587606,0.9164264389044092,0.28812143749999997,0.6520407505848359
0.023,1.786775,1.0,2502.0994811123533,0.22799687716413558,1.3298846921664822,0.9192333699461113,0.28809755,0.6529849804662796
0.0235,1.78619375,1.0,2521.003100640798,0.23232720463369408,1.3294430647390534,0.9218880049269843,0.28807313749999996,0.6539134792580992
0.024,1.7856,1.0,2538.7239808504037,0.23663324149819615,1.3290076084657623,0.9244010924324926,0.2880482,0.654827785623851
0.0245,1.78499375,1.0,2555.324081783614,0.24091512473055154,1.3285776177358974,0.9267824536486605,0.2880227375,0.6557294296014109
0.025,1.784375,1.0,2570.855200256816,0.24517298805704069,1.3281524993073404,0.9290410928739323,0.28799675,0.6566196976988073
0.025500000000000002,1.78374375,1.0,2585.383258494443,0.2494069708780991,1.3277315423090459,0.9311852433241499,0.2879702375,0.6575001153562949
0.026000000000000002,1.7831000000000001,1.0,2598.953458240516,0.2536172061282515,1.327314243119629,0.9332224899771104,0.2879432,0.6583717673820932
0.0265,1.78244375,1.0,2611.6074120684593,0.25780382529029866,1.32690014227099,0.9351598072147105,0.2879156375,0.6592356408903268
0.027,1.781775,1.0,2623.3877509618737,0.2619669598470416,1.3264887802950305,0.9370036102880777,0.28788755,0.6600927179255847
0.0275,1.7810937500000001,1.0,2634.3380365651133,0.2661067412812811,1.3260796977236509,0.9387598075914719,0.2878589375,0.6609439755499122
0.028,1.7804,1.0,2644.5026781146753,0.270223301075818,1.3256724350887523,0.9404338474140246,0.2878298,0.6617903859163343
0.0285,1.77969375,1.0,2653.926656508918,0.2743167705953539,1.3252665347432062,0.9420307600279173,0.2878001375,0.662632912551488
0.029,1.778975,1.0,2662.652085832258,0.27838727950662856,1.3248615718119252,0.9435551989673354,0.28776995,0.6634724463006549
0.029500000000000002,1.7782437500000001,1.0,2670.7131683975026,0.28243495671237556,1.3244571996706604,0.9450114809095059,0.2877392375,0.6643097116768916
0.03,1.7775,1.0,2678.139171185961,0.2864599294194679,1.324053121538597,0.946403610700814,0.287708,0.6651453265978674
0.0305,1.776743909218082,1.0,2684.9676291531478,0.29046232483477863,1.3236490406349195,0.9477353022018518,0.2876762441871594,0.6659799059186742
0.031,1.775983404325108,1.0,2691.624428306555,0.29444226488337943,1.3232446170685253,0.9490099958554662,0.28764430298165455,0.6668141503068319
0.0315,1.775222899432134,1.0,2698.311101018341,0.2983998804500016,1.3228399957444628,0.9502309524448943,0.2876123617761496,0.6676477587618472
0.032,1.77446239453916,1.0,2705.0021418979113,0.3023353034577155,1.32243541027862,0.9514012153023699,0.2875804205706447,0.6684802493573279
0.0325,1.7737018896461858,1.0,2711.691190618454,0.3062486552481489,1.3220309185404957,0.9525235928879455,0.28754847936513983,0.6693115035202954
0.033,1.7729413847532118,1.0,2718.3718555688542,0.3101400571629297,1.321626578399588,0.9536007022735725,0.2875165381596349,0.6701414032747885
0.0335,1.7721808798602379,1.0,2725.037714011402,0.31400963054368564,1.3212224477253955,0.9546349844897143,0.28748459695413,0.670969831241408
0.034,1.771420374967264,1.0,2731.6823123132303,0.3178574967320445,1.3208185843874167,0.9556287184686392,0.2874526557486251,0.6717966706366517
0.0345,1.77065987007429,1.0,2738.299166251931,0.3216837770696341,1.3204150462551503,0.9565840337274734,0.2874207145431202,0.6726218052720342
0.035,1.769899365181316,1.0,2744.8817613962165,0.3254885928980822,1.3200118911980945,0.9575029219181111,0.28738877333761526,0.673445119552994
0.035500000000000004,1.769138860288342,1.0,2751.4235535600337,0.32927206555901667,1.3196091770857479,0.9583872473570166,0.2873568321321104,0.6742664984775864
0.036000000000000004,1.768378355395368,1.0,2757.9179693310007,0.3330343163940652,1.3192069617876088,0.9592387566355884,0.28732489092660546,0.675085827634962
0.0365,1.767617850502394,1.0,2764.3598325404173,0.3367754651028252,1.3188052902945626,0.9600590857206076,0.28729294972110053,0.6759030193883918
0.037,1.76685734560942,1.0,2770.7474613850695,0.34049563031732616,1.3184041758795695,0.960849766412155,0.28726100851559566,0.6767180509644521
0.0375,1.7660968407164461,1.0,2777.078958494596,0.3441949293536345,1.3180036337153,0.961612237244402,0.28722906731009074,0.6775308958669174
0.038,1.7653363358234722,1.0,2783.3529657748372,0.34787347806875096,1.3176036740703794,0.962347849530869,0.2871971261045858,0.6783415376817482
0.0385,1.764575830930498,1.0,2789.568122216546,0.35153139231967645,1.3172043072134323,0.9630578743552831,0.28716518489908094,0.6791499600932605
0.039,1.763815326037524,1.0,2795.7230640287808,0.3551687879634119,1.316805543413084,0.9637435082126209,0.287133243693576,0.6799561468837388
0.0395,1.76305482114455,1.0,2801.816947522898,0.3587857773627349,1.3164073882481073,0.9644058771021059,0.2871013024880711,0.6807600913967203
0.04,1.762294316251576,1.0,2807.851117758966,0.36238245994153134,1.3160098276796035,0.9650460383386978,0.2870693612825662,0.6815618265622044
0.0405,1.761533811358602,1.0,2813.8204708529333,0.3659589825475508,1.315612905483825,0.9656650031126537,0.2870374200770613,0.6823612687884506
0.041,1.7607733064656281,1.0,2819.7257145797153,0.36951545381168693,1.3152166133007765,0.9662637143876273,0.28700547887155636,0.6831584397295558
0.0415,1.7600128015726542,1.0,2825.5675632952566,0.3730519823648331,1.3148209427704631,0.9668430629338858,0.2869735376660515,0.6839533609474386
0.042,1.7592522966796802,1.0,2831.3467378203577,0.37656867683788287,1.3144258855328896,0.9674038907582291,0.28694159646054657,0.6847460539121754
0.0425,1.7584917917867062,1.0,2837.06396532683,0.38006564586172975,1.314031433228061,0.9679469942746273,0.28690965525504164,0.6855365400023276
0.043000000000000003,1.7577312868937323,1.0,2842.7199792239894,0.3835429980672673,1.313637577495982,0.968473127237622,0.28687771404953677,0.6863248405052673
0.043500000000000004,1.7569707820007583,1.0,2848.3155190475736,0.38700084208538904,1.3132443099766578,0.9689830034584701,0.28684577284403184,0.6871109766174985
0.044,1.756210277107784,1.0,2853.851330349908,0.39043928654698834,1.312851622310093,0.9694772993221435,0.2868138316385269,0.6878949694449711
0.0445,1.7554497722148101,1.0,2859.3281645918164,0.3938584400829589,1.3124595061362927,0.9699566561216293,0.28678189043302205,0.6886768400033931
0.045,1.7546892673218362,1.0,2864.746779035386,0.39725841132419415,1.312067953095262,0.970421682224468,0.2867499492275171,0.6894566092185377
0.0455,1.7539287624288622,1.0,2870.1079366395834,0.40063930890158755,1.311676954827005,0.9708729550851177,0.2867180080220122,0.6902342979265467
0.046,1.7531682575358882,1.0,2875.4124059560454,0.4040012414460327,1.3112865029715275,0.971311023115512,0.2866860668165073,0.6910099268742258
0.0465,1.7524077526429143,1.0,2880.6609610271607,0.40734431758842315,1.310896589168834,0.9717364074250749,0.2866541256110024,0.6917835167193407
0.047,1.7516472477499403,1.0,2885.854047015063,0.4106686304704543,1.3105072080138682,0.972149601619523,0.28662218440549747,0.6925550821793125
0.0475,1.7508867428569663,1.0,2890.9927321771365,0.4139742704170874,1.3101183486345604,0.972551074546419,0.2865902431999926,0.6933246487250422
0.048,1.7501262379639924,1.0,2896.079481831178,0.4172613910032096,1.3097299878855408,0.9729412795776708,0.2865583019944877,0.6940922659579807
0.0485,1.7493657330710184,1.0,2901.115274866415,0.42053009075747383,1.3093421158231129,0.9733206423282985,0.28652636078898275,0.6948579572005096
0.049,1.7486052281780444,1.0,2906.1010956992363,0.42378046820853316,1.308954722503581,0.9736895682978188,0.2864944195834779,0.6956217456719875
0.0495,1.7478447232850702,1.0,2911.037934166751,0.4270126218850406,1.3085677979832482,0.9740484440046143,0.28646247837797295,0.6963836544890605
0.05,1.7470842183920963,1.0,2915.926785422267,0.430226650315649,1.308181332318419,0.9743976380463963,0.286430537172468,0.6971437066659572
0.0505,1.7463237134991223,1.0,2920.7686498332073,0.4334226520290115,1.3077953155653974,0.9747375020921989,0.28639859596696315,0.6979019251147878
0.051000000000000004,1.7455632086061483,1.0,2925.564532880699,0.43660072555378093,1.307409737780487,0.9750683718109027,0.28636665476145823,0.6986583326458299
0.051500000000000004,1.7448027037131744,1.0,2930.3154450619754,0.4397609694186104,1.3070245890199916,0.9753905677408755,0.2863347135559533,0.6994129519678101
0.052000000000000005,1.7440421988202004,1.0,2935.0224017948276,0.44290348215215297,1.3066398593402155,0.9757043961049564,0.28630277235044843,0.7001658056881787
0.0525,1.7432816939272264,1.0,2939.6864233235715,0.4460283622830614,1.3062555387974621,0.9760101495746628,0.2862708311449435,0.7009169163133806
0.053,1.7425211890342525,1.0,2944.3085346283633,0.44913570833998884,1.3058716174480358,0.9763081079872024,0.2862388899394386,0.7016663062491149
0.0535,1.7417606841412785,1.0,2948.88976533572,0.4522256188515883,1.30548808534824,0.9765985390185856,0.2862069487339337,0.7024139978005945
0.054,1.7410001792483045,1.0,2953.4311496316063,0.4552981923465127,1.3051049325543789,0.9768816988158805,0.2861750075284288,0.7031600131727931
0.0545,1.7402396743553306,1.0,2957.933726176987,0.45835352735341506,1.3047221491227563,0.9771578325914176,0.28614306632292386,0.703904374470691
0.055,1.7394791694623564,1.0,2962.398538025129,0.4613917224009483,1.3043397251096762,0.977427175181535,0.286111125117419,0.7046471036995112
0.0555,1.7387186645693824,1.0,2966.8266325410937,0.4644128760177655,1.3039576505714423,0.9776899515722612,0.28607918391191406,0.7053882227649522
0.056,1.7379581596764084,1.0,2971.219061323866,0.4674170867325196,1.3035759155643587,0.9779463773941516,0.28604724270640913,0.7061277534734101
0.0565,1.7371976547834345,1.0,2975.576218280159,0.47040443433595963,1.3031945159065739,0.9781966580249221,0.28601530150090426,0.7068657063908748
0.057,1.7364371498904605,1.0,2979.8976029154574,0.4733749732385989,1.3028134552157455,0.9784409886816802,0.28598336029539934,0.7076020769780028
0.0575,1.7356766449974865,1.0,2984.1869908573553,0.47632888075308194,1.3024326999328981,0.9786795654210232,0.2859514190898944,0.7083369324339848
0.058,1.7349161401045126,1.0,2988.444959692651,0.47926624425610276,1.3020522443823488,0.9789125700589739,0.28591947788438954,0.7090702859170468
0.0585,1.7341556352115386,1.0,2992.67208947561,0.48218715112435545,1.301672082888415,0.9791401771919901,0.2858875366788846,0.7098021505285883
0.059000000000000004,1.7333951303185646,1.0,2996.868962691085,0.48509168873453407,1.3012922097754138,0.9793625545406951,0.2858555954733797,0.7105325393132909
0.059500000000000004,1.7326346254255907,1.0,3001.036164217528,0.4879799444633326,1.300912619367663,0.9795798632746319,0.2858236542678748,0.7112614652592218
0.06,1.7318741205326167,1.0,3005.1742812908838,0.4908520056874451,1.30053330598948,0.9797922583192322,0.2857917130623699,0.711988941297939
0.0605,1.7311136156396427,1.0,3009.2839034699914,0.49370795978356563,1.3001542639651815,0.9799998886461057,0.28575977185686496,0.7127149803045922
0.061,1.7303531107466688,1.0,3013.3656226015314,0.4965478941283883,1.2997754876190852,0.9802028975476722,0.2857278306513601,0.7134395950980219
0.0615,1.7295926058536946,1.0,3017.4200327862686,0.499371896098607,1.2993969712755085,0.9804014228971027,0.28569588944585517,0.7141627984408558
0.062,1.7288321009607206,1.0,3021.4477303462863,0.5021800530709158,1.2990187092587688,0.9805955973944521,0.28566394824035024,0.7148846030396042
0.0625,1.7280715960677466,1.0,3025.4493137925247,0.5049724524220089,1.298640695893183,0.9807855487998235,0.28563200703484537,0.7156050215447556
0.063,1.7273110911747727,1.0,3029.425383792821,0.5077491815285803,1.298262925503069,0.9809714001543344,0.28560006582934044,0.716324066550863
0.0635,1.7265505862817987,1.0,3033.376543141356,0.5105103277673239,1.2978853924127438,0.9811532699896115,0.2855681246238355,0.7170417505966379
0.064,1.7257900813888247,1.0,3037.3033967283673,0.5132559785149337,1.2975080909465249,0.9813312725264903,0.28553618341833065,0.7177580861650328
0.0645,1.7250295764958508,1.0,3041.206551510405,0.5159862211481039,1.2971310154287294,0.9815055178635481,0.2855042422128257,0.7184730856833296
0.065,1.7242690716028768,1.0,3045.0866164818494,0.5187011430435285,1.2967541601836747,0.9816761121560654,0.2854723010073208,0.7191867615232204
0.0655,1.7235085667099028,1.0,3048.9442026467677,0.5214008315779016,1.2963775195356784,0.9818431577859644,0.2854403598018159,0.7198991260008883
0.066,1.7227480618169289,1.0,3052.7799229911366,0.5240853741279172,1.2960010878090575,0.9820067535232418,0.285408418596311,0.7206101913770875
0.0665,1.7219875569239549,1.0,3056.594392456922,0.5267548580702692,1.2956248593281297,0.9821669946793811,0.28537647739080607,0.721319969857218
0.067,1.7212270520309807,1.0,3060.388227915627,0.5294093707816518,1.295248828417212,0.9823239732531935,0.2853445361853012,0.7220284735914023
0.0675,1.7204665471380067,1.0,3064.1620481431405,0.5320489996387592,1.2948729894006217,0.982477778069518,0.2853125949797963,0.7227357146745563
0.068,1.7197060422450328,1.0,3067.9160453417408,0.5346738122786325,1.2944973402760869,0.9826284938246089,0.28528065377429135,0.7234416982471643
0.0685,1.7189455373520588,1.0,3071.650065456844,0.537283869514361,1.2941218820151836,0.9827762020661961,0.2852487125687865,0.724146423851551
0.069,1.7181850324590848,1.0,3075.365664799318,0.5398793109896745,1.2937466009428904,0.9829209858406606,0.28521677136328155,0.7248499184773542
0.0695,1.7174245275661109,1.0,3079.063130358871,0.5424602137402079,1.293371494282099,0.9830629220118585,0.2851848301577766,0.725552188592756
0.07,1.716664022673137,1.0,3082.7427501092925,0.5450266548015964,1.2929965592557018,0.9832020848981619,0.28515288895227175,0.7262532406387756
0.07050000000000001,1.715903517780163,1.0,3086.40481299741,0.5475787112094749,1.292621793086591,0.9833385463740951,0.28512094774676683,0.7269530810292993
0.07100000000000001,1.715143012887189,1.0,3090.0496089334124,0.5501164599994784,1.2922471929976587,0.9834723759672578,0.2850890065412619,0.7276517161511137
