Time [s],Phi [rad],STIM [ ],Fsee [N],Gamma [ ],Lcerel [ ],q [ ],Lmtc [m],fisomrel [ ]
0.0,1.8,1.0,19.251455030789135,0.0011571451647705469,1.3791983452546093,0.005343489174942956,0.288653,0.5414815527938972
0.0005,1.79999375,1.0,19.892414943887793,0.006759863804279785,1.379126718319976,0.016429246851395754,0.2886527375,0.54165475591813
0.001,1.799975,1.0,24.094900970571466,0.012331155614483353,1.3786922186603978,0.041833626836859115,0.28865195,0.5427047306315862
0.0015,1.79994375,1.0,35.51683399287006,0.017871196905260636,1.3776799527297081,0.07895911838916442,0.2886506375,0.5451462158995072
0.002,1.7999,1.0,61.83488468438938,0.023380162923132605,1.375851916934698,0.12451104142700628,0.2886488,0.5495387006904107
0.0025,1.79984375,1.0,109.91604134107364,0.028858228004481925,1.3733375819541047,0.17516214641591843,0.28864643749999996,0.5555454397342543
0.003,1.7997750000000001,1.0,176.94209301396478,0.03430556547224547,1.3706302088559323,0.2281589990935728,0.28864354999999997,0.5619682662098469
0.0035,1.79969375,1.0,255.38103452716328,0.039722347684685085,1.368049384682362,0.28140191112662954,0.2886401375,0.5680473547032356
0.004,1.7996,1.0,340.0888278082292,0.04510874603150421,1.3656698085221222,0.3333404969706187,0.2886362,0.5736147676511305
0.0045000000000000005,1.7994937500000001,1.0,428.41465320437743,0.05046493094124592,1.363478500603625,0.38291497758738763,0.2886317375,0.5787097563741729
0.005,1.799375,1.0,518.8424458042931,0.055791071882420044,1.3614494181510584,0.4294811427895949,0.28862675,0.5834002491015988
0.0055,1.79924375,1.0,610.3203765291099,0.06108733740858234,1.3595603693297964,0.4727158199355872,0.2886212375,0.5877434336971314
0.006,1.7991000000000001,1.0,701.9980813409048,0.06635389504714637,1.3577948118420733,0.5125259745746338,0.2886152,0.5917821193204572
0.006500000000000001,1.79894375,1.0,793.1917782453364,0.071590911461535,1.3561396414836706,0.5489721582325706,0.2886086375,0.5955502415940134
0.007,1.798775,1.0,883.3282644195948,0.07679855239410183,1.3545844742347062,0.58221074051636,0.28860155,0.5990747788000542
0.0075,1.79859375,1.0,971.9238691141132,0.08197698240853457,1.353120845491659,0.612452042504683,0.2885939375,0.6023777693853822
0.008,1.7984,1.0,1058.6256466893392,0.08712636580028163,1.351740869074957,0.6399310363459009,0.2885858,0.605479467545899
0.0085,1.79819375,1.0,1143.1200473715448,0.0922468651444632,1.350438165848487,0.6648891702374967,0.2885771375,0.6083963390202435
0.009000000000000001,1.797975,1.0,1225.171983939882,0.0973386423289667,1.3492068740489398,0.6875620255146646,0.28856795,0.6111433645311477
0.0095,1.79774375,1.0,1304.6283442891802,0.10240185881884434,1.3480413747766846,0.7081723155665279,0.2885582375,0.613734698480725
0.01,1.7975,1.0,1381.3649587170707,0.10743667485634663,1.346936812261797,0.7269265911331859,0.288548,0.6161825519694597
0.0105,1.79724375,1.0,1455.2924730435673,0.11244324929149753,1.345888816012587,0.744013616912429,0.2885372375,0.618497853818274
0.011,1.796975,1.0,1526.3672496165414,0.1174217403719475,1.3448932271481717,0.759604122346556,0.28852595000000003,0.6206908860565039
0.0115,1.79669375,1.0,1594.6025097132974,0.12237230684686425,1.3439458738280783,0.7738514045428945,0.2885141375,0.6227717980760193
0.012,1.7964,1.0,1659.992812053042,0.12729510475074698,1.3430433926245684,0.7868928395357818,0.28850180000000003,0.6247488226295479
0.0125,1.79609375,1.0,1722.54877758265,0.13219028917230136,1.3421827021957944,0.798850962712855,0.2884889375,0.6266294589221438
0.013000000000000001,1.7957750000000001,1.0,1782.3164040629065,0.13705801520023295,1.3413607211999086,0.8098347663615726,0.28847555,0.6284211033860916
0.0135,1.79544375,1.0,1839.3548455031603,0.1418984369610976,1.3405745796185418,0.8199411853015882,0.2884616375,0.6301305985894565
0.014,1.7951000000000001,1.0,1893.7453783833653,0.14671170866578806,1.3398214737020495,0.8292563575532995,0.2884472,0.6317645599839519
0.0145,1.79474375,1.0,1945.5416007929846,0.15149798162852224,1.3390991702552721,0.8378570182459109,0.2884322375,0.6333282931511033
0.015,1.794375,1.0,1994.812733703877,0.156257406904701,1.3384054860997192,0.8458113997985843,0.28841675,0.6348269355153469
0.0155,1.79399375,1.0,2041.6427444468477,0.16099013521978772,1.3377382760149172,0.8531802245727284,0.2884007375,0.6362654876099221
0.016,1.7936,1.0,2086.1222538267916,0.16569631684188665,1.337095498152138,0.860017612514265,0.2883842,0.6376486770585523
0.0165,1.7931937500000001,1.0,2128.340641909057,0.17037610151234284,1.3364752749388638,0.8663718802339525,0.2883671375,0.638980833401837
0.017,1.792775,1.0,2168.3664324118827,0.17502963607194644,1.3358760720807628,0.8722862745982586,0.28834955,0.6402655108533108
0.0175,1.7923437500000001,1.0,2206.2786453198637,0.17965706736148762,1.3352963552835024,0.87779947262027,0.2883314375,0.6415062312933653
0.018000000000000002,1.7919,1.0,2242.1659158831476,0.18425854222175653,1.3347345902527503,0.8829461182131039,0.2883128,0.6427064862510311
0.0185,1.79144375,1.0,2276.107048593846,0.1888342055603189,1.334189428006745,0.8877573388192442,0.2882936375,0.643869343777183
0.019,1.790975,1.0,2308.2045061035465,0.1933842049281216,1.3336593597154445,0.8922610669691033,0.28827395,0.6449981877368611
0.0195,1.79049375,1.0,2338.5247466779833,0.19790868280220944,1.3331433014561096,0.8964825430252803,0.2882537375,0.6460954741547311
0.02,1.79,1.0,2367.1370287232266,0.20240778133885218,1.3326401960316825,0.9004445257684344,0.288233,0.6471635841326653
0.0205,1.78949375,1.0,2394.1156273312936,0.20688164269431963,1.3321489862451046,0.9041675643409794,0.2882117375,0.6482048818123385
0.021,1.788975,1.0,2419.5394107396332,0.21133040902488165,1.3316686148993173,0.9076702429161353,0.28818995000000003,0.6492217152129094
0.021500000000000002,1.78844375,1.0,2443.475453979784,0.21575422017881662,1.3311981783882414,0.910969426598125,0.2881676375,0.6502160925775211
0.022,1.7879,1.0,2466.0091701664464,0.22015321939421745,1.3307366314598101,0.9140803888769314,0.2881448,0.6511903080695719
0.0225,1.78734375,1.0,2487.198093879842,0.22452754456647844,1.3302832274322127,0.9170170645019862,0.28812143749999997,0.6521460130005141
0.023,1.786775,1.0,2507.0977184982876,0.22887733280942218,1.329837264119215,0.9197921417643676,0.28809755,0.653084755096783
0.0235,1.78619375,1.0,2525.765895890724,0.23320272123687127,1.3293980393345826,0.922417183751612,0.28807313749999996,0.6540080729672602
0.024,1.7856,1.0,2543.262638155143,0.2375038469626483,1.3289648508920808,0.9249027436674723,0.2880482,0.6549174964207622
0.0245,1.78499375,1.0,2559.646031431301,0.24178084633343586,1.3285370332015582,0.9272584730096728,0.2880227375,0.6558144700737187
0.025,1.784375,1.0,2574.969192042784,0.2460338545565464,1.3281139835581302,0.9294932156359162,0.28799675,0.6567002990867828
0.025500000000000002,1.78374375,1.0,2589.3018929485343,0.2502630095302804,1.3276949579715933,0.9316150545831436,0.2879702375,0.6575765769132516
0.026000000000000002,1.7831000000000001,1.0,2602.685099967369,0.2544684430196299,1.3272794949239288,0.9336314515377073,0.2879432,0.6584442991145985
0.0265,1.78244375,1.0,2615.160872707753,0.2586502867895869,1.3268671328971182,0.9355492629306141,0.2879156375,0.6593044560957196
0.027,1.781775,1.0,2626.772272710916,0.2628086726051435,1.3264574103731428,0.9373747971384939,0.28788755,0.660158033203002
0.0275,1.7810937500000001,1.0,2637.5632763163576,0.26694373223129175,1.326049865833984,0.9391138655828899,0.2878589375,0.6610060108088042
0.028,1.7804,1.0,2647.578692249527,0.27105559743302365,1.3256440377616232,0.9407718284446216,0.2878298,0.661849364382355
0.0285,1.77969375,1.0,2656.859012893251,0.27514439693742554,1.3252395113577282,0.9423536411168293,0.2878001375,0.6626889676396244
0.029,1.778975,1.0,2665.4474507448626,0.2792102640426112,1.3248358527730024,0.9438638840492488,0.28776995,0.6635257294427178
0.029500000000000002,1.7782437500000001,1.0,2673.376806024809,0.2832533261761484,1.3244327292942468,0.9453068083881646,0.2877392375,0.6643603449065241
0.03,1.7775,1.0,2680.678842830468,0.2872737097569901,1.3240298221001556,0.9466863545801464,0.287708,0.6651934770081043
0.0305,1.77674375,1.0,2687.385751791663,0.2912715412040891,1.3236268123694228,0.9480061776396356,0.2876762375,0.6660257854451735
0.031,1.775975,1.0,2693.5301097641445,0.2952469469363982,1.3232233812807426,0.9492696714107506,0.28764395,0.6668579266372567
0.0315,1.7751937500000001,1.0,2699.1448417770307,0.29920005337287026,1.3228192100128089,0.9504799904820961,0.2876111375,0.6676905537203635
0.032,1.7744,1.0,2704.253070963139,0.3031309815694808,1.322414072107285,0.9516400796152696,0.2875778,0.668524126617342
0.0325,1.77359375,1.0,2708.888141740948,0.30703986071643785,1.322007650072838,0.9527526728835423,0.2875439375,0.6693592898423749
0.033,1.772775,1.0,2713.0857628764766,0.3109268203824407,1.3215996071596472,0.9538203169271622,0.28750955,0.6701967240904356
0.0335,1.7719437500000002,1.0,2716.865248953288,0.3147919804660058,1.3211897580608234,0.9548454026738775,0.2874746375,0.6710367962909112
0.034,1.7711000000000001,1.0,2720.246072421833,0.31863546086564976,1.3207779174694776,0.9558301630598355,0.2874392,0.6718798713773757
0.0345,1.7702437500000001,1.0,2723.2478482074357,0.32245738147988906,1.3203639000787204,0.9567766853302078,0.2874032375,0.672726312265152
0.035,1.7693750000000001,1.0,2725.8903190796727,0.3262578622072403,1.3199475205816629,0.9576869222450293,0.28736675,0.6735764798266787
0.035500000000000004,1.76849375,1.0,2728.193341783462,0.33003702294621995,1.3195285936714156,0.9585627022991225,0.2873297375,0.6744307328646919
0.036000000000000004,1.7676,1.0,2730.1768739306967,0.33379498359534454,1.31910693404109,0.95940573905309,0.2872922,0.6752894280832127
0.0365,1.76669375,1.0,2731.8609616543713,0.3375318640531307,1.3186823563837962,0.9602176396618635,0.2872541375,0.6761529200563493
0.037,1.765775,1.0,2733.2657280227986,0.3412477842180949,1.3182546753926454,0.9609999126780631,0.28721555,0.6770215611949041
0.0375,1.76484375,1.0,2734.399368677784,0.34494285662614194,1.31782381467965,0.9617539842527922,0.2871764375,0.6778954809390164
0.038,1.7639,1.0,2735.2877360225707,0.3486172059505235,1.3173895379713043,0.962481182248999,0.28713679999999997,0.6787751313340624
0.0385,1.76294375,1.0,2735.949645572826,0.35227095032583144,1.3169516733571494,0.9631827606439493,0.28709663750000003,0.6796608314926751
0.039,1.761975,1.0,2736.396039027176,0.35590420258400607,1.316510120760023,0.9638599056214278,0.28705595,0.6805527533688639
0.0395,1.7609937500000001,1.0,2736.637888050788,0.35951707555698764,1.3160647801027625,0.9645137347087689,0.2870147375,0.6814510675337768
0.04,1.76,1.0,2736.6861900434596,0.36310968207671634,1.3156155513082055,0.9651453014800918,0.286973,0.6823559431518416
0.0405,1.7589937500000001,1.0,2736.551964129998,0.3666821349751324,1.3151623342991894,0.9657555998893472,0.2869307375,0.6832675479562691
0.041,1.757975,1.0,2736.2462473725873,0.37023454708417625,1.3147050289985518,0.9663455682659071,0.28688795,0.6841860482239179
0.0415,1.75694375,1.0,2735.7800912053185,0.37376703123578797,1.3142435353291304,0.9669160930022254,0.2868446375,0.6851116087495204
0.042,1.7559,1.0,2735.164558090833,0.3772797002619079,1.3137777532137627,0.9674680119602437,0.28680079999999997,0.68604439281927
0.0425,1.75484375,1.0,2734.4107183990013,0.38077266699447626,1.313307582575286,0.9680021176206698,0.2867564375,0.6869845621837702
0.043000000000000003,1.753775,1.0,2733.5246658105007,0.3842460354662426,1.3128329685849103,0.9685191622745558,0.28671155,0.6879321867549507
0.043500000000000004,1.75269375,1.0,2732.52128490365,0.3876999264550376,1.312353776606476,0.9690198545674268,0.28666613750000003,0.6888874943867085
0.044,1.7516,1.0,2731.4079565457187,0.39113444821631504,1.3118699401619425,0.9695048694025392,0.2866202,0.6898505753296761
0.0445,1.75049375,1.0,2730.19089056435,0.3945497069319288,1.311381403425338,0.9699748471673637,0.2865737375,0.6908214974517441
0.045,1.7493750000000001,1.0,2728.876297490362,0.39794580878373254,1.3108881105706902,0.9704303953519663,0.28652675,0.6918003275056961
0.0455,1.74824375,1.0,2727.470387422725,0.40132285995357997,1.3103900057720277,0.9708720905551038,0.2864792375,0.6927871311123744
0.046,1.7471,1.0,2725.979368963124,0.4046809666233247,1.309887033203378,0.9713004803492635,0.2864312,0.6937819727436494
0.0465,1.7459437500000001,1.0,2724.4094482187425,0.40802023497482054,1.3093791370387695,0.9717160850158267,0.28638263750000004,0.6947849157051859
0.047,1.744775,1.0,2722.766827874758,0.4113407711899211,1.3088662614522302,0.9721193991605513,0.28633355,0.6957960221190134
0.0475,1.74359375,1.0,2721.0577063361056,0.4146426814504801,1.3083483506177878,0.9725108932186849,0.28628393750000003,0.6968153529058987
0.048,1.7424,1.0,2719.288312487193,0.41792607186875635,1.3078253483857298,0.9728910148266833,0.2862338,0.6978429684030742
0.0485,1.74119375,1.0,2717.4656910760114,0.4211910458439508,1.3072971911208684,0.9732601893110218,0.2861831375,0.6988789423763536
0.049,1.739975,1.0,2715.5935141944433,0.42443770690293914,1.3067638458530948,0.9736188239360372,0.28613195,0.6999232872366667
0.0495,1.73874375,1.0,2713.675329446029,0.42766615675078,1.3062252807149834,0.9739673066763395,0.2860802375,0.7009760122800688
0.05,1.7375,1.0,2711.7146807586796,0.4308764970925321,1.3056814638391083,0.9743060074415125,0.286028,0.7020371258455993
0.0505,1.73624375,1.0,2709.715108095184,0.43406882963325405,1.3051323633580436,0.974635279076411,0.2859752375,0.7031066353046391
0.051000000000000004,1.734975,1.0,2707.676345447456,0.4372432558757336,1.3045779820997079,0.974955460539816,0.28592195,0.7041844796558356
0.051500000000000004,1.73369375,1.0,2705.6066073011716,0.4403998763293789,1.3040182454801335,0.9752668703318255,0.2858681375,0.7052707474973894
0.052000000000000005,1.7324,1.0,2703.511445163037,0.44353879056067214,1.3034531031288408,0.9755698141074385,0.2858138,0.7063654789587919
0.0525,1.73109375,1.0,2701.3870198454333,0.44666009786818833,1.3028825904020793,0.9758645893075438,0.28575893750000003,0.70746854729377
0.053,1.7297750010865915,1.0,2699.2439162267815,0.44976389726319593,1.302306611364414,0.9761514720474177,0.28570355004563686,0.7085800788436389
0.0535,1.7284501659040343,1.0,2697.3843762357337,0.4528502867637594,1.3017252986124945,0.9764307403703453,0.28564790696796943,0.7096997582181155
0.054,1.727125330721477,1.0,2696.07285021323,0.45591936395107696,1.3011389794420092,0.9767026721068459,0.285592263890302,0.7108268975147487
0.0545,1.7258004955389197,1.0,2695.2681024350795,0.45897122614948227,1.3005480273881929,0.976967535931227,0.28553662081263465,0.7119607245952362
0.055,1.7244756603563622,1.0,2694.9290692705285,0.4620059698362139,1.2999528160140654,0.9772255890228425,0.2854809777349672,0.713100472465664
0.0555,1.7231508251738048,1.0,2695.0192533790832,0.46502369081547046,1.2993536783772968,0.9774770752865163,0.2854253346572998,0.7142454567665242
0.056,1.7218259899912476,1.0,2695.513525253638,0.4680244815566637,1.2987508445276317,0.9777222221355127,0.2853696915796324,0.7153951941773815
0.0565,1.7205011548086901,1.0,2696.3570985461142,0.4710084438772047,1.298144816517471,0.9779612641935934,0.28531404850196496,0.7165486874482258
0.057,1.7191763196261327,1.0,2697.527929534166,0.4739756701931012,1.2975357973981931,0.9781944085179852,0.2852584054242976,0.7177055142430528
0.0575,1.7178514844435755,1.0,2699.0040175084823,0.47692625292036117,1.296923990221177,0.9784218537831573,0.28520276234663017,0.7188652552013213
0.058,1.716526649261018,1.0,2700.7633917646313,0.47986028447499235,1.2963095980378014,0.9786437906928633,0.28514711926896275,0.7200274939753717
0.0585,1.7152018140784608,1.0,2702.7840995080205,0.48277785727300254,1.295692823899445,0.9788604023688355,0.2850914761912954,0.7211918172652163
0.059000000000000004,1.7138769788959034,1.0,2705.044194673411,0.48567906373039954,1.2950738708574863,0.9790718647176212,0.28503583311362796,0.7223578148507
0.059500000000000004,1.712552143713346,1.0,2707.521727658625,0.48856399626319125,1.2944529419633042,0.9792783467769535,0.28498019003596053,0.7235250796210301
0.06,1.7112273085307887,1.0,2710.196314672812,0.4914327463964974,1.2938302258674703,0.979480010191086,0.2849245469582931,0.7246932345876
0.0605,1.7099024733482313,1.0,2713.0545942101003,0.4942854029679004,1.293205847033243,0.9796770067465117,0.2848689038806257,0.7258620257191278
0.061,1.708577638165674,1.0,2716.071744024315,0.4971220623320948,1.2925800342688336,0.9798694885953633,0.2848132608029583,0.7270310062093372
0.0615,1.7072528029831167,1.0,2719.2374810175315,0.4999428121927808,1.2919528836084297,0.9800575944841305,0.2847576177252909,0.728199980078835
0.062,1.7059279678005592,1.0,2722.541510027197,0.5027477402536588,1.291324491086219,0.9802414579692411,0.2847019746476235,0.7293687528487103
0.0625,1.704603132618002,1.0,2725.973521079303,0.5055369342184288,1.290694952736389,0.9804212076527267,0.2846463315699561,0.7305371315484331
0.063,1.7032782974354446,1.0,2729.523186846287,0.5083104817907913,1.290064364593127,0.9805969674055218,0.28459068849228863,0.7317049247231682
0.0635,1.7019534622528874,1.0,2733.1801603101453,0.5110684706744466,1.2894328226906207,0.9807688565791235,0.28453504541462127,0.7328719424404966
0.064,1.70062862707033,1.0,2736.9340726286355,0.5138109885730948,1.2888004230630574,0.980936990206303,0.28447940233695385,0.7340379962965531
0.0645,1.6993037918877725,1.0,2740.7745312073444,0.5165381231904362,1.2881672617446251,0.9811014791915099,0.2844237592592864,0.7352028994215711
0.065,1.6979789567052153,1.0,2744.696597593574,0.5192499554760204,1.2875333850999047,0.9812624275462916,0.28436811618161906,0.7363665575669323
0.0655,1.6966541215226578,1.0,2748.6884896608103,0.5219465777823274,1.2868989013820824,0.981419939454672,0.28431247310395164,0.7375287639851855
0.066,1.6953292863401006,1.0,2752.7403888083536,0.524628080006802,1.2862639007828824,0.981574114395945,0.2842568300262842,0.7386893466472195
0.0665,1.6940044511575432,1.0,2756.8481815140544,0.5272945444902649,1.2856284216475373,0.9817250453599894,0.2842011869486168,0.7398482294232673
0.067,1.6926796159749857,1.0,2761.007743224499,0.5299460535735373,1.2849925023212792,0.9818728221266682,0.28414554387094937,0.7410053368005602
0.0675,1.6913547807924285,1.0,2765.214937964374,0.53258268959744,1.28435618114934,0.9820175314002851,0.284089900793282,0.7421605938844507
0.068,1.690029945609871,1.0,2769.465617978326,0.5352045349027942,1.2837194964769523,0.9821592569375128,0.2840342577156146,0.7433139263994409
0.0685,1.6887051104273136,1.0,2773.7556234060257,0.5378116718304206,1.283082486649348,0.9822980796691517,0.28397861463794716,0.7444652606901203
0.069,1.6873802752447564,1.0,2778.0807819892293,0.5404041827211401,1.2824451900117597,0.9824340778160635,0.2839229715602798,0.7456145237220055
0.0695,1.686055440062199,1.0,2782.4369088114395,0.542982149915774,1.2818076449094196,0.9825673269995867,0.28386732848261237,0.7467616430822912
0.07,1.6847306048796418,1.0,2786.819806070805,0.5455456557551429,1.2811698896875596,0.9826979003467433,0.28381168540494495,0.7479065469805024
0.07050000000000001,1.6834057696970843,1.0,2791.2252628848764,0.5480947825800679,1.2805319626914122,0.9828258685905058,0.2837560423272775,0.7490491642490564
0.07100000000000001,1.6820809345145271,1.0,2795.6505937193397,0.550629607136473,1.2798938884474456,0.9829512991970685,0.2837003992496101,0.7501894490107427
0.07150000000000001,1.6807560993319697,1.0,2800.095108356673,0.5531502031322959,1.2792556734993712,0.9830742564626169,0.28364475617194274,0.7513273878138157
0.07200000000000001,1.6794312641494122,1.0,2804.551127618254,0.5556566714793549,1.278617387042557,0.9831948070497034,0.2835891130942753,0.7524628559871747
0.0725,1.678106428966855,1.0,2809.0173920014154,0.5581490881873826,1.2779790405325602,0.9833130114592764,0.2835334700166079,0.7535958323488433
0.073,1.6767815937842976,1.0,2813.492637963522,0.5606275292661118,1.2773406454249379,0.9834289282816656,0.2834778269389405,0.7547262959033127
