Time [s],Phi [rad],STIM [ ],Fsee [N],Gamma [ ],Lcerel [ ],q [ ],Lmtc [m],fisomrel [ ]
0.0,1.8,1.0,17.9703538933805,5.842874527586308e-05,1.3793393882074758,0.0050008972817449605,0.288653,0.5411403971759502
0.0005,1.79999375,1.0,18.295808346517045,0.005667310315031403,1.3793002706798605,0.013075508291807574,0.2886527375,0.5412350276217621
0.001,1.799975,1.0,21.673445109184463,0.011244730493865455,1.378932681758975,0.03586137836594871,0.28865195,0.5421237968589009
0.0015,1.79994375,1.0,31.201048654671425,0.016790865756209312,1.378034985629513,0.0709474745310747,0.2886506375,0.544290655740095
0.002,1.7999,1.0,53.86728327676134,0.02230589158476812,1.376349673641718,0.11512716490262291,0.2886488,0.5483447804520802
0.0025,1.79984375,1.0,97.59834872799365,0.027789982478417914,1.373912094022977,0.1650198883972197,0.28864643749999996,0.5541764857887514
0.003,1.7997750000000001,1.0,161.58239163350066,0.03324331195947397,1.3711910010373742,0.21773947738433988,0.28864354999999997,0.5606417115716583
0.0035,1.79969375,1.0,238.38885881772686,0.038666052573640204,1.3685630182299888,0.27106940338911073,0.2886401375,0.5668408851824009
0.004,1.7996,1.0,322.21752194781953,0.044058375900693635,1.3661362194760447,0.32335780947384235,0.2886362,0.5725263673080027
0.0045000000000000005,1.7994937500000001,1.0,410.045271515857,0.049420452559697355,1.3639045714516804,0.3734540733073331,0.2886317375,0.577721501519671
0.005,1.799375,1.0,500.20692581912846,0.054752452200337885,1.3618414888937485,0.4206399854306713,0.28862675,0.58249597230598
0.0055,1.79924375,1.0,591.5909053505382,0.060054543547742964,1.3599232007336615,0.46453710890678274,0.2886212375,0.5869109999159325
0.006,1.7991000000000001,1.0,683.3196349839303,0.06532689435203899,1.3581318494012657,0.5050139291479554,0.2886152,0.5910126863661643
0.006500000000000001,1.79894375,1.0,774.6808011467231,0.07056967144191481,1.3564536084123089,0.5421060866217344,0.2886086375,0.5948368145722078
0.007,1.798775,1.0,865.0753991757432,0.07578304068783087,1.3548776435322116,0.5759550312991484,0.28860155,0.598411537375716
0.0075,1.79859375,1.0,954.0198855989707,0.08096716701701061,1.3533948356333056,0.606762982074102,0.2885939375,0.601760491542439
0.008,1.7984,1.0,1041.1221768470732,0.08612221465289147,1.3519974041359129,0.6347619719633005,0.2885858,0.6049037866121775
0.0085,1.79819375,1.0,1126.0572404580862,0.09124834636525636,1.3506787249026881,0.6601933152517024,0.2885771375,0.607858520091278
0.009000000000000001,1.797975,1.0,1208.5951309608536,0.09634572433154419,1.349432540745156,0.6832942269491351,0.28856795,0.610640623304799
0.0095,1.79774375,1.0,1288.5755393800418,0.10141451065406099,1.348253082670828,0.7042902468312386,0.2885582375,0.613264637787836
0.01,1.7975,1.0,1365.842509181615,0.10645486486944035,1.3471357048670154,0.7233914406648211,0.288548,0.6157423546125013
0.0105,1.79724375,1.0,1440.3090169185991,0.11146694637395736,1.3460758180913333,0.7407900131687761,0.2885372375,0.6180852300140767
0.011,1.796975,1.0,1511.9330051944908,0.11645091387960223,1.3450690933204406,0.7566601125927599,0.28852595000000003,0.6203039567442892
0.0115,1.79669375,1.0,1580.7134578378195,0.12140692599444353,1.3441114060485926,0.7711583812174669,0.2885141375,0.6224086104185607
0.012,1.7964,1.0,1646.6364702756714,0.12633513869765736,1.3431993830820244,0.7844252658571378,0.28850180000000003,0.6244074727427229
0.0125,1.79609375,1.0,1709.7207320456018,0.1312357076097571,1.342329754873138,0.7965860249304548,0.2884889375,0.6263084787260753
0.013000000000000001,1.7957750000000001,1.0,1770.0127115592215,0.13610878787405467,1.3414993590765125,0.8077521495822909,0.28847555,0.6281192211426376
0.0135,1.79544375,1.0,1827.5790016511703,0.1409545346316107,1.3407051796965737,0.8180227866895874,0.2884616375,0.6298468766834358
0.014,1.7951000000000001,1.0,1882.475042829053,0.14577310095194115,1.33994464543105,0.8274861797286442,0.2884472,0.6314975702894061
0.0145,1.79474375,1.0,1934.7560457866396,0.15056463850652443,1.3392154523303397,0.836220820694471,0.2884322375,0.6330767758301119
0.015,1.794375,1.0,1984.4983220554982,0.15532929896683895,1.3385152964448408,0.8442964782422471,0.28841675,0.6345899045690739
0.0155,1.79399375,1.0,2031.7810490335812,0.16006723299787307,1.3378420466515193,0.851775274817766,0.2884007375,0.6360419372267623
0.016,1.7936,1.0,2076.706817798977,0.16477859208386794,1.337193503280344,0.8587125120202563,0.2883842,0.6374379507191604
0.0165,1.7931937500000001,1.0,2119.347972887422,0.16946352443526588,1.3365679397601176,0.8651576402062997,0.2883671375,0.6387819576710136
0.017,1.792775,1.0,2159.778069469652,0.17412217749495085,1.3359637443208074,0.8711548410032239,0.28834955,0.6400776865495637
0.0175,1.7923437500000001,1.0,2198.0816484600427,0.17875469870580682,1.3353793051923801,0.876743616491853,0.2883314375,0.641328831787871
0.018000000000000002,1.7919,1.0,2234.345329441927,0.18336123463341908,1.3348130906803397,0.8819593603488436,0.2883128,0.6425388849141538
0.0185,1.79144375,1.0,2268.662442919553,0.1879419324427769,1.3342635911776435,0.8868338227779734,0.2882936375,0.6437112615211265
0.019,1.790975,1.0,2301.1112943282455,0.19249693696452772,1.333729525792931,0.8913955814756267,0.28827395,0.6448488635651322
0.0195,1.79049375,1.0,2331.761144733158,0.1970263911648807,1.333209768872317,0.8956703850550688,0.2882537375,0.6459542408420188
0.02,1.79,1.0,2360.687024898543,0.20153043801004503,1.3327031947619175,0.8996814373438267,0.288233,0.6470299240918802
0.0205,1.78949375,1.0,2387.969251342881,0.2060092204662299,1.332208677807847,0.9034496831437074,0.2882117375,0.6480784259858485
0.021,1.788975,1.0,2413.677584972181,0.21046287931595495,1.3317252410727038,0.9069940901271929,0.28818995000000003,0.6491019274083435
0.021500000000000002,1.78844375,1.0,2437.9029489400173,0.21489155876379204,1.3312517434585016,0.9103318013735882,0.2881676375,0.650102941504155
0.022,1.7879,1.0,2460.7053888307737,0.21929539767394376,1.3307873783401187,0.913478431495597,0.2881448,0.6510832599836452
0.0225,1.78734375,1.0,2482.1427803512797,0.22367453409985583,1.3303313890573878,0.9164481730843944,0.28812143749999997,0.6520445580466094
0.023,1.786775,1.0,2502.2757292973834,0.2280291060949739,1.3298830189501414,0.9192539371557839,0.28809755,0.6529885006643517
0.0235,1.78619375,1.0,2521.167342680449,0.23235925171274358,1.329441511358212,0.9219074866101876,0.28807313749999996,0.6539167429656155
0.024,1.7856,1.0,2538.878312034405,0.23666510813130923,1.3290061539222309,0.9244195618260221,0.2880482,0.6548308376317007
0.0245,1.78499375,1.0,2555.466761140026,0.24094681187029982,1.3285762773820553,0.9267999839411262,0.2880227375,0.6557322383346641
0.025,1.784375,1.0,2571.002858893881,0.2452045011793489,1.328151116374183,0.9290577236495742,0.28799675,0.6566225919080912
0.025500000000000002,1.78374375,1.0,2585.5295734738106,0.24943830880269932,1.3277301758155846,0.9312010437438614,0.2879702375,0.6575029714919834
0.026000000000000002,1.7831000000000001,1.0,2599.0911391667532,0.25364836748459396,1.3273129606232303,0.9332375249238484,0.2879432,0.6583744445409938
0.0265,1.78244375,1.0,2611.732950793465,0.25783480996927577,1.3268989757140912,0.9351741313096402,0.2879156375,0.6592380729498661
0.027,1.781775,1.0,2623.501463568345,0.2619977690009876,1.3264877260051378,0.937017268863786,0.28788755,0.6600949131632465
0.0275,1.7810937500000001,1.0,2634.444098392756,0.2661373773239723,1.3260787164133403,0.9387728375662657,0.2878589375,0.660946016269861
0.028,1.7804,1.0,2644.603768951969,0.2702537636096821,1.325671501570066,0.9404462837365364,0.2878298,0.6617923248249316
0.0285,1.77969375,1.0,2654.0286156969487,0.2743470636402271,1.3252655948789858,0.942042632587627,0.2878001375,0.6626348622066949
0.029,1.778975,1.0,2662.751533219274,0.2784174047711899,1.3248606566045993,0.9435665464241031,0.28776995,0.6634743424439689
0.029500000000000002,1.7782437500000001,1.0,2670.8058095307833,0.2824649142559045,1.3244563483878828,0.9450223395918534,0.2877392375,0.6643114731849515
0.03,1.7775,1.0,2678.2252264917447,0.28648971934770456,1.3240523318698125,0.9464140087629249,0.287708,0.6651469585769672
0.0305,1.77674375,1.0,2685.044014003901,0.2904919472999241,1.3236482686913646,0.9477452603597628,0.2876762375,0.6659814992764101
0.031,1.775975,1.0,2691.2968067417396,0.294471725365897,1.3232438204935149,0.9490195352877627,0.28764395,0.6668157924513914
0.0315,1.7751937500000001,1.0,2697.0117723584526,0.29842917632735194,1.322838711381846,0.9502400376592979,0.2876111375,0.6676504031674397
0.032,1.7744,1.0,2702.2171633793782,0.3023644253880402,1.322432667422112,0.9514097490854172,0.2875778,0.6684858896015997
0.0325,1.77359375,1.0,2706.956574403333,0.30627760905843615,1.322025277102443,0.9525314327860611,0.2875439375,0.6693230896272155
0.033,1.772775,1.0,2711.249982882013,0.3101688476071714,1.3216163469391624,0.9536076851625103,0.28750955,0.6701623896094016
0.0335,1.7719437500000002,1.0,2715.117549190319,0.31403826130287754,1.3212056834485943,0.9546409284057837,0.2874746375,0.6710041738530658
0.034,1.7711000000000001,1.0,2718.5795994298437,0.31788597041418637,1.3207930931470626,0.9556334242599565,0.2874392,0.6718488245827169
0.0345,1.7702437500000001,1.0,2721.656609063085,0.3217120952097295,1.320378382550891,0.9565872865433568,0.2874032375,0.6726967219198818
0.035,1.7693750000000001,1.0,2724.369187377056,0.32551675595813856,1.3199613581764036,0.9575044925527946,0.28736675,0.673548243858135
0.035500000000000004,1.76849375,1.0,2726.7380627776183,0.32930007292804525,1.3195418265399241,0.9583868934621431,0.2873297375,0.6744037662357432
0.036000000000000004,1.7676,1.0,2728.784068913146,0.3330621663880813,1.3191195941577767,0.95923622381441,0.2872922,0.6752636627059181
0.0365,1.76669375,1.0,2730.52813162872,0.3368031566068782,1.3186944675462846,0.9600541101956954,0.2872541375,0.676128304704688
0.037,1.765775,1.0,2731.991256749648,0.3405231638530678,1.3182662532217724,0.9608420791699588,0.28721555,0.6769980614163733
0.0375,1.76484375,1.0,2733.1816147144264,0.3442222999657888,1.31783487491372,0.9616015742136432,0.2871764375,0.6778730621447063
0.038,1.7639,1.0,2734.124701507965,0.3479006906807923,1.317400099447988,0.9623339398944273,0.28713679999999997,0.6787537527755336
0.0385,1.76294375,1.0,2734.8387451963317,0.3515584541675805,1.3169617601368038,0.9630404457164747,0.28709663750000003,0.6796404419992962
0.039,1.761975,1.0,2735.334805409956,0.3551957032765056,1.316519755744376,0.9637222917321632,0.28705595,0.6805333042841856
0.0395,1.7609937500000001,1.0,2735.6239728140563,0.35881255085791997,1.3160739850349126,0.9643806083813615,0.2870147375,0.6814325127045595
0.04,1.76,1.0,2735.7173647769473,0.3624091097621758,1.3156243467726214,0.965016461270368,0.286973,0.6823382389169517
0.0405,1.7589937500000001,1.0,2735.626121266884,0.36598549283962545,1.315170739721711,0.9656308555739241,0.2869307375,0.6832506531354259
0.041,1.757975,1.0,2735.3614009757184,0.3695418129406212,1.3147130626463892,0.9662247400936954,0.28688795,0.6841699241062816
0.0415,1.75694375,1.0,2734.934377669705,0.3730781829155154,1.314251214310864,0.9667990110033385,0.2868446375,0.6850962190821028
0.042,1.7559,1.0,2734.3562367677137,0.3765947156146604,1.3137850934793438,0.9673545153073623,0.28680079999999997,0.6860297037951515
0.0425,1.75484375,1.0,2733.6381721467924,0.3800915238884084,1.3133145989160366,0.9678920540383733,0.2867564375,0.6869705424301119
0.043000000000000003,1.753775,1.0,2732.7857071917956,0.3835687140151865,1.3128396809466338,0.968412388364833,0.28671155,0.6879187947232409
0.043500000000000004,1.75269375,1.0,2731.8114478170996,0.3870264018409877,1.3123602256082232,0.9689162353604136,0.28666613750000003,0.6888746475063134
0.044,1.7516,1.0,2730.7270851366866,0.39046470042534653,1.311876127249442,0.9694042746176942,0.2866202,0.6898382692981184
0.0445,1.75049375,1.0,2729.5386862377613,0.3938837157763937,1.3113873313201132,0.9698771532995919,0.2865737375,0.690809725425185
0.045,1.7493750000000001,1.0,2728.252319190298,0.3972835539022595,1.310893783270061,0.9703354852576486,0.28652675,0.6917890801148865
0.0455,1.74824375,1.0,2726.8740519344456,0.40066432081107445,1.310395428549108,0.9707798530673306,0.2864792375,0.6927763964790039
0.046,1.7471,1.0,2725.4099512330286,0.404026122510969,1.3098922126070782,0.9712108099199557,0.2864312,0.6937717364970963
0.0465,1.7459437500000001,1.0,2723.866081690874,0.40736906501007364,1.3093840808937947,0.971628881382624,0.28638263750000004,0.6947751609996873
0.047,1.744775,1.0,2722.248504838996,0.4106932543165189,1.308870978859081,0.9720345670365403,0.28633355,0.6957867296512534
0.0475,1.74359375,1.0,2720.5632782863386,0.41399879643843507,1.3083528519527607,0.9724283420031988,0.28628393750000003,0.696806500933032
0.048,1.7424,1.0,2718.816454935455,0.41728579738395283,1.3078296456246572,0.972810658367092,0.2862338,0.6978345321256313
0.0485,1.74119375,1.0,2717.011846443488,0.42055435483061604,1.307301325694026,0.9731819468918351,0.2861831375,0.6988708393708359
0.049,1.739975,1.0,2715.1549372818836,0.423804576718178,1.306767842707227,0.9735426180749069,0.28613195,0.6999154677319965
0.0495,1.73874375,1.0,2713.252460956546,0.427036576397553,1.3062291357708768,0.9738930629268742,0.2860802375,0.700968483434381
0.05,1.7375,1.0,2711.3074929752124,0.43025045273253576,1.3056851772792335,0.9742336547265454,0.286028,0.7020298864533279
0.0505,1.73624375,1.0,2709.323105583736,0.4334463045869212,1.3051359396265552,0.9745647495129269,0.2859752375,0.7030996758552911
0.051000000000000004,1.734975,1.0,2707.3023675340805,0.4366242308245041,1.3045813952071001,0.9748866870321526,0.28592195,0.7041778497885722
0.051500000000000004,1.73369375,1.0,2705.248343868496,0.4397843303090792,1.3040215164151259,0.97519979162429,0.2858681375,0.7052644054740032
0.052000000000000005,1.7324,1.0,2703.1640957208115,0.44292670190444144,1.303456275644891,0.9755043730543312,0.2858138,0.7063593391955736
0.0525,1.73109375,1.0,2701.052680134928,0.44605144447438544,1.3028856452906534,0.9758007272913419,0.28575893750000003,0.707462646291022
0.053,1.729775,1.0,2698.917149899643,0.44915865688270623,1.302309597746671,0.9760891372394251,0.28570355000000003,0.7085743211423661
0.0535,1.72844375,1.0,2696.7605534007707,0.4522484379931985,1.301728105407202,0.9763698734238653,0.2856476375,0.7096943571663914
0.054,1.7271,1.0,2694.5859344903834,0.45532088666965714,1.3011411406665045,0.9766431946355609,0.2855912,0.7108227468050909
0.0545,1.7257437500000001,1.0,2692.39633237197,0.45837610177587684,1.3005486759188367,0.9769093485366178,0.2855342375,0.7119594815160526
0.055,1.724375,1.0,2690.194307346721,0.4614141752518822,1.299950687899735,0.9771685718226363,0.28547675,0.71310454345815
0.0555,1.72299375,1.0,2687.981019340346,0.464435183072958,1.2993471661344858,0.977421090446766,0.2854187375,0.7142578894363922
0.056,1.7216,1.0,2685.760971806942,0.46743926348516934,1.2987380694940376,0.9776671249441149,0.2853602,0.7154195339125498
0.0565,1.72019375,1.0,2683.5352189700607,0.4704265068838349,1.2981233884013437,0.9779068840372406,0.28530113749999997,0.716589430127875
0.057,1.718775,1.0,2681.304813347975,0.4733970036642734,1.2975031132793577,0.9781405678645538,0.28524155,0.7177675305774542
0.0575,1.71734375,1.0,2679.0708057413235,0.4763508442218035,1.296877234551034,0.9783683684005782,0.2851814375,0.7189537870067932
0.058,1.7159,1.0,2676.8342452241104,0.4792881189517439,1.2962457426393255,0.9785904698523652,0.2851208,0.720148150408401
0.0585,1.71444375,1.0,2674.596179135349,0.48220891824941325,1.2956086279671861,0.9788070490335979,0.2850596375,0.7213505710183602
0.059000000000000004,1.7129750000000001,1.0,2672.3576530732876,0.48511333251013034,1.29496588095757,0.9790182757178072,0.28499795,0.7225609983128976
0.059500000000000004,1.71149375,1.0,2670.119710892124,0.4880014521292138,1.29431749203343,0.9792243129720165,0.2849357375,0.7237793810049487
0.06,1.71,1.0,2667.8833946995524,0.49087336750198224,1.2936634516177206,0.979425317472049,0.284873,0.7250056670407101
0.0605,1.7084937500000001,1.0,2665.649744857839,0.4937291690237545,1.2930037501333949,0.9796214398006364,0.2848097375,0.7262398035961961
0.061,1.7069750000000001,1.0,2663.4197999857906,0.4965689470898492,1.2923383780034068,0.9798128247293921,0.28474595,0.7274817370737795
0.0615,1.7054437500000001,1.0,2661.194596962989,0.4993927920955851,1.29166732565071,0.97999961148564,0.2846816375,0.7287314130987329
0.062,1.7039,1.0,2658.9751709368365,0.5022007944362809,1.2909905834982582,0.9801819340050177,0.2846168,0.7299887765157628
0.0625,1.70234375,1.0,2656.7625553303,0.504993044507255,1.2903081419690052,0.9803599211707199,0.2845514375,0.7312537713855354
0.063,1.7007750000000001,1.0,2654.5577818528004,0.5077696327038265,1.2896199914859046,0.9805336970401749,0.28448555,0.7325263409812008
0.0635,1.69919375,1.0,2652.3618805129304,0.5105306494213138,1.2889261224719097,0.980703381059911,0.28441913750000003,0.7338064277849076
0.064,1.6976,1.0,2650.174634440141,0.5132761841092859,1.2882265368364416,0.9808690887828675,0.2843522,0.7350939523701255
0.0645,1.69599375,1.0,2647.99659092582,0.5160063199660003,1.2875212294403664,0.9810309307299014,0.2842847375,0.7363888476438144
0.065,1.694375,1.0,2645.8289663820365,0.5187211420060812,1.2868101889589632,0.9811890132326287,0.28421675,0.7376910571088133
0.0655,1.69274375,1.0,2643.6710100025693,0.5214207358220648,1.2860934222186022,0.9813434397284275,0.2841482375,0.7390004903164815
0.066,1.6911,1.0,2641.5223641777206,0.5241051869222639,1.2853709324241909,0.9814943097718776,0.2840792,0.7403170629060838
0.0665,1.6894437500000001,1.0,2639.3863744389528,0.5267745804936392,1.2846426885562823,0.9816417176892969,0.2840096375,0.7416407520773319
0.067,1.687775,1.0,2637.2617146457087,0.5294290011285656,1.283908702745738,0.981785756520886,0.28393955,0.7429714556927045
0.0675,1.68609375,1.0,2635.1475433752435,0.5320685323846367,1.283168982659515,0.9819265157679481,0.2838689375,0.744309079271605
0.068,1.6844000000000001,1.0,2633.043020590219,0.5346932578194458,1.2824235359645693,0.9820640818215414,0.2837978,0.7456535278484364
0.0685,1.68269375,1.0,2630.9501071960913,0.5373032605646163,1.2816723444085862,0.982198536833652,0.2837261375,0.7470047525362589
0.069,1.680975,1.0,2628.868114860505,0.5398986236178911,1.2809154142478836,0.9823299612780676,0.28365395,0.7483626595597576
0.0695,1.67924375,1.0,2626.7974131494475,0.5424794286332136,1.2801527419471774,0.9824584323447525,0.28358123749999997,0.7497271721284382
0.07,1.6775,1.0,2624.7386671609593,0.5450457571816146,1.2793843212268166,0.9825840244773061,0.283508,0.7510982176423182
0.07050000000000001,1.6757456980377123,1.0,2622.8020136047107,0.5475976877234011,1.278610010452595,0.9827068031672662,0.2834343193175839,0.7524759632512912
0.07100000000000001,1.6739901766437917,1.0,2621.3855457551504,0.5501353055442009,1.277830330546514,0.9828268625064026,0.28336058741903924,0.7538593986875471
0.07150000000000001,1.672234655249871,1.0,2620.49603724091,0.5526586920784611,1.2770457654767684,0.9829442917390868,0.2832868555204946,0.7552475887480594
0.07200000000000001,1.6704791338559501,1.0,2620.0995053884417,0.5551679255094334,1.2762566280274803,0.9830591694010364,0.2832131236219499,0.7566399090270612
0.0725,1.6687236124620295,1.0,2620.1621233470873,0.557663084020369,1.2754632309827707,0.9831715715891526,0.28313939172340524,0.7580357409965967
0.073,1.6669680910681088,1.0,2620.650189464341,0.5601442457945198,1.274665887126761,0.9832815720618296,0.28306565982486054,0.7594344720946089
0.0735,1.665212569674188,1.0,2621.5300988310455,0.562611489015137,1.2738649092435732,0.9833892423345835,0.2829919279263159,0.7608354958067902
0.074,1.6634570482802673,1.0,2622.7683169948436,0.565064891865472,1.273060610117328,0.9834946517712406,0.28291819602777124,0.7622382117421956
0.0745,1.6617015268863466,1.0,2624.331355843137,0.5675045325287766,1.2722533025321474,0.9835978676709127,0.28284446412922654,0.7636420257026117
0.075,1.6599460054924258,1.0,2626.1857516555974,0.5699304891883019,1.2714432992721525,0.9836989553509738,0.2827707322306819,0.7650463497456909
