Time [s],Phi [rad],STIM [ ],Fsee [N],Gamma [ ],Lcerel [ ],q [ ],Lmtc [m],fisomrel [ ]
0.0,1.8,1.0,19.298152237810587,0.001177180833175283,1.3791932941846627,0.0053554300195214205,0.288653,0.5414937680018617
0.0005,1.79999375,1.0,19.94389770459631,0.006779787088427563,1.3791212402859194,0.016495515036201346,0.2886527375,0.5416680011609252
0.001,1.799975,1.0,24.15682455432896,0.012350967152477278,1.3786862317587503,0.041946686556054644,0.28865195,0.542719189656754
0.0015,1.79994375,1.0,35.610923354681255,0.017890897301471125,1.3776724602869115,0.07910821030417399,0.2886506375,0.5451642625664264
0.002,1.7999,1.0,62.0213757975522,0.023399752822737065,1.3758406630708024,0.12468358156902992,0.2886488,0.5495656759646033
0.0025,1.79984375,1.0,110.17888043042643,0.02887770802026701,1.373325683586129,0.17534756546385105,0.28864643749999996,0.5555737690527727
0.003,1.7997750000000001,1.0,177.25389451241145,0.034324936220639396,1.3706190823501638,0.22834879579581216,0.28864354999999997,0.5619945656821508
0.0035,1.79969375,1.0,255.7217081907919,0.03974160977671829,1.3680392645345616,0.28158956139204105,0.2886401375,0.5680711089313106
0.004,1.7996,1.0,340.4395713036593,0.045127900074066356,1.3656607789142776,0.3335214718440503,0.2886362,0.5736358251396805
0.0045000000000000005,1.7994937500000001,1.0,428.77050355969095,0.05048397755380519,1.3634703379293247,0.3830862620922486,0.2886317375,0.5787286780788984
0.005,1.799375,1.0,519.1969491847926,0.05581001163764619,1.361442028637587,0.4296410920262118,0.28862675,0.5834172829539086
0.0055,1.79924375,1.0,610.6791283285639,0.06110617096131313,1.3595534742590787,0.4728636232530228,0.2886212375,0.5877592447328637
0.006,1.7991000000000001,1.0,702.3457210880568,0.06637262292067035,1.3577885817411268,0.5126617611322924,0.2886152,0.5917963353816104
0.006500000000000001,1.79894375,1.0,793.5364499921013,0.07160953433014244,1.3561338304045367,0.5490962155511525,0.2886086375,0.5955634401830123
0.007,1.798775,1.0,883.6595926956804,0.07681707073199472,1.354579180720339,0.5823238250168479,0.28860155,0.5990867493612668
0.0075,1.79859375,1.0,972.2593138373583,0.08199539703633883,1.3531157362699249,0.6125547724489768,0.2885939375,0.6023892755055767
0.008,1.7984,1.0,1058.9507419886363,0.0871446770397989,1.3517361245413841,0.6400243951529568,0.2885858,0.6054901106269385
0.0085,1.79819375,1.0,1143.426849799452,0.09226507340285102,1.3504338569018832,0.6649740635480319,0.2885771375,0.6084059691864492
0.009000000000000001,1.797975,1.0,1225.4793500477242,0.09735674871265797,1.3492027042262211,0.6876391154590944,0.28856795,0.6111526510238978
0.0095,1.79774375,1.0,1304.92990017348,0.10241986386041839,1.3480374102925274,0.7082424181543334,0.2885582375,0.6137434982043077
0.01,1.7975,1.0,1381.6468056262133,0.10745457861797651,1.346933211252141,0.726990500232478,0.288548,0.6161905195480781
0.0105,1.79724375,1.0,1455.5580096974652,0.11246105233490224,1.3458855106667558,0.7440719410345512,0.2885372375,0.6185051451237168
0.011,1.796975,1.0,1526.6401508087054,0.11743944428436638,1.3448899101603218,0.7596572991231023,0.28852595000000003,0.6206981819821594
0.0115,1.79669375,1.0,1594.8661270601065,0.12238991148531839,1.343942738974989,0.7739000509517922,0.2885141375,0.6227786744463732
0.012,1.7964,1.0,1660.2317530519745,0.12731261007520264,1.3430406077263846,0.7869374942653512,0.28850180000000003,0.624754915340283
0.0125,1.79609375,1.0,1722.769594864589,0.13220769592969794,1.3421801756873395,0.7988919977403007,0.2884889375,0.6266349724699665
0.013000000000000001,1.7957750000000001,1.0,1782.5355839817937,0.13707532454607713,1.341358255828321,0.8098724708947669,0.28847555,0.6284264705926229
0.0135,1.79544375,1.0,1839.583464428051,0.14191565013352084,1.3405720482621075,0.8199758439585113,0.2884616375,0.630136096755589
0.014,1.7951000000000001,1.0,1893.9609975172941,0.14672882497274795,1.3398191208126078,0.8292883571577859,0.2884472,0.6317696592160277
0.0145,1.79474375,1.0,1945.7393476977131,0.15151500134447726,1.33909704130373,0.8378866333935895,0.2884322375,0.6333328972546444
0.015,1.794375,1.0,1994.9946693193642,0.15627433050814915,1.3384035517092914,0.8458388493839804,0.28841675,0.6348311103014572
0.0155,1.79399375,1.0,2041.8278161729422,0.16100696475425744,1.3377363309785004,0.8532056483007012,0.2884007375,0.6362696770956022
0.016,1.7936,1.0,2086.3097590529396,0.16571305302364175,1.3370935486616593,0.8600411996793703,0.2883842,0.6376528681463314
0.0165,1.7931937500000001,1.0,2128.5122631016366,0.17039274334136406,1.3364735083765158,0.8663938523660952,0.2883671375,0.638984624237241
0.017,1.792775,1.0,2168.51924136982,0.1750461837324864,1.3358745137408174,0.872306783841721,0.28834955,0.6402688489138055
0.0175,1.7923437500000001,1.0,2206.4198723650957,0.17967352158549194,1.3352949274810602,0.8778186268177877,0.2883314375,0.64150928445622
0.018000000000000002,1.7919,1.0,2242.306193402559,0.1842749042685893,1.3347331834448786,0.8829640060209283,0.2883128,0.6427094894797745
0.0185,1.79144375,1.0,2276.262630925453,0.18885047790552298,1.3341878793902153,0.8877740272524439,0.2882936375,0.6438726443516292
0.019,1.790975,1.0,2308.35764504367,0.19340038597281292,1.333657846054276,0.8922766978701866,0.28827395,0.6450014086939446
0.0195,1.79049375,1.0,2338.666018279247,0.1979247719469791,1.333141914174267,0.8964972244028034,0.2882537375,0.6460984216208714
0.02,1.79,1.0,2367.268328492593,0.20242377930454147,1.3326389144873936,0.9004583298900453,0.288233,0.6471663028337005
0.0205,1.78949375,1.0,2394.2382500922236,0.20689754979800054,1.3321477961536226,0.9041805575975431,0.2882117375,0.6482074027751645
0.021,1.788975,1.0,2419.66498695221,0.21134622759920282,1.3316674025639548,0.9076824651261715,0.28818995000000003,0.6492242795806109
0.021500000000000002,1.78844375,1.0,2443.6147470716924,0.21576995294054785,1.3311968402321448,0.9109809162542299,0.2881676375,0.650218919069653
0.022,1.7879,1.0,2466.1462003066245,0.22016886439752248,1.3307353210712185,0.9140912306291664,0.2881448,0.65119307205331
0.0225,1.78734375,1.0,2487.321013608632,0.22454310054561377,1.330282056994201,0.9170273275993679,0.28812143749999997,0.6521484784045897
0.023,1.786775,1.0,2507.203601259713,0.22889279996030862,1.3298362599141187,0.9198018735940996,0.28809755,0.653086867493195
0.0235,1.78619375,1.0,2525.8581952810655,0.23321810075058513,1.3293971671956064,0.9224264167506424,0.28807313749999996,0.6540099051132325
0.024,1.7856,1.0,2543.3401335316294,0.23751913916731995,1.3289641211586267,0.9249115150459808,0.2880482,0.6549190273926415
0.0245,1.78499375,1.0,2559.727636105549,0.24179605486133643,1.3285362672364334,0.9272667850948693,0.2880227375,0.655816074969231
0.025,1.784375,1.0,2575.0647044303464,0.2460489811363056,1.3281130897237945,0.9295010844524524,0.28799675,0.6567021694894937
0.025500000000000002,1.78374375,1.0,2589.396730154313,0.2502780512958987,1.3276940729154787,0.9316225307613123,0.2879702375,0.6575784265818397
0.026000000000000002,1.7831000000000001,1.0,2602.770380078267,0.2544833986437867,1.3272787011062546,0.933638573593844,0.2879432,0.6584459560019225
0.0265,1.78244375,1.0,2615.2334869837946,0.25866515648364086,1.326866458590891,0.9355560584432907,0.2879156375,0.6593058617609994
0.027,1.781775,1.0,2626.834946358499,0.26282345811913227,1.3264568296641561,0.9373812838050859,0.28788755,0.6601592422373347
0.0275,1.7810937500000001,1.0,2637.6183187324914,0.266958433087045,1.3260493568769065,0.9391200593398629,0.2878589375,0.6610070691331494
0.028,1.7804,1.0,2647.6348841809167,0.2710702172906702,1.3256435191591367,0.9407777369552612,0.2878298,0.6618504414210873
0.0285,1.77969375,1.0,2656.918886107306,0.27515893883514797,1.3252389597463081,0.9423592794512174,0.2878001375,0.6626901118084801
0.029,1.778975,1.0,2665.5047519844848,0.2792247256012557,1.3248353257082193,0.9438692753657464,0.28776995,0.6635268213393977
0.029500000000000002,1.7782437500000001,1.0,2673.4274543871097,0.28326770546977076,1.3244322641146686,0.9453119716079619,0.2877392375,0.6643613074025189
0.03,1.7775,1.0,2680.722460957802,0.28728800632147045,1.3240294220354547,0.9466913032608114,0.287708,0.6651943037479885
0.0305,1.77674375,1.0,2687.425687135319,0.29128575603713225,1.3236264465403758,0.948010920429937,0.2876762375,0.6660265404963308
0.031,1.775975,1.0,2693.563158349763,0.29526107712307964,1.323223078883375,0.9492742226929872,0.28764395,0.666858549990917
0.0315,1.7751937500000001,1.0,2699.1710606515826,0.29921409967393314,1.3228189703573787,0.9504843611193333,0.2876111375,0.6676910471218171
0.032,1.7744,1.0,2704.2894085667235,0.30314495550158593,1.3224137402750773,0.9516442642149286,0.2875778,0.6685248089344229
0.0325,1.77359375,1.0,2708.9394243604615,0.3070537657880586,1.3220071821653585,0.9527566771060624,0.2875439375,0.6693602507459364
0.033,1.772775,1.0,2713.142536034241,0.3109406517153716,1.321599089557111,0.9538241588131755,0.28750955,0.6701977857016496
0.0335,1.7719437500000002,1.0,2716.9203580357516,0.3148057344655456,1.3211892559792229,0.9548490971006696,0.2874746375,0.671037824756101
0.034,1.7711000000000001,1.0,2720.2946729134974,0.3186491352206012,1.3207774749605825,0.9558337219737935,0.2874392,0.6718807766515079
0.0345,1.7702437500000001,1.0,2723.2874139172304,0.3224709751625588,1.3203635400300784,0.9567801179601556,0.2874032375,0.6727270478934833
0.035,1.7693750000000001,1.0,2725.920648542842,0.32627137547343904,1.3199472447165985,0.9576902352980726,0.28736675,0.673577042724034
0.035500000000000004,1.76849375,1.0,2728.2165630230256,0.3300504573352625,1.3195283825490316,0.9585659001404782,0.2873297375,0.6744311630918358
0.036000000000000004,1.7676,1.0,2730.1974477628523,0.33380834193004966,1.3191067470562656,0.9594088238712429,0.2872922,0.6752898086197976
0.0365,1.76669375,1.0,2731.8773356197917,0.3375451450762927,1.318682207615188,0.9602206180847661,0.2872541375,0.6761532224155299
0.037,1.765775,1.0,2733.27772214318,0.34126098907626606,1.318254566445871,0.9610027902353544,0.28721555,0.6770217823225471
0.0375,1.76484375,1.0,2734.4212862498425,0.3449559955002591,1.3178236156361596,0.9617567552355385,0.2871764375,0.6778958843876235
0.038,1.7639,1.0,2735.320198538374,0.3486302784648547,1.3173892432125214,0.9624838508833403,0.28713679999999997,0.6787757279750732
0.0385,1.76294375,1.0,2735.986671731251,0.35228395208663593,1.316951337201423,0.9631853357430104,0.28709663750000003,0.6796615109892534
0.039,1.761975,1.0,2736.43295529307,0.3559171304821857,1.3165097856293317,0.9638623946953756,0.28705595,0.6805534298497273
0.0395,1.7609937500000001,1.0,2736.6713303279244,0.35952992776808707,1.3160644765227145,0.9645161440418132,0.2870147375,0.6814516794656328
0.04,1.76,1.0,2736.7141047538544,0.3631224580609229,1.3156152979080384,0.9651476362021335,0.286973,0.6823564532092479
0.0405,1.7589937500000001,1.0,2736.5736087556056,0.3666948354772762,1.3151621378117704,0.9657578640426556,0.2869307375,0.6832679428887585
0.041,1.757975,1.0,2736.2621905153173,0.37024717413373004,1.3147048842603777,0.9663477648671696,0.28688795,0.6841863387202242
0.0415,1.75694375,1.0,2735.792212221194,0.37377958814686735,1.314243425280327,0.9669182241002942,0.2868446375,0.6851118292987486
0.042,1.7559,1.0,2735.1760377503238,0.3772921823190503,1.3137776489762119,0.9674700771489196,0.28680079999999997,0.6860446014125038
0.0425,1.75484375,1.0,2734.4246634766964,0.38078507994636673,1.313307455933832,0.9680041182660698,0.2867564375,0.6869848152304525
0.043000000000000003,1.753775,1.0,2733.54543368441,0.38425838888523706,1.3128327799521615,0.9685210993181499,0.28671155,0.6879325630975845
0.043500000000000004,1.75269375,1.0,2732.5456729039843,0.3877122167023469,1.3123535550518488,0.9690217322940001,0.28666613750000003,0.6888879357349225
0.044,1.7516,1.0,2731.432708675209,0.3911466709643819,1.311869715253542,0.9695066918405961,0.2866202,0.689851022664779
0.0445,1.75049375,1.0,2730.213869992474,0.39456185923802783,1.3113811945778895,0.9699766175867552,0.2865737375,0.6908219121914749
0.045,1.7493750000000001,1.0,2728.8964858456343,0.39795788908997026,1.3108879270455398,0.970432116300195,0.28652675,0.6918006913817829
0.0455,1.74824375,1.0,2727.487883857458,0.40133486808689484,1.3103898466771413,0.9708737638914079,0.2864792375,0.6927874460450916
0.046,1.7471,1.0,2725.9953890182483,0.4046929037954873,1.3098868874933425,0.971302107276612,0.2864312,0.6937822607132924
0.0465,1.7459437500000001,1.0,2724.426322516067,0.4080321037824332,1.3093789835147918,0.9717176661109466,0.28638263750000004,0.6947852186203898
0.047,1.744775,1.0,2722.7869282752463,0.41135257435836753,1.3088660785217554,0.9721209349424172,0.28633355,0.6957963824572475
0.0475,1.74359375,1.0,2721.0824185121855,0.41465442085479964,1.3083481256457692,0.972512384692515,0.28628393750000003,0.6968157953148627
0.048,1.7424,1.0,2719.3177723717736,0.41793774759270685,1.307825080104916,0.9728924635138306,0.2862338,0.6978434950841901
0.0485,1.74119375,1.0,2717.4968353621052,0.4212026573580073,1.3072969074057497,0.9732615986094119,0.2861831375,0.6988794984019838
0.049,1.739975,1.0,2715.623449783874,0.4244492529366194,1.3067635730548237,0.97362019690948,0.28613195,0.699923820939534
0.0495,1.73874375,1.0,2713.701454348067,0.4276776371144614,1.3062250425586912,0.9739686462152135,0.2860802375,0.7009764773913514
0.05,1.7375,1.0,2711.7348414551957,0.43088791251935793,1.3056812799863682,0.9743073161535449,0.286028,0.7020374842662487
0.0505,1.73624375,1.0,2709.734891556379,0.434080177188739,1.3051321828788904,0.9746365543820207,0.2859752375,0.7031069865164647
0.051000000000000004,1.734975,1.0,2707.6984442843664,0.43725454009661346,1.3045777804221688,0.9749567025003925,0.28592195,0.7041848714065853
0.051500000000000004,1.73369375,1.0,2705.628839391952,0.44041109942792417,1.3040180425089107,0.9752680816003979,0.2858681375,0.705271141036512
0.052000000000000005,1.7324,1.0,2703.529412269262,0.4435499533676138,1.303452939031824,0.975570998373583,0.2858138,0.7063657965336358
0.0525,1.73109375,1.0,2701.403493746904,0.4466712001006252,1.302882439883616,0.975865745879457,0.28575893750000003,0.7074688380425629
0.053,1.729775,1.0,2699.254409919508,0.44977493781190114,1.3023065149569946,0.9761526042662342,0.28570355000000003,0.7085802647147845
0.0535,1.72844375,1.0,2697.085481989038,0.4528612646863843,1.301725134144667,0.9764318414474741,0.2856476375,0.7097000746982869
0.054,1.7271,1.0,2694.900026128759,0.4559302789090175,1.301138267339341,0.9767037137376696,0.2855912,0.7108282651271033
0.0545,1.7257437500000001,1.0,2692.701353366577,0.4589820786647435,1.300545884433724,0.976968466449598,0.2855342375,0.7119648321108117
0.055,1.724375,1.0,2690.5000517968583,0.4620167578569218,1.2999478886490263,0.9772263300663241,0.28547675,0.7131098982620896
0.0555,1.7229982247735562,1.0,2688.493836385038,0.46503441769898146,1.2993444900490827,0.9774775441642678,0.28541892544048936,0.7142629983330824
0.056,1.7216213016038422,1.0,2687.0331779830753,0.46803515338775364,1.2987360332983853,0.9777223456090545,0.28536109466736137,0.7154234132944708
0.0565,1.7202443784341284,1.0,2686.0897987150097,0.4710190581119321,1.298122840243171,0.9779609599692485,0.2853032638942334,0.7165904723384717
0.057,1.7188674552644145,1.0,2685.6283037901762,0.47398622506021076,1.2975052327296768,0.9781936035790593,0.2852454331211054,0.7177635092425411
0.0575,1.7174905320947007,1.0,2685.61344663794,0.47693674742128334,1.2968835326041397,0.9784204840002378,0.2851876023479774,0.7189418624632868
0.058,1.7161136089249869,1.0,2686.0100985550207,0.47987071838384365,1.2962580617127961,0.9786418004574038,0.2851297715748494,0.720124875223779
0.0585,1.714736685755273,1.0,2686.7832206498433,0.4827882311365854,1.295629141901883,0.9788577442485162,0.2850719408017215,0.7213118955942484
0.059000000000000004,1.7133597625855592,1.0,2687.8978380830363,0.4856893788682025,1.2949970950176375,0.9790684991320878,0.2850141100285935,0.7225022765661829
0.059500000000000004,1.7119828394158454,1.0,2689.3294539540675,0.48857425094477686,1.2943621473287248,0.9792742361553175,0.2849562792554655,0.7236955555485399
0.06,1.7106059162461316,1.0,2691.04583269036,0.4914429417746502,1.2937245962453536,0.9794751240070523,0.28489844848233753,0.7248911401801785
0.0605,1.7092289930764177,1.0,2693.0153136261547,0.49429554576326945,1.293084733983214,0.9796713246280829,0.28484061770920954,0.7260884525063414
0.061,1.707852069906704,1.0,2695.2222202960907,0.4971321509881806,1.2924427064732602,0.979862985527368,0.28478278693608156,0.7272871920618449
0.0615,1.70647514673699,1.0,2697.650882735803,0.49995284552692937,1.291798659646445,0.9800502486493685,0.28472495616295357,0.7284870606777365
0.062,1.7050982235672762,1.0,2700.2856307118,0.5027577174570617,1.2911527394337226,0.9802332506299094,0.2846671253898256,0.7296877625007617
0.0625,1.7037213003975624,1.0,2703.1107874245463,0.5055468548561235,1.2905050917660459,0.980412123038463,0.2846092946166976,0.7308890040114836
0.063,1.7023443772278486,1.0,2706.1106636829595,0.5083203458016605,1.2898558625743686,0.980586992607672,0.28455146384356966,0.7320904940410355
0.0635,1.7009674540581348,1.0,2709.2695525510294,0.5110782783712188,1.2892051977896444,0.980757981450872,0.2844936330704417,0.7332919437865201
0.064,1.699590530888421,1.0,2712.571724467388,0.5138207406423441,1.2885532433428268,0.9809252072683179,0.2844358022973137,0.734493066825049
0.0645,1.698213607718707,1.0,2716.0014228361883,0.5165478206925823,1.2879001451648693,0.9810887835427864,0.2843779715241857,0.7356935791264261
0.065,1.6968366845489933,1.0,2719.55286716206,0.5192595997176932,1.2872459580599442,0.9812488147057992,0.2843201407510577,0.7368933660019923
0.0655,1.6954597613792795,1.0,2723.2066179228646,0.5219561723501581,1.286590861061995,0.9814054085682171,0.28426230997792973,0.7380920865935725
0.066,1.6940828382095656,1.0,2726.9552319651048,0.5246376223325078,1.2859349236885582,0.9815586630596569,0.28420447920480174,0.7392896027270994
0.0665,1.6927059150398516,1.0,2730.792122974428,0.5273040326764326,1.2852782075247522,0.9817086722709263,0.28414664843167375,0.7404857918095167
0.067,1.691328991870138,1.0,2734.7106898413463,0.5299554863936226,1.2846207741556948,0.9818555270474968,0.28408881765854577,0.7416805322672608
0.0675,1.689952068700424,1.0,2738.7043156399573,0.532592066495768,1.2839626851665036,0.9819993151258833,0.28403098688541784,0.7428737035492001
0.068,1.68857514553071,1.0,2742.766366690168,0.5352138559945592,1.2833040021422963,0.9821401212633946,0.2839731561122898,0.7440651861293296
0.0685,1.6871982223609963,1.0,2746.890191705521,0.5378209379016862,1.2826447866681914,0.9822780273616113,0.28391532533916186,0.7452548615092238
0.069,1.6858212991912824,1.0,2751.0691210229024,0.5404133952288394,1.2819851003293063,0.9824131125839463,0.2838574945660339,0.7464426122202521
0.0695,1.6844443760215686,1.0,2755.2964659185855,0.5429913109877089,1.281325004710759,0.9825454534675986,0.2837996637929059,0.7476283218255468
0.07,1.6830674528518548,1.0,2759.568845132585,0.5455547614967392,1.2806645313205576,0.9826751222236934,0.2837418330197779,0.7488119287583284
0.07050000000000001,1.681690529682141,1.0,2763.8807489358373,0.548103830572105,1.280003730804525,0.9828021900421383,0.2836840022466499,0.7499933378046785
0.07100000000000001,1.6803136065124271,1.0,2768.223451170616,0.5506386091947928,1.2793426826885679,0.9829267275533047,0.2836261714735219,0.7511724031516394
0.07150000000000001,1.6789366833427133,1.0,2772.594586174471,0.5531591747580887,1.2786814088903047,0.9830487996874685,0.28356834070039394,0.7523490827133763
0.07200000000000001,1.6775597601729995,1.0,2776.9917809808458,0.5556656046552795,1.2780199313273528,0.9831684692961321,0.283510509927266,0.7535233347727488
0.0725,1.6761828370032856,1.0,2781.4126552145353,0.5581579762796511,1.2773582719173304,0.9832857972329785,0.28345267915413797,0.7546951179816078
0.073,1.6748059138335718,1.0,2785.85482099882,0.5606363670244903,1.2766964525778555,0.98340084243117,0.28339484838101003,0.755864391361067
