Time [s],Phi [rad],STIM [ ],Fsee [N],Gamma [ ],Lcerel [ ],q [ ],Lmtc [m],fisomrel [ ]
0.0,1.8,1.0,18.009411839283615,0.00020966535380476721,1.37933501517529,0.005011437755015635,0.288653,0.5411509766006461
0.0005,1.79999375,1.0,18.383926823345828,0.005817698605813008,1.3792904992847377,0.013504114932065377,0.2886527375,0.5412586643888215
0.001,1.799975,1.0,21.873853382405436,0.011394275225257749,1.378912286061451,0.03665661395252592,0.28865195,0.5421730850500162
0.0015,1.79994375,1.0,31.644738143856234,0.016939571659948777,1.3779973978960591,0.07203137052230908,0.2886506375,0.5443812729075522
0.002,1.7999,1.0,54.79470912717338,0.022453763365853904,1.3762899224329426,0.11640784823543782,0.2886488,0.5484881832761801
0.0025,1.79984375,1.0,99.13334432397166,0.02793702481582391,1.373838596001221,0.1664112742036532,0.28864643749999996,0.5543517351397829
0.003,1.7997750000000001,1.0,163.56424984813978,0.03338952950560254,1.3711171872757946,0.21917369184814695,0.28864354999999997,0.5608164327439504
0.0035,1.79969375,1.0,240.61961303000845,0.038811449954867676,1.3684945666183448,0.27249504954568543,0.2886401375,0.5670017677702751
0.004,1.7996,1.0,324.5858209506969,0.04420295771753353,1.3660736801051894,0.32473762977803045,0.2886362,0.5726723875454193
0.0045000000000000005,1.7994937500000001,1.0,412.49433138456243,0.04956422338709257,1.3638472227156562,0.37476347166084156,0.2886317375,0.5778545871240552
0.005,1.799375,1.0,502.70326190877756,0.05489541658848654,1.3617885500140878,0.42186474689427916,0.28862675,0.5826181284397445
0.0055,1.79924375,1.0,594.1072330826593,0.06019670601646635,1.3598741231970934,0.4656708669784854,0.2886212375,0.5870236462153164
0.006,1.7991000000000001,1.0,685.8362550003548,0.06546825940169727,1.3580861728026155,0.5060557409362758,0.2886152,0.5911170052537482
0.006500000000000001,1.79894375,1.0,777.1771242067006,0.07071024352585925,1.3564110507929668,0.5430586276663513,0.2886086375,0.5949335550786138
0.007,1.798775,1.0,867.5408485323711,0.07592282430471554,1.3548378651258097,0.5768230541017114,0.28860155,0.5985015608193803
0.0075,1.79859375,1.0,956.4377758697183,0.08110616652793676,1.3533576846475428,0.6075524838527397,0.2885939375,0.60184421779505
0.008,1.7984,1.0,1043.4902349168647,0.08626043446114012,1.3519625718373423,0.6354793116838059,0.2885858,0.6049819771225884
0.0085,1.79819375,1.0,1128.37662828919,0.09138579093144862,1.350645918617384,0.6608448930863963,0.2885771375,0.6079318869801368
0.009000000000000001,1.797975,1.0,1210.8520042192786,0.09648239806473276,1.3494017265005895,0.6838863551301441,0.28856795,0.6107092905561455
0.0095,1.79774375,1.0,1290.7581207985818,0.10155041757835771,1.3482242211570867,0.7048288356467407,0.2885582375,0.6133287366056772
0.01,1.7975,1.0,1367.953453805832,0.10659000936678044,1.3471085907041687,0.7238818449981221,0.288548,0.6158023796535903
0.0105,1.79724375,1.0,1442.3497206452491,0.1116013327886802,1.3460502919161839,0.7412371261826685,0.2885372375,0.6181415671706758
0.011,1.796975,1.0,1513.913175054865,0.11658454690936904,1.3450449174888492,0.7570683102681257,0.28852595000000003,0.6203571585303356
0.0115,1.79669375,1.0,1582.6210607521382,0.12153980933646476,1.3440886279319444,0.7715317148272185,0.2885141375,0.622458597346658
0.012,1.7964,1.0,1648.4666209093036,0.1264672763454876,1.3431779712057155,0.7847673177572437,0.28850180000000003,0.6244543369870189
0.0125,1.79609375,1.0,1711.4763481605376,0.13136710373919605,1.34230959708379,0.7968999512467765,0.2884889375,0.6263524864296346
0.013000000000000001,1.7957750000000001,1.0,1771.7084497156911,0.13623944755533982,1.3414802229515792,0.8080407099853565,0.28847555,0.6281608971075885
0.0135,1.79544375,1.0,1829.2110737541075,0.14108446183848433,1.3406870541248832,0.8182885170448909,0.2884616375,0.6298862600500922
0.014,1.7951000000000001,1.0,1884.0305307978786,0.14590229901172058,1.3399276238563809,0.8277313703591085,0.2884472,0.6315344723831469
0.0145,1.79474375,1.0,1936.237110157285,0.15069311149813946,1.3391994653987513,0.8364474497226281,0.2884322375,0.6331113605650551
0.015,1.794375,1.0,1985.9102679911773,0.15545705088608194,1.3385002476109151,0.8445062951387632,0.28841675,0.6346223927530266
0.0155,1.79399375,1.0,2033.1448139790325,0.16019426930245653,1.3378276813220693,0.8519697869626831,0.2884007375,0.6360728881777882
0.016,1.7936,1.0,2078.0143228723973,0.1649049161067323,1.3371798802154922,0.8588931590827712,0.2883842,0.6374672461028902
0.0165,1.7931937500000001,1.0,2120.5903767350746,0.16958913944010398,1.3365551257401218,0.8653257090213945,0.2883671375,0.638809462174907
0.017,1.792775,1.0,2160.9569841451907,0.17424708744376624,1.3359516993448965,0.8713114507956128,0.28834955,0.6401034939645289
0.0175,1.7923437500000001,1.0,2199.2029418486495,0.17887890756253688,1.335367949088569,0.8768897573730394,0.2883314375,0.6413531209315273
0.018000000000000002,1.7919,1.0,2235.4212091287463,0.18348474741999007,1.3348022832195903,0.882095904521174,0.2883128,0.642561961578282
0.0185,1.79144375,1.0,2269.696220729377,0.18806475324368296,1.334253285414023,0.8869615767050362,0.2882936375,0.6437332308352414
0.019,1.790975,1.0,2302.0964521807414,0.19261906863457887,1.3337197741472293,0.8915152942113228,0.28827395,0.6448696184410787
0.0195,1.79049375,1.0,2332.6968351784294,0.19714783719364104,1.3332005678945713,0.895782718069403,0.2882537375,0.6459737932230076
0.02,1.79,1.0,2361.5782194894823,0.2016512025218328,1.3326944851314106,0.8997869746157454,0.288233,0.6470484042192143
0.0205,1.78949375,1.0,2388.815455335738,0.2061293066144702,1.332200455199326,0.9035489640211639,0.2882117375,0.6480958468283182
0.021,1.788975,1.0,2414.4968357602907,0.21058229356921535,1.331717322848951,0.9070875658642645,0.28818995000000003,0.6491186789602196
0.021500000000000002,1.78844375,1.0,2438.690133842536,0.2150103039467908,1.3312441730228157,0.910419926570249,0.2881676375,0.6501189344337721
0.022,1.7879,1.0,2461.454216288927,0.219413476438454,1.3307802102032036,0.9135616210175076,0.2881448,0.6510983818173612
0.0225,1.78734375,1.0,2482.851007633661,0.2237919497354624,1.3303246388723973,0.9165267967353555,0.28812143749999997,0.652058778551723
0.023,1.786775,1.0,2502.9452356469624,0.2281458625290735,1.3298766635126797,0.9193283244711871,0.28809755,0.6530018713958619
0.0235,1.78619375,1.0,2521.798575574093,0.23247535308685757,1.3294355417066601,0.9219779408779701,0.28807313749999996,0.6539292852692584
0.024,1.7856,1.0,2539.4614491331326,0.23678055770678766,1.329000658359475,0.9244863773095399,0.2880482,0.6548423686193625
0.0245,1.784994479562088,1.0,2556.068258024637,0.2410616162434356,1.3285709567102628,0.9268633624846266,0.2880227681416077,0.6557433877758374
0.025,1.7843862502824248,1.0,2572.0623046399687,0.24531866212926132,1.3281462758125269,0.9291179521782588,0.28799722251186183,0.6566327221631667
0.025500000000000002,1.7837780210027618,1.0,2587.585639145477,0.24955182879672463,1.3277264547197705,0.9312584420718151,0.287971676882116,0.6575107489694204
0.026000000000000002,1.7831697917230989,1.0,2602.650860279635,0.2537612496782854,1.3273113324854966,0.9332924418306682,0.2879461312523701,0.6583778431969665
0.0265,1.7825615624434357,1.0,2617.2709175084165,0.2579470582064034,1.3269007481632087,0.9352269410663165,0.2879205856226243,0.6592343777115256
0.027,1.7819533331637727,1.0,2631.4590945445734,0.26210938781353865,1.3264945408064097,0.9370683681576498,0.28789503999287847,0.660080723289578
0.0275,1.7813451038841097,1.0,2645.2280368800134,0.2662483701201318,1.326092558300801,0.9388226433388277,0.2878694943631326,0.6609172302960419
0.028,1.7807368746044467,1.0,2658.5906788927978,0.27036413710331675,1.3256946485732515,0.940495225262674,0.28784394873338676,0.6617442471005939
0.0285,1.7801286453247835,1.0,2671.5594073360576,0.27445681784615983,1.325300667148321,0.9420911528405177,0.28781840310364093,0.6625621044415093
0.029,1.7795204160451206,1.0,2684.1468431809108,0.2785265413677508,1.324910469769108,0.9436150831075726,0.28779285747389505,0.6633711308495456
0.029500000000000002,1.7789121867654576,1.0,2696.3658528902156,0.2825734366871793,1.324523912178712,0.9450713250936491,0.2877673118441492,0.6641716531384682
0.03,1.7783039574857946,1.0,2708.2146669945605,0.28659760507521254,1.3241409858087514,0.9464638786631409,0.2877417662144034,0.6649637159404682
0.0305,1.7776957282061314,1.0,2719.7262285838096,0.2905992104671389,1.3237613668741488,0.947796433419877,0.2877162205846575,0.6657480144125728
0.031,1.7770874989264684,1.0,2730.915674812297,0.29457838534581765,1.323384896841485,0.9490724248327411,0.2876906749549117,0.6665248995370604
0.0315,1.7764792696468055,1.0,2741.7919386002673,0.29853525060917385,1.323011475361494,0.9502950489688262,0.28766512932516586,0.6672946007168077
0.032,1.7758710403671423,1.0,2752.364103935156,0.3024699271551325,1.3226410020849113,0.9514672789624325,0.28763958369542,0.6680573462169779
0.0325,1.7752628110874793,1.0,2762.6413992009416,0.3063825358816184,1.322273376662471,0.9525918833024399,0.2876140380656741,0.6688133631842126
0.033,1.7746545818078163,1.0,2772.6331907299764,0.3102731976865567,1.3219084987449081,0.9536714424096757,0.28758849243592827,0.669562877665177
0.0335,1.7740463525281533,1.0,2782.3489765783083,0.3141420334678723,1.3215462679829573,0.9547083636824388,0.28756294680618244,0.6703061146244651
0.034,1.7734381232484902,1.0,2791.7983805247404,0.3179891641234901,1.3211865840273531,0.9557048951680213,0.28753740117643656,0.6710432979618624
0.0345,1.7728298939688272,1.0,2800.991146292786,0.32181471055133515,1.3208293465288306,0.9566631380002526,0.28751185554669073,0.6717746505289655
0.035,1.7722216646891642,1.0,2809.9371319956285,0.3256187936493324,1.320474455138124,0.9575850577274378,0.2874863099169449,0.6725003941451613
0.035500000000000004,1.771613435409501,1.0,2818.6463048049104,0.3294015343154068,1.3201218095059684,0.9584724946413127,0.287460764287199,0.6732207496129609
0.036000000000000004,1.771005206129838,1.0,2827.1287358425925,0.3331630534474833,1.3197713092830985,0.9593271732055195,0.2874352186574532,0.6739359367326945
0.0365,1.770396976850175,1.0,2835.394595295709,0.33690347194348685,1.3194228541202488,0.9601507106714396,0.28740967302770737,0.6746461743165633
0.037,1.769788747570512,1.0,2843.454147754893,0.34062291070134254,1.3190763436681543,0.9609446249597919,0.2873841273979615,0.675351680202047
0.0375,1.7691805182908489,1.0,2851.317747776032,0.3443214906189752,1.3187316775775495,0.9617103418780831,0.28735858176821566,0.6760526712646717
0.038,1.768572289011186,1.0,2858.9855077926654,0.3479993093731101,1.318388847225045,0.9624492057153381,0.28733303613846983,0.6767491771769995
0.0385,1.767964059731523,1.0,2866.4744632126503,0.3516565096648754,1.3180476941294665,0.9631624762067355,0.28730749050872395,0.6774415314379123
0.039,1.76735583045186,1.0,2873.791048163057,0.35529320563908456,1.3177081547251885,0.9638513423168494,0.2872819448789781,0.6781298737918229
0.0395,1.7667476011721968,1.0,2880.9405866994575,0.35890950854099557,1.3173701757487521,0.9645169245872796,0.28725639924923224,0.6788143225293564
0.04,1.7661393718925338,1.0,2887.928449347175,0.36250552961586635,1.317033703936699,0.9651602794687238,0.2872308536194864,0.6794949954342393
0.0405,1.7655311426128708,1.0,2894.760051289401,0.366081380108955,1.3166986860255707,0.9657824036683037,0.2872053079897406,0.6801720097885108
0.041,1.7649229133332076,1.0,2901.440850619024,0.36963717126551954,1.3163650687519084,0.9663842381579418,0.2871797623599947,0.6808454823775519
0.0415,1.7643146840535446,1.0,2907.97634665336,0.37317301433081784,1.3160327988522535,0.9669666718734929,0.2871542167302489,0.6815155294949332
0.042,1.7637064547738817,1.0,2914.372078311039,0.37668902055010794,1.3157018230631476,0.9675305451314572,0.287128671100503,0.6821822669470823
0.0425,1.7630982254942187,1.0,2920.6336225527743,0.38018530116864785,1.3153720881211322,0.9680766527875265,0.28710312547075717,0.6828458100577706
0.043000000000000003,1.7624899962145555,1.0,2926.7665928842152,0.3836619674316956,1.3150435407627483,0.968605747158918,0.28707757984101134,0.6835062736724189
0.043500000000000004,1.7618817669348925,1.0,2932.7766379221807,0.3871191305845091,1.3147161277245378,0.9691185407303757,0.28705203421126546,0.6841637721622207
0.044,1.7612735376552295,1.0,2938.669440023789,0.3905569018723464,1.314389795743042,0.9696157086618752,0.28702648858151963,0.684818419428088
0.0445,1.7606653083755666,1.0,2944.4507139781176,0.3939753925404655,1.314064491554802,0.9700978911144018,0.2870009429517738,0.6854703289044122
0.045,1.7600570790959034,1.0,2950.1196328604765,0.39737468706118223,1.3137402193641345,0.9705656959376302,0.2869753973220279,0.6861194985757166
0.0455,1.7594488498162404,1.0,2955.6872102564416,0.40075492491129816,1.313416879995092,0.971019700206219,0.2869498516922821,0.6867661330808101
0.046,1.7588406205365774,1.0,2961.1577122227845,0.4041162147129185,1.3130944335839825,0.9714604520077743,0.28692430606253627,0.6874103177893023
0.0465,1.7582323912569142,1.0,2966.5339556819054,0.4074586586691009,1.312772853096874,0.9718884722467379,0.2868987604327904,0.6880521121353356
0.047,1.7576241619772512,1.0,2971.81877389269,0.41078235898290333,1.3124521114998355,0.9723042562084229,0.28687321480304456,0.6886915753166274
0.0475,1.7570159326975883,1.0,2977.0150159392856,0.41408741785738346,1.3121321817589353,0.9727082750603852,0.28684766917329874,0.6893287662959406
0.048,1.7564077034179253,1.0,2982.1255462366244,0.41737393749559915,1.3118130368402419,0.9731009772522341,0.28682212354355285,0.6899637438025064
0.0485,1.755799474138262,1.0,2987.153244052014,0.42064202010060814,1.3114946497098239,0.9734827898216297,0.28679657791380697,0.6905965663333997
0.049,1.7551912448585991,1.0,2992.1010030426964,0.4238917678754683,1.3111769933337498,0.9738541196135709,0.28677103228406114,0.6912272921548706
0.0495,1.7545830155789361,1.0,2996.9717308096037,0.4271232830232373,1.310860040678088,0.9742153544194717,0.2867454866543153,0.6918559793036274
0.05,1.7539747862992732,1.0,3001.76834846753,0.4303366677469731,1.3105437647089073,0.9745668640419904,0.28671994102456944,0.6924826855880701
0.0505,1.75336655701961,1.0,3006.4937902318784,0.4335320242497334,1.3102281383922758,0.9749090012910764,0.2866943953948236,0.6931074685894865
0.051000000000000004,1.752758327739947,1.0,3011.1510030203804,0.436709454734576,1.3099131346942625,0.9752421029162595,0.2866688497650778,0.6937303856631885
0.051500000000000004,1.752150098460284,1.0,3015.742946072322,0.43986906140455867,1.3095987265809357,0.9755664904797906,0.2866433041353319,0.6943514939396143
0.052000000000000005,1.7515418691806208,1.0,3020.2725905835964,0.4430109464627393,1.309284887018364,0.9758824711748836,0.2866177585055861,0.6949708503253758
0.0525,1.7509336399009578,1.0,3024.742444344108,0.4461352080091437,1.3089715930741737,0.9761903384213064,0.28659221287584025,0.695588503422217
0.053,1.7503254106212949,1.0,3029.150966869987,0.4492419133247646,1.3086588568311623,0.9764903717834792,0.28656666724609436,0.6962044327158164
0.0535,1.749717181341632,1.0,3033.505885972762,0.4523312124680934,1.3083466104419743,0.9767828422051061,0.28654112161634854,0.6968187749647492
0.054,1.7491089520619687,1.0,3037.808548261822,0.4554031982229614,1.3080348412496947,0.9770680064944317,0.2865155759866027,0.6974315579600618
0.0545,1.7485007227823057,1.0,3042.0603060509943,0.45845796337319983,1.3077235365974085,0.9773461105163094,0.28649003035685683,0.6980428093877022
0.055,1.7478924935026428,1.0,3046.2625172268295,0.46149560070264,1.3074126838282005,0.9776173897500873,0.286464484727111,0.6986525568288993
0.0555,1.7472842642229796,1.0,3050.416545119425,0.4645162029951133,1.307102270285156,0.977882069814561,0.2864389390973651,0.6992608277605324
0.056,1.7466760349433166,1.0,3054.523758377914,0.467519863034451,1.3067922833113597,0.9781403669621997,0.2864133934676193,0.6998676495554925
0.0565,1.7460678056636536,1.0,3058.5855308485316,0.4705066736044843,1.3064827102498966,0.9783924885446782,0.28638784783787347,0.7004730494830291
0.057,1.7454595763839906,1.0,3062.6032414568954,0.4734767274890445,1.306173538443852,0.9786386334516022,0.2863623022081276,0.7010770547090915
0.0575,1.7448513471043274,1.0,3066.578274093905,0.47643011747196307,1.3058647552363103,0.9788789925241778,0.28633675657838176,0.7016796922966582
0.058,1.7442431178246645,1.0,3070.512017504222,0.4793669363370711,1.305556347970357,0.9791137489454452,0.2863112109486359,0.7022809892060529
0.0585,1.7436348885450015,1.0,3074.405865179832,0.4822872768682,1.3052483039890768,0.9793430786085795,0.28628566531889005,0.7028809722952558
0.059000000000000004,1.7430266592653385,1.0,3078.2612152555885,0.48519123184918106,1.3049406106355548,0.9795671504646599,0.2862601196891442,0.7034796683202008
0.059500000000000004,1.7424184299856753,1.0,3082.079470409429,0.4880788940638455,1.3046332552528759,0.9797861268512009,0.28623457405939834,0.7040771039350644
0.06,1.7418102007060123,1.0,3085.8620377658604,0.49095035629602474,1.304326225184125,0.9800001638026542,0.2862090284296525,0.7046733056925423
0.0605,1.7412019714263494,1.0,3089.610328802509,0.49380571132955,1.3040195077723873,0.9802094113440024,0.2861834827999067,0.7052683000441178
0.061,1.7405937421466862,1.0,3093.3257592608143,0.4966450519482526,1.3037130903607477,0.9804140137684904,0.2861579371701608,0.7058621133403199
0.0615,1.7399855128670232,1.0,3097.009749060381,0.49946847093596375,1.3034069602922909,0.9806141099004628,0.286132391540415,0.7064547718309702
0.062,1.7393772835873602,1.0,3100.660120792414,0.5022759947788401,1.3031011356239588,0.9808098299425941,0.28610684591066915,0.7070462422942173
0.0625,1.7387690543076972,1.0,3104.2816164816036,0.5050677916490997,1.3027955753989653,0.981001306826458,0.28608130028092327,0.7076366056084488
0.063,1.738160825028034,1.0,3107.87520067921,0.5078439517300528,1.302490270938301,0.9811886643806549,0.28605575465117744,0.7082258800627335
0.0635,1.737552595748371,1.0,3111.4414604468293,0.5106045577137094,1.3021852168005563,0.9813720215146204,0.2860302090214316,0.7088140776377576
0.064,1.736944366468708,1.0,3114.9809847346437,0.5133496922920792,1.3018804075443213,0.9815514928203962,0.28600466339168573,0.7094012102706456
0.0645,1.7363361371890451,1.0,3118.4943643515826,0.5160794381571722,1.3015758377281856,0.9817271887610006,0.2859791177619399,0.709987289855048
0.065,1.735727907909382,1.0,3121.9821919356177,0.518793878000998,1.3012715019107401,0.9818992158492642,0.285953572132194,0.710572328241221
0.0655,1.735119678629719,1.0,3125.4450619259774,0.5214930945155665,1.3009673946505742,0.9820676768176678,0.2859280265024482,0.7111563372361145
0.066,1.734511449350056,1.0,3128.883570534469,0.5241771703928876,1.3006635105062785,0.9822326707797044,0.2859024808727023,0.711739328603447
0.0665,1.7339032200703928,1.0,3132.2983157188323,0.5268461883249711,1.3003598440364428,0.9823942933832401,0.2858769352429565,0.7123213140637876
0.067,1.7332949907907298,1.0,3135.689897155799,0.5295002310038268,1.3000563897996573,0.9825526369563287,0.28585138961321066,0.7129023052946304
0.0675,1.7326867615110668,1.0,3139.0589162151223,0.5321393811214646,1.2997531423545121,0.9827077906458987,0.2858258439834648,0.7134823139304707
0.068,1.7320785322314038,1.0,3142.405975934725,0.5347637213698943,1.2994500962595974,0.9828598405497114,0.28580029835371895,0.7140613515628758
0.0685,1.7314703029517406,1.0,3145.73168099562,0.5373733344411256,1.2991472460735034,0.983008869841958,0.2857747527239731,0.7146394297405574
0.069,1.7308620736720777,1.0,3149.036637698124,0.5399683030271685,1.29884458635482,0.9831549588928458,0.28574920709422724,0.7152165599694407
0.0695,1.7302538443924147,1.0,3152.321453938657,0.5425487098200327,1.2985421116621374,0.9832981853825021,0.2857236614644814,0.7157927537127293
0.07,1.7296456151127515,1.0,3155.5867391868783,0.5451146375117281,1.2982398165540456,0.9834386244094984,0.2856981158347356,0.7163680223909733
0.07050000000000001,1.7290373858330885,1.0,3158.833104463799,0.5476661687942644,1.2979376955891349,0.9835763485942878,0.2856725702049897,0.7169423773821302
