Time [s],Phi [rad],STIM [ ],Fsee [N],Gamma [ ],Lcerel [ ],q [ ],Lmtc [m],fisomrel [ ]
0.0,1.8,1.0,17.976293121265854,9.62098750699229e-05,1.3793387229294587,0.005002423284645842,0.288653,0.5411420066525745
0.0005,1.79999375,1.0,18.31415736261941,0.0057048795225742455,1.3792982340340403,0.01318158153428459,0.2886527375,0.5412399542686812
0.001,1.799975,1.0,21.719851903103304,0.011282088967861294,1.3789279505440295,0.0360592194716265,0.28865195,0.5421352305373136
0.0015,1.79994375,1.0,31.307753371917247,0.01682801467871805,1.3780259217199105,0.071217661818324,0.2886506375,0.5443125079968499
0.002,1.7999,1.0,54.09415236728953,0.022342832131164593,1.3763350099399223,0.11544675236017164,0.2886488,0.5483799754257608
0.0025,1.79984375,1.0,97.97714840478874,0.027826715817580804,1.3738939030906638,0.16536732435587692,0.28864643749999996,0.5542198636212669
0.003,1.7997750000000001,1.0,162.0736265443589,0.033279839253642494,1.3711726631255141,0.21809775518890795,0.28864354999999997,0.5606851216464082
0.0035,1.79969375,1.0,238.94297919974213,0.0387023749785482,1.3685459850250161,0.2714256452831175,0.2886401375,0.5668809213072086
0.004,1.7996,1.0,322.8064979371472,0.04409449456561768,1.3661206450493932,0.32370267505103273,0.2886362,0.572562733637169
0.0045000000000000005,1.7994937500000001,1.0,410.6547863503623,0.04945636862753156,1.3638902826945707,0.373781390028817,0.2886317375,0.5777546625014842
0.005,1.799375,1.0,500.828572108745,0.054788166807886896,1.361828293541034,0.42094617986856736,0.28862675,0.5825264221721409
0.0055,1.79924375,1.0,592.2176798744363,0.060090057823999024,1.3599109666066713,0.46482057663102055,0.2886212375,0.5869390820033531
0.006,1.7991000000000001,1.0,683.9465787328139,0.06536220942115895,1.3581204625296865,0.5052744238894753,0.2886152,0.5910386936145515
0.006500000000000001,1.79894375,1.0,775.3015588187201,0.07060478841752253,1.3564430192622545,0.5423442829393664,0.2886086375,0.594860886540842
0.007,1.798775,1.0,865.689759793263,0.07581796066826539,1.3548677259301394,0.5761720857698954,0.28860155,0.5984339830777152
0.0075,1.79859375,1.0,954.6265129556923,0.0810018912165091,1.353385510358597,0.6069603666828703,0.2885939375,0.601781508509547
0.008,1.7984,1.0,1041.7085649677906,0.08615674389429889,1.3519887751342183,0.6349413835557103,0.2885858,0.6049231574601808
0.0085,1.79819375,1.0,1126.6394151849033,0.09128268205151856,1.3506704872330628,0.6603562157179905,0.2885771375,0.6078769431879029
0.009000000000000001,1.797975,1.0,1209.1703225513284,0.09637986768198778,1.3494246846303228,0.6834421981271225,0.28856795,0.6106581306473196
0.0095,1.79774375,1.0,1289.122956451879,0.10144846212730634,1.3482458415689706,0.7044248999079809,0.2885582375,0.6132807201209165
0.01,1.7975,1.0,1366.3703652359445,0.10648862578309973,1.3471289228227763,0.7235140560264746,0.288548,0.6157573690685556
0.0105,1.79724375,1.0,1440.8149345952706,0.11150051771963773,1.3460694881270434,0.740901829542273,0.2885372375,0.6180992008529533
0.011,1.796975,1.0,1512.4374974458194,0.11648429767422426,1.345062932488234,0.7567621178619119,0.28852595000000003,0.6203175147404991
0.0115,1.79669375,1.0,1581.1973470189557,0.12144012244954366,1.3441056267719733,0.7712516847699706,0.2885141375,0.6224212934434548
0.012,1.7964,1.0,1647.0927553686718,0.12636814852792586,1.3431940436543182,0.784510790695892,0.28850180000000003,0.6244191594394068
0.0125,1.79609375,1.0,1710.1562357174316,0.1312685319680679,1.3423247535034621,0.7966645260544499,0.2884889375,0.6263193977640111
0.013000000000000001,1.7957750000000001,1.0,1770.442160758791,0.1361414286891332,1.3414945119467907,0.8078242670504371,0.28847555,0.6281297777749466
0.0135,1.79544375,1.0,1827.9971705076578,0.14098699272102938,1.3407005347989867,0.8180891772675091,0.2884616375,0.6298569693484837
0.014,1.7951000000000001,1.0,1882.8679171108215,0.1458053765672155,1.3399403455770758,0.8275474610279153,0.2884472,0.6315068923754411
0.0145,1.79474375,1.0,1935.1251285686744,0.15059673273115065,1.3392114677980842,0.8362774810659891,0.2884322375,0.6330853957725424
0.015,1.794375,1.0,1984.8443525833109,0.15536121274346373,1.3385116078793835,0.8443489551870638,0.28841675,0.6345978677643958
0.0155,1.79399375,1.0,2032.126410045436,0.16009896887868028,1.3378384083073447,0.8518238855371711,0.2884007375,0.6360497763786985
0.016,1.7936,1.0,2077.0414019058194,0.16481015019037065,1.3371900167969601,0.8587576460262152,0.2883842,0.6374454482540362
0.0165,1.7931937500000001,1.0,2119.661622875116,0.1694949049751388,1.3365647044534614,0.8651996444438863,0.2883671375,0.638788902156104
0.017,1.792775,1.0,2160.071857283264,0.17415338152958862,1.33596074238208,0.8711939920787869,0.28834955,0.6400841185525563
0.0175,1.7923437500000001,1.0,2198.359341198628,0.17878572723880873,1.3353764925386071,0.8767801543741844,0.2883314375,0.6413348477439464
0.018000000000000002,1.7919,1.0,2234.6188388348955,0.1833920901404791,1.3348103429684977,0.8819934798938208,0.2883128,0.6425447520450158
0.0185,1.79144375,1.0,2268.9276592155293,0.18797261562941858,1.3342609470041307,0.8868657398494918,0.2882936375,0.6437168983032582
0.019,1.790975,1.0,2301.35715534845,0.1925274475822511,1.333727091927034,0.8914255064994246,0.28827395,0.644854043730628
0.0195,1.79049375,1.0,2331.9852478127286,0.1970567298756006,1.3332075650187367,0.895698487044756,0.2882537375,0.6459589241526924
0.02,1.79,1.0,2360.895871416141,0.201560606386091,1.3327011535607667,0.8997078489153488,0.288233,0.6470342551636963
0.0205,1.78949375,1.0,2388.1590495761566,0.20603921850882692,1.3322068334017505,0.9034745459816835,0.2882117375,0.6480823336772372
0.021,1.788975,1.0,2413.8711029630404,0.21049271148591853,1.331723370561167,0.9070174791056906,0.28818995000000003,0.649105884641386
0.021500000000000002,1.78844375,1.0,2438.0902328683014,0.2149212243769338,1.3312499422195032,0.9103538485851494,0.2881676375,0.6501067467460964
0.022,1.7879,1.0,2460.877812237835,0.2193248962089053,1.3307857277236166,0.9134992541149343,0.2881448,0.6510867421376192
0.0225,1.78734375,1.0,2482.29832950274,0.2237038660088656,1.330329906420365,0.9164678654640439,0.28812143749999997,0.6520476815188547
0.023,1.786775,1.0,2502.419125683932,0.2280582728038472,1.329881657656606,0.9192725733490751,0.28809755,0.652991364610108
0.0235,1.78619375,1.0,2521.302629750885,0.2323882537713646,1.3294402318678815,0.9219251349185269,0.28807313749999996,0.6539194312080245
0.024,1.7856,1.0,2539.01484078359,0.23669394837433314,1.3290048672002852,0.9244362768807578,0.2880482,0.6548335374952892
0.0245,1.78499375,1.0,2555.611926405076,0.24097549319116565,1.3285749137135705,0.9268158191290817,0.2880227375,0.6557350959123716
0.025,1.784375,1.0,2571.141864425914,0.2452330220000751,1.328149814520091,0.9290727615818064,0.28799675,0.6566253164235647
0.025500000000000002,1.78374375,1.0,2585.654111924324,0.24946666857927446,1.3277290127322,0.9312153503668938,0.2879702375,0.6575054024667653
0.026000000000000002,1.7831000000000001,1.0,2599.199479047078,0.2536765667069767,1.3273119514622507,0.9332511511947255,0.2879432,0.6583765511159863
0.0265,1.78244375,1.0,2611.8300096861662,0.25786285016139465,1.3268980738225964,0.9351871146935762,0.2879156375,0.6592399532240955
0.027,1.781775,1.0,2623.5959359666995,0.26202565218965485,1.3264868501187965,0.9370296386628176,0.28788755,0.6600967369244468
0.0275,1.7810937500000001,1.0,2634.5407591325584,0.2661651049043016,1.3260778221014282,0.9387846260535077,0.2878589375,0.6609478760637415
0.028,1.7804,1.0,2644.704867747924,0.2702813388350772,1.3256705679957295,0.9404575249287003,0.2878298,0.6617942638435554
0.0285,1.77969375,1.0,2654.1257652450304,0.27437448358513394,1.3252646993670305,0.9420533695550306,0.2878001375,0.6626367198522809
0.029,1.778975,1.0,2662.841595699221,0.27844466875762436,1.3248598277806618,0.9435768131121336,0.28776995,0.6634760596119859
0.029500000000000002,1.7782442438812371,1.0,2670.9153785364406,0.28249202088614245,1.32445556461646,0.9450321603133554,0.28773925824301194,0.6643130949917544
0.03,1.7775102577154573,1.0,2678.7926837275363,0.28651667331503106,1.3240517575496717,0.9464234331199733,0.2877084308240492,0.6651481455005381
0.0305,1.7767762715496778,1.0,2686.625952686824,0.29051875249977555,1.323648460203806,0.9477543853460195,0.28767760340508647,0.6659811039786523
0.031,1.776042285383898,1.0,2694.4087096897824,0.2944983833139118,1.3232457295951225,0.9490285008682139,0.2876467759861237,0.6668118568192504
0.0315,1.7753082992181182,1.0,2702.1344449828316,0.29845569063097566,1.3228436227398808,0.9502490165065859,0.28761594856716094,0.6676402909955024
0.032,1.7745743130523384,1.0,2709.7966155358686,0.3023907993245029,1.3224421966543403,0.9514189425970224,0.28758512114819823,0.6684662940584304
0.0325,1.7738403268865586,1.0,2717.388645866521,0.30630383426802943,1.3220415083547605,0.952541081614292,0.28755429372923547,0.6692897541345367
0.033,1.773106340720779,1.0,2724.903928937132,0.310194920335091,1.3216416148574013,0.9536180450510718,0.2875234663102727,0.6701105599232243
0.0335,1.7723723545549992,1.0,2732.3549710077646,0.31406412479792656,1.3212423992584748,0.9546522330141556,0.28749263889130994,0.6709289570110291
0.034,1.7716383683892194,1.0,2739.715312197259,0.31791164409113537,1.3208440988478605,0.9556459615783288,0.28746181147234723,0.671744465033496
0.0345,1.7709043822234398,1.0,2746.981404955622,0.32173760645274957,1.320446742083046,0.9566013529362397,0.28743098405338446,0.6725570328072763
0.035,1.77017039605766,1.0,2754.1540502654357,0.32554212669667415,1.3200503179743803,0.9575203843164629,0.2874001566344217,0.6733666899378127
0.035500000000000004,1.7694364098918802,1.0,2761.2340612706193,0.329325319636814,1.3196548155322134,0.9584049068145303,0.287369329215459,0.6741734659026359
0.036000000000000004,1.7687024237261004,1.0,2768.2222630503225,0.33308730008707416,1.319260223766895,0.9592566548926339,0.2873385017964962,0.674977390052016
0.0365,1.7679684375603208,1.0,2775.1194923961534,0.3368281828613594,1.318866531688774,0.9600772550606131,0.28730767437753346,0.6757784916096049
0.037,1.767234451394541,1.0,2781.9265975911967,0.3405480827735749,1.3184737283082006,0.9608682338171805,0.2872768469585707,0.6765767996730689
0.0375,1.7665004652287613,1.0,2788.644438192434,0.3442471146376254,1.318081802635524,0.9616310249219683,0.287246019539608,0.6773723432147178
0.038,1.7657664790629815,1.0,2795.273884815181,0.347925393267416,1.3176907436810938,0.9623669760615617,0.2872151921206452,0.6781651510821223
0.0385,1.7650324928972019,1.0,2801.815818920999,0.3515830334768516,1.3173005404552596,0.9630773549661169,0.28718436470168246,0.6789552519987251
0.039,1.764298506731422,1.0,2808.271132607749,0.3552201500798371,1.3169111819683708,0.9637633550273438,0.28715353728271975,0.6797426745644458
0.0395,1.7635645205656423,1.0,2814.6407284018997,0.3588368578902774,1.316522657230777,0.9644261004634577,0.287122709863757,0.6805274472562755
0.04,1.7628305343998625,1.0,2820.9255190549306,0.3624332717220776,1.3161349552528279,0.9650666510720971,0.2870918824447942,0.6813095984288665
0.0405,1.7620965482340827,1.0,2827.1264273407955,0.3660095063891426,1.3157480650448727,0.9656860066081209,0.28706105502583146,0.682089156315111
0.041,1.761362562068303,1.0,2833.2443858571883,0.3695656767053772,1.3153619756172614,0.9662851108195417,0.2870302276068687,0.6828661490267149
0.0415,1.7606285759025233,1.0,2839.280336828921,0.37310189748468653,1.3149766759803432,0.9668648551715926,0.286999400187906,0.6836406045547638
0.042,1.7598945897367435,1.0,2845.2352319141114,0.37661828354097543,1.3145921551444677,0.9674260822860261,0.2869685727689432,0.6844125507702781
0.0425,1.759160603570964,1.0,2851.1100320132223,0.38011494968814885,1.3142084021199845,0.9679695891201301,0.2869377453499805,0.6851820154247645
0.043000000000000003,1.7584266174051841,1.0,2856.9055933820737,0.3835920068943807,1.3138254069274113,0.9684961293802473,0.28690691793101775,0.685949024128969
0.043500000000000004,1.7576926312394043,1.0,2862.624285250425,0.3870495511047462,1.313443146233157,0.9690064134387594,0.286876090512055,0.6867136290799098
0.044,1.7569586450736245,1.0,2868.2696733536204,0.39048771343281974,1.3130615862198822,0.9695011190086215,0.2868452630930922,0.6874759031680207
0.0445,1.756224658907845,1.0,2873.843344276414,0.3939065986019641,1.3126807107653105,0.9699808860015402,0.28681443567412945,0.688235883658483
0.045,1.7554906727420652,1.0,2879.346894833256,0.39730631133554184,1.3123005037471653,0.9704463215141261,0.28678360825516674,0.6889936076507231
0.0455,1.7547566865762854,1.0,2884.781931826106,0.4006869563569156,1.3119209490431702,0.9708980018308436,0.286752780836204,0.6897491120791072
0.046,1.7540227004105056,1.0,2890.1500718086468,0.40404863838944804,1.311542030531049,0.9713364742860038,0.2867219534172412,0.6905024337136191
0.0465,1.753288714244726,1.0,2895.4529408560957,0.4073914621565018,1.3111637320885252,0.9717622589959759,0.2866911259982785,0.6912536091605246
0.047,1.7525547280789462,1.0,2900.692174340235,0.4107155323814395,1.3107860375933222,0.9721758504718286,0.28666029857931574,0.6920026748630169
0.0475,1.7518207419131664,1.0,2905.8694167111203,0.4140209537876237,1.3104089309231637,0.972577719121705,0.286629471160353,0.692749667101845
0.048,1.7510867557473866,1.0,2910.98632128374,0.4173078310984171,1.3100323959557734,0.9729683126514466,0.2865986437413902,0.6934946219959266
0.0485,1.7503527695816068,1.0,2916.044550031047,0.4205762690371824,1.3096564165688747,0.9733480573712399,0.28656781632242745,0.6942375755029451
0.049,1.7496187834158272,1.0,2921.045773382244,0.42382637232728215,1.3092809766401914,0.9737173594154104,0.28653698890346474,0.6949785634199279
0.0495,1.7488847972500474,1.0,2925.9916700271706,0.42705824569207895,1.308906060047447,0.9740766058818782,0.286506161484502,0.695717621383811
0.05,1.7481508110842676,1.0,2930.8835121496636,0.43027198668412087,1.3085316543049448,0.9744261653116788,0.28647533406553927,0.6964547777163714
0.0505,1.747416824918488,1.0,2935.719187730866,0.43346763267433147,1.3081577766451513,0.9747663844729726,0.2864445066465765,0.6971900022101947
0.051000000000000004,1.7466828387527082,1.0,2940.50604708306,0.43664538612196274,1.3077843613939795,0.9750976075025959,0.28641367922761374,0.6979234275551667
0.051500000000000004,1.7459488525869284,1.0,2945.2450708935044,0.4398053411222232,1.3074113988413614,0.9754201544587634,0.286382851808651,0.6986550760918286
0.052000000000000005,1.7452148664211486,1.0,2949.937244804814,0.4429475917703213,1.3070388792772292,0.9757343311273231,0.2863520243896882,0.6993849700643593
0.0525,1.744480880255369,1.0,2954.583559318544,0.44607223216146547,1.3066667929915148,0.976040429782352,0.2863211969707255,0.7001131316208528
0.053,1.7437468940895893,1.0,2959.1850097005595,0.4491793563908643,1.30629513027415,0.9763387298998596,0.28629036955176274,0.7008395828135892
0.0535,1.7430129079238095,1.0,2963.742595889345,0.45226905855372623,1.3059238814150667,0.9766294988278744,0.2862595421328,0.7015643455992993
0.054,1.7422789217580297,1.0,2968.257322405284,0.45534143274525973,1.3055530367041968,0.9769129924159244,0.28622871471383726,0.7022874418394254
0.0545,1.74154493559225,1.0,2972.7301982630815,0.45839657306067333,1.3051825864314726,0.9771894556067015,0.2861978872948745,0.7030088933003724
0.055,1.7408109494264703,1.0,2977.162236885461,0.4614345735951754,1.3048125208868255,0.977459122992476,0.28616705987591173,0.7037287216537582
0.0555,1.7400769632606905,1.0,2981.5544560194967,0.4644555284439746,1.304442830360188,0.9777222193386452,0.28613623245694897,0.7044469484766511
0.056,1.7393429770949107,1.0,2985.907877654833,0.4674595317022793,1.3040735051414918,0.9779789600766076,0.28610540503798626,0.7051635952518086
0.0565,1.738608990929131,1.0,2990.2235279437527,0.47044667746529795,1.3037045355206687,0.9782295517680036,0.2860745776190235,0.7058786833679047
0.057,1.7378750047633513,1.0,2994.5024371238846,0.47341705982823906,1.3033359117876508,0.9784741925422025,0.2860437502000608,0.7065922341197529
0.0575,1.7371410185975715,1.0,2998.7456394424535,0.4763707728863112,1.30296762423237,0.9787130725087883,0.286012922781098,0.707304268708525
0.058,1.7364070324317917,1.0,3002.9541730830315,0.4793079107347228,1.3025996631447583,0.9789463741466556,0.28598209536213526,0.7080148082419606
0.0585,1.7356730462660122,1.0,3007.129080094106,0.4822285674686823,1.3022320188147476,0.9791742726712275,0.2859512679431725,0.7087238737345729
0.059000000000000004,1.7349390601002324,1.0,3011.271406319978,0.4851328371833983,1.3018646815322699,0.9793969363811813,0.28592044052420973,0.7094314861078486
0.059500000000000004,1.7342050739344526,1.0,3015.3822013334766,0.4880208139740791,1.3014976415872568,0.9796145269859851,0.285889613105247,0.7101376661904402
0.06,1.7334710877686728,1.0,3019.462518370693,0.4908925919359333,1.3011308892696407,0.9798271999154473,0.28585878568628426,0.7108424347183526
0.0605,1.732737101602893,1.0,3023.5134142685647,0.4937482651641694,1.3007644148693533,0.9800351046123966,0.2858279582673215,0.711545812335126
0.061,1.7320031154371134,1.0,3027.5359494036206,0.4965879277539959,1.3003982086763266,0.9802383848095407,0.2857971308483588,0.7122478195920094
0.0615,1.7312691292713336,1.0,3031.5294296391376,0.49941162708858383,1.3000322761430967,0.9804371759978289,0.285766303429396,0.7129484479349253
0.062,1.7305351431055538,1.0,3035.49560775793,0.5022194887765452,1.2996666016213116,0.9806316134747693,0.28573547601043325,0.7136477291860144
0.0625,1.7298011569397742,1.0,3039.4359096795324,0.5050116234047916,1.299301172322981,0.9808218264627813,0.2857046485914705,0.7143456895602335
0.063,1.7290671707739944,1.0,3043.3508159037115,0.5077881142013791,1.2989359836351693,0.9810079377816674,0.2856738211725078,0.7150423395665619
0.0635,1.7283331846082146,1.0,3047.2408086993746,0.5105490443943643,1.2985710309449408,0.9811900657581375,0.285642993753545,0.7157376896698828
0.064,1.7275991984424348,1.0,3051.1063720802977,0.5132944972118036,1.2982063096393597,0.9813683244233539,0.28561216633458225,0.7164317502910534
0.0645,1.726865212276655,1.0,3054.9479917811586,0.5160245558817532,1.2978418151054905,0.9815428237003954,0.2855813389156195,0.7171245318069733
0.065,1.7261312261108754,1.0,3058.766155234175,0.5187393036322695,1.2974775427303977,0.9817136695822201,0.2855505114966568,0.7178160445506518
0.0655,1.7253972399450956,1.0,3062.5613515458003,0.5214388236914089,1.2971134879011457,0.98188096430068,0.285519684077694,0.7185062988112747
0.066,1.7246632537793158,1.0,3066.3340714747947,0.5241231992872278,1.2967496460047987,0.9820448064870924,0.28548885665873125,0.7191953048342687
0.0665,1.7239292676135363,1.0,3070.0848074099667,0.5267925136477827,1.2963860124284212,0.9822052913248507,0.28545802923976854,0.719883072821364
0.067,1.7231952814477565,1.0,3073.8140533482856,0.5294468500011296,1.2960225825590777,0.9823625106945219,0.2854272018208058,0.7205696129306571
0.0675,1.7224612952819767,1.0,3077.522304874365,0.5320862915753252,1.2956593517838322,0.9825165533118514,0.285396374401843,0.7212549352766715
0.068,1.7217273091161969,1.0,3081.2100591396243,0.5347109215984256,1.2952963154897492,0.9826675048590675,0.28536554698288025,0.7219390499304161
0.0685,1.720993322950417,1.0,3084.877814842123,0.5373208232984874,1.2949334690638934,0.9828154481098587,0.28533471956391754,0.7226219669194434
0.069,1.7202593367846375,1.0,3088.526072206841,0.5399160799035669,1.2945708078933287,0.9829604630483646,0.2853038921449548,0.7233036962279071
0.0695,1.7195253506188577,1.0,3092.1553329667,0.5424967746417205,1.29420832736512,0.983102626982514,0.285273064725992,0.723984247796615
0.07,1.718791364453078,1.0,3095.766100343752,0.5450629907410045,1.293846022866331,0.9832420146520076,0.28524223730702924,0.7246636315230855
0.07050000000000001,1.7180573782872983,1.0,3099.358879031006,0.5476148114294752,1.2934838897840268,0.9833786983312396,0.28521140988806654,0.7253418572615982
0.07100000000000001,1.7173233921215185,1.0,3102.9341751743486,0.5501523199351891,1.2931219235052713,0.9835127479274226,0.28518058246910377,0.7260189348232458
