Time [s],Phi [rad],STIM [ ],Fsee [N],Gamma [ ],Lcerel [ ],q [ ],Lmtc [m],fisomrel [ ]
0.0,1.8,1.0,17.968242438493984,1.0001566872727925e-05,1.3793396247469503,0.005000026660084073,0.288653,0.5411398249261574
0.0005,1.79999375,1.0,18.27747461792479,0.005619154774786191,1.3793023066491104,0.012940516675999748,0.2886527375,0.5412301025850264
0.001,1.799975,1.0,21.61903587340415,0.011196845068126264,1.3789382352854958,0.03560857935245449,0.28865195,0.5421103757612062
0.0015,1.79994375,1.0,31.069794337088886,0.016743248929826395,1.3780461561611501,0.07060170705259854,0.2886506375,0.5442637238896024
0.002,1.7999,1.0,53.58270038930177,0.022258541851172327,1.3763681114103687,0.11471783837498216,0.2886488,0.5483005252340315
0.0025,1.79984375,1.0,97.11886782127226,0.027742898339358783,1.3739351706242722,0.16457467689488472,0.28864643749999996,0.5541214546243509
0.003,1.7997750000000001,1.0,160.9579038949755,0.03319649192521297,1.371214353597842,0.21728023211254746,0.28864354999999997,0.5605864275603836
0.0035,1.79969375,1.0,237.68292954601,0.03861949516278172,1.3685847466157293,0.27061266855692995,0.2886401375,0.5667898104662585
0.004,1.7996,1.0,321.4662903972786,0.04401207964011475,1.366156105134477,0.3229155893727117,0.2886362,0.5724799319921869
0.0045000000000000005,1.7994937500000001,1.0,409.2672336449514,0.04937441598444901,1.3639228263059306,0.37303430682612965,0.2886317375,0.5776791342267329
0.005,1.799375,1.0,499.41294951715054,0.05470667385329338,1.361858354133096,0.4202472739466615,0.28862675,0.5824570521176241
0.0055,1.79924375,1.0,590.7898476932974,0.06000902198193603,1.359938846163566,0.46417352629652453,0.2886212375,0.5868750861684975
0.006,1.7991000000000001,1.0,682.517521098112,0.06528162812650497,1.3581464254216775,0.5046798052723199,0.2886152,0.5909793939976875
0.006500000000000001,1.79894375,1.0,773.8807384112787,0.07052465911966052,1.356467262484626,0.5418006174163198,0.2886086375,0.5948057741604491
0.007,1.798775,1.0,864.2852468647454,0.07573828085415922,1.3548904041122523,0.5756766526173241,0.28860155,0.5983826564701604
0.0075,1.79859375,1.0,953.2427473836751,0.08092265829260138,1.3534067863898842,0.6065097997010596,0.2885939375,0.6017335565483889
0.008,1.7984,1.0,1040.342715054909,0.08607795499624973,1.3520088780784405,0.6345320868888356,0.2885858,0.6048780285521608
0.0085,1.79819375,1.0,1125.3122536516785,0.09120433519105117,1.3506892694411385,0.6599843551678606,0.2885771375,0.6078349371774252
0.009000000000000001,1.797975,1.0,1207.9002139132097,0.09630196087801854,1.3494420345951368,0.683104108291571,0.28856795,0.6106194657462093
0.0095,1.79774375,1.0,1287.8943362533569,0.10137099246029556,1.3482620956107851,0.7041173870382962,0.2885582375,0.6132446197729093
0.01,1.7975,1.0,1365.167883395674,0.10641159034102594,1.3471443745584335,0.7232341534045794,0.288548,0.6157231607539351
0.0105,1.79724375,1.0,1439.6555640516813,0.11142391456601795,1.3460839956387887,0.7406466221719917,0.2885372375,0.6180671810034787
0.011,1.796975,1.0,1511.3161531694616,0.11640812398343173,1.345076627681051,0.7565291069004346,0.28852595000000003,0.6202873757279121
0.0115,1.79669375,1.0,1580.1163661783512,0.12136437578876198,1.344118538565755,0.7710385837864359,0.2885141375,0.6223929573194165
0.012,1.7964,1.0,1646.0558144977756,0.12629282668438108,1.3432061789597531,0.7843155493444529,0.28850180000000003,0.6243925979714474
0.0125,1.79609375,1.0,1709.171311317099,0.1311936331167195,1.3423360653869842,0.7964852968610014,0.2884889375,0.6262947013244848
0.013000000000000001,1.7957750000000001,1.0,1769.5011388007938,0.13606695016754336,1.341505133890224,0.8076594788256785,0.28847555,0.6281066438986613
0.0135,1.79544375,1.0,1827.0845887038881,0.14091293143425657,1.3407106721768849,0.8179374609351158,0.2884616375,0.6298349421708396
0.014,1.7951000000000001,1.0,1881.9846106982818,0.14573173018315225,1.3399500136468843,0.8274075306309657,0.2884472,0.6314859318287092
0.0145,1.79474375,1.0,1934.2825168474826,0.15052349948613214,1.339220564995763,0.8361481530096178,0.2884322375,0.6330657151911843
0.015,1.794375,1.0,1984.05840999253,0.15528839162580746,1.3385199862192347,0.8442291624863529,0.28841675,0.6345797797516872
0.0155,1.79399375,1.0,2031.374223001414,0.16002655621464565,1.3378463329203085,0.8517128109196699,0.2884007375,0.6360327019524874
0.016,1.7936,1.0,2076.307881613273,0.16473814286511418,1.337197660701993,0.8586545327051437,0.2883842,0.6374290102586211
0.0165,1.7931937500000001,1.0,2118.9497558923226,0.1694233009739714,1.3365720477222969,0.8651037596185235,0.2883671375,0.6387731399617982
0.017,1.792775,1.0,2159.386979888701,0.17408217874628149,1.3359677408107307,0.8711046736856638,0.28834955,0.6400691235157325
0.0175,1.7923437500000001,1.0,2197.7200556843063,0.17871492545376072,1.3353829679069402,0.876696774348316,0.2883314375,0.6413209975699372
0.018000000000000002,1.7919,1.0,2234.0154025505835,0.1833216861422629,1.3348164053936935,0.8819155506733571,0.2883128,0.6425318070129015
0.0185,1.79144375,1.0,2268.3476671276153,0.18790260585764168,1.3342667296537587,0.8867928295508358,0.2882936375,0.6437045709393527
0.019,1.790975,1.0,2300.799042766709,0.19245782964575084,1.3337326170699033,0.8913571998827201,0.28827395,0.6448422841316113
0.0195,1.79049375,1.0,2331.4521556070254,0.19698750168723628,1.333212807678013,0.8956343988778538,0.2882537375,0.6459477831611464
0.02,1.79,1.0,2360.393036525512,0.20149176640219407,1.332706068266197,0.8996476273616373,0.288233,0.6470238269733692
0.0205,1.78949375,1.0,2387.7025075114298,0.20597076724612284,1.3322112700736246,0.9034178509789959,0.2882117375,0.6480729337884861
0.021,1.788975,1.0,2413.4420120217715,0.21042464439953862,1.331727518181431,0.9069640739490985,0.28818995000000003,0.6490971099527691
0.021500000000000002,1.78844375,1.0,2437.6768946785055,0.21485353804295745,1.331253917670751,0.9103035042481846,0.2881676375,0.6500983483028678
0.022,1.7879,1.0,2460.476078960146,0.21925758835689538,1.3307895736227198,0.9134517481451414,0.2881448,0.6510786287707246
0.0225,1.78734375,1.0,2481.9105592693695,0.22363693531619014,1.3303336025893655,0.9164229836178892,0.28812143749999997,0.6520398947714641
0.023,1.786775,1.0,2502.039719697859,0.22799171647673533,1.3298852595262722,0.9192301343174071,0.28809755,0.6529837868216966
0.0235,1.78619375,1.0,2520.947930254886,0.2323220733883751,1.3294435865450744,0.9218849366385089,0.28807313749999996,0.6539123829219327
0.024,1.7856,1.0,2538.6833706335806,0.23662814107641733,1.3290079912170676,0.9243981632496702,0.2880482,0.6548269825105548
0.0245,1.78499375,1.0,2555.2960459585743,0.24091005456616985,1.3285778811135462,0.9267796568351392,0.2880227375,0.6557288776879218
0.025,1.784375,1.0,2570.837636697146,0.24516794888294052,1.3281526638058063,0.9290384231321434,0.28799675,0.6566193534348006
0.025500000000000002,1.78374375,1.0,2585.3613563521485,0.2494019590520372,1.3277317468651424,0.9311827135298948,0.2879702375,0.6574996878084256
0.026000000000000002,1.7831000000000001,1.0,2598.9195326717454,0.2536122195262813,1.3273145591411664,0.9332201017211641,0.2879432,0.6583711076984181
0.0265,1.78244375,1.0,2611.5578823861883,0.25779886282201336,1.3269006025286585,0.935157556317634,0.2879156375,0.6592346813341838
0.027,1.781775,1.0,2623.338821218284,0.2619620253086995,1.3264892339556689,0.9370014665503511,0.28788755,0.660091773313267
0.0275,1.7810937500000001,1.0,2634.298946377088,0.26610183661545433,1.3260800594007387,0.938757752175595,0.2878589375,0.660943223409473
0.028,1.7804,1.0,2644.4756325924404,0.2702184263713925,1.3256726848424085,0.9404318717813193,0.2878298,0.6617898671796469
0.0285,1.77969375,1.0,2653.9069653526567,0.2743119242056286,1.3252667162592193,0.9420288647644746,0.2878001375,0.6626325360138536
0.029,1.778975,1.0,2662.6316775843834,0.27838245974727727,1.3248617596297123,0.9435533889812875,0.28776995,0.6634720571756602
0.029500000000000002,1.7782437500000001,1.0,2670.6890897746466,0.2824301626254532,1.324457420932428,0.9450097545636347,0.2877392375,0.6643092538325167
0.03,1.7775,1.0,2678.083020771653,0.2864551598740409,1.3240536367981457,0.9464019976801868,0.287708,0.665144261727983
0.0305,1.77674375,1.0,2684.9147954285027,0.29045758212600675,1.3236494529371492,0.9477337453383435,0.2876762375,0.6659790548899365
0.031,1.775975,1.0,2691.210458036223,0.29443755563016094,1.3232446109280283,0.9490084536785678,0.28764395,0.6668141629655219
0.0315,1.7751948768556503,1.0,2697.017826005941,0.2983952046844969,1.3228391649286346,0.9502293727895593,0.2876111848279373,0.6676494693500696
0.032,1.7744126845285169,1.0,2702.789344399848,0.30233065358700795,1.3224331690968207,0.9513995252400292,0.28757833275019773,0.6684848579916487
0.0325,1.7736304922013832,1.0,2708.621354298266,0.30624402663568767,1.3220266775904381,0.9525217247911051,0.2875454806724581,0.6693202133930614
0.033,1.7728482998742499,1.0,2714.50808941724,0.31013544812852945,1.321619744567339,0.953598593356318,0.2875126285947185,0.6701554206136467
0.0335,1.7720661075471162,1.0,2720.443785705216,0.3140050422007564,1.3212124239431116,0.954632576319407,0.28747977651697887,0.6709903657671901
0.034,1.7712839152199829,1.0,2726.4141303699575,0.3178529314822665,1.320804847156914,0.9556259648917578,0.28744692443923925,0.6718247769152712
0.0345,1.7705017228928492,1.0,2732.4051991962765,0.32167923744346344,1.3203971415480935,0.9565808991329852,0.2874140723614997,0.672658391861642
0.035,1.7697195305657156,1.0,2738.408250336548,0.3254840805898476,1.3199893868707786,0.9574993750468385,0.28738122028376006,0.6734910468433137
0.035500000000000004,1.7689373382385822,1.0,2744.414503437726,0.3292675814269195,1.319581662879099,0.9583832609798637,0.28734836820602044,0.6743225789267535
0.036000000000000004,1.7681551459114486,1.0,2750.4230824863935,0.33302985019530984,1.319173977404661,0.9592342974111498,0.2873155161282808,0.6751529724097227
0.0365,1.7673729535843152,1.0,2756.413936982169,0.3367710237540109,1.3187665116805138,0.9600541401089824,0.28728266405054126,0.6759818591550919
0.037,1.7665907612571816,1.0,2762.384166103395,0.34049121714391817,1.3183592912005802,0.9608443220948047,0.28724981197280164,0.6768091891143629
0.0375,1.7658085689300482,1.0,2768.3309275154297,0.34419054531427745,1.3179523408241358,0.9616062830822163,0.287216959895062,0.6776349137897084
0.038,1.7650263766029146,1.0,2774.251367500855,0.3478691232143348,1.3175456854104561,0.9623413762719992,0.2871841078173224,0.6784589849400626
0.0385,1.764244184275781,1.0,2780.142621115261,0.35152706579333604,1.3171393498188166,0.9630508745050451,0.2871512557395828,0.6792813545806704
0.039,1.7634619919486476,1.0,2786.00181235677,0.35516448800052713,1.316733358908493,0.9637359759134208,0.2871184036618432,0.6801019749826012
0.0395,1.762679799621514,1.0,2791.8260543488336,0.35878150478515414,1.316327737538761,0.9643978091154809,0.2870855515841036,0.6809207986722219
0.04,1.7618976072943806,1.0,2797.612449537457,0.36237823109646283,1.315922510568896,0.9650374379963084,0.287052699506364,0.6817377784306305
0.0405,1.761115414967247,1.0,2803.358089901563,0.36595478188369934,1.3155177028581737,0.9656558661106488,0.28701984742862435,0.6825528672930523
0.041,1.7603332226401136,1.0,2809.06005717729,0.36951127209610946,1.3151133392658698,0.9662540407418055,0.2869869953508848,0.6833660185481915
0.0415,1.75955103031298,1.0,2814.719475628449,0.37304779810722927,1.3147094083771698,0.9668328503773098,0.28695414327314517,0.6841772585423845
0.042,1.7587688379858464,1.0,2820.331994017148,0.37656449454816115,1.314305947796682,0.9673931454501734,0.28692129119540555,0.6849865152411652
0.0425,1.757986645658713,1.0,2825.8965563904994,0.38006147519769806,1.3139029655542915,0.9679357242655575,0.2868884391176659,0.6857937761996852
0.043000000000000003,1.7572044533315794,1.0,2831.413356536813,0.38353884689650714,1.3135004585083425,0.9684613403087927,0.2868555870399263,0.6865990513873055
0.043500000000000004,1.756422261004446,1.0,2836.882591125539,0.38699671648525563,1.3130984235171799,0.9689707071456661,0.28682273496218674,0.6874023507367879
0.044,1.7556400686773124,1.0,2842.3044596739437,0.39043519080461064,1.3126968574391478,0.9694645009372519,0.2867898828844471,0.6882036841443919
0.0445,1.754857876350179,1.0,2847.6791645148387,0.39385437669523937,1.312295757132591,0.9699433627722597,0.2867570308067075,0.6890030614699671
0.045,1.7540756840230454,1.0,2853.006910763796,0.39725438099780896,1.3118951194558541,0.9704079008318162,0.2867241787289679,0.6898004925370488
0.0455,1.7532934916959118,1.0,2858.287906286776,0.4006353105529866,1.3114949412672814,0.9708586924002482,0.2866913266512283,0.6905959871329495
0.046,1.7525112993687784,1.0,2863.522361667849,0.4039972722014395,1.3110952194252177,0.971296285734211,0.2866584745734887,0.691389555008851
0.0465,1.7517291070416448,1.0,2868.710490177833,0.4073403727838348,1.3106959507880072,0.9717212018014179,0.2866256224957491,0.6921812058798987
0.047,1.7509469147145114,1.0,2873.852507742081,0.4106647191408396,1.3102971322139947,0.9721339358992288,0.28659277041800946,0.6929709494252893
0.0475,1.7501647223873777,1.0,2878.9486329092215,0.4139704181131211,1.3098987605615247,0.9725349591624637,0.28655991834026984,0.6937587952883636
0.048,1.7493825300602441,1.0,2883.9990868200225,0.4172575765413465,1.3095008326889415,0.9729247199689955,0.2865270662625302,0.6945447530766959
0.0485,1.7486003377331107,1.0,2889.004233865976,0.4205262721426915,1.3091033442115771,0.973303641580559,0.28649421418479065,0.6953288348125615
0.049,1.7478181454059771,1.0,2893.965172056341,0.4237766299212865,1.3087062842953032,0.9736721325993577,0.28646136210705103,0.6961110651676895
0.0495,1.7470359530788437,1.0,2898.8826993908838,0.427008775118884,1.3083096448001874,0.9740305825893395,0.28642851002931147,0.6968914634030048
0.05,1.7462537607517101,1.0,2903.757547048893,0.43022280495204895,1.307913418213261,0.9743793597405396,0.28639565795157185,0.6976700474624535
0.0505,1.7454715684245767,1.0,2908.5904502215376,0.4334188166373462,1.3075175970215551,0.9747188153393168,0.2863628058738322,0.6984468352107411
0.051000000000000004,1.7446893760974431,1.0,2913.382148043274,0.4365969073913407,1.3071221737121008,0.9750492846951672,0.2863299537960926,0.6992218444335274
0.051500000000000004,1.7439071837703095,1.0,2918.133383524976,0.43975717443059725,1.306727140771929,0.9753710880087895,0.286297101718353,0.6999950928376188
0.052000000000000005,1.7431249914431761,1.0,2922.8449034884547,0.44289971497168085,1.306332490688071,0.9756845311856104,0.28626424964061337,0.7007665980511575
0.0525,1.7423427991160425,1.0,2927.5174585019545,0.4460246262311563,1.3059382159475577,0.9759899065986483,0.2862313975628738,0.7015363776238062
0.053,1.7415606067889091,1.0,2932.151802816872,0.4491320054255886,1.30554430903742,0.9762874938042789,0.2861985454851342,0.7023044490269312
0.0535,1.7407784144617755,1.0,2936.7486943061294,0.45222194977154256,1.3051507624446892,0.9765775602141956,0.28616569340739456,0.7030708296537783
0.054,1.7399962221346421,1.0,2941.3088944033602,0.45529455648558315,1.3047575686563964,0.9768603617265978,0.286132841329655,0.7038355368196488
0.0545,1.7392140298075085,1.0,2945.833168043481,0.45834992278427517,1.3043647201595725,0.9771361433194075,0.2860999892519154,0.70459858776207
0.055,1.7384318374803749,1.0,2950.3222836046175,0.4613881458841836,1.303972209441249,0.9774051396080964,0.28606713717417576,0.7053599996409614
0.0555,1.7376496451532415,1.0,2954.777012851417,0.46440932300187326,1.3035800289884563,0.9776675753705203,0.28603428509643614,0.7061197895388012
0.056,1.7368674528261079,1.0,2959.1981308790378,0.4674135513539091,1.3031881712882256,0.9779236660409633,0.2860014330186965,0.7068779744607832
0.0565,1.7360852604989745,1.0,2963.5864160588585,0.47040092815685597,1.3027966288275885,0.9781736181754437,0.2859685809409569,0.7076345713349732
0.057,1.7353030681718409,1.0,2967.942649985618,0.4733715506272788,1.3024053940935756,0.9784176298901703,0.28593572886321733,0.7083895970124657
0.0575,1.7345208758447073,1.0,2972.2675536028996,0.4763255135765767,1.3020144601291417,0.9786558910959139,0.2859028767854777,0.7091430671967573
0.058,1.7337386835175739,1.0,2976.559853511677,0.4792628334174074,1.3016238373620033,0.9788885783083672,0.2858700247077381,0.709894964078507
0.0585,1.7329564911904403,1.0,2980.8231144569777,0.48218370928775256,1.301233494113111,0.9791158743200187,0.28583717262999847,0.7106453508431325
0.059000000000000004,1.7321742988633069,1.0,2985.0578250623394,0.48508822746383273,1.3008434255359826,0.9793379465523266,0.2858043205522589,0.7113942388768357
0.059500000000000004,1.7313921065361733,1.0,2989.264476041461,0.4879764742218685,1.3004536267841365,0.9795549558909548,0.2857714684745193,0.7121416395161315
0.06,1.7306099142090399,1.0,2993.443560169432,0.4908485358380805,1.3000640930110903,0.9797670569918568,0.28573861639677967,0.712887564047933
0.0605,1.7298277218819063,1.0,2997.595572253518,0.49370449858868937,1.2996748193703622,0.9799743985707386,0.28570576431904005,0.7136320237096325
0.061,1.7290455295547726,1.0,3001.721009105325,0.4965444487499157,1.2992858010154698,0.9801771236769206,0.2856729122413004,0.7143750296891858
0.0615,1.7282633372276393,1.0,3005.8203695128336,0.49936847259798,1.2988970330999312,0.9803753699525511,0.28564006016356086,0.715116593125187
0.062,1.7274811449005056,1.0,3009.894154213227,0.502176656409103,1.2985085107772647,0.9805692698780657,0.28560720808582124,0.7158567251069504
0.0625,1.7266989525733722,1.0,3013.942865866586,0.5049690864595052,1.2981202292009877,0.9807589510047139,0.2855743560080816,0.7165954366745872
0.063,1.7259167602462386,1.0,3017.9670090293116,0.5077458490254073,1.2977321835246185,0.9809445361749313,0.285541503930342,0.7173327388190781
0.0635,1.7251345679191052,1.0,3021.9670901288937,0.5105070303830298,1.297344368901675,0.9811261437312764,0.28550865185260244,0.7180686424823488
0.064,1.7243523755919716,1.0,3025.9436174384814,0.5132527168085933,1.2969567804856752,0.9813038877146051,0.2854757997748628,0.7188031585573422
0.0645,1.723570183264838,1.0,3029.897101052588,0.5159829945783184,1.2965694134301369,0.9814778780521142,0.2854429476971232,0.7195362978880886
0.065,1.7227879909377046,1.0,3033.8280528629098,0.5186979499684259,1.296182262888578,0.9816482207358395,0.2854100956193836,0.7202680712697745
0.0655,1.722005798610571,1.0,3037.736986534903,0.5213976692551361,1.2957953240145166,0.9818150179921606,0.28537724354164395,0.7209984894488111
0.066,1.7212236062834376,1.0,3041.6244174846397,0.5240822387146697,1.2954085919614706,0.9819783684428268,0.2853443914639044,0.7217275631228998
0.0665,1.720441413956304,1.0,3045.4908628563244,0.5267517446232475,1.2950220618829582,0.9821383672579853,0.28531153938616477,0.7224553029410969
0.067,1.7196592216291706,1.0,3049.3368415005048,0.5294062732570899,1.294635728932497,0.982295106301662,0.28527868730842515,0.723181719503878
0.0675,1.718877029302037,1.0,3053.162873952662,0.5320459108924175,1.2942495882636051,0.9824486742701204,0.2852458352306856,0.7239068233631978
0.068,1.7180948369749034,1.0,3056.9694824117696,0.5346707438054509,1.2938636350298005,0.9825991568234933,0.28521298315294596,0.7246306250225516
0.0685,1.71731264464777,1.0,3060.757190720622,0.5372808582724108,1.293477864384601,0.9827466367110583,0.28518013107520634,0.7253531349370337
0.069,1.7165304523206364,1.0,3064.5265243453973,0.5398763405695177,1.2930922714815247,0.9828911938905064,0.2851472789974667,0.7260743635133935
0.0695,1.715748259993503,1.0,3068.2765828181837,0.5424572021844623,1.2927068637125814,0.9830329016109514,0.2851144269197271,0.7267942982638531
0.07,1.7149660676663694,1.0,3072.0091903873326,0.5450236115894718,1.2923216251084233,0.9831718392184922,0.2850815748419875,0.7275129703251608
0.07050000000000001,1.714183875339236,1.0,3075.724671625283,0.5475756487626297,1.2919365525815967,0.9833080786362911,0.2850487227642479,0.7282303866925148
0.07100000000000001,1.7134016830121024,1.0,3079.423277195024,0.5501133894792819,1.2915516436861798,0.9834416892168837,0.2850158706865083,0.7289465531373943
