Time [s],Phi [rad],STIM [ ],Fsee [N],Gamma [ ],Lcerel [ ],q [ ],Lmtc [m],fisomrel [ ]
0.0,1.8,1.0,18.227272692892704,0.0005200326012162863,1.379310709409343,0.00506985268992577,0.288653,0.5412097759163932
0.0005,1.79999375,1.0,18.696546767955635,0.006126324938420188,1.3792560206325561,0.014416932748335116,0.2886527375,0.5413420625445095
0.001,1.799975,1.0,22.41673854606806,0.011701170408185722,1.3788575009230146,0.03831573811689479,0.28865195,0.5423054655432653
0.0015,1.79994375,1.0,32.701480326791334,0.017244745403483974,1.3779089220858751,0.07427499900323346,0.2886506375,0.5445945363772066
0.002,1.7999,1.0,56.86789537892189,0.02275722532587865,1.376158155773663,0.11904730426828762,0.2886488,0.5488043426178464
0.0025,1.79984375,1.0,102.44721963618423,0.028238784594531725,1.3736818383006226,0.1692715042856547,0.28864643749999996,0.5547253945289137
0.003,1.7997750000000001,1.0,167.76858704712112,0.03368959665019201,1.3709620641961218,0.22211708119221477,0.28864354999999997,0.561183504232629
0.0035,1.79969375,1.0,245.31044671720616,0.03910983395979848,1.3683516539962564,0.2754174054151356,0.2886401375,0.5673375605810658
0.004,1.7996,1.0,329.541664135066,0.04449966802380577,1.3659435457846394,0.3275635896415835,0.2886362,0.5729761521000176
0.0045000000000000005,1.7994937500000001,1.0,417.5943823284516,0.049859269346369584,1.3637283405563108,0.3774436117753717,0.2886317375,0.5781304026663024
0.005,1.799375,1.0,507.904655727127,0.055188807631532326,1.361678666585223,0.42437030134506615,0.28862675,0.5828716267128033
0.0055,1.79924375,1.0,599.3381123081722,0.06048845135105156,1.3597724335256558,0.4679895297848065,0.2886212375,0.5872570027902665
0.006,1.7991000000000001,1.0,691.062237039627,0.06575836827489126,1.3579915882729519,0.5081858651339168,0.2886152,0.5913329806307696
0.006500000000000001,1.79894375,1.0,782.3639612221385,0.07099872512942682,1.3563228429569805,0.5450058461508752,0.2886086375,0.5951340292954561
0.007,1.798775,1.0,872.6616873319326,0.07620968771737437,1.3547554239737447,0.5785973120448294,0.28860155,0.5986881031926297
0.0075,1.79859375,1.0,961.4761506040031,0.0813914209846455,1.353280420385735,0.6091659863199211,0.2885939375,0.6020183181507602
0.008,1.7984,1.0,1048.4077194588729,0.08654408859929293,1.351890365480773,0.6369454435840155,0.2885858,0.6051440391639286
0.0085,1.79819375,1.0,1133.172102474552,0.09166785408484597,1.350578196394871,0.6621767881138022,0.2885771375,0.6080833170042066
0.009000000000000001,1.797975,1.0,1215.5242262109061,0.09676287940553817,1.3493380253942577,0.6850967101223505,0.28856795,0.6108512245332939
0.0095,1.79774375,1.0,1295.2766205634146,0.1018293253729013,1.3481645479158029,0.7059297947954463,0.2885582375,0.6134612486434459
0.01,1.7975,1.0,1372.311289627649,0.10686735235336826,1.3470526822974145,0.7248844394871651,0.288548,0.6159261342798785
0.0105,1.79724375,1.0,1446.5651698777258,0.11187712057921007,1.3459976200166108,0.7421512536118648,0.2885372375,0.6182578027514063
0.011,1.796975,1.0,1517.9764169290236,0.11685878794142726,1.3449953589540646,0.7579030838701976,0.28852595000000003,0.6204662063142733
0.0115,1.79669375,1.0,1586.5196925756234,0.12181251171357318,1.3440421181913331,0.7722953266412216,0.2885141375,0.6225606534133316
0.012,1.7964,1.0,1652.2070589418975,0.12673844874015155,1.3431342468302663,0.7854669937043354,0.28850180000000003,0.6245500275900061
0.0125,1.79609375,1.0,1715.0806354017416,0.1316367557504365,1.3422682454330401,0.7975420649636745,0.2884889375,0.6264427556383553
0.013000000000000001,1.7957750000000001,1.0,1775.1719395230066,0.13650758731592297,1.341441166474235,0.8086310609498671,0.28847555,0.6282459497344189
0.0135,1.79544375,1.0,1832.520013092267,0.14135109695495665,1.3406503302920239,0.8188323011450909,0.2884616375,0.6299660474232623
0.014,1.7951000000000001,1.0,1887.190584914621,0.14616743811571237,1.3398930652726808,0.8282331287549133,0.2884472,0.6316093883276185
0.0145,1.79474375,1.0,1939.262303092486,0.15095676326801824,1.3391668297952037,0.836911191266329,0.2884322375,0.6331819565263754
0.015,1.794375,1.0,1988.8193343676226,0.1557192250269326,1.3384692589905893,0.8449355751608328,0.28841675,0.6346892880049788
0.0155,1.79399375,1.0,2035.924563678605,0.1604549729317828,1.3377984155122618,0.8523678820756502,0.2884007375,0.6361359390223386
0.016,1.7936,1.0,2080.6567008264183,0.16516415652189603,1.3371523620136447,0.8592629731554868,0.2883842,0.6375264183310595
0.0165,1.7931937500000001,1.0,2123.103396100862,0.169846924808316,1.3365292181980808,0.8656697849182099,0.2883671375,0.638865067917693
0.017,1.792775,1.0,2163.355685918013,0.1745034265185963,1.3359272019386292,0.8716320428070701,0.28834955,0.6401559789466946
0.0175,1.7923437500000001,1.0,2201.5103607481337,0.1791338105006967,1.3353445893865632,0.8771888643048281,0.2883314375,0.6414030815343028
0.018000000000000002,1.7919,1.0,2237.6335466940536,0.1837382216917419,1.3347800679455155,0.882375390829096,0.2883128,0.6426093944719261
0.0185,1.79144375,1.0,2271.799497995719,0.18831680502885645,1.33423232501912,0.8872231419847147,0.2882936375,0.6437779110724279
0.019,1.790975,1.0,2304.089925351557,0.1928697054491651,1.3337000480110093,0.8917604347381816,0.28827395,0.644911600629624
0.0195,1.79049375,1.0,2334.5900130168334,0.19739706740548585,1.3331819572442047,0.8960127581304732,0.2882537375,0.6460133398179877
0.02,1.79,1.0,2363.3806455148356,0.2018990344005318,1.3326768750721518,0.9000031095920369,0.288233,0.6470857678323594
0.0205,1.78949375,1.0,2390.5476454392788,0.20637575068348768,1.332183627958009,0.9037522523404744,0.2882117375,0.6481314965454561
0.021,1.788975,1.0,2416.1520060835114,0.21082735625671228,1.3317013293922413,0.9072790214344647,0.28818995000000003,0.6491525130083542
0.021500000000000002,1.78844375,1.0,2440.2585691922054,0.21525399112256435,1.3312290928653139,0.910600474099407,0.2881676375,0.6501507909426699
0.022,1.7879,1.0,2462.9357075203775,0.2196557952834026,1.3307660318676913,0.9137320820477536,0.2881448,0.6511282913345071
0.0225,1.78734375,1.0,2484.255024816354,0.22403290874158582,1.3303112598898386,0.9166879007970602,0.28812143749999997,0.6520869629782766
0.023,1.786775,1.0,2504.2757086375796,0.22838546850270072,1.3298640362252945,0.9194807453698093,0.28809755,0.6530284362409363
0.0235,1.78619375,1.0,2523.0792266245876,0.23271361655689615,1.329423432718239,0.9221222602856355,0.28807313749999996,0.653954725689196
0.024,1.7856,1.0,2540.715049265697,0.23701748806968723,1.3289888463983746,0.9246231278695215,0.2880482,0.654867152249575
0.0245,1.78499375,1.0,2557.232721649371,0.2412972178476429,1.3285596907490027,0.9269931123028678,0.2880227375,0.6557669949455348
0.025,1.784375,1.0,2572.6834425390853,0.24555294069733213,1.3281353792534256,0.9292411486108824,0.28799675,0.6566555257723551
0.025500000000000002,1.78374375,1.0,2587.1199241573613,0.2497847914253239,1.3277153253949452,0.9313754243922148,0.2879702375,0.6575340098893023
0.026000000000000002,1.7831000000000001,1.0,2600.5962595964966,0.25399290483818715,1.3272989426568638,0.9334034524959487,0.2879432,0.6584037057898566
0.0265,1.78244375,1.0,2613.1576085009006,0.25817741185879167,1.3268857391790763,0.9353321490118193,0.2879156375,0.6592656681165463
0.027,1.781775,1.0,2624.864589127954,0.2623384503813791,1.3264750895231716,0.9371678588423487,0.28788755,0.6601212242373632
0.0275,1.7810937500000001,1.0,2635.7548877908152,0.26647615039903555,1.326066590295265,0.9389164567865845,0.2878589375,0.6609712330778692
0.028,1.7804,1.0,2645.864890615486,0.27059064113087333,1.3256598572993954,0.9405833631041415,0.2878298,0.6618165093869179
0.0285,1.77969375,1.0,2655.2316803681224,0.27468205179600463,1.3252545063396015,0.9421735823258384,0.2878001375,0.6626578638577236
0.029,1.778975,1.0,2663.8929749596377,0.27875051161354164,1.3248501532199226,0.9436917405485977,0.28776995,0.6634961031664313
0.029500000000000002,1.7782437500000001,1.0,2671.887069222958,0.28279614980259665,1.3244464137443972,0.9451421189369288,0.2877392375,0.6643320300012737
0.03,1.7775,1.0,2679.252310481111,0.2868190952813357,1.3240429080243046,0.9465286843276876,0.287708,0.6651664341809698
0.0305,1.77674375,1.0,2686.016715593394,0.29081946961102584,1.3236393551153645,0.9478551262858363,0.2876762375,0.6659998973868336
0.031,1.775975,1.0,2692.2309163802265,0.2947974114380285,1.3232352704809314,0.9491248499710581,0.28764395,0.6668334181030585
0.0315,1.7751937500000001,1.0,2697.9183246905222,0.29875304352895804,1.3228304223779082,0.9503410467476108,0.2876111375,0.6676674693472622
0.032,1.7744,1.0,2703.1026229438253,0.3026864886504287,1.3224245790631974,0.9515066855326615,0.2875778,0.6685025217344387
0.0325,1.77359375,1.0,2707.807739643235,0.3065978695690549,1.3220175087937016,0.952624531022784,0.2875439375,0.6693390434639614
0.033,1.772775,1.0,2712.0578260785933,0.31048730905145094,1.3216089798263235,0.9536971602176363,0.28750955,0.6701775003031615
0.0335,1.7719437500000002,1.0,2715.8772342209777,0.31435492986423114,1.3211987604179658,0.9547269774180718,0.2874746375,0.6710183555674816
0.034,1.7711000000000001,1.0,2719.290495807386,0.31820085477400983,1.320786618825531,0.9557162278557556,0.2874392,0.6718620700972049
0.0345,1.7702437500000001,1.0,2722.3223026166,0.3220252065474013,1.3203723233059217,0.9566670100936127,0.2874032375,0.672709102230759
0.035,1.7693750000000001,1.0,2724.996848289576,0.32582810699106657,1.3199556479349799,0.9575812877080371,0.28736675,0.6735598959008521
0.035500000000000004,1.76849375,1.0,2727.332906940449,0.3296096701166069,1.3195364171886041,0.9584609026185339,0.2873297375,0.6744147898286681
0.036000000000000004,1.7676,1.0,2729.3580339860455,0.3333700290446873,1.3191143766221565,0.9593075771748067,0.2872922,0.6752742813553969
0.0365,1.76669375,1.0,2731.0867380736136,0.337109299503753,1.3186893912404145,0.960122934720537,0.2872541375,0.6761386221645855
0.037,1.765775,1.0,2732.5335968184468,0.3408275972222494,1.3182613260481566,0.9609084988573247,0.28721555,0.677008062315271
0.0375,1.76484375,1.0,2733.713248923839,0.3445250379286218,1.3178300460501606,0.9616657006844449,0.2871764375,0.6778828502160483
0.038,1.7639,1.0,2734.640386704694,0.34820173735131554,1.3173954162512045,0.9623958854360807,0.28713679999999997,0.678763232597974
0.0385,1.76294375,1.0,2735.3297490155096,0.3518578112187759,1.3169573016560663,0.9631003185722374,0.28709663750000003,0.6796494544863055
0.039,1.761975,1.0,2735.7961145819836,0.3554933752594482,1.316515567269524,0.9637801913737598,0.28705595,0.6805417591710825
0.0395,1.7609937500000001,1.0,2736.054295737519,0.35910854520177776,1.316070078096355,0.9644366260867464,0.2870147375,0.6814403881765435
0.04,1.76,1.0,2736.1191325626273,0.3627034367742099,1.3156206991413382,0.9650706806570946,0.286973,0.6823455812293779
0.0405,1.7589937500000001,1.0,2736.0006908823593,0.36627815944223024,1.315167338956206,0.965683355794378,0.2869307375,0.6832574886966326
0.041,1.757975,1.0,2735.7031880136547,0.3698328187487941,1.3147099593586646,0.9662756000788452,0.28688795,0.6841761526800627
0.0415,1.75694375,1.0,2735.2555456959126,0.3733675526347519,1.31424829800228,0.9668482959861561,0.2868446375,0.6851020637840248
0.042,1.7559,1.0,2734.664861683726,0.3768824686101828,1.313782290766773,0.9674022890731916,0.28680079999999997,0.6860353125036871
0.0425,1.75484375,1.0,2733.938242288974,0.3803776741851658,1.3133118735318643,0.9679383790607935,0.2867564375,0.6869759882141361
0.043000000000000003,1.753775,1.0,2733.0828005784956,0.38385327686978,1.3128369821772745,0.9684573227796406,0.28671155,0.6879241791524733
0.043500000000000004,1.75269375,1.0,2732.1056546645946,0.3873093841741044,1.3123575525827242,0.9689598368981782,0.28666613750000003,0.6888799723996514
0.044,1.7516,1.0,2731.0139260849614,0.39074610360821793,1.3118735206279346,0.9694466004507436,0.2866202,0.6898434538620448
0.0445,1.75049375,1.0,2729.8147382754223,0.39416354268219983,1.3113848221926259,0.969918257182365,0.2865737375,0.690814708252764
0.045,1.7493750000000001,1.0,2728.515215132504,0.397561808906129,1.310891393156519,0.9703754177252049,0.28652675,0.6917938190727002
0.0455,1.74824375,1.0,2727.1224796677084,0.4009410097900846,1.3103931693993345,0.9708186616202615,0.2864792375,0.6927808685913139
0.046,1.7471,1.0,2725.6436527531073,0.40430125284414564,1.309890086800793,0.9712485391967288,0.2864312,0.6937759378271587
0.0465,1.7459437500000001,1.0,2724.0858519577364,0.4076426455783911,1.3093820812406156,0.9716655733203078,0.28638263750000004,0.6947791065281413
0.047,1.744775,1.0,2722.45619047537,0.41096529550290006,1.3088690885985226,0.972070261020774,0.28633355,0.6957904531515243
0.0475,1.74359375,1.0,2720.7617761435545,0.4142693101277516,1.308351044754235,0.9724630750082042,0.28628393750000003,0.69681005484366
0.048,1.7424,1.0,2719.005316602269,0.4175547839959475,1.3078279256038141,0.9728444662725697,0.2862338,0.6978379088598619
0.0485,1.74119375,1.0,2717.193675467115,0.42082183161346826,1.3072996691707106,0.9732148640356594,0.2861831375,0.6988740858659817
0.049,1.739975,1.0,2715.3330556429923,0.42407056283346206,1.306766219433956,0.9735746769295172,0.28613195,0.6999186435401721
0.0495,1.73874375,1.0,2713.426585787483,0.42730107697967284,1.306227548335643,0.9739242949814831,0.2860802375,0.7009715836745583
0.05,1.7375,1.0,2711.4773914834436,0.43051347337584445,1.3056836278178634,0.9742640900490462,0.286028,0.702032907155963
0.0505,1.73624375,1.0,2709.4885949836043,0.4337078513457209,1.3051344298227103,0.9745944168264405,0.2859752375,0.7031026139565353
0.051000000000000004,1.734975,1.0,2707.463314973503,0.43688431021304597,1.304579926292276,0.9749156137867936,0.28592195,0.704180703124336
0.051500000000000004,1.73369375,1.0,2705.404666351284,0.4400429493015636,1.3040200891686529,0.9752280040644886,0.2858681375,0.705267172773866
0.052000000000000005,1.7324,1.0,2703.315760025215,0.44318386793501785,1.3034548903939338,0.9755318962820221,0.2858138,0.7063620200765486
0.0525,1.73109375,1.0,2701.1997027287225,0.4463071654371524,1.3028843019102108,0.97582758532531,0.28575893750000003,0.7074652412511617
0.053,1.729775,1.0,2699.05959685236,0.4494129411317113,1.3023082956595766,0.9761153530710691,0.28570355000000003,0.7085768315542156
0.0535,1.72844375,1.0,2696.8985402941435,0.45250129434243846,1.3017268435841236,0.9763954690696269,0.2856476375,0.7096967852702865
0.054,1.7271,1.0,2694.719626326492,0.4555723243930778,1.3011399176259444,0.9766681911862465,0.2855912,0.7108250957022941
0.0545,1.7257437500000001,1.0,2692.525943480922,0.4586261306073732,1.3005474897271314,0.9769337662038156,0.2855342375,0.7119617551617342
0.055,1.724375,1.0,2690.317553941066,0.4616627804251778,1.2999495594934234,0.9771924289769154,0.28547675,0.7131067020398638
0.0555,1.72299375,1.0,2688.1004243244224,0.46468240985358844,1.2993460724503534,0.9774444078013302,0.2854187375,0.7142599773869509
0.056,1.7216,1.0,2685.876193509804,0.46768511508953564,1.2987370136899714,0.9776899199313488,0.2853602,0.7154215454451462
0.0565,1.72019375,1.0,2683.645988464154,0.4706709870362105,1.2981223729726792,0.9779291733901754,0.28530113749999997,0.7165913607561822
0.057,1.718775,1.0,2681.41093432805,0.4736401165968044,1.297502140058878,0.9781623676498432,0.28524155,0.7177693771058283
0.0575,1.71734375,1.0,2679.172154402063,0.4765925946745083,1.2968763047089695,0.9783896940496515,0.2851814375,0.7189555475202394
0.058,1.7159,1.0,2676.9307701364137,0.4795285121725136,1.2962448566833555,0.9786113361908734,0.2851208,0.7201498242623028
0.0585,1.71444375,1.0,2674.6879011222727,0.48244795999401136,1.2956077857424377,0.9788274703092597,0.2850596375,0.7213521588279752
0.059000000000000004,1.7129750000000001,1.0,2672.4446650853884,0.48535102904219285,1.2949650816466176,0.9790382656267497,0.28499795,0.7225625019426154
0.059500000000000004,1.71149375,1.0,2670.2021778824865,0.48823781022024926,1.2943167341562967,0.9792438846837089,0.2849357375,0.7237808035573081
0.06,1.71,1.0,2667.9615534993845,0.4911083944313718,1.2936627330318766,0.979444483652908,0.284873,0.7250070128451811
0.0605,1.7084937500000001,1.0,2665.7239040520462,0.49396287257875165,1.2930030680337592,0.9796402126363866,0.2848097375,0.7262410781977178
0.061,1.7069750000000001,1.0,2663.490339789469,0.49680133556558004,1.2923377289223459,0.9798312159462566,0.28474595,0.727482947221062
0.0615,1.7054437500000001,1.0,2661.2619690990664,0.49962387429504823,1.2916667054580384,0.9800176323704263,0.2846816375,0.7287325667323146
0.062,1.7039,1.0,2659.0398985148227,0.5024305796703473,1.2909899874012383,0.9801995954241709,0.2846168,0.7299898827558265
0.0625,1.70234375,1.0,2656.8252327266705,0.5052215425946684,1.290307564512347,0.9803772335883952,0.2845514375,0.7312548405194819
0.063,1.7007750000000001,1.0,2654.6190745932995,0.5079968539712031,1.2896194265517664,0.9805506705353925,0.28448555,0.7325273844509756
0.0635,1.69919375,1.0,2652.420950477026,0.5107565582085728,1.2889255777996238,0.9807200226558267,0.28441913750000003,0.7338074314194947
0.064,1.6976,1.0,2650.232411230143,0.5135007901700704,1.288226003868393,0.9808854077460556,0.2843522,0.735094932060131
0.0645,1.69599375,1.0,2648.0541036461027,0.5162296498975438,1.2875206986901022,0.981046937150052,0.2842847375,0.7363898208697559
0.065,1.694375,1.0,2645.8861411125345,0.518943218903983,1.2868096611116995,0.9812047170877172,0.28421675,0.7376920226179595
0.0655,1.69274375,1.0,2643.728636862259,0.521641578702378,1.2860928899801334,0.9813588499591677,0.2841482375,0.7390014614247937
0.066,1.6911,1.0,2641.581703976215,0.5243248108057194,1.2853703841423523,0.9815094345079041,0.2840792,0.7403180607603517
0.0665,1.6894437500000001,1.0,2639.445455385474,0.5269929967269968,1.2846421424453043,0.9816565659758777,0.2840096375,0.7416417434443466
0.067,1.687775,1.0,2637.3200038730274,0.529646217979201,1.283908163735938,0.9818003362509088,0.28393955,0.7429724316456883
0.0675,1.68609375,1.0,2635.2054620770255,0.5322845560753217,1.2831684468612017,0.9819408340068869,0.2838689375,0.7443100468820625
0.068,1.6844000000000001,1.0,2633.101942492555,0.5349080925283491,1.2824229906680435,0.982078144837153,0.2837978,0.7456545100195096
0.0685,1.68269375,1.0,2631.0095574740376,0.5375169088512737,1.281671794003412,0.9822123513814396,0.2837261375,0.7470057412720009
0.069,1.680975,1.0,2628.928419237906,0.5401110865570853,1.2809148557142556,0.9823435334467236,0.28365395,0.7483636602010172
0.0695,1.67924375,1.0,2626.8586398648617,0.5426907071587742,1.2801521746475224,0.9824717681223212,0.28358123749999997,0.7497281857151279
0.07,1.6775,1.0,2624.80033130255,0.5452558521693306,1.279383749650161,0.9825971298895381,0.283508,0.7510992360695669
0.07050000000000001,1.67574375,1.0,2622.753605367814,0.5478066031017447,1.2786095795691197,0.9827196907261655,0.2834342375,0.7524767288658112
0.07100000000000001,1.673975,1.0,2620.718573749296,0.5503430414690065,1.2778296632513466,0.9828395202060993,0.28335995,0.7538605810511586
0.07150000000000001,1.67219375,1.0,2618.695348010202,0.5528652487841064,1.2770439995437906,0.9829566855943385,0.2832851375,0.7552507089183041
0.07200000000000001,1.6704,1.0,2616.6840395907707,0.5553733065600344,1.2762525872933994,0.9830712519376079,0.2832098,0.7566470281049195
0.0725,1.66859375,1.0,2614.684759810838,0.5578672963097806,1.2754554253471218,0.9831832821508343,0.2831339375,0.7580494535932278
0.073,1.6667750000000001,1.0,2612.697619872686,0.5603472995463353,1.274652512551906,0.9832928370996895,0.28305755,0.7594578997095828
0.0735,1.66494375,1.0,2610.7227308634124,0.5628133977826888,1.2738438477547,0.9833999756794057,0.2829806375,0.7608722801240455
0.074,1.6631,1.0,2608.7606969979042,0.5652656161454005,1.273029425216511,0.9835047514634863,0.2829032,0.7622925158352729
0.0745,1.6612437500000001,1.0,2606.8109366248486,0.5677040918389658,1.2722092502202846,0.9836072231666271,0.2828252375,0.7637185079544339
0.075,1.659375,1.0,2604.8730860606506,0.5701289109003153,1.2713833260295224,0.9837074446552646,0.28274675,0.7651501605649041
0.0755,1.65749375,1.0,2602.9468978098753,0.5725401454307879,1.2705516548317912,0.9838054672734193,0.2826677375,0.7665873790426636
