Time [s],Phi [rad],STIM [ ],Fsee [N],Gamma [ ],Lcerel [ ],q [ ],Lmtc [m],fisomrel [ ]
0.0,1.8,1.0,17.969099440742724,3.900559053781605e-05,1.3793395287380794,0.005000401157303776,0.288653,0.5411400571963387
0.0005,1.79999375,1.0,18.288059445904047,0.005647996108825475,1.3793011310744279,0.01302123409301124,0.2886527375,0.5412329463190679
0.001,1.799975,1.0,21.651224417857385,0.011225524625084794,1.3789349489719973,0.03575987686772233,0.28865195,0.542118317753794
0.0015,1.79994375,1.0,31.14794555697217,0.016771767617159126,1.3780395021870286,0.07080871559841724,0.2886506375,0.5442797665375751
0.002,1.7999,1.0,53.752594560171794,0.022286900571193608,1.3763570983070585,0.11496294508404413,0.2886488,0.5483269596743976
0.0025,1.79984375,1.0,97.40550532360831,0.02777109798940151,1.3739213684186733,0.1648413014137315,0.28864643749999996,0.5541543693874579
0.003,1.7997750000000001,1.0,161.3314871198454,0.03322453339751217,1.3712003781153446,0.21755528072114294,0.28864354999999997,0.5606195130326059
0.0035,1.79969375,1.0,238.1053750331168,0.038647379344574996,1.3685717399430082,0.2708862275941305,0.2886401375,0.5668203842965037
0.004,1.7996,1.0,321.91592662672616,0.04403980741368547,1.3661442001406867,0.32318046486623114,0.2886362,0.5725077318346199
0.0045000000000000005,1.7994937500000001,1.0,409.73296681941235,0.049401988227185875,1.3639118968746564,0.37328574029009387,0.2886317375,0.5777045003606169
0.005,1.799375,1.0,499.8882486739001,0.05473409143786167,1.3618482564618313,0.420482506784798,0.28862675,0.5824803548964693
0.0055,1.79924375,1.0,591.269459583525,0.060036285775024366,1.359929477606798,0.46439131359365493,0.2886212375,0.5868965916763312
0.006,1.7991000000000001,1.0,682.9978234402879,0.0653087389910962,1.358137696335226,0.5048799482353366,0.2886152,0.5909993318357698
0.006500000000000001,1.79894375,1.0,774.3576146708124,0.07055161787968839,1.3564591231449594,0.5419836210652553,0.2886086375,0.5948242778275723
0.007,1.798775,1.0,864.7617348914156,0.07576508847728658,1.3548827083618271,0.5758433720878406,0.28860155,0.5984000743168825
0.0075,1.79859375,1.0,953.7030575838603,0.0809493154861547,1.353399707196073,0.6066615080785265,0.2885939375,0.6017495119698018
0.008,1.7984,1.0,1040.8116569045085,0.08610446315296869,1.3520019745801308,0.6346697735640765,0.2885858,0.6048935264403346
0.0085,1.79819375,1.0,1125.764675026989,0.09123069453599993,1.3506828654558547,0.6601094748318356,0.2885771375,0.6078492598076242
0.009000000000000001,1.797975,1.0,1208.3097114113684,0.09632817147959633,1.349436439772824,0.683218042335348,0.28856795,0.6106319341801453
0.0095,1.79774375,1.0,1288.2929460489272,0.10139705606202476,1.3482568213496526,0.7042209979231215,0.2885582375,0.613256334130855
0.01,1.7975,1.0,1365.5768175569556,0.10643750839411294,1.3471391190441686,0.7233283379268503,0.288548,0.6157347960116025
0.0105,1.79724375,1.0,1440.0573800782454,0.11144968738113734,1.346078966946836,0.7407324502959328,0.2885372375,0.6180782800925089
0.011,1.796975,1.0,1511.6916708876495,0.11643375176094693,1.3450720408454526,0.7566075450823944,0.28852595000000003,0.6202974701108236
0.0115,1.79669375,1.0,1580.4763991912798,0.12138985971540975,1.3441142376550028,0.7711103292667827,0.2885141375,0.6224023961834064
0.012,1.7964,1.0,1646.4169488457424,0.12631816827778292,1.3432019521755294,0.7843812014348668,0.28850180000000003,0.624401849562837
0.0125,1.79609375,1.0,1709.5181710978702,0.13121883259142197,1.3423320813212645,0.7965455475455457,0.2884889375,0.6263033995479949
0.013000000000000001,1.7957750000000001,1.0,1769.821095673971,0.13609200779968242,1.3415015220064395,0.8077149272011428,0.28847555,0.6281145104186395
0.0135,1.79544375,1.0,1827.379136018296,0.14093784798288828,1.3407073999333678,0.8179885768660797,0.2884616375,0.6298420523936357
0.014,1.7951000000000001,1.0,1882.2812006507054,0.14575650790539996,1.3399467671225016,0.8274546294925297,0.2884472,0.631492970417601
0.0145,1.79474375,1.0,1934.5759736715409,0.15054813890561874,1.3392173964851455,0.836191643426891,0.2884322375,0.6330725699038253
0.015,1.794375,1.0,1984.3284950896011,0.15531289209679075,1.3385171068590616,0.8442694604494357,0.28841675,0.6345859960579423
0.0155,1.79399375,1.0,2031.6224972941359,0.16005091859216214,1.3378437170820126,0.851750210657665,0.2884007375,0.6360383381001564
0.016,1.7936,1.0,2076.5407774233613,0.1647623681115613,1.3371952335833888,0.8586892808680565,0.2883842,0.6374342297469512
0.0165,1.7931937500000001,1.0,2119.18765942514,0.16944739138346568,1.3365695934895288,0.8651360350868498,0.2883671375,0.6387784079664967
0.017,1.792775,1.0,2159.6303565757494,0.17410613536836028,1.3359652537357567,0.8711346965759164,0.28834955,0.6400744524307036
0.0175,1.7923437500000001,1.0,2197.9450545572804,0.17873874689266403,1.3353806887700015,0.8767248085110508,0.2883314375,0.6413258724494879
0.018000000000000002,1.7919,1.0,2234.217688064975,0.1833453727827959,1.3348143730401927,0.8819417794586727,0.2883128,0.6425361467018581
0.0185,1.79144375,1.0,2268.530046770964,0.18792615843966132,1.3342649112086282,0.8868173989752993,0.2882936375,0.643708447495816
0.019,1.790975,1.0,2300.979710519332,0.1924812509836439,1.3337308284413851,0.8913802048903106,0.28827395,0.6448460910326108
0.0195,1.79049375,1.0,2331.637945227545,0.19701079363100268,1.3332109804745058,0.8956559523846735,0.2882537375,0.6459516661072019
0.02,1.79,1.0,2360.573788077024,0.20151492863634318,1.3327043015412743,0.8996678689423394,0.288233,0.6470275756885614
0.0205,1.78949375,1.0,2387.8614035695114,0.20599379825427097,1.3322097258749745,0.9034369201756504,0.2882117375,0.648076205465798
0.021,1.788975,1.0,2413.5796515462707,0.2104475447393916,1.3317261877088906,0.9069820608754267,0.28818995000000003,0.649099924707034
0.021500000000000002,1.78844375,1.0,2437.795931464917,0.21487630804890465,1.3312527727505983,0.9103204862185434,0.2881676375,0.6501007670441343
0.022,1.7879,1.0,2460.5975201507754,0.21928023166461308,1.3307884110009194,0.9134677613493998,0.2881448,0.6510810814652004
0.0225,1.78734375,1.0,2482.0422065468083,0.22365945361827658,1.3303323477144509,0.9164380854494502,0.28812143749999997,0.6520425384357753
0.023,1.786775,1.0,2502.1858089007615,0.2280141111742088,1.3298838726042046,0.919244383627236,0.28809755,0.6529867047055259
0.0235,1.78619375,1.0,2521.0865601341434,0.23234434159672343,1.329442275383193,0.9218984313392949,0.28807313749999996,0.6539151377243128
0.024,1.7856,1.0,2538.8049050349155,0.23665028215013417,1.3290068457644282,0.9244109725298932,0.2880482,0.6548293859698399
0.0245,1.78499375,1.0,2555.399598000505,0.2409320693795147,1.328576908319209,0.926791830026216,0.2880227375,0.655730916197035
0.025,1.784375,1.0,2570.9237776800383,0.24518983855466175,1.3281518570237354,0.9290500031531355,0.28799675,0.656621041874598
0.025500000000000002,1.78374375,1.0,2585.4482150846757,0.2494237277742848,1.3277309356489861,0.9311937136508287,0.2879702375,0.6575013833502554
0.026000000000000002,1.7831000000000001,1.0,2599.014151140808,0.25363386895458667,1.3273136777617058,0.9332305499551583,0.2879432,0.6583729475449815
0.0265,1.78244375,1.0,2611.663946278903,0.25782039401177026,1.32689961692864,0.9351674831753884,0.2879156375,0.6592367361349121
0.027,1.781775,1.0,2623.4409865797875,0.26198343486203846,1.3264882867165335,0.9370109255926362,0.28788755,0.6600937456533884
0.0275,1.7810937500000001,1.0,2634.3895947445653,0.2661231234215941,1.3260792206921317,0.9387667829031063,0.2878589375,0.6609449675791201
0.028,1.7804,1.0,2644.554945887717,0.2702395916066401,1.3256719524221792,0.9404405009424652,0.2878298,0.6617913884104779
0.0285,1.77969375,1.0,2653.975323408397,0.27433296774033394,1.3252660861273624,0.9420371162824489,0.2878001375,0.6626338431613115
0.029,1.778975,1.0,2662.7003042229617,0.27840338622546673,1.3248611280593239,0.9435612727996908,0.28776995,0.6634733656760956
0.029500000000000002,1.7782437500000001,1.0,2670.762304796528,0.28245097454729895,1.3244567481526457,0.9450172877752089,0.2877392375,0.664310645976437
0.03,1.7775,1.0,2678.1917735560196,0.2864758590914824,1.324052638842278,0.946409163176531,0.287708,0.6651463241688653
0.0305,1.77674375,1.0,2685.0195860697213,0.29047816624366907,1.3236484925631704,0.9477406102617948,0.2876762375,0.6659810371861844
0.031,1.775975,1.0,2691.277005755102,0.29445802238951074,1.3232440017502736,0.9490150743557231,0.28764395,0.6668154187897612
0.0315,1.7751937500000001,1.0,2696.9956466843337,0.2984155539146593,1.3228388588385374,0.9502357572230641,0.2876111375,0.6676500995657875
0.032,1.7744,1.0,2702.207165793967,0.30235088695729306,1.3224327587540725,0.9514056375273594,0.2875778,0.668485701792851
0.0325,1.77359375,1.0,2706.934882805317,0.3062641389091965,1.3220254750905716,0.9525274957293085,0.2875439375,0.6693226830124097
0.033,1.772775,1.0,2711.221044467665,0.31015544783938853,1.3216166108629204,0.9536039093335196,0.28750955,0.6701618482686507
0.0335,1.7719437500000002,1.0,2715.085070171795,0.3140249336116264,1.3212059794523732,0.9546373020395906,0.2874746375,0.6710035674873777
0.034,1.7711000000000001,1.0,2718.546540928398,0.3178727160896677,1.3207933942401844,0.9556299369877641,0.2874392,0.6718482085837425
0.0345,1.7702437500000001,1.0,2721.6251837086816,0.32169891513726984,1.3203786686076084,0.9565839292895352,0.2874032375,0.6726961374401028
0.035,1.7693750000000001,1.0,2724.3408565569416,0.32550365061819014,1.3199616159358996,0.9575012574404566,0.28736675,0.6735477178816579
0.035500000000000004,1.76849375,1.0,2726.713534475294,0.3292870423961862,1.3195420496063124,0.9583837737265392,0.2873297375,0.6744033116498629
0.036000000000000004,1.7676,1.0,2728.7632960806923,0.3330492103350154,1.3191197830001011,0.9592332137234558,0.2872922,0.6752632783736237
0.0365,1.76669375,1.0,2730.510311034169,0.33679027429843506,1.3186946294985202,0.9600512049770128,0.2872541375,0.6761279755382683
0.037,1.765775,1.0,2731.97482824184,0.3405103541502028,1.318266402482824,0.9608392749438643,0.28721555,0.6769977584522996
0.0375,1.7648441072265981,1.0,2733.214696804642,0.3442095599599037,1.3178347357416644,0.9615988385958301,0.2871764525035171,0.677873344247533
0.038,1.7639095956484143,1.0,2734.625198129021,0.34788801687586224,1.317399887698631,0.9623312894132298,0.2871372030172334,0.6787541814059197
0.0385,1.7629750840702307,1.0,2736.3387916638826,0.35154584949415124,1.3169622913339734,0.9630379539645065,0.2870979535309497,0.6796393682152979
0.039,1.762040572492047,1.0,2738.336744565998,0.35518316993439064,1.3165221192280026,0.9637200536992111,0.28705870404466594,0.6805285332889481
0.0395,1.7611060609138631,1.0,2740.6003424021287,0.35880009031620025,1.31607954396103,0.9643787389794992,0.28701945455838224,0.6814213070452402
0.04,1.7601715493356795,1.0,2743.110879623447,0.3623967227592,1.3156347381133677,0.96501509398187,0.28698020507209854,0.6823173217350311
0.0405,1.7592370377574957,1.0,2745.849650700336,0.3659731793830097,1.3151878742653267,0.9656301412113504,0.28694095558581484,0.6832162114671704
0.041,1.7583025261793122,1.0,2748.797941917616,0.36952957230724925,1.3147391249972187,0.9662248456624903,0.28690170609953114,0.6841176122320956
0.0415,1.7573680146011283,1.0,2751.9370238299625,0.3730660136515385,1.314288662889355,0.966800118658188,0.2868624566132474,0.6850211619235373
0.042,1.7564335030229445,1.0,2755.2481443779716,0.3765826155354974,1.3138366605220475,0.9673568213943423,0.2868232071269637,0.6859265003583199
0.0425,1.755498991444761,1.0,2758.712522664227,0.38007949007874564,1.3133832904756073,0.967895768215654,0.28678395764068,0.6868332692942638
0.043000000000000003,1.7545644798665772,1.0,2762.311343389742,0.38355674940090323,1.3129287253303459,0.9684177296454805,0.28674470815439623,0.6877411124461892
0.043500000000000004,1.7536299682883933,1.0,2766.025751951332,0.38701450562158995,1.312473137666575,0.968923435190501,0.28670545866811253,0.688649675500018
0.044,1.7526954567102098,1.0,2769.844320437979,0.39045286612904995,1.3120166326592329,0.9694135699062618,0.28666620918182883,0.6895587402550809
0.0445,1.751760945132026,1.0,2773.7557808182705,0.39387194297049183,1.3115593138063122,0.9698887837780351,0.2866269596955451,0.690468093050191
0.045,1.7508264335538424,1.0,2777.75071756699,0.3972718439449661,1.3111012676655949,0.970349691402436,0.2865877102092614,0.6913775550282523
0.0455,1.7498919219756586,1.0,2781.8218220413632,0.40065267479305083,1.3106425616105044,0.9707968743440237,0.2865484607229777,0.6922869863394897
0.046,1.7489574103974748,1.0,2785.9617667928524,0.40401454125532377,1.310183263014463,0.9712308848802809,0.28650921123669393,0.6931962479135858
0.0465,1.7480228988192912,1.0,2790.1632046316104,0.407357549072363,1.309723439250894,0.97165224775931,0.28646996175041023,0.6941052014623652
0.047,1.7470883872411074,1.0,2794.4187677915525,0.4106818039847463,1.3092631576932199,0.9720614618359448,0.28643071226412653,0.6950137094822022
0.0475,1.7461538756629236,1.0,2798.721067196197,0.41398741173305176,1.3088024857148637,0.9724590015957586,0.2863914627778428,0.695921635256127
0.048,1.74521936408474,1.0,2803.0626918253756,0.41727447805785717,1.308341490689248,0.9728453185756325,0.2863522132915591,0.6968288428556515
0.0485,1.7442848525065562,1.0,2807.4437310813446,0.4205430943257228,1.30788017256535,0.9732208362268243,0.2863129638052754,0.6977353295316657
0.049,1.7433503409283724,1.0,2811.84963365751,0.42379338474670597,1.307418662413671,0.9735859709723692,0.2862737143189916,0.6986408354585121
0.0495,1.7424158293501888,1.0,2816.276926870669,0.4270254504541159,1.3069569917606252,0.9739411101036614,0.2862344648327079,0.6995452972234295
0.05,1.741481317772005,1.0,2820.7230475091096,0.4302393906814467,1.3064951839033159,0.974286622157838,0.2861952153464242,0.7004486678701294
0.0505,1.7405468061938214,1.0,2825.1854242845793,0.4334353046621925,1.3060332621388462,0.974622858731414,0.28615596586014047,0.7013509007163783
0.051000000000000004,1.7396122946156376,1.0,2829.6614777677623,0.43661329162984763,1.305571249764319,0.9749501554108941,0.28611671637385677,0.7022519493541841
0.051500000000000004,1.7386777830374538,1.0,2834.1486203349946,0.43977345081790625,1.3051091700768376,0.9752688326443083,0.2860774668875731,0.7031517676499471
0.052000000000000005,1.7377432714592702,1.0,2838.6442561275767,0.4429158814598625,1.3046470463735051,0.9755791965579085,0.2860382174012893,0.7040503097445772
0.0525,1.7368087598810864,1.0,2843.1457810234897,0.4460406827892105,1.3041849019514247,0.9758815397219267,0.2859989679150056,0.7049475300535784
0.053,1.7358742483029026,1.0,2847.6505826199405,0.44914795403944463,1.3037227601076993,0.9761761418689904,0.2859597184287219,0.705843383267095
0.0535,1.734939736724719,1.0,2852.1560402291793,0.4522377944440589,1.303260644139432,0.9764632705685018,0.28592046894243817,0.7067378243499258
0.054,1.7340052251465352,1.0,2856.6595248857807,0.4553103032365476,1.3027985773437263,0.9767431818600392,0.28588121945615447,0.7076308085415033
0.0545,1.7330707135683516,1.0,2861.1583993659597,0.4583655796504049,1.3023365830176847,0.977016120848592,0.28584196996987077,0.7085222913558376
0.055,1.7321362019901678,1.0,2865.6548953863853,0.4614036927141245,1.3018746411927538,0.9772823167966429,0.285802720483587,0.7094123118773794
0.0555,1.731201690411984,1.0,2870.142695543819,0.46442477831844314,1.3014128077436051,0.9775420001902025,0.2857634709973033,0.7103007631636369
0.056,1.7302671788338004,1.0,2874.620957266,0.4674289302869137,1.3009510898789902,0.9777953851035461,0.2857242215110196,0.7111876323362498
0.0565,1.7293326672556166,1.0,2879.089210843569,0.4704162397591465,1.3004894914860023,0.9780426763648309,0.28568497202473586,0.7120729129671037
0.057,1.7283981556774328,1.0,2883.5469852964657,0.4733867978747517,1.3000280164517348,0.9782840704507509,0.28564572253845216,0.7129565986735891
0.0575,1.7274636440992492,1.0,2887.993808383949,0.4763406957733396,1.299566668663281,0.9785197558948424,0.28560647305216846,0.7138386831185716
0.058,1.7265291325210654,1.0,2892.4292066158355,0.47927802459452035,1.2991054520077343,0.9787499136726611,0.28556722356588476,0.7147191600103602
0.0585,1.7255946209428816,1.0,2896.8527052632976,0.4821988754779043,1.298644370372188,0.9789747175653104,0.285527974079601,0.7155980231026768
0.059000000000000004,1.724660109364698,1.0,2901.263828370805,0.4851033395631016,1.2981834276437352,0.9791943345027052,0.2854887245933173,0.7164752661946217
0.059500000000000004,1.7237255977865142,1.0,2905.6620987673173,0.48799150798972246,1.2977226277094696,0.9794089248878468,0.2854494751070336,0.7173508831306397
0.06,1.7227910862083307,1.0,2910.047038078833,0.4908634718973771,1.2972619744564844,0.9796186429033052,0.2854102256207499,0.7182248678004861
0.0605,1.7218565746301469,1.0,2914.4181667407574,0.4937193224256759,1.296801471771873,0.979823636801012,0.28537097613446616,0.7190972141391904
0.061,1.720922063051963,1.0,2918.775004010818,0.496559150714229,1.2963411235427285,0.9800240491763954,0.28533172664818246,0.7199679161270196
0.0615,1.7199875514737795,1.0,2923.117067982,0.4993830479026466,1.2958809336561443,0.9802200172278193,0.28529247716189876,0.7208369677894398
0.062,1.7190530398955957,1.0,2927.4438755959955,0.502191105130539,1.295420905999214,0.9804116730022171,0.285253227675615,0.7217043631970779
0.0625,1.7181185283174119,1.0,2931.754942657559,0.5049834135375163,1.2949610444590305,0.9805991436277562,0.2852139781893313,0.7225700964656818
0.063,1.7171840167392283,1.0,2936.0502904982286,0.507760043770489,1.2945013484823693,0.980782549793845,0.2851747287030476,0.723434170095874
0.0635,1.7162495051610445,1.0,2940.3302048029086,0.5105210792692566,1.2940418152041027,0.9809620086125046,0.28513547921676385,0.7242965909166975
0.064,1.7153149935828607,1.0,2944.5938285224156,0.5132666486119741,1.293582451769457,0.9811376366858579,0.28509622973048016,0.7251573469803396
0.0645,1.714380482004677,1.0,2948.841247527348,0.5159968338291666,1.2931232570587339,0.9813095426457469,0.28505698024419646,0.7260164418727022
0.065,1.7134459704264933,1.0,2953.072548247611,0.518711716951359,1.2926642299522353,0.9814778312452985,0.2850177307579127,0.7268738791660241
0.0655,1.7125114588483097,1.0,2957.2878176683093,0.5214113800090762,1.2922053693302626,0.9816426035256077,0.284978481271629,0.7277296624188929
0.066,1.7115769472701259,1.0,2961.4871433250546,0.5240959050328433,1.2917466740731178,0.9818039569741056,0.2849392317853453,0.7285837951762563
0.0665,1.710642435691942,1.0,2965.670613300358,0.5267653740531852,1.2912881430611025,0.9819619856750765,0.28489998229906155,0.7294362809694346
0.067,1.7097079241137585,1.0,2969.8383162194023,0.5294198691006271,1.2908297751745186,0.9821167804527746,0.28486073281277785,0.730287123316132
0.0675,1.7087734125355747,1.0,2973.990341245841,0.5320594722056938,1.290371569293668,0.9822684290075455,0.28482148332649415,0.7311363257204484
0.068,1.707838900957391,1.0,2978.1267780779012,0.5346842653989103,1.2899135242988518,0.9824170160453481,0.2847822338402104,0.7319838916728925
0.0685,1.7069043893792073,1.0,2982.2477169444073,0.5372943307108017,1.2894556390703724,0.9825626234010344,0.2847429843539267,0.7328298246503899
0.069,1.7059698778010235,1.0,2986.3532486007,0.5398897501718929,1.2889979124885313,0.9827053301557351,0.284703734867643,0.7336741281162984
0.0695,1.70503536622284,1.0,2990.443464324547,0.5424706058127089,1.2885403434336304,0.9828452127486658,0.28466448538135924,0.7345168055204165
0.07,1.704100854644656,1.0,2994.518455912698,0.5450369796637747,1.2880829307859714,0.9829823450836592,0.28462523589507555,0.7353578602989963
0.07050000000000001,1.7031663430664723,1.0,2998.5783156765046,0.5475889537556153,1.2876256734258558,0.9831167986307047,0.28458598640879185,0.7361972958747545
0.07100000000000001,1.7022318314882887,1.0,3002.623136438161,0.5501266101187557,1.2871685702335856,0.9832486425227619,0.2845467369225081,0.7370351156568822
0.07150000000000001,1.701297319910105,1.0,3006.6530115270625,0.552650030783721,1.2867116200894624,0.9833779436480965,0.2845074874362244,0.7378713230410581
