Time [s],Phi [rad],STIM [ ],Fsee [N],Gamma [ ],Lcerel [ ],q [ ],Lmtc [m],fisomrel [ ]
0.0,1.8,1.0,18.028363438190993,0.00025382230699108876,1.3793328950122425,0.005016737375978892,0.288653,0.5411561057449967
0.0005,1.79999375,1.0,18.416907337441273,0.005861607873416034,1.379286848123525,0.013631264528335105,0.2886527375,0.5412674963026853
0.001,1.799975,1.0,21.939627170303456,0.011437938196592164,1.378905612595112,0.03689044873549279,0.28865195,0.5421892115558766
0.0015,1.79994375,1.0,31.78251850121578,0.01698298971654917,1.3779857793448886,0.07234901419524219,0.2886506375,0.5444092812915726
0.002,1.7999,1.0,55.07508710211321,0.022496937881457586,1.3762719582501892,0.11678246687893974,0.2886488,0.548531292839821
0.0025,1.79984375,1.0,99.59078900186631,0.027979957156557538,1.3738168030555118,0.16681782695251232,0.28864643749999996,0.5544036918155508
0.003,1.7997750000000001,1.0,164.15054920391853,0.03343222102984084,1.3710954365406685,0.21959246303703622,0.28864354999999997,0.5608679112840903
0.0035,1.79969375,1.0,241.27716902720312,0.03885390201339212,1.3684744498503654,0.2729111089880912,0.2886401375,0.5670490427534138
0.004,1.7996,1.0,325.28255646833884,0.04424517165356651,1.366055324965831,0.3251401653893025,0.2886362,0.5727152393627548
0.0045000000000000005,1.7994937500000001,1.0,413.21393337263555,0.04960620053638032,1.363830404440409,0.3751453584228616,0.2886317375,0.5778936122599758
0.005,1.799375,1.0,503.43598113403834,0.05493715827933853,1.3617730364727483,0.4222218800352942,0.28862675,0.5826539224530853
0.0055,1.79924375,1.0,594.8454185460951,0.06023821356926151,1.3598597456232897,0.4660014163986334,0.2886212375,0.5870566437498126
0.006,1.7991000000000001,1.0,686.5745604780594,0.06550953413016437,1.3580727884793855,0.5063594488363218,0.2886152,0.591147570633282
0.006500000000000001,1.79894375,1.0,777.9101692198475,0.07075128673156644,1.3563985667387757,0.543336282824104,0.2886086375,0.5949619312070997
0.007,1.798775,1.0,868.2657950058535,0.07596363729795227,1.354826179347211,0.5770760509026829,0.28860155,0.5985280052610361
0.0075,1.79859375,1.0,957.1500264142303,0.08114675058166455,1.353346749844213,0.6077825760580261,0.2885939375,0.6018688596126629
0.008,1.7984,1.0,1044.187785002525,0.08630079087046871,1.35195231895393,0.6356883706182682,0.2885858,0.6050049910170636
0.0085,1.79819375,1.0,1129.0577450972094,0.09142592099639216,1.3506362910534448,0.6610348036542849,0.2885771375,0.6079534164422319
0.009000000000000001,1.797975,1.0,1211.5150763320328,0.09652230299772384,1.3493926786969874,0.6840589372617005,0.28856795,0.6107294517632134
0.0095,1.79774375,1.0,1291.3994772733367,0.10159009865084423,1.3482157447756813,0.7049858151357058,0.2885582375,0.6133475608747372
0.01,1.7975,1.0,1368.5735763380785,0.10662946794097544,1.3471006294769465,0.7240247851807216,0.288548,0.615820003242052
0.0105,1.79724375,1.0,1442.9477921807459,0.11164057013961513,1.346042814350946,0.7413674605976844,0.2885372375,0.6181580696303468
0.011,1.796975,1.0,1514.4817060726282,0.11662356387148262,1.3450379792333291,0.7571873714811995,0.28852595000000003,0.6203724262964947
0.0115,1.79669375,1.0,1583.1705977636507,0.12157860753633738,1.344082068621894,0.7716405998008563,0.2885141375,0.6224729912400455
0.012,1.7964,1.0,1648.999300259999,0.12650585709397386,1.3431717413486717,0.7848670542326132,0.28850180000000003,0.6244679717465573
0.0125,1.79609375,1.0,1711.9913954303065,0.13140546839248557,1.3423036853298929,0.7969914707444454,0.2884889375,0.6263653922499162
0.013000000000000001,1.7957750000000001,1.0,1772.1857130235305,0.13627759636584671,1.3414748387656072,0.8081249274741072,0.28847555,0.6281726227359775
0.0135,1.79544375,1.0,1829.6646411107215,0.14112239656326775,1.3406820183032562,0.8183660972216705,0.2884616375,0.6298972015459816
0.014,1.7951000000000001,1.0,1884.471365000765,0.14594002127110428,1.3399228011225879,0.8278029199794887,0.2884472,0.6315449275413698
0.0145,1.79474375,1.0,1936.6638745312207,0.15073062238290091,1.3391948599459351,0.8365135570868203,0.2884322375,0.6331213232980148
0.015,1.794375,1.0,1986.3213234739014,0.15549435179220236,1.338495867495631,0.84456748528657,0.28841675,0.6346318484961102
0.0155,1.79399375,1.0,2033.5252395103312,0.1602313601699017,1.337823674938156,0.8520265711648733,0.2884007375,0.6360815199339257
0.016,1.7936,1.0,2078.376340943593,0.16494179875577375,1.3371761090599428,0.8589459046363704,0.2883842,0.6374753554821351
0.0165,1.7931937500000001,1.0,2120.941168936398,0.16962581543623723,1.3365515083865904,0.8653747607503935,0.2883671375,0.6388172264117052
0.017,1.792775,1.0,2161.296225804274,0.17428355794147357,1.335948233920313,0.8713571396909799,0.28834955,0.6401109187685671
0.0175,1.7923437500000001,1.0,2199.5290745677116,0.17891517400166418,1.335364646663325,0.8769323836527932,0.2883314375,0.6413601842104053
0.018000000000000002,1.7919,1.0,2235.7042659623803,0.183520809669502,1.3347994402802623,0.8821358131826706,0.2883128,0.6425680318495635
0.0185,1.79144375,1.0,2269.97406587078,0.1881006129877221,1.3342505159672218,0.8869988998820111,0.2882936375,0.6437391344886672
0.019,1.7909750049480138,1.0,2302.378544096689,0.19265472741730724,1.333716984461897,0.891550224858565,0.28827395020781654,0.6448755557450829
0.0195,1.7905003566586062,1.0,2333.261157321775,0.19718329624322706,1.3331980032580795,0.8958155127125093,0.28825401497966147,0.6459792430638676
0.02,1.7900257083691988,1.0,2362.9461445374504,0.20168646275045118,1.332692729849561,0.8998179443863225,0.28823407975150633,0.6470521285243847
0.0205,1.7895510600797915,1.0,2391.492738191462,0.20616437002836271,1.332200331461679,0.9035784448909354,0.28821414452335126,0.6480961089819852
0.021,1.7890764117903841,1.0,2418.943322373683,0.21061716020281263,1.3317201689459446,0.907115973683881,0.2881942092951961,0.6491126578905421
0.021500000000000002,1.7886017635009768,1.0,2445.333616273909,0.21504497412559764,1.3312516915324688,0.9104477153970285,0.288174274067041,0.6501030512017798
0.022,1.7881271152115694,1.0,2470.7013795212915,0.21944795120126723,1.330794349772051,0.9135892531352275,0.2881543388388859,0.6510685528025704
0.0225,1.7876524669221618,1.0,2495.086408369956,0.22382623083437084,1.3303475942154899,0.9165547406245645,0.2881344036107308,0.6520104177169581
0.023,1.7871778186327545,1.0,2518.515440049219,0.22817994675854064,1.3299110170069826,0.9193570770170941,0.2881144683825757,0.6529295945708498
0.0235,1.7867031703433471,1.0,2541.0528788260185,0.23250924675955523,1.3294838696825608,0.922007957825941,0.2880945331544206,0.6538277411320321
0.024,1.7862285220539398,1.0,2562.729750997028,0.23681426581344495,1.3290657359898883,0.9245181080065445,0.28807459792626544,0.6547058080275291
0.0245,1.7857538737645324,1.0,2583.5754470116535,0.2410951378036874,1.3286562271960658,0.9268973310155781,0.28805466269811036,0.6555646821595917
0.025,1.7852792254751249,1.0,2603.6205401037555,0.24535199661376023,1.3282549545681948,0.9291545966936011,0.28803472746995523,0.6564052449025268
0.025500000000000002,1.7848045771857175,1.0,2622.896713631126,0.249584976127141,1.3278615293733758,0.9312981235392626,0.28801479224180015,0.6572283723117063
0.026000000000000002,1.7843299288963101,1.0,2641.4366917642947,0.2537942102273073,1.3274755628787105,0.9333354518621104,0.287994857013645,0.6580349353229329
0.0265,1.7838552806069028,1.0,2659.274173526991,0.2579798327977368,1.3270966663512995,0.9352735089212567,0.2879749217854899,0.6588257999421768
0.027,1.7833806323174954,1.0,2676.443770185826,0.262141977721907,1.3267244510582443,0.9371186670132641,0.2879549865573348,0.6596018274256662
0.0275,1.7829059840280879,1.0,2692.968813592582,0.26628077293925717,1.3263586392909066,0.9388768095844973,0.2879350513291797,0.6603636433679463
0.028,1.7824313357386805,1.0,2708.889903124822,0.2703963568226913,1.3259988017546838,0.9405533440545707,0.2879151161010246,0.661112185122801
0.0285,1.7819566874492732,1.0,2724.232060268104,0.2744888588322691,1.3256446581953054,0.9421532809705038,0.28789518087286947,0.6618480758573428
0.029,1.7814820391598658,1.0,2739.016534819538,0.2785584061087327,1.3252959677571985,0.9436812564474444,0.28787524564471434,0.662571853829425
0.029500000000000002,1.7810073908704585,1.0,2753.26506726289,0.2826051257928246,1.32495248958479,0.9451415607191115,0.28785531041655926,0.6632840545683896
0.03,1.780532742581051,1.0,2766.9998602908054,0.286629145025287,1.3246139828225065,0.9465381683844333,0.28783537518840413,0.6639852109569817
0.0305,1.7800580942916435,1.0,2780.243551614285,0.29063059094686233,1.3242802066147756,0.9478747656498566,0.28781543996024905,0.6646758533095614
0.031,1.7795834460022362,1.0,2793.019188057502,0.29460959069829284,1.323950920106024,0.9491547748984661,0.2877955047320939,0.6653565094466214
0.0315,1.7791087977128288,1.0,2805.3502009392223,0.2985662714203209,1.3236258824406784,0.9503813768772693,0.2877755695039388,0.6660277047656002
0.032,1.7786341494234215,1.0,2817.2533019494576,0.30250075464409126,1.323304916114523,0.9515575367673816,0.2877556342757837,0.6666898316842516
0.0325,1.778159501134014,1.0,2828.753766426263,0.3064131705890779,1.322987769672892,0.952686009641584,0.2877356990476286,0.6673434331687846
0.033,1.7776848528446065,1.0,2839.872926095729,0.310303646074449,1.322674229750323,0.953769367107741,0.2877157638194735,0.6679889714765174
0.0335,1.7772102045551992,1.0,2850.624581258384,0.3141723013954113,1.3223641524389687,0.954810014668199,0.28769582859131837,0.6686267641017392
0.034,1.7767355562657918,1.0,2861.0227363828258,0.3180192568471717,1.3220573938309828,0.9558101987602311,0.28767589336316324,0.6692571271645258
0.0345,1.7762609079763845,1.0,2871.0815892873734,0.32184463272493696,1.3217538100185182,0.956772019160744,0.28765595813500816,0.6698803754418601
0.035,1.7757862596869771,1.0,2880.8155207805435,0.32564854932391396,1.3214532570937287,0.9576974402850557,0.28763602290685303,0.670496822397427
0.035500000000000004,1.7753116113975695,1.0,2890.2390847613583,0.3294311269393095,1.3211555911487671,0.9585883014899222,0.28761608767869795,0.6711067802100954
0.036000000000000004,1.7748369631081622,1.0,2899.3669987780777,0.3331924858663304,1.3208606682757869,0.9594463264789569,0.2875961524505428,0.6717105598010698
0.0365,1.7743623148187548,1.0,2908.2141350466254,0.33693274640018334,1.320568344566941,0.9602731318979396,0.2875762172223877,0.6723084708597291
0.037,1.7738876665293475,1.0,2916.792175816532,0.3406520243059964,1.3202785054486383,0.9610702371109736,0.2875562819942326,0.6729007619502122
0.0375,1.7734130182399401,1.0,2925.1126203703348,0.34435043698743406,1.3199910389991234,0.9618390699931105,0.2875363467660775,0.6734876752559359
0.038,1.7729383699505328,1.0,2933.1941572939345,0.34802811234226283,1.3197057712336009,0.9625809691185766,0.2875164115379224,0.6740695785712005
0.0385,1.7724637216611252,1.0,2941.0450220287325,0.3516851633778358,1.3194226209565239,0.9632971994703229,0.28749647630976727,0.674646649302503
0.039,1.7719890733717178,1.0,2948.673530154092,0.35532170310150607,1.3191415069723447,0.9639889520153259,0.28747654108161214,0.6752190641818268
0.0395,1.7715144250823105,1.0,2956.088073648158,0.3589378445206267,1.3188623480855162,0.9646573488363783,0.287456605853457,0.6757869992773953
0.04,1.7710397767929031,1.0,2963.2971172953585,0.36253370064255086,1.3185850631004907,0.9653034478551861,0.2874366706253019,0.6763506300040063
0.0405,1.7705651285034958,1.0,2970.3091952394884,0.36610938447463165,1.3183095708217212,0.9659282471833328,0.28741673539714685,0.6769101311329454
0.041,1.7700904802140882,1.0,2977.1329076836223,0.36966500902422217,1.31803579005366,0.9665326891340497,0.2873968001689917,0.6774656768014808
0.0415,1.7696158319246809,1.0,2983.7769177360215,0.37320068729867545,1.31776363960076,0.9671176639245219,0.2873768649408366,0.6780174405219336
0.042,1.7691411836352735,1.0,2990.2499484019017,0.37671653230534474,1.3174930382674739,0.9676840130955681,0.28735692971268145,0.6785655951903329
0.0425,1.7686665353458662,1.0,2996.560779721792,0.380212657051583,1.317223904858254,0.9682325326729659,0.2873369944845264,0.6791103130946476
0.043000000000000003,1.7681918870564588,1.0,3002.7128690582654,0.3836891616761139,1.316956204775855,0.9687639778100343,0.2873170592563713,0.6796516717285915
0.043500000000000004,1.7677172387670512,1.0,3008.7173008645273,0.3871461684776682,1.316689837652749,0.9692790619430742,0.28729712402821617,0.6801898811462868
0.044,1.7672425904776439,1.0,3014.582918429066,0.3905837936666347,1.3164247230135424,0.9697784617275346,0.28727718880006103,0.6807251105414636
0.0445,1.7667679421882365,1.0,3020.314241945867,0.3940021423858836,1.3161608181456301,0.9702628200049843,0.2872572535719059,0.681257452389942
0.045,1.7662932938988292,1.0,3025.9158203454112,0.39740131977828486,1.3158980803364064,0.9707327466699517,0.2872373183437508,0.681786998851318
0.0455,1.7658186456094218,1.0,3031.3922301692105,0.40078143098670843,1.315636466873266,0.971188820679298,0.2872173831155957,0.682313841772199
0.046,1.7653439973200145,1.0,3036.748074485067,0.4041425811540245,1.315375935043604,0.9716315919202793,0.2871974478874406,0.6828380726893254
0.0465,1.7648693490306069,1.0,3041.9879818422924,0.4074848754231031,1.3151164421348145,0.9720615829485026,0.2871775126592855,0.6833597828325769
0.047,1.7643947007411995,1.0,3047.1166052677645,0.4108084189368142,1.3148579454342924,0.9724792906059972,0.28715757743113035,0.6838790631278577
0.0475,1.7639200524517922,1.0,3052.1386213023593,0.4141133168380279,1.3146004022294322,0.9728851875287255,0.2871376422029753,0.6843960041998708
0.048,1.7634454041623848,1.0,3057.0587290774506,0.4173996742696143,1.3143437698076288,0.9732797235520696,0.28711770697482014,0.684910696374772
0.0485,1.7629707558729775,1.0,3061.881649432588,0.4206675963744433,1.3140880054562767,0.973663327022076,0.28709777174666506,0.6854232296827102
0.049,1.76249610758357,1.0,3066.612124072824,0.42391718829538505,1.3138330664627704,0.9740364060196027,0.28707783651850993,0.6859336938602498
0.0495,1.7620214592941625,1.0,3071.2548735200266,0.42714855497135973,1.313578910467951,0.9743993495036055,0.2870579012903548,0.6864421776458316
0.05,1.7615468110047552,1.0,3075.807968536116,0.43036177109012563,1.3133255522163714,0.9747525286710294,0.2870379660621997,0.6869486553836286
0.0505,1.7610721627153478,1.0,3080.2827457346284,0.4335569795880519,1.3130728929364048,0.9750962980395204,0.2870180308340446,0.6874533281518826
0.051000000000000004,1.7605975144259405,1.0,3084.681451534888,0.4367342770752118,1.312820911897873,0.9754309957583056,0.2869980956058895,0.6879562406868085
0.051500000000000004,1.760122866136533,1.0,3089.0063423958486,0.43989376016167875,1.3125695883705988,0.9757569447430356,0.2869781603777344,0.6884574375823802
0.052000000000000005,1.7596482178471256,1.0,3093.2596845099984,0.44303552545752617,1.312318901624404,0.976074453495365,0.28695822514957925,0.6889569632912179
0.0525,1.7591735695577182,1.0,3097.44375350536,0.4461596695728273,1.3120688309291109,0.976383816871537,0.28693828992142417,0.6894548621254402
0.053,1.7586989212683108,1.0,3101.560834157543,0.4492662891176557,1.3118193555545419,0.9766853168035605,0.28691835469326904,0.6899511782574943
0.0535,1.7582242729789035,1.0,3105.613220111812,0.45235548070208464,1.311570454770519,0.9769792229762881,0.28689841946511396,0.6904459557209568
0.054,1.7577496246894961,1.0,3109.6032136137433,0.4554273409361874,1.3113221078468642,0.9772657934634423,0.28687848423695883,0.6909392384113057
0.0545,1.7572749764000886,1.0,3113.533125250137,0.4584819664300376,1.3110742940534004,0.9775452753254128,0.2868585490088037,0.6914310700866665
0.055,1.7568003281106812,1.0,3117.405273699393,0.46151945379370835,1.3108269926599492,0.9778179051714192,0.2868386137806486,0.6919214943685328
0.0555,1.7563256798212739,1.0,3121.221985490645,0.4645398996372731,1.3105801829363333,0.9780839096884478,0.2868186785524935,0.6924105547424546
0.056,1.7558510315318665,1.0,3124.985594773816,0.46754340057080535,1.3103338441523744,0.9783435061391859,0.2867987433243384,0.6928982945587048
0.0565,1.7553763832424591,1.0,3128.6984430975995,0.47053005320437824,1.3100879555778953,0.9785969028310074,0.2867788080961833,0.6933847570329121
0.057,1.7549017349530516,1.0,3132.3628791984365,0.47349995414806534,1.3098424964827176,0.9788442995579231,0.28675887286802815,0.6938699852466746
0.0575,1.7544270866636442,1.0,3135.9812587980364,0.47645320001193997,1.309597446136664,0.9790858880172532,0.28673893763987307,0.6943540221481361
0.058,1.7539524383742369,1.0,3139.550557631561,0.47938983143676706,1.3093528294639531,0.9793218499572961,0.28671900241171794,0.6948368204803773
0.0585,1.7534777900848295,1.0,3143.0785456226645,0.48231001304817,1.3091085799099504,0.9795523653779491,0.28669906718356286,0.6953185134759368
0.059000000000000004,1.7530031417954222,1.0,3146.566412375676,0.48521383407679486,1.3088646867857332,0.9797776038331978,0.28667913195540773,0.6957991239054557
0.059500000000000004,1.7525284935060146,1.0,3150.0151540957104,0.4881013815672973,1.3086211410697521,0.9799977281580303,0.2866591967272526,0.6962786711887887
0.06,1.7520538452166072,1.0,3153.425770140171,0.49097274256433315,1.3083779337404575,0.9802128948748877,0.2866392614990975,0.6967571746873916
0.0605,1.7515791969271999,1.0,3156.799262949669,0.4938280041125581,1.3081350557762998,0.9804232544871041,0.2866193262709424,0.6972346537045172
0.061,1.7511045486377925,1.0,3160.13663798205,0.4966672532566278,1.3078924981557298,0.9806289517565285,0.2865993910427873,0.6977111274854079
0.0615,1.7506299003483852,1.0,3163.4389036466077,0.4994905770411981,1.307650251857198,0.9808301259662932,0.2865794558146322,0.6981866152174829
0.062,1.7501552520589778,1.0,3166.707071241579,0.5022980625109246,1.3074083078591547,0.9810269111696328,0.28655952058647705,0.6986611360305203
0.0625,1.7496806037695702,1.0,3169.942154892424,0.5050897967104631,1.3071666571400506,0.9812194364255932,0.2865395853583219,0.6991347089968323
0.063,1.7492059554801629,1.0,3173.1451714924015,0.5078658666844691,1.3069252906783362,0.9814078260224129,0.28651965013016684,0.6996073531314377
0.0635,1.7487313071907555,1.0,3176.3171406445626,0.5106263594775986,1.3066841994524618,0.9815921996893094,0.28649971490201176,0.7000790873922278
0.064,1.7482566589013482,1.0,3179.4590846059714,0.5133713621345072,1.306443374440878,0.9817726727973551,0.2864797796738566,0.7005499306801268
0.0645,1.7477820106119408,1.0,3182.572028233697,0.5161009616998506,1.3062028066220357,0.9819493565500766,0.2864598444457015,0.7010199018392482
0.065,1.7473073623225333,1.0,3185.656998932324,0.5188152452182846,1.3059624869743849,0.9821223581643791,0.28643990921754636,0.7014890196570451
0.0655,1.746832714033126,1.0,3188.7150266033764,0.5215142997344647,1.3057224064763764,0.9822917810423502,0.2864199739893913,0.7019573028644557
0.066,1.7463580657437185,1.0,3191.747143596581,0.5241982122930469,1.3054825561064605,0.9824577249344654,0.2864000387612362,0.7024247701360435
0.0665,1.7458834174543112,1.0,3194.754384662897,0.5268670699386867,1.3052429268430878,0.9826202860946869,0.2863801035330811,0.7028914400901318
0.067,1.7454087691649038,1.0,3197.7377869095308,0.52952095971604,1.3050035096647092,0.9827795574279079,0.28636016830492594,0.7033573312889337
0.0675,1.7449341208754963,1.0,3200.6983897567197,0.5321599686697623,1.3047642955497747,0.9829356286301771,0.2863402330767708,0.7038224622386786
0.068,1.744459472586089,1.0,3203.6353139801045,0.5347841371731689,1.3045252915933594,0.9830885841483546,0.28632029784861573,0.7042868200892202
0.0685,1.7439848242966816,1.0,3206.5506083558807,0.5373935917876937,1.3042864803249616,0.9832385097950984,0.2863003626204606,0.7047504397048685
0.069,1.7435101760072742,1.0,3209.44545714684,0.539988430274654,1.3040478515548055,0.9833854870162769,0.2862804273923055,0.7052133417248309
0.0695,1.7430355277178669,1.0,3212.320285825786,0.5425687300155159,1.303809401471111,0.9835295935766877,0.2862604921641504,0.705675534367874
