Time [s],Phi [rad],STIM [ ],Fsee [N],Gamma [ ],Lcerel [ ],q [ ],Lmtc [m],fisomrel [ ]
0.0,1.8,1.0,17.96741089577629,1.00000898160335e-05,1.3793397179058107,0.005000026652247573,0.288653,0.5411395995508291
0.0005,1.79999375,1.0,18.27671947469214,0.005619153306014922,1.3793023905300148,0.012940514254522854,0.2886527375,0.5412298996754341
0.001,1.799975,1.0,21.61832494664331,0.011196843607593394,1.3789383078956987,0.03560857712259322,0.28865195,0.5421102002842624
0.0015,1.79994375,1.0,31.06908635029488,0.016743247477486255,1.3780462164789957,0.07060170587112007,0.2886506375,0.5442635784627433
0.002,1.7999,1.0,53.58197412984557,0.022258540406978385,1.376368158526362,0.11471783747712372,0.2886488,0.5483004121411836
0.0025,1.79984375,1.0,97.1181483642987,0.02774289690326578,1.3739352052932632,0.16457467493434869,0.28864643749999996,0.5541213719460623
0.003,1.7997750000000001,1.0,160.957233208245,0.033196490497175234,1.3712143787023314,0.21728022852209286,0.28864354999999997,0.5605863681270474
0.0035,1.79969375,1.0,237.68232469997903,0.03861949374275391,1.3685847652466148,0.27061266358756614,0.2886401375,0.5667897666712305
0.004,1.7996,1.0,321.46574923120085,0.04401207822805206,1.3661561194679162,0.3229155835024785,0.2886362,0.5724798985210368
0.0045000000000000005,1.7994937500000001,1.0,409.2667484202078,0.04937441458030735,1.3639228376960155,0.37303430047620156,0.2886317375,0.5776791077910701
0.005,1.799375,1.0,499.4125162909538,0.054706672457033964,1.361858363339124,0.4202472673771812,0.28862675,0.5824570308722277
0.0055,1.79924375,1.0,590.7894545982037,0.06000902059349881,1.3599388538436958,0.4641735197929661,0.2886212375,0.5868750685385414
0.006,1.7991000000000001,1.0,682.5171701418958,0.06528162674585193,1.3581464318011311,0.5046797988864171,0.2886152,0.5909793794263958
0.006500000000000001,1.79894375,1.0,773.8804288678948,0.07052465774675164,1.3564672677687368,0.5418006112037546,0.2886086375,0.5948057621476138
0.007,1.798775,1.0,864.2849498242933,0.07573827948895985,1.3548904089104092,0.5756766468977832,0.28860155,0.5983826456103397
0.0075,1.79859375,1.0,953.2424627249841,0.08092265693507537,1.3534067907682306,0.606509794447215,0.2885939375,0.6017335466801662
0.008,1.7984,1.0,1040.3441878896754,0.08607795372466175,1.3520088563937596,0.6345320670936855,0.2885858,0.6048780772332831
0.0085,1.79819375,1.0,1125.3143515120012,0.09120433394977069,1.3506892397431374,0.6599843318630447,0.2885771375,0.6078350035981516
0.009000000000000001,1.797975,1.0,1207.8996875696746,0.09630195953588573,1.3494420417869961,0.6831041063265194,0.28856795,0.6106194497185435
0.0095,1.79774375,1.0,1287.8912643849521,0.1013709910247951,1.3482621362598097,0.7041174031228631,0.2885582375,0.6132445294890106
0.01,1.7975,1.0,1365.1661454252528,0.10641158895828709,1.347144396896052,0.723234159832663,0.288548,0.6157231112999885
0.0105,1.79724375,1.0,1439.659273108071,0.11142391326928469,1.3460839492170678,0.7406465945727314,0.2885372375,0.6180672834640245
0.011,1.796975,1.0,1511.3222062859618,0.1164081227141434,1.3450765537395413,0.756529067513212,0.28852595000000003,0.6202875384542139
0.0115,1.79669375,1.0,1580.1205443712854,0.12136437447206411,1.3441184886507584,0.7710385570597175,0.2885141375,0.6223930668645339
0.012,1.7964,1.0,1646.0558515506757,0.1262928251557294,1.3432061785260554,0.7843155450801589,0.28850180000000003,0.6243925989207315
0.0125,1.79609375,1.0,1709.1731255415973,0.1311936317178393,1.3423360445475707,0.7964852846248246,0.2884889375,0.6262947468224607
0.013000000000000001,1.7957750000000001,1.0,1769.5063625549228,0.13606694897640714,1.341505074918427,0.8076594522460239,0.28847555,0.6281067723372435
0.0135,1.79544375,1.0,1827.0916851310137,0.1409129303521803,1.3407105933367465,0.8179374280447786,0.2884616375,0.6298351134825324
0.014,1.7951000000000001,1.0,1881.992845795061,0.14573172926590625,1.339949923500653,0.8274074952542224,0.2884472,0.6314861272700901
0.0145,1.79474375,1.0,1934.2791884406558,0.15052349818351338,1.3392206009345997,0.8361481635039409,0.2884322375,0.6330656374412278
0.015,1.794375,1.0,1984.0500841714688,0.15528839010019727,1.3385200749834012,0.8442291904044188,0.28841675,0.6345795881161749
0.0155,1.79399375,1.0,2031.3708502955112,0.16002655485829503,1.3378463684565147,0.8517128205177761,0.2884007375,0.6360326253850284
0.016,1.7936,1.0,2076.3122071050752,0.1647381417310346,1.3371976156227339,0.8586545167376857,0.2883842,0.6374291072013489
0.0165,1.7931937500000001,1.0,2118.9591556638684,0.1694232999916438,1.3365719507508524,0.8651037286707052,0.2883671375,0.638773348111498
0.017,1.792775,1.0,2159.394544566699,0.1740821778184929,1.335967663504908,0.8711046497797724,0.28834955,0.6400692891551432
0.0175,1.7923437500000001,1.0,2197.7216490451265,0.17871492417929355,1.3353829517665048,0.8766967682458598,0.2883314375,0.6413210320930687
0.018000000000000002,1.7919,1.0,2234.0142158143585,0.18332168471602386,1.3348164173170507,0.8819155523125596,0.2883128,0.6425317815528526
0.0185,1.79144375,1.0,2268.3462377523174,0.1879026044351632,1.3342667439058604,0.8867928317866854,0.2882936375,0.643704540556677
0.019,1.790975,1.0,2300.799223332511,0.192457828343191,1.333732615282249,0.891357198124104,0.28827395,0.6448422879364488
0.0195,1.79049375,1.0,2331.453902476647,0.19698750043817073,1.3332127904975628,0.895634393486899,0.2882537375,0.6459478196710056
0.02,1.79,1.0,2360.3986353858754,0.201491765645599,1.3327060135400848,0.899647613726616,0.288233,0.647023943093957
0.0205,1.78949375,1.0,2387.7071509062293,0.20597076640879403,1.3322112249470188,0.9034178399407559,0.2882117375,0.6480730293979632
0.021,1.788975,1.0,2413.44369266297,0.2104246432103302,1.331727501935527,0.9069640694012828,0.28818995000000003,0.6490971443227517
0.021500000000000002,1.78844375,1.0,2437.6764733970977,0.214853536532782,1.3312539217227712,0.9103035039742022,0.2881676375,0.6500983397426152
0.022,1.7879,1.0,2460.477342511664,0.21925758685872385,1.3307895615259142,0.9134517445575308,0.2881448,0.6510786542904765
0.0225,1.78734375,1.0,2481.912408188263,0.22363693273373625,1.3303335849650568,0.9164229783099647,0.28812143749999997,0.6520399319009362
0.023,1.786775,1.0,2502.056423178689,0.22799171559716516,1.3298851009469579,0.9192301028012941,0.28809755,0.6529841204503042
0.0235,1.78619375,1.0,2520.9684580398552,0.2323220730702545,1.3294433923909388,0.9218848996823057,0.28807313749999996,0.6539127908480546
0.024,1.7856,1.0,2538.700472706999,0.23662814057798984,1.3290078300296475,0.9243981333307124,0.2880482,0.6548273207244343
0.0245,1.78499375,1.0,2555.306319996125,0.24091005354535694,1.328577784595732,0.9267796390322084,0.2880227375,0.6557290799431146
0.025,1.784375,1.0,2570.8415854830873,0.2451679473973415,1.3281526268218404,0.929038415920451,0.28799675,0.656619430835223
0.025500000000000002,1.78374375,1.0,2585.363436162251,0.24940195755892913,1.3277317274406202,0.9311827094893776,0.2879702375,0.657499728408122
0.026000000000000002,1.7831000000000001,1.0,2598.9186691819627,0.2536122162026295,1.3273145671847246,0.933220101414636,0.2879432,0.6583710909077691
0.0265,1.78244375,1.0,2611.5674603197526,0.2577988610102776,1.3269005135247716,0.9351575412543253,0.2879156375,0.6592348668917113
0.027,1.781775,1.0,2623.3548406696746,0.26196202442743954,1.32648908542807,0.9370014430563226,0.28788755,0.6600920825776225
0.0275,1.7810937500000001,1.0,2634.318175492599,0.2661018361968964,1.3260798814854111,0.9387577250399906,0.2878589375,0.6609435934007024
0.028,1.7804,1.0,2644.4956177982217,0.2702184260614294,1.3256725002875864,0.9404318444001172,0.2878298,0.6617902504988267
0.0285,1.77969375,1.0,2653.9260400954686,0.2743119237638196,1.325266540425387,0.9420288392700636,0.2878001375,0.6626329007643499
0.029,1.778975,1.0,2662.648969715637,0.27838245904684816,1.324861600489604,0.9435533663593015,0.28776995,0.6634723868856278
0.029500000000000002,1.7782437500000001,1.0,2670.704527707726,0.28243016165329626,1.324457279071029,0.9450097347583203,0.2877392375,0.6643095473782668
0.03,1.7775,1.0,2678.1243531676646,0.2864551575870284,1.3240532575143695,0.9464019461019882,0.287708,0.6651450455813958
0.0305,1.77674375,1.0,2684.9498001195084,0.2904575785803602,1.3236491321278439,0.9477337021864981,0.2876762375,0.6659797170691757
0.031,1.775975,1.0,2691.2150496597064,0.29443755241253855,1.3232445688960697,0.949008447254816,0.28764395,0.6668142496147771
0.0315,1.7751937500000001,1.0,2696.945749463365,0.29839520275641285,1.3228393151124327,0.9502293909402383,0.2876111375,0.6676491601330847
0.032,1.7744,1.0,2702.1678336865616,0.30233065328483283,1.3224331180703188,0.9513995189147945,0.2875778,0.6684849629191705
0.0325,1.77359375,1.0,2706.907495914241,0.3062440276706479,1.3220257250631138,0.9525216112596747,0.2875439375,0.6693221696351271
0.033,1.772775,1.0,2711.1911635236947,0.31013544958670775,1.3216168833842032,0.9535982591174399,0.28750955,0.670161289292831
0.0335,1.7719437500000002,1.0,2715.045473464396,0.31400504270586177,1.321206340326973,0.9546318798050671,0.2874746375,0.6710028282326304
0.034,1.7711000000000001,1.0,2718.4972494532853,0.31785293070095966,1.3207938431848085,0.9556247305464836,0.2874392,0.6718472900979607
0.0345,1.7702437500000001,1.0,2721.5682038055606,0.32167923259272835,1.3203791872848594,0.9565789250470869,0.2874032375,0.6726950776616487
0.035,1.7693750000000001,1.0,2724.2832296307847,0.3254840752026774,1.3199621402413924,0.9574964394788588,0.28736675,0.6735466479979195
0.035500000000000004,1.76849375,1.0,2726.6609729209827,0.329267578311435,1.3195425276173371,0.9583791283283345,0.2873297375,0.6744023375125106
0.036000000000000004,1.7676,1.0,2728.718336951592,0.3330298596083828,1.3191201917184399,0.9592287304536824,0.2872922,0.6752624465484254
0.0365,1.76669375,1.0,2730.472310044809,0.3367710367829026,1.3186949748504464,0.9600468764617425,0.2872541375,0.6761272736131165
0.037,1.765775,1.0,2731.93995562915,0.3404912275243761,1.3182667193191027,0.9608350966659642,0.28721555,0.6769971153503046
0.0375,1.76484375,1.0,2733.138402850888,0.34419054952218503,1.3178352674301546,0.9615948283738213,0.2871764375,0.6778722665102109
0.038,1.7639,1.0,2734.084837736352,0.34786912046571106,1.317400461489348,0.9623274225670035,0.28713679999999997,0.6787530199182046
0.0385,1.76294375,1.0,2734.796494906094,0.35152705804433587,1.3169621438024288,0.9630341500310976,0.28709663750000003,0.6796396664418636
0.039,1.761975,1.0,2735.2766294992193,0.3551644620187393,1.3165202839799344,0.9637162152770933,0.28705595,0.6805322379759621
0.0395,1.7609937500000001,1.0,2735.5579689053543,0.35878147362021295,1.3160745843172146,0.9643747365421876,0.2870147375,0.6814313046833547
0.04,1.76,1.0,2735.650891788711,0.3623782048921398,1.3156249503036532,0.9650107806233563,0.286973,0.6823370240619147
0.0405,1.7589937500000001,1.0,2735.56447635433,0.3659547661247547,1.315171299426077,0.9656253545562173,0.2869307375,0.6832495281188717
0.041,1.757975,1.0,2735.3078184790425,0.3695112676082926,1.3147135491713131,0.9662194089016921,0.28688795,0.6841689476020265
0.0415,1.75694375,1.0,2734.890028808471,0.3730478196329884,1.3142516170261889,0.96679384149769,0.2868446375,0.6850954119783977
0.042,1.7559,1.0,2734.320230004319,0.37656453248907684,1.3137854204775314,0.9673495009241652,0.28680079999999997,0.6860290494124324
0.0425,1.75484375,1.0,2733.607554143338,0.380061516466793,1.3133148770121676,0.967887189706158,0.2867564375,0.6869699867437827
0.043000000000000003,1.753775,1.0,2732.761140266003,0.38353888185637164,1.3128399041169247,0.9684076672771109,0.28671155,0.6879183494646471
0.043500000000000004,1.75269375,1.0,2731.7901320778424,0.3869967389480477,1.3123604192786298,0.9689116527226399,0.28666613750000003,0.6888742616966792
0.044,1.7516,1.0,2730.70367579989,0.390435198032056,1.31187633998411,0.9693998273230713,0.2866202,0.6898378461674612
0.0445,1.75049375,1.0,2729.510918171853,0.39385436939863155,1.3113875837201923,0.96987283691136,0.2865737375,0.6908092241865442
0.045,1.7493750000000001,1.0,2728.221004604898,0.3972543633380091,1.3108940679737038,0.970331294061484,0.28652675,0.6917885156210525
0.0455,1.74824375,1.0,2726.839091945241,0.4006352789606513,1.310395746476187,0.9707757812827025,0.2864792375,0.6927757671221002
0.046,1.7471,1.0,2725.3731596705093,0.40399723167442686,1.309892547280449,0.9712068520699011,0.2864312,0.6937710750638861
0.0465,1.7459437500000001,1.0,2723.8312512913226,0.40734033555125154,1.3093843978172242,0.971625032005455,0.28638263750000004,0.6947745356737041
0.047,1.744775,1.0,2722.217818209143,0.4106646928791207,1.3088712581609958,0.9720308214602503,0.28633355,0.695786179470802
0.0475,1.74359375,1.0,2720.537309599468,0.4139704059460298,1.308353088386248,0.9724246963197635,0.28628393750000003,0.6968060359778787
0.048,1.7424,1.0,2718.79417184926,0.4172575770399743,1.3078298485674642,0.9728071094077226,0.2862338,0.6978341337083293
0.0485,1.74119375,1.0,2716.9928480307976,0.4205263084489495,1.3073014987791283,0.9731784918142102,0.2861831375,0.6988705001533847
0.049,1.739975,1.0,2715.137777409627,0.42377670246095084,1.3067679990957237,0.973539254135447,0.28613195,0.6999151617691519
0.0495,1.73874375,1.0,2713.233394988965,0.4270088613639738,1.3062293095917343,0.9738897876318825,0.2860802375,0.7009681439635514
0.05,1.7375,1.0,2711.2841310886984,0.4302228874460137,1.3056853903416439,0.974230465310672,0.286028,0.7020294710831532
0.0505,1.73624375,1.0,2709.2944109599794,0.43341888299506603,1.3051362014199361,0.9745616429381151,0.2859752375,0.7030991663999113
0.051000000000000004,1.734975,1.0,2707.2686544354324,0.4365969502991262,1.3045817029010947,0.974883659987171,0.28592195,0.7041772520977976
0.051500000000000004,1.73369375,1.0,2705.211275614012,0.43975719164618954,1.3040218548596032,0.9751968405247576,0.2858681375,0.7052637492593316
0.052000000000000005,1.7324,1.0,2703.125989620217,0.44289970328928313,1.3034566236993588,0.9755014937992222,0.2858138,0.7063586656026333
0.0525,1.73109375,1.0,2701.0141738618527,0.4460245670426,1.3028859971376796,0.9757979151182067,0.28575893750000003,0.7074619666387549
0.053,1.729775,1.0,2698.8823918481717,0.4491319193523085,1.3023099154702322,0.9760863894964052,0.28570355000000003,0.7085737085726437
0.0535,1.72844375,1.0,2696.7323074891115,0.4522218540081263,1.3017283637063173,0.9763671877903379,0.2856476375,0.7096938601247076
0.054,1.7271,1.0,2694.5655822973426,0.4552944647997712,1.3011413268552354,0.9766405691229079,0.2855912,0.7108223892215186
0.0545,1.7257437500000001,1.0,2692.383875332243,0.4583498455169609,1.3005487899262875,0.9769067814883702,0.2855342375,0.7119592629905749
0.055,1.724375,1.0,2690.1888431491907,0.46138808994941316,1.2999507379287745,0.9771660623211927,0.28547675,0.7131044477550499
0.0555,1.72299375,1.0,2687.982139754156,0.4644092918868458,1.2993471558719971,0.977418639031252,0.2854187375,0.7142579090285277
0.056,1.7216,1.0,2685.7654165626977,0.46741354511897654,1.2987380287652561,0.9776647295076161,0.2853602,0.7154196115097227
0.0565,1.72019375,1.0,2683.5403223641943,0.47040094343552313,1.2981233416178521,0.9779045425930001,0.28530113749999997,0.7165895190771857
0.057,1.718775,1.0,2681.3085032913245,0.4733715806262034,1.2975030794390863,0.9781382785308284,0.28524155,0.7177675947839947
0.0575,1.71734375,1.0,2679.071602793877,0.476325550480735,1.2968772272382592,0.9783661293866939,0.2851814375,0.7189538008524332
0.058,1.7159,1.0,2676.8312616180597,0.47926294678883574,1.2962457700246717,0.9785882794458726,0.2851208,0.7201480986686523
0.0585,1.71444375,1.0,2674.5891177910585,0.48218386334022334,1.2956086928076245,0.9788049055884358,0.2850596375,0.7213504487773199
0.059000000000000004,1.7129750000000001,1.0,2672.3468066095,0.48508839392461567,1.2949659805964184,0.9790161776433892,0.28499795,0.7225608108762542
0.059500000000000004,1.71149375,1.0,2670.1059606341996,0.48797663233173033,1.2943176184003544,0.9792222587231658,0.2849357375,0.7237791438110439
0.06,1.71,1.0,2667.868209688816,0.49084867235128515,1.2936635912287333,0.9794233055397106,0.284873,0.7250054055696538
0.0605,1.7084937500000001,1.0,2665.632651742984,0.4937045856098258,1.2930039073533772,0.9796194681691375,0.2848097375,0.7262395098075687
0.061,1.7069750000000001,1.0,2663.3989445873917,0.4965444580867488,1.2923385699086791,0.9798108917958611,0.28474595,0.7274813792849117
0.0615,1.7054437500000001,1.0,2661.1725417837897,0.4993684234230871,1.2916675286808676,0.9799977169600353,0.2846816375,0.7287310354374849
0.062,1.7039,1.0,2658.95373215878,0.5021765659185738,1.2909907809364392,0.9801800774691365,0.2846168,0.7299884101084224
0.0625,1.70234375,1.0,2656.742804067559,0.5049689698729422,1.2903083239418902,0.9803581020946222,0.2845514375,0.7312534344708244
0.063,1.7007750000000001,1.0,2654.540045398432,0.5077457195859252,1.2896201549637174,0.980531914797379,0.28448555,0.7325260390267612
0.0635,1.69919375,1.0,2652.3457435765226,0.5105068993572561,1.288926271268417,0.9807016349414529,0.28441913750000003,0.733806153606279
0.064,1.6976,1.0,2650.160185567741,0.5132525934866681,1.2882266701224858,0.9808673774967481,0.2843522,0.7350937073664023
0.0645,1.69599375,1.0,2647.9836578834716,0.5159828862738943,1.2875213487924202,0.9810292532313457,0.2842847375,0.7363886287901387
0.065,1.694375,1.0,2645.81644658465,0.5186978620186679,1.2868103045447168,0.9811873688940405,0.28421675,0.7376908456854809
0.0655,1.69274375,1.0,2643.6588372865517,0.521397605020722,1.2860935346458717,0.9813418273876628,0.2841482375,0.7390002851844113
0.066,1.6911,1.0,2641.511115163656,0.5240821995797897,1.2853710363623818,0.9814927279337131,0.2840792,0.740316873741901
0.0665,1.6894437500000001,1.0,2639.3735649546356,0.5267517299956045,1.2846428069607436,0.9816401662288002,0.2840096375,0.7416405371349134
0.067,1.687775,1.0,2637.2464709670326,0.5294062805678991,1.2839088437074535,0.9817842345933522,0.28393955,0.7429712004614055
0.0675,1.68609375,1.0,2635.130117083293,0.5320459355964069,1.2831691438690083,0.9819250221130251,0.2838689375,0.7443087881393269
0.068,1.6844000000000001,1.0,2633.024786765774,0.534670779380861,1.2824237047119038,0.9820626147732255,0.2837978,0.745653223905623
0.0685,1.68269375,1.0,2630.930763062141,0.5372808962209946,1.2816725235026374,0.9821970955871187,0.2837261375,0.7470044308152302
0.069,1.680975,1.0,2628.8483286118326,0.5398763704165409,1.280915597507705,0.9823285447174869,0.28365395,0.7483623312400802
0.0695,1.67924375,1.0,2626.77776565131,0.542457286267233,1.2801529239936031,0.9824570395927701,0.28358123749999997,0.7497268468680944
0.07,1.6775,1.0,2624.7193560206897,0.545023728072804,1.2793845002268287,0.9825826550176053,0.283508,0.7510978987021848
0.07050000000000001,1.67574375,1.0,2622.6733811698386,0.547575780132987,1.278610323473878,0.9827054632781606,0.2834342375,0.752475407059251
0.07100000000000001,1.673975,1.0,2620.6132920534183,0.5501135212129824,1.2778306398911463,0.9828255453331378,0.28335995,0.7538588505665695
0.07150000000000001,1.67219375,1.0,2618.605373787904,0.5526370290024191,1.2770448345058114,0.9829429401882801,0.2832851375,0.755249233653213
0.07200000000000001,1.6704003678390558,1.0,2616.634746705371,0.5551463823592412,1.2762532110269134,0.9830577270648936,0.28320981544924034,0.7566459292006368
0.0725,1.668603400325889,1.0,2615.0779604776467,0.5576416599518124,1.2754561320224542,0.9831699853478748,0.2831343428136873,0.7580482121531513
0.073,1.666806432812722,1.0,2614.0699378260992,0.5601229404484966,1.2746539600604354,0.983279791983506,0.2830588701781343,0.7594553642318902
0.0735,1.665009465299555,1.0,2613.571329607856,0.5625903025176575,1.2738470577088592,0.9833872215805017,0.2829833975425813,0.7608666740567627
0.074,1.663212497786388,1.0,2613.5445173208186,0.5650438245152357,1.2730357730539181,0.9834923458468569,0.2829079249070283,0.7622814624771981
0.0745,1.6614155302732212,1.0,2613.9497928188193,0.5674835840548343,1.2722204748500963,0.9835952352247633,0.2828324522714753,0.7636990212767478
0.075,1.6596185627600542,1.0,2614.7420177540416,0.569909659709912,1.2714015832263146,0.9836959603950884,0.2827569796359223,0.7651185606576845
