Time [s],Phi [rad],STIM [ ],Fsee [N],Gamma [ ],Lcerel [ ],q [ ],Lmtc [m],fisomrel [ ]
0.0,1.8,1.0,17.966984181513062,1.3043638309795523e-05,1.3793397657120263,0.00500004524941536,0.288653,0.5411394838952328
0.0005,1.79999375,1.0,18.277357669676114,0.005622179782609835,1.3793023196395455,0.012948966802232696,0.2886527375,0.5412300711609057
0.001,1.799975,1.0,21.621254805752688,0.011199853108047256,1.3789380086634608,0.03562444131527645,0.28865195,0.542110923438045
0.0015,1.79994375,1.0,31.076833645893952,0.01674624009702365,1.3780455564755651,0.07062342252202035,0.2886506375,0.5442651697355876
0.002,1.7999,1.0,53.59932853381988,0.0222615162402836,1.3763670327488622,0.11474355760190257,0.2886488,0.5483031143489059
0.0025,1.79984375,1.0,97.14776236218121,0.027745856044501062,1.3739337783683552,0.16460265664672785,0.28864643749999996,0.5541247748570339
0.003,1.7997750000000001,1.0,160.99601407375462,0.033199433039967516,1.3712129271808442,0.21730909622059708,0.28864354999999997,0.5605898045083841
0.0035,1.79969375,1.0,237.7262826978328,0.03862241978020568,1.3685834112837296,0.27064137613664313,0.2886401375,0.5667929493828094
0.004,1.7996,1.0,321.51260464723134,0.04401498785274612,1.3661548784901567,0.322943385450162,0.2886362,0.5724827964217429
0.0045000000000000005,1.7994937500000001,1.0,409.3153302460324,0.049377307884313305,1.36392169732783,0.37306069206520875,0.2886317375,0.5776817545090283
0.005,1.799375,1.0,499.462133751861,0.05470954953192276,1.3618573089973438,0.420271958814824,0.28862675,0.5824594640471966
0.0055,1.79924375,1.0,590.8395557521858,0.06001188153022023,1.3599378750085995,0.46419638018409654,0.2886212375,0.5868773154792531
0.006,1.7991000000000001,1.0,682.5673713893091,0.06528447163495966,1.358145519292228,0.5047008072485892,0.2886152,0.5909814636827179
0.006500000000000001,1.79894375,1.0,773.9327491394926,0.07052748667985313,1.3564663746419894,0.5418197937669162,0.2886086375,0.5948077925688676
0.007,1.798775,1.0,864.3367030332957,0.07574109255004935,1.3548895729423478,0.5756941273879909,0.28860155,0.5983845376811161
0.0075,1.79859375,1.0,953.2923256621799,0.08092545422141169,1.353406023834452,0.6065257025873803,0.2885939375,0.6017352752472025
0.008,1.7984,1.0,1040.407902133827,0.08608073571752178,1.3520079183378115,0.6345463922637122,0.2885858,0.6048801831233439
0.0085,1.79819375,1.0,1125.36242896317,0.09120709997274833,1.350688559150501,0.6599974591244719,0.2885771375,0.6078365257683216
0.009000000000000001,1.797975,1.0,1207.929714364539,0.09630470957282193,1.3494416315090039,0.6831161619543912,0.28856795,0.6106203640571606
0.0095,1.79774375,1.0,1287.9329576997002,0.10137372596645443,1.3482615845500219,0.7041282785688312,0.2885582375,0.613245754868329
0.01,1.7975,1.0,1365.2178009551767,0.10641430882770264,1.3471437329889164,0.7232439873359796,0.288548,0.6157245811432395
0.0105,1.79724375,1.0,1439.703314071338,0.11142661780376824,1.3460833980147864,0.7406555912622463,0.2885372375,0.6180685000591166
0.011,1.796975,1.0,1511.3564325430987,0.11641081172885978,1.3450761356533765,0.7565373295848106,0.28852595000000003,0.6202884585539941
0.0115,1.79669375,1.0,1580.1630467528835,0.12136704874128096,1.344117980897623,0.7710460615572698,0.2885141375,0.6223941811956099
0.012,1.7964,1.0,1646.1066188809314,0.1262954848957012,1.3432055843076884,0.7843223706454726,0.28850180000000003,0.6243938995536293
0.0125,1.79609375,1.0,1709.2113723635935,0.13119627619607344,1.3423356052211974,0.7964915996591169,0.2884889375,0.626295705987999
0.013000000000000001,1.7957750000000001,1.0,1769.5241214641483,0.13606957764324812,1.3415048744359075,0.8076653423421005,0.28847555,0.6281072089812343
0.0135,1.79544375,1.0,1827.1167437752456,0.14091554477842727,1.3407103149405557,0.8179428176816718,0.2884616375,0.6298357184091434
0.014,1.7951000000000001,1.0,1882.0280987067915,0.14573432969246533,1.3399495376036958,0.8274124223212062,0.2884472,0.6314869639127341
0.0145,1.79474375,1.0,1934.3206460364195,0.15052608447621668,1.3392201532938812,0.8361526881323516,0.2884322375,0.6330666058650374
0.015,1.794375,1.0,1984.0766242041166,0.1552909610697877,1.3385197920325123,0.8442334263897754,0.28841675,0.6345801989868134
0.0155,1.79399375,1.0,2031.3801792537834,0.16002911024338815,1.3378462701628737,0.8517168021536026,0.2884007375,0.6360328371716664
0.016,1.7936,1.0,2076.3293257120818,0.16474068347177898,1.3371974372170954,0.8586581873304368,0.2883842,0.6374294908616805
0.0165,1.7931937500000001,1.0,2118.988211923005,0.16942582842279852,1.3365716509973289,0.8651071038279681,0.2883671375,0.638773991533585
0.017,1.792775,1.0,2159.433118709303,0.17408469276428498,1.3359672693057247,0.871107762926111,0.28834955,0.6400701337858885
0.0175,1.7923437500000001,1.0,2197.751444596795,0.17871742416407668,1.3353826499444341,0.8766996930540726,0.2883314375,0.6413216776666109
0.018000000000000002,1.7919,1.0,2234.0275521549634,0.183324168935283,1.3348162833245654,0.8819183251374437,0.2883128,0.6425320676681263
0.0185,1.79144375,1.0,2268.360175548822,0.18790507489443473,1.3342666049342284,0.8867954228859996,0.2882936375,0.6437048368167873
0.019,1.790975,1.0,2300.8233961840688,0.19246028630077658,1.3337323759645814,0.891359599624859,0.28827395,0.6448427972992197
0.0195,1.79049375,1.0,2331.4866446681785,0.1969899461375752,1.3332124684795383,0.8956366250529818,0.2882537375,0.6459485039852445
0.02,1.79,1.0,2360.4251326705753,0.20149419738809723,1.3327057545430134,0.8996497217106826,0.288233,0.6470244926465691
0.0205,1.78949375,1.0,2387.71936769929,0.20597318303560933,1.332211106218921,0.9034198510320394,0.2882117375,0.6480732809464311
0.021,1.788975,1.0,2413.440918291913,0.210427044115292,1.3317275287539643,0.9069659922515297,0.28818995000000003,0.6490970875854203
0.021500000000000002,1.78844375,1.0,2437.6770986709776,0.21485592439619416,1.3312539157086858,0.9103053095271969,0.2881676375,0.6500983524479047
0.022,1.7879,1.0,2460.4903430424606,0.21925996313967155,1.3307894370635052,0.9134534247440484,0.2881448,0.6510789168597237
0.0225,1.78734375,1.0,2481.938251227436,0.22363929835536192,1.330333338624109,0.9164245419516137,0.28812143749999997,0.6520404508719699
0.023,1.786775,1.0,2502.081150056168,0.22799406805290284,1.329884866196184,0.9192315824189319,0.28809755,0.6529846143326716
0.0235,1.78619375,1.0,2520.9818651467203,0.23232441024193198,1.3294432655854167,0.9218863182348124,0.28807313749999996,0.6539130572717367
0.024,1.7856,1.0,2538.7040666230614,0.2366304627695853,1.3290077961569782,0.9243994927948054,0.2880482,0.6548273917982408
0.0245,1.78499375,1.0,2555.3109945815977,0.2409123622160075,1.3285777406811452,0.9267809261349221,0.2880227375,0.655729171967073
0.025,1.784375,1.0,2570.8584458358073,0.24517024400430695,1.328152468909648,0.9290396182865444,0.28799675,0.6566197613153779
0.025500000000000002,1.78374375,1.0,2585.386245959485,0.24940424215327858,1.3277315144075417,0.9311838424840547,0.2879702375,0.6575001736739137
0.026000000000000002,1.783103981435834,1.0,2599.128493690677,0.2536144906817173,1.3273144107398815,0.9332211887384546,0.287943367220305,0.6583714174808806
0.0265,1.78246395820364,1.0,2612.518616513447,0.25780112198812716,1.326900801910844,0.9351586463603435,0.2879164862445529,0.6592342656570382
0.027,1.7818239349714458,1.0,2625.56831804596,0.26196427136125144,1.3264906667458147,0.9370026972605434,0.2878896052688007,0.6600887899485757
0.0275,1.7811839117392514,1.0,2638.2838246655747,0.26610406929483005,1.3260839218121465,0.9387592979617765,0.28786272429304854,0.6609351911212051
0.028,1.7805438885070572,1.0,2650.672112724166,0.2702206457450452,1.3256804782797609,0.9404339388855003,0.2878358433172964,0.6617736800620734
0.0285,1.779903865274863,1.0,2662.7403225124544,0.2743141306680793,1.3252802473185792,0.9420316878918669,0.28780896234154424,0.6626044665317729
0.029,1.779263842042669,1.0,2674.49575184503,0.27838465402011464,1.3248831400985226,0.9435572282980597,0.2877820813657921,0.6634277591827926
0.029500000000000002,1.7786238188104746,1.0,2685.9426652074358,0.28243233108326354,1.3244890969702034,0.9450148916457951,0.28775520039003993,0.6642437051896106
0.03,1.7779837955782805,1.0,2697.09333352385,0.28645730654212853,1.324097986159202,0.9464086909289882,0.2877283194142878,0.6650526000240744
0.0305,1.7773437723460863,1.0,2707.958165808624,0.2904597163827267,1.3237096945087776,0.9477423463041639,0.28770143843853563,0.6658546992379907
0.031,1.7767037491138922,1.0,2718.5445204237935,0.2944396829657449,1.3233241380490466,0.9490193100768679,0.2876745574627835,0.6666501969223249
0.0315,1.7760637258816978,1.0,2728.8598784003684,0.2983973286518697,1.3229412328101242,0.9502427902588618,0.2876476764870313,0.6674392861960369
0.032,1.7754237026495037,1.0,2738.911838423731,0.30233277580178786,1.3225608948221264,0.9514157708808086,0.28762079551127917,0.6682221592205011
0.0325,1.7747836794173095,1.0,2748.7081119764403,0.3062461467761861,1.3221830401151684,0.9525410303813727,0.287593914535527,0.6689990072134815
0.033,1.7741436561851154,1.0,2758.2565186365214,0.3101375639357512,1.3218075847193662,0.9536211582755234,0.28756703355977487,0.6697700204626529
0.0335,1.773503632952921,1.0,2767.564981532473,0.3140071496411698,1.3214344446648352,0.9546585702814373,0.28754015258402266,0.6705353883386768
0.034,1.7728636097207269,1.0,2776.6415229547724,0.31785502625312867,1.3210635359816914,0.9556555220649364,0.28751327160827056,0.6712952993078227
0.0345,1.7722235864885327,1.0,2785.4942601229186,0.32168131613231454,1.32069477470005,0.9566141217424367,0.28748639063251835,0.6720499409441462
0.035,1.7715835632563386,1.0,2794.131401110158,0.3254861416394141,1.3203280768500267,0.9575363412676261,0.2874595096567662,0.6727994999412097
0.035500000000000004,1.7709435400241442,1.0,2802.5612409229566,0.32926962513511404,1.3199633584617376,0.9584240268132261,0.28743262868101405,0.6735441621233598
0.036000000000000004,1.77030351679195,1.0,2810.792157738153,0.33303188898010117,1.319600535565298,0.9592789082469987,0.2874057477052619,0.674284112456552
0.0365,1.769663493559756,1.0,2818.817965458985,0.3367730075190346,1.319239655171785,0.9601026101965449,0.28737886672950974,0.675019268385841
0.037,1.7690234703275618,1.0,2826.6639108957356,0.3404931586662593,1.3188804834848327,0.960896652680063,0.2873519857537576,0.6757501187897939
0.0375,1.7683834470953674,1.0,2834.337253310269,0.3441924626951432,1.3185229486426948,0.9616624663967948,0.28732510477800544,0.6764768213901888
0.038,1.7677434238631733,1.0,2841.8426129427744,0.34787103111986006,1.3181670028447612,0.9624013966845731,0.2872982238022533,0.6771994843774929
0.0385,1.7671034006309791,1.0,2849.18465553257,0.35152897545458356,1.317812598290421,0.9631147091680616,0.28727134282650113,0.6779182154588378
0.039,1.766463377398785,1.0,2856.3680906592454,0.35516640721348747,1.3174596871790634,0.9638035953526328,0.287244461850749,0.678633121862791
0.0395,1.7658233541665906,1.0,2863.397670134595,0.35878343791074546,1.3171082217100778,0.9644691777676183,0.2872175808749968,0.67934431034398
0.04,1.7651833309343965,1.0,2870.278186445184,0.36238017906053127,1.316758154082854,0.9651125146996822,0.2871906998992446,0.6800518871875734
0.0405,1.7645433077022024,1.0,2877.0144712457004,0.3659567421770187,1.3164094364967804,0.9657346045529971,0.2871638189234925,0.6807559582136157
0.041,1.7639032844700082,1.0,2883.6113939023976,0.36951323877438125,1.3160620211512473,0.9663363898692837,0.2871369379477403,0.6814566287812134
0.0415,1.7632632612378139,1.0,2890.073860088279,0.37304978036679287,1.3157158602456436,0.9669187610375334,0.28711005697198816,0.6821540037925806
0.042,1.7626232380056197,1.0,2896.406810427688,0.3765664784684271,1.3153709059793586,0.9674825597203521,0.287083175996236,0.6828481876969342
0.0425,1.7619832147734256,1.0,2902.6152191926403,0.3800634445934578,1.3150271105517817,0.9680285820212686,0.28705629502048385,0.683539284494246
0.043000000000000003,1.7613431915412314,1.0,2908.704093049041,0.3835407902560586,1.314684426162302,0.9685575814150488,0.2870294140447317,0.6842273977388478
0.043500000000000004,1.760703168309037,1.0,2914.67846985393,0.3869986269704032,1.3143428050103096,0.9690702714609715,0.28700253306897955,0.6849126305428905
0.044,1.760063145076843,1.0,2920.543417503423,0.3904370662506653,1.3140021992951931,0.9695673283171726,0.2869756520932274,0.6855950855796614
0.0445,1.7594231218446488,1.0,2926.30403283114,0.39385621961101874,1.3136625612163422,0.9700493930724788,0.28694877111747524,0.6862748650867487
0.045,1.7587830986124546,1.0,2931.9654405572983,0.3972561985656372,1.313323842973146,0.9705170739106668,0.2869218901417231,0.6869520708690668
0.0455,1.7581430753802603,1.0,2937.5289658145953,0.4006370949967696,1.3129860302920124,0.9709709478821382,0.28689500916597094,0.687626737378978
0.046,1.7575030521480661,1.0,2942.9986248068876,0.40399902319926206,1.3126490854447717,0.9714115644541204,0.2868681281902188,0.6882989456969002
0.0465,1.756863028915872,1.0,2948.3812493463124,0.40734210967745077,1.3123129462640102,0.9718394455761086,0.28684124721446663,0.6889688252420073
0.047,1.7562230056836778,1.0,2953.6792014264192,0.4106664555517666,1.311977589905635,0.9722550869054245,0.2868143662387145,0.6896364266475493
0.0475,1.7555829824514835,1.0,2958.8948565802107,0.4139721619426404,1.311642993525553,0.9726589599609491,0.28678748526296227,0.6903018003393884
0.048,1.7549429592192893,1.0,2964.030603489504,0.41725932997050313,1.311309134279671,0.9730515135242976,0.2867606042872102,0.6909649965371231
0.0485,1.7543029359870952,1.0,2969.088843605525,0.42052806075578564,1.310975989323896,0.9734331749470876,0.28673372331145797,0.6916260652551791
0.049,1.753662912754901,1.0,2974.071990781891,0.4237784554189189,1.3106435358141348,0.9738043513714026,0.28670684233570587,0.6922850563038658
0.0495,1.7530228895227067,1.0,2978.9824709177583,0.4270106150803338,1.3103117509062945,0.9741654308699641,0.28667996135995366,0.6929420192904013
0.05,1.7523828662905125,1.0,2983.8227216145297,0.4302246408604612,1.3099806117562818,0.9745167835119765,0.2866530803842015,0.6935970036199022
0.0505,1.7517428430583184,1.0,2988.5951918418714,0.43342063387973206,1.3096500955200037,0.97485876236012,0.28662619940844936,0.6942500584963412
0.051000000000000004,1.7511028198261243,1.0,2993.302341617285,0.43659869525857725,1.309320179353367,0.9751917044037197,0.2865993184326972,0.6949012329234721
0.051500000000000004,1.75046279659393,1.0,2997.946641695812,0.43975892611742773,1.308990840412279,0.9755159314327058,0.28657243745694505,0.6955505757057192
0.052000000000000005,1.7498227733617358,1.0,3002.5305732722663,0.44290142757671436,1.308662055852646,0.9758317508566181,0.2865455564811929,0.696198135449037
0.0525,1.7491827501295416,1.0,3007.0566276944583,0.446026300756868,1.3083338028303757,0.9761394564725566,0.28651867550544075,0.6968439605617316
0.053,1.7485427268973475,1.0,3011.527306188399,0.44913364677831963,1.3080060585013742,0.9764393291856819,0.2864917945296886,0.6974880992552553
0.0535,1.747902703665153,1.0,3015.94511959452,0.45222356676150016,1.307678800021549,0.9767316376855818,0.28646491355393644,0.6981305995449609
0.054,1.747262680432959,1.0,3020.3086762108182,0.4552961224676441,1.3073520383493908,0.9770166372405734,0.2864380325781843,0.6987714429925848
0.0545,1.7466226572007648,1.0,3024.6232650637025,0.4583514526752238,1.3070257267389955,0.9772945763353715,0.28641115160243213,0.6994107242359427
0.055,1.7459826339685707,1.0,3028.891334007547,0.4613896630345785,1.3066998431058734,0.977565691131558,0.28638427062668,0.7000484892819918
0.0555,1.7453426107363763,1.0,3033.114012456471,0.46441084491134094,1.3063743768071343,0.9778302071990683,0.28635738965092783,0.7006847615945155
0.056,1.7447025875041822,1.0,3037.292434441044,0.4674150896711438,1.3060493171998873,0.9780883407461961,0.2863305086751756,0.7013195645455447
0.0565,1.744062564271988,1.0,3041.427738511205,0.4704024886796198,1.3057246536412421,0.9783402990847705,0.2863036276994235,0.701952921415633
0.057,1.7434225410397939,1.0,3045.5210676408196,0.47337313330240166,1.305400375488308,0.9785862810685578,0.2862767467236713,0.7025848553941344
0.0575,1.7427825178075995,1.0,3049.5735691363866,0.4763271149051221,1.3050764720981944,0.9788264775066298,0.28624986574791916,0.7032153895794631
0.058,1.7421424945754054,1.0,3053.5863945467563,0.4792645248534138,1.304752932828011,0.9790610715533206,0.286222984772167,0.7038445469793554
0.0585,1.7415024713432112,1.0,3057.5606995760945,0.4821854545129095,1.3044297470348671,0.979290239076276,0.28619610379641486,0.7044723505111186
0.059000000000000004,1.740862448111017,1.0,3061.497643999322,0.4850899952492419,1.3041069040758724,0.9795141490039844,0.2861692228206627,0.7050988230018755
0.059500000000000004,1.7402224248788227,1.0,3065.3983915798894,0.4879782384280437,1.3037843933081361,0.979732963654094,0.28614234184491055,0.7057239871887999
0.06,1.7395824016466286,1.0,3069.264109990101,0.49085027541494763,1.3034622040887676,0.9799468390437144,0.2861154608691584,0.7063478657193469
0.0605,1.7389423784144344,1.0,3073.0959707340194,0.4937061975755865,1.3031403257748766,0.9801559251828268,0.28608857989340625,0.7069704811514723
0.061,1.7383023551822403,1.0,3076.8951490729123,0.4965460962755928,1.3028187477235726,0.9803603663518434,0.2860616989176541,0.7075918559538497
0.0615,1.737662331950046,1.0,3080.662823952938,0.49937006288059943,1.302497459291965,0.9805603013642903,0.28603481794190194,0.7082120125060779
0.062,1.7370223087178518,1.0,3084.4001779358964,0.5021781887562391,1.3021764498371629,0.980755863815516,0.2860079369661498,0.7088309730988795
0.0625,1.7363822854856577,1.0,3088.1083971317244,0.5049705652681443,1.3018557087162763,0.9809471823182688,0.28598105599039764,0.7094487599342939
0.063,1.7357422622534635,1.0,3091.7886711342007,0.5077472837819481,1.3015352252864143,0.9811343807259331,0.2859541750146455,0.7100653951258653
0.0635,1.7351022390212691,1.0,3095.440264494313,0.5105083970859818,1.3012150053649867,0.9813175763931583,0.2859272940388933,0.7106808690783515
0.064,1.734462215789075,1.0,3099.0656154745284,0.5132540340081679,1.3008950276863682,0.9814968865014022,0.2859004130631412,0.7112952242143487
0.0645,1.7338221925568809,1.0,3102.6656792848803,0.5159842861191197,1.3005752836819642,0.9816724219599305,0.28587353208738897,0.7119084784423048
0.065,1.7331821693246867,1.0,3106.2409897495772,0.5186992355511724,1.3002557683966909,0.9818442892245645,0.2858466511116369,0.7125206426802064
0.0655,1.7325421460924924,1.0,3109.7920823845116,0.5213989644366611,1.2999364768754642,0.9820125909735472,0.28581977013588467,0.713131727804637
0.066,1.7319021228602982,1.0,3113.3194943733147,0.5240835549079211,1.2996174041632005,0.9821774262687636,0.2857928891601325,0.7137417446508463
0.0665,1.731262099628104,1.0,3116.8237645423114,0.5267530890972877,1.2992985453048158,0.982338890708968,0.28576600818438036,0.7143507040128225
0.067,1.73062207639591,1.0,3120.3054333370683,0.5294076491370957,1.2989798953452265,0.9824970765754724,0.2857391272086282,0.7149586166433591
0.0675,1.7299820531637156,1.0,3123.7650427992403,0.5320473171596807,1.2986614493293485,0.9826520729707154,0.28571224623287605,0.7155654932541231
0.068,1.7293420299315214,1.0,3127.2031365436856,0.5346721752973776,1.2983432023020978,0.982803965950108,0.2856853652571239,0.7161713445157193
0.0685,1.7287020066993273,1.0,3130.620259736504,0.5372823056825219,1.298025149308391,0.9829528386475243,0.28565848428137175,0.7167761810577529
0.069,1.7280619834671331,1.0,3134.0169590732758,0.5398777904474484,1.2977072853931437,0.9830987713947893,0.2856316033056196,0.7173800134688944
0.0695,1.7274219602349388,1.0,3137.3937827582945,0.5424587117244926,1.2973896056012724,0.9832418418354877,0.28560472232986744,0.7179828522969378
0.07,1.7267819370027446,1.0,3140.7512804836833,0.5450251516459895,1.2970721049776932,0.983382125033399,0.2855778413541153,0.7185847080488599
0.07050000000000001,1.7261419137705505,1.0,3144.090003409824,0.5475771923442745,1.2967547785673224,0.9835196935758513,0.28555096037836314,0.7191855911908784
