Time [s],Phi [rad],STIM [ ],Fsee [N],Gamma [ ],Lcerel [ ],q [ ],Lmtc [m],fisomrel [ ]
0.0,1.8,1.0,17.96789907759505,1.4345102581519867e-05,1.379339663213877,0.005000054688590503,0.288653,0.5411397318647397
0.0005,1.79999375,1.0,18.27862676760465,0.0056234739466963736,1.379302178672282,0.012952580344354179,0.2886527375,0.5412304121634572
0.001,1.799975,1.0,21.62344433025795,0.01120114001289672,1.3789377850562798,0.03563121897097099,0.28865195,0.5421114638285736
0.0015,1.79994375,1.0,31.081076880795138,0.016747519783354693,1.3780451950230532,0.07063269735571688,0.2886506375,0.5442660411989211
0.002,1.7999,1.0,53.60769868162671,0.02226278874858533,1.376366489843818,0.1147545411372327,0.2886488,0.5483044174829188
0.0025,1.79984375,1.0,97.16135794115094,0.027747121415038007,1.3739331233499699,0.16461460696725647,0.28864643749999996,0.5541263369315569
0.003,1.7997750000000001,1.0,161.01345856821672,0.033200691312776184,1.3712122743112536,0.21732142678822444,0.28864354999999997,0.5605913501296768
0.0035,1.79969375,1.0,237.74585029139314,0.038623670995098204,1.368582808616939,0.27065364213115495,0.2886401375,0.5667943660460746
0.004,1.7996,1.0,321.53332508022777,0.04401623204931207,1.366154329732989,0.3229552637268044,0.2886362,0.5724840778628366
0.0045000000000000005,1.7994937500000001,1.0,409.336713865369,0.04937854510192214,1.3639211954085075,0.37307196872328785,0.2886317375,0.5776829194274327
0.005,1.799375,1.0,499.48389084894717,0.054710779809724004,1.36185684668838,0.4202825098075827,0.28862675,0.5824605309462444
0.0055,1.79924375,1.0,590.8614663837996,0.0600131049071264,1.3599374469497623,0.4642061492674154,0.2886212375,0.5868782980972165
0.006,1.7991000000000001,1.0,682.5892690937815,0.06528568814968493,1.3581451212678033,0.5047097854106192,0.2886152,0.5909823728063472
0.006500000000000001,1.79894375,1.0,773.9545144824419,0.07052869637062252,1.3564660031082771,0.5418280028446513,0.2886086375,0.5948086372066638
0.007,1.798775,1.0,864.3583956426346,0.0757422954569388,1.3548892225497116,0.5757016065008788,0.28860155,0.5983853307336139
0.0075,1.79859375,1.0,953.3133372156501,0.08092665038026355,1.3534057006651508,0.6065325078347558,0.2885939375,0.60173600362683
0.008,1.7984,1.0,1040.427680576646,0.08608192516497926,1.352007627148393,0.6345525826266286,0.2885858,0.6048808368283098
0.0085,1.79819375,1.0,1125.3868287000755,0.0912082828851107,1.3506882137492058,0.6600030413678699,0.2885771375,0.6078372982697429
0.009000000000000001,1.797975,1.0,1207.9524674632569,0.09630588585317594,1.3494413206202218,0.68312124246925,0.28856795,0.6106210568979443
0.0095,1.79774375,1.0,1287.942076147184,0.10137489542669731,1.3482614638906993,0.7041329909746136,0.2885582375,0.6132460228593977
0.01,1.7975,1.0,1365.2196771013325,0.10641547164684916,1.3471437088758231,0.7232483235874793,0.288548,0.6157246345278629
0.0105,1.79724375,1.0,1439.6981788019355,0.1114277737913033,1.3460834622857032,0.7406595861088945,0.2885372375,0.6180683582026156
0.011,1.796975,1.0,1511.3635153456128,0.11641196182964038,1.345076049134962,0.7565409073615242,0.28852595000000003,0.6202886489585627
0.0115,1.79669375,1.0,1580.1705582752459,0.12136819249042188,1.3441178911622078,0.7710493295265569,0.2885141375,0.6223943781316164
0.012,1.7964,1.0,1646.1094579099374,0.12629662209855674,1.3432055510778644,0.7843253861245438,0.28850180000000003,0.6243939722874343
0.0125,1.79609375,1.0,1709.2119954183563,0.13119740693628268,1.34233559806445,0.7964943760688135,0.2884889375,0.6262957216130591
0.013000000000000001,1.7957750000000001,1.0,1769.5306417949307,0.13607070230084733,1.3415048008273405,0.8076678672286182,0.28847555,0.6281073692980821
0.0135,1.79544375,1.0,1827.1210630520309,0.14091666294816857,1.340710266954505,0.8179451503197196,0.2884616375,0.6298358226779016
0.014,1.7951000000000001,1.0,1882.0285250174363,0.14573544131054272,1.339949532937097,0.8274145881822343,0.2884472,0.6314869740301328
0.0145,1.79474375,1.0,1934.32231564669,0.1505271898202661,1.339220135266271,0.8361546838139654,0.2884322375,0.6330666448658573
0.015,1.794375,1.0,1984.0743575910567,0.15529205968647208,1.3385198161974494,0.8442352862737288,0.28841675,0.6345801468164702
0.0155,1.79399375,1.0,2031.3908096091484,0.1600302037782749,1.337846158157467,0.8517184828986746,0.2884007375,0.6360330785020403
0.016,1.7936,1.0,2076.3393974215737,0.1647417710158681,1.3371973322527206,0.8586597487544958,0.2883842,0.6374297165868889
0.0165,1.7931937500000001,1.0,2118.9907318723385,0.1694269095380162,1.3365716250008346,0.8651085781395598,0.2883671375,0.6387740473351327
0.017,1.792775,1.0,2159.427872349336,0.1740857674834838,1.335967322919433,0.8711091584904135,0.28834955,0.6400700189105528
0.0175,1.7923437500000001,1.0,2197.7425088715427,0.17871849268199552,1.3353827404610565,0.876701005237951,0.2883314375,0.6413214840587742
0.018000000000000002,1.7919,1.0,2234.0227734858527,0.18332523195444056,1.334816331336622,0.8819195403580652,0.2883128,0.6425319651475938
0.0185,1.79144375,1.0,2268.3608063208035,0.18790613243833168,1.3342665986449078,0.8867965460402049,0.2882936375,0.6437048502243754
0.019,1.790975,1.0,2300.8236405045054,0.1924613376367574,1.3337323735457505,0.8913606521570602,0.28827395,0.644842802447448
0.0195,1.79049375,1.0,2331.4847413033876,0.19699099105280624,1.3332124871989859,0.8956376167671675,0.2882537375,0.6459484642049289
0.02,1.79,1.0,2360.423473095192,0.2014952361895666,1.33270577076445,0.8996506522297526,0.288233,0.6470244582271467
0.0205,1.78949375,1.0,2387.715930749096,0.2059742152448646,1.332211139620664,0.9034207292648266,0.2882117375,0.6480732101783793
0.021,1.788975,1.0,2413.447053780833,0.21042807182144396,1.3317274694453272,0.9069667996304689,0.28818995000000003,0.6490972130593098
0.021500000000000002,1.78844375,1.0,2437.6889068879814,0.21485694721588477,1.3312538021335958,0.9103060591058407,0.2881676375,0.6500985923853206
0.022,1.7879,1.0,2460.4999473509347,0.2192609800276293,1.3307893451155188,0.9134541357025336,0.2881448,0.6510791108356064
0.0225,1.78734375,1.0,2481.9416925179926,0.22364030885611996,1.3303333058211453,0.9164252244394008,0.28812143749999997,0.6520405199785514
0.023,1.786775,1.0,2502.078465721941,0.22799507230079907,1.3298848916805237,0.9192322385742348,0.28809755,0.6529845607172486
0.0235,1.78619375,1.0,2520.9771561240204,0.23232540896110898,1.3294433101237033,0.921886943089885,0.28807313749999996,0.6539129636949537
0.024,1.7856,1.0,2538.6937036452005,0.23663145417801082,1.3290078938281396,0.9244000937862149,0.2880482,0.654827186858328
0.0245,1.78499375,1.0,2555.3026041142975,0.24091334877056872,1.3285778195039715,0.9267814935581109,0.2880227375,0.6557290067921415
0.025,1.784375,1.0,2570.8499050630367,0.24517122636247352,1.3281525489015134,0.9290401581764045,0.28799675,0.6566195939076527
0.025500000000000002,1.78374375,1.0,2585.381813894921,0.24940522025150572,1.3277315558009248,0.9311843499083666,0.2879702375,0.6575000871565857
0.026000000000000002,1.7831000000000001,1.0,2598.9458509592637,0.2536154637354458,1.3273143139823653,0.93322164900812,0.2879432,0.6583716194587168
0.0265,1.78244375,1.0,2611.590736851919,0.25780209011207433,1.3269002972259947,0.935159019223833,0.2879156375,0.6592353178365955
0.027,1.781775,1.0,2623.36628585645,0.26196523267917177,1.3264889793119725,0.9370028662139153,0.28788755,0.6600923035326096
0.0275,1.7810937500000001,1.0,2634.312698625134,0.2661050208787139,1.3260799321594734,0.9387591029254393,0.2878589375,0.6609434880193662
0.028,1.7804,1.0,2644.48523884914,0.27022159105624605,1.325672596132652,0.9404331652274738,0.2878298,0.6617900514292681
0.0285,1.77969375,1.0,2653.9217716214666,0.27431507293884416,1.3252665797727639,0.9420300934691646,0.2878001375,0.6626328191419906
0.029,1.778975,1.0,2662.655083749397,0.2783855940494982,1.3248615442220542,0.9435545529281221,0.28776995,0.6634725034619335
0.029500000000000002,1.7782437500000001,1.0,2670.718506007096,0.28243328191119815,1.324457150622769,0.9450108605030012,0.2877392375,0.664309813168858
0.03,1.7775,1.0,2678.1458646276615,0.286458264046934,1.3240530601171532,0.9464030151892668,0.287708,0.6651454535354232
0.0305,1.77674375,1.0,2684.971435341135,0.2904606679796957,1.3236489338474529,0.9477347255268265,0.2876762375,0.665980126337395
0.031,1.775975,1.0,2691.229899958354,0.29444062123247333,1.3232444329559132,0.9490094343533296,0.28764395,0.6668145298565374
0.0315,1.7751937500000001,1.0,2696.9485732959874,0.29839824726692793,1.3228392892904188,0.9502303487065129,0.2876111375,0.667649213298652
0.032,1.7744,1.0,2702.16036654066,0.3023336743679272,1.322433186286304,0.9514004474417864,0.2875778,0.6684848226443293
0.0325,1.77359375,1.0,2706.9014680458745,0.3062470321367707,1.3220257800823645,0.9525225014614771,0.2875439375,0.6693220566401296
0.033,1.772775,1.0,2711.19311168663,0.3101384415545493,1.3216168656164502,0.9535991072101241,0.28750955,0.6701613257367673
0.0335,1.7719437500000002,1.0,2715.056720235953,0.3140080236023539,1.3212062378264102,0.954632686910286,0.2874746375,0.6710030382060064
0.034,1.7711000000000001,1.0,2718.5138870222945,0.31785589926127567,1.3207936916500942,0.9556255023279054,0.2874392,0.6718476001195928
0.0345,1.7702437500000001,1.0,2721.5863585196103,0.32168218951240546,1.3203790220253513,0.9565796672951725,0.2874032375,0.6726954153255085
0.035,1.7693750000000001,1.0,2724.296017869339,0.3254870153368342,1.3199620238900311,0.9574971591161088,0.28736675,0.6735468854215407
0.035500000000000004,1.76849375,1.0,2726.664869335259,0.32927049771565287,1.319542492181983,0.9583798289662365,0.2873297375,0.6744024097261715
0.036000000000000004,1.7676,1.0,2728.7150236902457,0.33303275762995255,1.3191202218390559,0.9592294113855205,0.2872922,0.6752623852467851
0.0365,1.76669375,1.0,2730.464113990056,0.336773912319024,1.3186950493362772,0.9600475363239046,0.2872541375,0.6761271222211347
0.037,1.765775,1.0,2731.9294349766265,0.3404940812296134,1.3182668149052368,0.960835734352109,0.28721555,0.6769969213331497
0.0375,1.76484375,1.0,2733.13463717101,0.34419338877640665,1.3178353016359832,0.9615954384688681,0.2871764375,0.6778721971746289
0.038,1.7639,1.0,2734.0920745276953,0.3478719491131455,1.3174003957648697,0.9623280033801191,0.28713679999999997,0.6787531529601534
0.0385,1.76294375,1.0,2734.8141446898603,0.35152987639357164,1.3169619835282507,0.963034703365808,0.28709663750000003,0.679639990426776
0.039,1.761975,1.0,2735.3132834506323,0.3551672847714267,1.3165199511624792,0.9637167379267263,0.28705595,0.680532909808998
0.0395,1.7609937500000001,1.0,2735.6019595024786,0.3587842884004524,1.3160741849039093,0.9643752369762026,0.2870147375,0.6814321098129126
0.04,1.76,1.0,2735.692669472451,0.36238100143439045,1.3156245709888947,0.9650112656178134,0.286973,0.6823377875895286
0.0405,1.7589937500000001,1.0,2735.597933245214,0.36595753802698255,1.315170995653789,0.9656258285461764,0.2869307375,0.6832501387072685
0.041,1.757975,1.0,2735.3302895721845,0.3695140123319704,1.314713345134946,0.9662198741042239,0.28688795,0.6841693571236365
0.0415,1.75694375,1.0,2734.9022919685176,0.3730505385030956,1.3142515056687192,0.9667942980270874,0.2868446375,0.6850956351560682
0.042,1.7559,1.0,2734.3160781284696,0.37656721653761216,1.313785458183249,0.967349952482,0.28680079999999997,0.6860289739564045
0.0425,1.75484375,1.0,2733.595291947233,0.380064176195803,1.3133149883872501,0.9678876321418268,0.2867564375,0.6869697641961012
0.043000000000000003,1.753775,1.0,2732.7490638092945,0.38354152800302854,1.312840013821957,0.9684080966198797,0.28671155,0.6879181305863451
0.043500000000000004,1.75269375,1.0,2731.7837700356363,0.3869993787453066,1.312360477082978,0.968912066599133,0.28666613750000003,0.6888741465449438
0.044,1.7516,1.0,2730.70579056643,0.3904378352086549,1.3118763207659219,0.9694002248836048,0.2866202,0.6898378843925759
0.0445,1.75049375,1.0,2729.5215076198597,0.3938570041790914,1.3113874874663976,0.9698732187605729,0.2865737375,0.6908094153359825
0.045,1.7493750000000001,1.0,2728.237304422956,0.39725699244263396,1.3108939197800136,0.9703316621930562,0.28652675,0.6917888094509519
0.0455,1.74824375,1.0,2726.859564016082,0.4006379067853003,1.3103955603023787,0.9707761378562935,0.2864792375,0.6927761356650906
0.046,1.7471,1.0,2725.394668130151,0.4039998539931084,1.3098923516291014,0.9712071990307279,0.2864312,0.693771461740387
0.0465,1.7459437500000001,1.0,2723.8489961372666,0.4073429408520759,1.3093842363557906,0.9716253713628967,0.28638263750000004,0.6947748542555622
0.047,1.744775,1.0,2722.2289240736377,0.4106672741482208,1.3088711570780547,0.972031154504609,0.28633355,0.6957863785882132
0.0475,1.74359375,1.0,2720.540823737095,0.41397296066756084,1.3083530563915025,0.9724250236399081,0.28628393750000003,0.6968060988967439
0.048,1.7424,1.0,2718.7910334434264,0.4172601070359611,1.3078298771505055,0.9728074309065154,0.2862338,0.6978340775940839
0.0485,1.7411941222820664,1.0,2717.005640838564,0.4205288155761396,1.3073015503575285,0.9731788053687424,0.2861831531358468,0.6988703990684292
0.049,1.7399846730281487,1.0,2715.588427975346,0.42377919138541137,1.306768260667476,0.9735395734800363,0.28613235626718225,0.6999146500224858
0.0495,1.7387752237742309,1.0,2714.680146657001,0.4270113357470915,1.3062303355247638,0.9738901507958018,0.2860815593985177,0.7009661403201232
0.05,1.7375657745203132,1.0,2714.244618367092,0.430225349944495,1.3056881023738072,0.9742309334251223,0.28603076252985316,0.7020241838874388
0.0505,1.7363563252663956,1.0,2714.245806053909,0.43342133526093707,1.305141888659022,0.974562299124864,0.2859799656611886,0.7030880988061384
0.051000000000000004,1.7351468760124777,1.0,2714.6477840433126,0.4365993929797326,1.304592021824824,0.9748846083229762,0.28592916879252406,0.7041572074000828
0.051500000000000004,1.73393742675856,1.0,2715.414710328573,0.43975962438419675,1.3040388293156284,0.9751982050761493,0.2858783719238595,0.7052308363149942
0.052000000000000005,1.7327279775046422,1.0,2716.5152701827824,0.44290212977630666,1.303482597857846,0.9755034152578802,0.28582757505519496,0.7063083954000414
0.0525,1.7315185282507246,1.0,2717.9230835745534,0.4460270085322341,1.3029235695920296,0.9758005473191949,0.2857767781865304,0.7073893845204808
0.053,1.730309078996807,1.0,2719.614502070955,0.44913435903237214,1.3023619620359514,0.9760898944763557,0.28572598131786586,0.7084733543168682
0.0535,1.729099629742889,1.0,2721.566038297493,0.4522242796130124,1.30179799139719,0.9763717370655072,0.28567518444920137,0.7095598609331047
0.054,1.7278901804889715,1.0,2723.7556190896985,0.4552968681522078,1.3012318610646654,0.9766463424761116,0.28562438758053676,0.7106484881362185
0.0545,1.7266807312350538,1.0,2726.1625658346766,0.45835222222203564,1.3006637617173926,0.9769139658510178,0.28557359071187227,0.7117388469067186
0.055,1.725471281981136,1.0,2728.7697622459127,0.46139043801591983,1.3000938515635239,0.9771748494367104,0.2855227938432077,0.7128306130541127
0.0555,1.7242618327272183,1.0,2731.560185117996,0.4644116116869256,1.2995222878734425,0.9774292252438502,0.2854719969745432,0.7139234664128146
0.056,1.7230523834733007,1.0,2734.517851863515,0.4674158389339293,1.298949218322286,0.9776773150208361,0.2854212001058786,0.7150171073485148
0.0565,1.7218429342193828,1.0,2737.6277976624156,0.4704032151558673,1.29837478117474,0.97791933079642,0.2853704032372141,0.7161112562465755
0.057,1.7206334849654652,1.0,2740.8776593207367,0.4733738344052251,1.2977990909036123,0.9781554744459391,0.2853196063685495,0.7172056806663968
0.0575,1.7194240357115476,1.0,2744.2551206251437,0.47632779070031256,1.2972222613851645,0.9783859396309744,0.285268809499885,0.71830015094735
0.058,1.7182145864576297,1.0,2747.756750219983,0.47926516960867066,1.2966443258078029,0.9786109069636495,0.28521801263122043,0.719394591728425
0.0585,1.717005137203712,1.0,2751.356970026358,0.482186078464811,1.2960655178542964,0.9788305629129583,0.2851672157625559,0.7204885495461331
0.059000000000000004,1.7157956879497944,1.0,2755.0488833488193,0.48509060755491673,1.2954859016333145,0.9790450757779544,0.2851164188938914,0.7215818939284031
0.059500000000000004,1.7145862386958766,1.0,2758.826271279292,0.48797884651474194,1.2949055349952154,0.979254606882914,0.2850656220252268,0.722674507108373
0.06,1.713376789441959,1.0,2762.6829013276833,0.4908508849800406,1.294324475790358,0.9794593112995589,0.2850148251565623,0.7237662721643207
0.0605,1.7121673401880413,1.0,2766.612526495912,0.4937068125865668,1.293742781869101,0.9796593381393719,0.28496402828789774,0.7248570730223272
0.061,1.7109578909341234,1.0,2770.608884427231,0.4965467189700744,1.293160511081803,0.9798548308300886,0.2849132314192332,0.7259467944587248
0.0615,1.7097484416802058,1.0,2774.665696628994,0.4993706937663175,1.2925777212788223,0.9800459273773412,0.28486243455056864,0.7270353221023335
0.062,1.7085389924262882,1.0,2778.77666776991,0.5021788266110501,1.291994470310518,0.980232760612355,0.2848116376819041,0.7281225424364798
0.0625,1.7073295431723703,1.0,2782.9354850514123,0.504971207140026,1.2914108160272484,0.9804154584265409,0.28476084081323955,0.7292083428008074
0.063,1.7061200939184527,1.0,2787.1358176531157,0.5077479249889995,1.2908268162793721,0.9805941439937729,0.284710043944575,0.7302926113928709
0.0635,1.704910644664535,1.0,2791.3749017295827,0.510509061402339,1.2902424966898431,0.9807689337231544,0.28465924707591045,0.7313752969236174
0.064,1.7037011954106172,1.0,2795.647402798813,0.5132547082258672,1.2896579058982949,0.9809399417371409,0.2846084502072459,0.7324563059649698
0.0645,1.7024917461566995,1.0,2799.945729337748,0.5159849627585158,1.2890731126566322,0.9811072794410233,0.2845576533385814,0.7335355087340754
0.065,1.7012822969027817,1.0,2804.2677750200223,0.5186999083192279,1.288488136319608,0.9812710508122285,0.2845068564699168,0.7346128673559928
0.0655,1.700072847648864,1.0,2808.611427103813,0.5213996282269466,1.2879029962419755,0.9814313561455291,0.2844560596012523,0.7356883442439193
0.066,1.6988633983949464,1.0,2812.974566356562,0.5240842058006154,1.287317711778488,0.9815882922105714,0.28440526273258776,0.7367619020994061
0.0665,1.6976539491410285,1.0,2817.355066989456,0.5267537243591774,1.2867323022838986,0.9817419524015875,0.2843544658639232,0.7378335039125479
0.067,1.6964444998871109,1.0,2821.750796599429,0.5294082672215759,1.2861467871129608,0.9818924268797269,0.28430366899525866,0.7389031129621488
0.0675,1.6952350506331932,1.0,2826.1596161196203,0.532047917706754,1.2855611856204274,0.9820398027084261,0.2842528721265941,0.7399706928158667
0.068,1.6940256013792754,1.0,2830.5793797781484,0.5346727591336549,1.284975517161052,0.9821841639821997,0.28420207525792957,0.7410362073303285
0.0685,1.6928161521253577,1.0,2835.0079350653564,0.537282874821222,1.2843898010895876,0.9823255919492172,0.284151278389265,0.7420996206512271
0.069,1.69160670287144,1.0,2839.4431227092246,0.5398783480883983,1.2838040567607873,0.9824641651280085,0.28410048152060047,0.7431608972133923
0.0695,1.6903972536175222,1.0,2843.8827766588934,0.5424592622541272,1.2832183035294047,0.982599959418611,0.2840496846519359,0.7442200017408355
0.07,1.6891878043636046,1.0,2848.3247240769238,0.5450257006373519,1.2826325607501925,0.9827330482084703,0.28399888778327137,0.7452768992467753
0.07050000000000001,1.6879783551096867,1.0,2852.768926958641,0.5475777294230654,1.2820468287366125,0.9828635005534783,0.2839480909146068,0.7463315892845026
0.07100000000000001,1.686768905855769,1.0,2857.2137922658126,0.5501154360252664,1.2814611216163105,0.9829913851803662,0.28389729404594233,0.747384046615078
0.07150000000000001,1.6855594566018515,1.0,2861.6558037725817,0.5526389228641522,1.280875470545643,0.9831167702497616,0.2838464971772778,0.7484342157071543
0.07200000000000001,1.6843500073479336,1.0,2866.094467275061,0.555148265899043,1.2802898797779312,0.9832397189475727,0.28379570030861323,0.7494820895856916
0.0725,1.683140558094016,1.0,2870.52928710677,0.557643541089259,1.279704353566495,0.9833602924454813,0.2837449034399487,0.7505276613391237
