Time [s],Phi [rad],STIM [ ],Fsee [N],Gamma [ ],Lcerel [ ],q [ ],Lmtc [m],fisomrel [ ]
0.0,1.8,1.0,17.967956627120756,1.0000245872972373e-05,1.3793396567665435,0.005000026653072,0.288653,0.5411397474625033
0.0005,1.79999375,1.0,18.27721479241612,0.005619153461196305,1.3793023355101928,0.012940513585771498,0.2886527375,0.5412300327694934
0.001,1.799975,1.0,21.61879063992393,0.011196843761904496,1.3789382603321783,0.03560857434791435,0.28865195,0.5421103152309386
0.0015,1.79994375,1.0,31.069548828703034,0.016743247630931605,1.378046177077475,0.07060170084485756,0.2886506375,0.5442636734601608
0.002,1.7999,1.0,53.582446031499735,0.02225854055956321,1.3763681279117637,0.11471783119506097,0.2886488,0.5483004856256196
0.0025,1.79984375,1.0,97.11861252645359,0.027742897054994626,1.3739351829263327,0.16457466874525964,0.28864643749999996,0.5541214252865119
0.003,1.7997750000000001,1.0,160.9576629206981,0.03319649064805305,1.3712143626177493,0.21728022316568893,0.28864354999999997,0.5605864062063078
0.0035,1.79969375,1.0,237.68270982821556,0.03861949389278558,1.368584753383626,0.2706126591773124,0.2886401375,0.56678979455718
0.004,1.7996,1.0,321.46609180161306,0.04401207837724225,1.3661561103945223,0.32291557992656467,0.2886362,0.5724799197090382
0.0045000000000000005,1.7994937500000001,1.0,409.26705382286127,0.04937441472866039,1.3639228305270437,0.3730342975918114,0.2886317375,0.5776791244297981
0.005,1.799375,1.0,499.41278729859823,0.05470667260455083,1.361858357580229,0.4202472650910397,0.28862675,0.5824570441624335
0.0055,1.79924375,1.0,590.7896991446119,0.06000902074019461,1.3599388490658486,0.4641735179527485,0.2886212375,0.5868750795062254
0.006,1.7991000000000001,1.0,682.5173870154246,0.06528162689172742,1.358146427858945,0.50467979746375,0.2886152,0.5909793884307319
0.006500000000000001,1.79894375,1.0,773.8806186322372,0.07052465789180903,1.3564672645293334,0.5418006101482785,0.2886086375,0.5948057695120352
0.007,1.798775,1.0,864.2851316376916,0.07573827963319797,1.354890405973539,0.5756766459729714,0.28860155,0.5983826522574514
0.0075,1.79859375,1.0,953.2426366969966,0.08092265707849415,1.3534067880923601,0.6065097936395353,0.2885939375,0.6017335527112297
0.008,1.7984,1.0,1040.3432849692226,0.08607795381923025,1.352008869687538,0.6345320755635184,0.2885858,0.6048780473893554
0.0085,1.79819375,1.0,1125.3130949128572,0.0912043340306042,1.3506892575319653,0.6599843425826791,0.2885771375,0.6078349638127516
0.009000000000000001,1.797975,1.0,1207.900120079345,0.09630195968330807,1.349442035877265,0.6831041036727825,0.28856795,0.6106194628888784
0.0095,1.79774375,1.0,1287.8933820499665,0.10137099123203532,1.3482621082374397,0.704117388838265,0.2885582375,0.6132445917283604
0.01,1.7975,1.0,1365.1676057840943,0.10641158913147941,1.3471443781264918,0.723234150733637,0.288548,0.6157231528545003
0.0105,1.79724375,1.0,1439.657438560947,0.11142391339433338,1.3460839721778421,0.7406466064535606,0.2885372375,0.6180672327857353
0.011,1.796975,1.0,1511.319482802939,0.11640812283059186,1.3450765870080792,0.7565290838039531,0.28852595000000003,0.6202874652386976
0.0115,1.79669375,1.0,1580.119215082877,0.12136437462197738,1.3441185045311634,0.7710385647844861,0.2885141375,0.6223930320128688
0.012,1.7964,1.0,1646.0571299353603,0.1262928254534587,1.3432061635627832,0.7843155392857455,0.28850180000000003,0.6243926316725641
0.0125,1.79609375,1.0,1709.1732567207737,0.13119363193087735,1.342336043040758,0.796485284512405,0.2884889375,0.626294750112233
0.013000000000000001,1.7957750000000001,1.0,1769.5050784933,0.13606694905671332,1.3415050894143963,0.8076594582969208,0.28847555,0.6281067407655141
0.0135,1.79544375,1.0,1827.0891555462313,0.14091293036000968,1.3407106214399998,0.8179374389741716,0.2884616375,0.6298350524169936
0.014,1.7951000000000001,1.0,1881.9892631684706,0.14573172933363265,1.3399499627181746,0.827407509998561,0.2884472,0.6314860422446165
0.0145,1.79474375,1.0,1934.2813504757987,0.1505234983688225,1.3392205775897852,0.8361481554900991,0.2884322375,0.6330656879453206
0.015,1.794375,1.0,1984.0564044945602,0.15528839042795534,1.3385200076004549,0.8442291678116155,0.28841675,0.6345797335911607
0.0155,1.79399375,1.0,2031.3741081184633,0.16002655504509256,1.3378463341307618,0.8517128094819758,0.2884007375,0.6360326993444059
0.016,1.7936,1.0,2076.310006080969,0.16473814175429555,1.3371976385612843,0.8586545240505886,0.2883842,0.6374290578721094
0.0165,1.7931937500000001,1.0,2118.952806496159,0.16942329995520078,1.33657201625114,0.8651037486149861,0.2883671375,0.6387732075148033
0.017,1.792775,1.0,2159.387901846065,0.17408217761641667,1.335967731388951,0.8711046694666011,0.28834955,0.6400691437033215
0.0175,1.7923437500000001,1.0,2197.7201118554067,0.1787149243148968,1.3353829673379378,0.8766967728159583,0.2883314375,0.641320998786989
0.018000000000000002,1.7919,1.0,2234.0153100172543,0.18332168504955093,1.3348164063233927,0.8819155496911819,0.2883128,0.6425318050277067
0.0185,1.79144375,1.0,2268.3475751746914,0.1879026048192888,1.3342667305706084,0.8867928286875622,0.2882936375,0.6437045689848097
0.019,1.790975,1.0,2300.798513997145,0.19245782862302027,1.333732622304877,0.8913572001869882,0.28827395,0.6448422729895098
0.0195,1.79049375,1.0,2331.4516541512176,0.19698750077651422,1.3332128126098284,0.8956343992262535,0.2882537375,0.6459477726806359
0.02,1.79,1.0,2360.39057628639,0.20149176530550209,1.3327060923138474,0.8996476320781689,0.288233,0.6470237759478625
0.0205,1.78949375,1.0,2387.6990098590563,0.2059707661080916,1.3322113040654173,0.9034178578017381,0.2882117375,0.6480728617702642
0.021,1.788975,1.0,2413.4380810915804,0.21042464330629934,1.331727556179756,0.9069640814925212,0.28818995000000003,0.6490970295631597
0.021500000000000002,1.78844375,1.0,2437.67280859025,0.214853537022142,1.3312539569720796,0.910303511901919,0.2881676375,0.6500982652753178
0.022,1.7879,1.0,2460.471782287153,0.21925758737763607,1.330789614757606,0.9134517559840566,0.2881448,0.6510785419914371
0.0225,1.78734375,1.0,2481.9068600102055,0.2236369344947983,1.3303336378515518,0.9164229901541047,0.28812143749999997,0.6520398204839281
0.023,1.786775,1.0,2502.0368085407404,0.2279917154302345,1.3298852871642366,0.9192301390321785,0.28809755,0.6529837286752843
0.0235,1.78619375,1.0,2520.94603527112,0.23232207222754345,1.3294436044680873,0.9218849393154276,0.28807313749999996,0.6539123452649058
0.024,1.7856,1.0,2538.682822615693,0.23662813994752,1.3290079963821573,0.924398163535083,0.2880482,0.6548269716728266
0.0245,1.78499375,1.0,2555.29670245281,0.2409100535424263,1.3285778749462096,0.9267796551599187,0.2880227375,0.6557288906117125
0.025,1.784375,1.0,2570.838875850469,0.24516794796452449,1.3281526522000071,0.9290384206269134,0.28799675,0.656619377723537
0.025500000000000002,1.78374375,1.0,2585.3620717846557,0.24940195816607671,1.3277317401833129,0.9311827119494833,0.2879702375,0.6574997017742905
0.026000000000000002,1.7831000000000001,1.0,2598.920315043822,0.2536122190530661,1.327314551853235,0.9332201002937016,0.2879432,0.6583711229117217
0.0265,1.78244375,1.0,2611.5611596996046,0.2577988615903388,1.3269005720738838,0.9351575508768217,0.2879156375,0.6592347448270648
0.027,1.781775,1.0,2623.342590559571,0.2619620238498028,1.3264891990074146,0.9370014604606329,0.28788755,0.6600918460825792
0.0275,1.7810937500000001,1.0,2634.3016483104707,0.2661018352876258,1.326080034401351,0.938757747816693,0.2878589375,0.660943275398003
0.028,1.7804,1.0,2644.4761566214324,0.2702184253599756,1.3256726800032164,0.9404318706491436,0.2878298,0.6617898772306207
0.0285,1.77969375,1.0,2653.9046545556926,0.27431192352302,1.3252667375605343,0.9420288675611289,0.2878001375,0.6626324918262964
0.029,1.778975,1.0,2662.6263324992246,0.2783824592329266,1.3248618088208284,0.9435533956954012,0.28776995,0.663471955260394
0.029500000000000002,1.7782437500000001,1.0,2670.6809716055586,0.2824301619458634,1.324457495531622,0.9450097645420945,0.2877392375,0.6643090994685827
0.03,1.7775,1.0,2678.100468126467,0.2864551572019443,1.3240534766933851,0.946401975305918,0.287708,0.665144592611383
0.0305,1.77674375,1.0,2684.9206139697376,0.2904575741885696,1.3236493996115177,0.9477337356698583,0.2876762375,0.665979164958878
0.031,1.775975,1.0,2691.1875802423588,0.2944375470439933,1.3232448203530711,0.9490084776270834,0.28764395,0.6668137312337716
0.0315,1.7751937500000001,1.0,2696.924920537969,0.2983951985885318,1.3228395055790967,0.9502294134155954,0.2876111375,0.6676487679765446
0.032,1.7744,1.0,2702.1564626087415,0.3023306516425017,1.3224332219506456,0.9513995311041537,0.2875778,0.6684847493065234
0.0325,1.77359375,1.0,2706.9062835686746,0.3062440290262196,1.3220257361287695,0.95252161298081,0.2875439375,0.6693221469091968
0.033,1.772775,1.0,2711.1986863044767,0.31013545356000194,1.32161681477452,0.9535982522216246,0.28750955,0.6701614300200641
0.0335,1.7719437500000002,1.0,2715.058177093929,0.31400504806416524,1.321206224548948,0.9546318680187819,0.2874746375,0.671003065405009
0.034,1.7711000000000001,1.0,2718.5094444303954,0.31785293535902603,1.3207937321131054,0.9556247193268653,0.2874392,0.6718475173371977
0.0345,1.7702437500000001,1.0,2721.5773390558593,0.32167923826490086,1.3203791041280433,0.956578917368137,0.2874032375,0.6726952475705115
0.035,1.7693750000000001,1.0,2724.2868551997794,0.3254840796021063,1.3199621072548133,0.9574964370219228,0.28736675,0.6735467153095005
0.035500000000000004,1.76849375,1.0,2726.654027824576,0.329267574214199,1.3195425907785356,0.9583791340087215,0.2873297375,0.674402208796369
0.036000000000000004,1.7676,1.0,2728.7082567961265,0.3330298515330272,1.3191202833564508,0.9592287380542388,0.2872922,0.6752622600462326
0.0365,1.76669375,1.0,2730.4658794506154,0.3367710293310725,1.3186950332917438,0.960046880708362,0.2872541375,0.6761271548315508
0.037,1.765775,1.0,2731.9413200382696,0.3404912235321431,1.3182667069226806,0.9608350945513121,0.28721555,0.6769971405120937
0.0375,1.76484375,1.0,2733.1490641571663,0.3441905500600472,1.3178351705875275,0.9615948190110076,0.2871764375,0.6778724628112158
0.038,1.7639,1.0,2734.103651338588,0.3478691248385928,1.3174002906245508,0.9623274070542462,0.28713679999999997,0.6787533657890648
0.0385,1.76294375,1.0,2734.819668028453,0.3515270637915882,1.3169619333720168,0.9630341313265548,0.28709663750000003,0.6796400918146466
0.039,1.761975,1.0,2735.3117409643182,0.35516448284284147,1.3165199651681918,0.9637161897916442,0.28705595,0.680532881536756
0.0395,1.7609937500000001,1.0,2735.5945309498707,0.35878149791616076,1.3160742523513418,0.9643747109162182,0.2870147375,0.6814319738537638
0.04,1.76,1.0,2735.682727023778,0.3623782249353543,1.3156246612597333,0.9650107584412756,0.286973,0.6823376058822659
0.0405,1.7589937500000001,1.0,2735.5815633600714,0.3659547666064254,1.3151711442841478,0.9656253409720399,0.2869307375,0.683249839957337
0.041,1.757975,1.0,2735.3131533350734,0.36951125205253443,1.3147135007310198,0.9662194019662125,0.28688795,0.6841690448266149
0.0415,1.75694375,1.0,2734.889948802413,0.37304779662282794,1.3142516177526964,0.9667938376155664,0.2868446375,0.6850954105223636
0.042,1.7559,1.0,2734.3196601868135,0.376564508779253,1.3137854256523902,0.967349497397508,0.28680079999999997,0.6860290390565953
0.0425,1.75484375,1.0,2733.610007008269,0.3800614969837568,1.3133148547333142,0.9678871846919849,0.2867564375,0.6869700312609764
0.043000000000000003,1.753775,1.0,2732.7687158714075,0.3835388696982863,1.3128398352986808,0.96840765974723,0.28671155,0.6879184867675201
0.043500000000000004,1.75269375,1.0,2731.8035185628096,0.38699673538478885,1.3123602976517026,0.9689116424258503,0.28666613750000003,0.6888745039889661
0.044,1.7516,1.0,2730.7221502549814,0.3904352025052113,1.3118761720955925,0.9693998147495644,0.2866202,0.6898381800988533
0.0445,1.75049375,1.0,2729.532347819735,0.39385437952150093,1.311387388933563,0.9698728232592158,0.2865737375,0.6908096110112818
0.045,1.7493750000000001,1.0,2728.2418482474304,0.3972543748956048,1.3108938784688269,0.970331281205155,0.28652675,0.6917888913603645
0.0455,1.74824375,1.0,2726.858387175171,0.40063529708947,1.310395571004597,0.9707757705817324,0.2864792375,0.6927761144793694
0.046,1.7471,1.0,2725.3896975222665,0.40399725456504365,1.3098923968440854,0.9712068440183962,0.2864312,0.6937713723795532
0.0465,1.7459437500000001,1.0,2723.8435082334368,0.4073403557842729,1.3093842862905054,0.9716250265387947,0.28638263750000004,0.6947747557286817
0.047,1.744775,1.0,2722.222676442326,0.4106646932652006,1.3088712139424858,0.9720308183062933,0.28633355,0.695786266574283
0.0475,1.74359375,1.0,2720.537336597626,0.41397038980799106,1.3083530881404408,0.9724246942200505,0.28628393750000003,0.6968060364612676
0.048,1.7424,1.0,2718.793101216214,0.41725755303109074,1.3078298583182562,0.9728071070640372,0.2862338,0.6978341145655687
0.0485,1.74119375,1.0,2716.9935650667026,0.4205262834597316,1.3073014922465591,0.9731784882696639,0.2861831375,0.698870512956116
0.049,1.739975,1.0,2715.1423200298645,0.42377668161914556,1.3067679576959765,0.9735392487648243,0.28613195,0.6999152427647946
0.0495,1.73874375,1.0,2713.2429547467164,0.42700884803456457,1.306229222437136,0.9738897801322898,0.2860802375,0.7009683141758518
0.05,1.7375,1.0,2711.2990542896746,0.43022288323122054,1.305685254240664,0.9742304556925004,0.286028,0.7020297364152441
0.0505,1.73624375,1.0,2709.314199855918,0.43341888773434545,1.305136020877188,0.9745616315163256,0.2859752375,0.7030995177399115
0.051000000000000004,1.734975,1.0,2707.2919684848293,0.4365969620691712,1.3045814901173352,0.9748836473729068,0.28592195,0.7041776654269888
0.051500000000000004,1.73369375,1.0,2705.23593279765,0.4397572067609298,1.3040216297317324,0.9751968276172844,0.2858681375,0.7052641857629509
0.052000000000000005,1.7324,1.0,2703.1496607607205,0.442899722334853,1.3034564074910069,0.9755014820221332,0.2858138,0.7063590840326913
0.0525,1.73109375,1.0,2701.0367154713576,0.4460246093161728,1.3028857911657858,0.97579790655758,0.28575893750000003,0.7074623645085331
0.053,1.729775,1.0,2698.900654966994,0.4491319682301213,1.3023097485266961,0.9760863841227695,0.28570355000000003,0.7085740304391765
0.0535,1.72844375,1.0,2696.7450320572766,0.4522218996019303,1.301728247344365,0.9763671852325512,0.2856476375,0.7096940840385768
0.054,1.7271,1.0,2694.5679153699925,0.4552944710354578,1.3011413055114638,0.9766405684405385,0.2855912,0.7108224302131736
0.0545,1.7257437500000001,1.0,2692.37803466975,0.45834982040193323,1.3005488433804135,0.9769067822586387,0.2855342375,0.7119591605315551
0.055,1.724375,1.0,2690.177637569918,0.4613880458281763,1.2999508405248523,0.9771660642098376,0.28547675,0.7131042514937328
0.0555,1.72299375,1.0,2687.9679713094124,0.46440923922639005,1.2993472856487616,0.9774186417302407,0.2854187375,0.7142576612714246
0.056,1.7216,1.0,2685.7502811624204,0.4674134925087777,1.2987381674561227,0.9776647327396613,0.2853602,0.7154193472734618
0.0565,1.72019375,1.0,2683.525810416846,0.4704008975875421,1.2981234746509172,0.97790454611561,0.28530113749999997,0.7165892661417856
0.057,1.718775,1.0,2681.295800355061,0.4733715463748866,1.2975031959371264,0.978138282139937,0.28524155,0.7177673737474356
0.0575,1.71734375,1.0,2679.0614902375896,0.47632553078301415,1.2968773200187313,0.9783661329199119,0.2851814375,0.7189536251865299
0.058,1.7159,1.0,2676.8241172896796,0.47926294272412795,1.296245835599714,0.9785882827853961,0.2851208,0.7201479747762349
0.0585,1.71444375,1.0,2674.5849166909043,0.48218387411043095,1.2956087313840554,0.9788049086636474,0.2850596375,0.7213503760507314
0.059000000000000004,1.7129750000000001,1.0,2672.345121567196,0.4850884168541264,1.2949659960757371,0.9790161804331815,0.28499795,0.7225607817571691
0.059500000000000004,1.71149375,1.0,2670.1059629860442,0.48797666286741725,1.2943176183787404,0.9792222612580156,0.2849357375,0.723779143851614
0.06,1.71,1.0,2667.8686699541868,0.4908487040625067,1.2936635869970468,0.9794233079035293,0.284873,0.7250054134949871
0.0605,1.7084937500000001,1.0,2665.6344694185914,0.49370463235159784,1.2930038906346375,0.9796194710350828,0.2848097375,0.7262395410489968
0.061,1.7069750000000001,1.0,2663.4045862698417,0.4965445396468937,1.2923385179954943,0.979810895500466,0.28474595,0.7274814760720603
0.0615,1.7054437500000001,1.0,2661.1802433484213,0.49936851786059744,1.291667457783598,0.9799977205971627,0.2846816375,0.7287311673152203
0.062,1.7039,1.0,2658.9626614543395,0.5021766589049121,1.2909906987029303,0.980180080325363,0.2846168,0.72998856271805
0.0625,1.70234375,1.0,2656.751474386711,0.5049690250151331,1.2903082440601807,0.9803581021321901,0.2845514375,0.7312535823682862
0.063,1.7007750000000001,1.0,2654.547709193382,0.5077457228810557,1.2896200843260577,0.9805319114037856,0.28448555,0.7325261694992578
0.0635,1.69919375,1.0,2652.352955090551,0.5105068649563798,1.288926204771966,0.9807016290019096,0.28441913750000003,0.7338062761354207
0.064,1.6976,1.0,2650.167426078452,0.5132525339430793,1.2882266033311363,0.9808673697730053,0.2843522,0.7350938301409307
0.0645,1.69599375,1.0,2647.991335826776,0.5159828125431289,1.2875212779367986,0.9810292443691253,0.2842847375,0.7363887587168055
0.065,1.694375,1.0,2645.824897677524,0.5186977834585025,1.286810226522183,0.98118735942999,0.28421675,0.7376909884001724
0.0655,1.69274375,1.0,2643.668324648986,0.5213975293911745,1.28609344702052,0.9813418177558598,0.2841482375,0.7390004450635104
0.066,1.6911,1.0,2641.5218294393644,0.5240821330431188,1.28537093736504,0.9814927184717522,0.2840792,0.7403170539138981
0.0665,1.6894437500000001,1.0,2639.385624430978,0.52675167711631,1.2846426954889727,0.9816401571834916,0.2840096375,0.7416407394922575
0.067,1.687775,1.0,2637.259921693428,0.5294062443127222,1.283908719325549,0.9817842261260531,0.28393955,0.7429714256725978
0.0675,1.68609375,1.0,2635.144932988571,0.5320459173343296,1.2831690068079986,0.9819250143046341,0.2838689375,0.7443090356612616
0.068,1.6844000000000001,1.0,2633.040869773908,0.5346707788831064,1.2824235558695523,0.9820626076288569,0.2837978,0.7456534919961668
0.0685,1.68269375,1.0,2630.947943207231,0.5372809116610269,1.28167236444344,0.9821970890404801,0.2837261375,0.747004716546052
0.069,1.680975,1.0,2628.866364150846,0.5398763983700653,1.280915430462892,0.9823285386349792,0.28365395,0.7483626305097197
0.0695,1.67924375,1.0,2626.7963431757616,0.5424573217121957,1.2801527518611386,0.982457033777328,0.28358123749999997,0.7497271544152784
0.07,1.6775,1.0,2624.7380905666873,0.5450237643893926,1.27938432657141,0.9825826492122938,0.283508,0.7510982081193869
0.07050000000000001,1.67574375,1.0,2622.6918163261485,0.54757580910363,1.2786101525269367,0.9827054571695444,0.2834342375,0.7524757108064959
0.07100000000000001,1.673975,1.0,2620.657730179321,0.5501135385568822,1.2778302276609488,0.9828255274638412,0.28335995,0.7538595809880911
0.07150000000000001,1.67219375,1.0,2618.636041579016,0.5526370354511234,1.2770445499066765,0.9829429275905824,0.2832851375,0.7552497365019357
0.07200000000000001,1.6704,1.0,2616.6269597105033,0.5551463824883279,1.27625311719735,0.9830577228169369,0.2832098,0.7566460945113114
0.0725,1.66859375,1.0,2614.6301591154215,0.5576416099607299,1.275455932429072,0.983169973394801,0.2831339375,0.7580485627858117
0.073,1.6667750000000001,1.0,2612.6458494632125,0.560122850363231,1.2746529935313924,0.9832797433994198,0.28305755,0.7594570572201689
0.0735,1.66494375,1.0,2610.673935185848,0.5625901942354824,1.273844301268373,0.9833870924976248,0.2829806375,0.760871488083025
0.074,1.6631,1.0,2608.714183989979,0.5650437149905819,1.2730298576771821,0.9834920775071606,0.2829032,0.7622917628086023
0.0745,1.6612437500000001,1.0,2606.7663639873936,0.5674834860416268,1.2722096647949892,0.9835947534335863,0.2828252375,0.7637177882404325
0.075,1.659375,1.0,2604.830243690305,0.5699095808017145,1.2713837246589632,0.983695173538277,0.28274675,0.7651494706321047
0.0755,1.65749375,1.0,2602.905592006465,0.5723220726839428,1.2705520393062733,0.9837933894034447,0.2826677375,0.7665867156480127
