Time [s],Phi [rad],STIM [ ],Fsee [N],Gamma [ ],Lcerel [ ],q [ ],Lmtc [m],fisomrel [ ]
0.0,1.8,1.0,18.576416294729096,0.0007953300070686061,1.3792720579697975,0.00516280862348761,0.288653,0.5413032718219215
0.0005,1.79999375,1.0,19.123318434540685,0.0064000781435251146,1.3792094143053957,0.015263733684907601,0.2886527375,0.5414547834890266
0.001,1.799975,1.0,23.0484333009037,0.011973388074415343,1.3787945820827856,0.03981752452484196,0.28865195,0.5424574763543617
0.0015,1.79994375,1.0,33.809603376072005,0.017515436143604908,1.377817666717461,0.07628628863293471,0.2886506375,0.5448144474367778
0.002,1.7999,1.0,58.901996316704555,0.023026397705054345,1.3760311879067646,0.12140075920068337,0.2886488,0.5491088830402663
0.0025,1.79984375,1.0,105.57515669369748,0.02850644712891075,1.3735361859057846,0.17181364201053803,0.28864643749999996,0.555072442024742
0.003,1.7997750000000001,1.0,171.65083303830065,0.03395575780953452,1.3708205421219755,0.22472780879029342,0.28864354999999997,0.5615182574628962
0.0035,1.79969375,1.0,249.59438475517572,0.039374502166124106,1.3682223271230833,0.2780056911451871,0.2886401375,0.5676413195410108
0.004,1.7996,1.0,334.04243760534104,0.04476285165123724,1.3658262063363587,0.3300637567723187,0.2886362,0.5732499577727932
0.0045000000000000005,1.7994937500000001,1.0,422.21960865365946,0.050120976735313315,1.3636211527312945,0.37981272433682184,0.2886317375,0.5783790092039689
0.005,1.799375,1.0,512.5842781544713,0.05544904703018855,1.361580285823378,0.4265841238220321,0.28862675,0.5830985232904471
0.0055,1.79924375,1.0,604.0330543528108,0.060747230992332195,1.359681539856088,0.47003740367192975,0.2886212375,0.5874655289756168
0.006,1.7991000000000001,1.0,695.7459674388639,0.06601569640387328,1.3579071213482379,0.510066683125175,0.2886152,0.5915258051282453
0.006500000000000001,1.79894375,1.0,787.0003334224699,0.07125460981564918,1.3562442435518642,0.5467249176413583,0.2886086375,0.5953126241586736
0.007,1.798775,1.0,877.2344240054756,0.07646413713708065,1.3546820110017102,0.5801635159358046,0.28860155,0.598854180713593
0.0075,1.79859375,1.0,965.9618659231625,0.08164444309902594,1.3532118014200214,0.6105902973522781,0.2885939375,0.602172906051095
0.008,1.7984,1.0,1052.7923924058446,0.0867956915036236,1.3518261253953874,0.638239566223401,0.2885858,0.6052881935244553
0.0085,1.79819375,1.0,1137.4468591340305,0.09191804578506975,1.3505179485056946,0.6633524349016717,0.2885771375,0.6082180094877526
0.009000000000000001,1.797975,1.0,1219.6734002935727,0.09701166754662566,1.3492815580862307,0.6861652227083549,0.28856795,0.6109770190716041
0.0095,1.79774375,1.0,1299.2974080894119,0.10207671789348119,1.3481115351336552,0.706901721189047,0.2885582375,0.6135789512337051
0.01,1.7975,1.0,1376.2117350935598,0.10711335762724658,1.3470027171692573,0.7257694383601979,0.288548,0.6160367164450014
0.0105,1.79724375,1.0,1450.328006601719,0.11212174587876597,1.3459506682863989,0.742958283106019,0.2885372375,0.6183614002302106
0.011,1.796975,1.0,1521.5936428765358,0.11710204074582019,1.3449512961621746,0.758640171624202,0.28852595000000003,0.6205631482016445
0.0115,1.79669375,1.0,1589.9934411097497,0.1220543997361777,1.3440007253260835,0.772969621453819,0.2885141375,0.6226514699462005
0.012,1.7964,1.0,1655.5596776605878,0.1269789806765793,1.3430950979667253,0.7860847878756962,0.28850180000000003,0.624635694359704
0.0125,1.79609375,1.0,1718.3037377870946,0.1318759387093483,1.3422313038661524,0.7981091212090604,0.2884889375,0.6265233885652846
0.013000000000000001,1.7957750000000001,1.0,1778.2526232721082,0.13674542821419172,1.3414064587622958,0.809152527207663,0.28847555,0.6283215239648878
0.0135,1.79544375,1.0,1835.4643897404274,0.14158760355149733,1.3406176803784942,0.8193126738714226,0.2884616375,0.6300369764463456
0.014,1.7951000000000001,1.0,1890.0119991748566,0.14640261796666065,1.3398622345202302,0.8286763787689293,0.2884472,0.6316762166674619
0.0145,1.79474375,1.0,1941.9713286638712,0.15119062482964413,1.3391376265836985,0.8373208659910053,0.2884322375,0.6332451219233926
0.015,1.794375,1.0,1991.402727320274,0.15595177454136486,1.33844175857747,0.8453149168951934,0.28841675,0.6347486481217779
0.0155,1.79399375,1.0,2038.3845871022136,0.16068621750273998,1.337772532510115,0.8527197252927166,0.2884007375,0.63619169732686
0.016,1.7936,1.0,2083.0011459033385,0.16539410320614506,1.3371279611645377,0.8595898280079618,0.2883842,0.6375788832941389
0.0165,1.7931937500000001,1.0,2125.3492668735444,0.1700755819874414,1.3365060777500835,0.8659738669538402,0.2883671375,0.638914730986144
0.017,1.792775,1.0,2165.519122501476,0.17473080281919576,1.3359051188891422,0.8719153377733465,0.28834955,0.6402032879594108
0.0175,1.7923437500000001,1.0,2203.5766327141505,0.1793599114493173,1.3353236813800562,0.8774532360763426,0.2883314375,0.6414477956177506
0.018000000000000002,1.7919,1.0,2239.5969031246977,0.18396305362571524,1.3347603620211674,0.882622486320735,0.2883128,0.6426514668987785
0.0185,1.79144375,1.0,2273.663463901882,0.18854037509629878,1.3342137576108182,0.8874544167996332,0.2882936375,0.6438174879580909
0.019,1.790975,1.0,2305.864723295262,0.19309202123338962,1.3336824929244848,0.8919771823380869,0.28827395,0.6449489601903735
0.0195,1.79049375,1.0,2336.283378137519,0.19761813620171093,1.3331653172203177,0.8962161502859824,0.2882537375,0.6460486970710622
0.02,1.79,1.0,2365.007471859642,0.20211886487077657,1.3326609864213448,0.9001941889538223,0.288233,0.6471194774017152
0.0205,1.78949375,1.0,2392.099476099624,0.20659434807671426,1.332168557982706,0.903932010816681,0.2882117375,0.648163421835745
0.021,1.788975,1.0,2417.6261910054127,0.2110447266556516,1.3316870893595416,0.9074483450465713,0.28818995000000003,0.649182636327154
0.021500000000000002,1.78844375,1.0,2441.6583883810517,0.2154701414437163,1.3312156380069915,0.9107601546372991,0.2881676375,0.6501792128176709
0.022,1.7879,1.0,2464.2677982224377,0.2198707328330621,1.3307532869825243,0.9138828323105166,0.2881448,0.6511551758617856
0.0225,1.78734375,1.0,2485.518813689022,0.22424663970580952,1.330299220385881,0.9168303822749883,0.28812143749999997,0.6521123246571403
0.023,1.786775,1.0,2505.493928057572,0.2285980036272139,1.3298524772584124,0.9196155205641076,0.28809755,0.653052752699262
0.0235,1.78619375,1.0,2524.243621719838,0.2329249603557051,1.3294124256361926,0.9222498941235212,0.28807313749999996,0.6539778502438773
0.024,1.7856,1.0,2541.8204179436634,0.23722764564971288,1.3289784335552959,0.9247441313858722,0.2880482,0.654888999539234
0.0245,1.78499375,1.0,2558.278714443981,0.241506195267667,1.3285498690517967,0.9271079453542356,0.2880227375,0.6557875750830587
0.025,1.784375,1.0,2573.6746238085843,0.2457607449679973,1.3281261001617692,0.9293502250037584,0.28799675,0.6566749438540453
0.025500000000000002,1.78374375,1.0,2588.0607807215893,0.24999142940090374,1.327706541987334,0.9314791237887826,0.2879702375,0.6575523671514787
0.026000000000000002,1.7831000000000001,1.0,2601.488970178883,0.25419838303913367,1.3272906302971497,0.9335021270077978,0.2879432,0.658421056504128
0.0265,1.78244375,1.0,2614.019264809424,0.25838174158064753,1.3268777352570054,0.9354261026618781,0.2879156375,0.659282353932561
0.027,1.781775,1.0,2625.689702091428,0.26254163540597925,1.3264674421336626,0.9372574007162086,0.28788755,0.6601371467688254
0.0275,1.7810937500000001,1.0,2636.5391856992405,0.2666781948956626,1.3260593361938826,0.9390018703137388,0.2878589375,0.6609863178597086
0.028,1.7804,1.0,2646.60741157605,0.2707915504302314,1.3256530027044264,0.9406649058899016,0.2878298,0.6618307456300728
0.0285,1.77969375,1.0,2655.9347978203127,0.27488183239021946,1.3252480269320555,0.9422514884833144,0.2878001375,0.6626713041352199
0.029,1.778975,1.0,2664.562418385866,0.27894917115616075,1.3248439941435304,0.9437662227951552,0.28776995,0.6635088631022896
0.029500000000000002,1.7782437500000001,1.0,2672.5206328386034,0.2829936939088875,1.3244405934786485,0.9452133835063662,0.2877392375,0.6643440730332345
0.03,1.7775,1.0,2679.8650885456814,0.287015532748891,1.324037286437104,0.94659690239593,0.287708,0.6651780516533108
0.0305,1.77674375,1.0,2686.622259404938,0.29101481351798864,1.3236338068896916,0.9479204600095152,0.2876762375,0.666011348973488
0.031,1.775975,1.0,2692.815555648637,0.29499166128055293,1.323229919965376,0.9491874772700041,0.28764395,0.666844447829007
0.0315,1.7751937500000001,1.0,2698.468693689712,0.2989462011009566,1.3228253907931218,0.9504011335532443,0.2876111375,0.6676778286328706
0.032,1.7744,1.0,2703.6056694576027,0.3028785580435721,1.3224199845018934,0.9515643867252382,0.2875778,0.6685119693679811
0.0325,1.77359775051376,1.0,2708.4487247122156,0.30678885717277216,1.3220134662206555,0.9526799912854284,0.28754410552157794,0.6693473455757614
0.033,1.772795251155939,1.0,2713.431411733741,0.31067722055345853,1.3216056016361335,0.9537505140322505,0.2875104005485494,0.6701844291972596
0.0335,1.7719927517981184,1.0,2718.530280746785,0.3145437743326048,1.3211967205681738,0.9547784154028335,0.28747669557552097,0.6710225341079415
0.034,1.7711902524402976,1.0,2723.717722846119,0.31838864334715195,1.320787077095267,0.955765983253175,0.2874429906024925,0.6718611325531736
0.0345,1.7703877530824768,1.0,2728.9829442207347,0.3222119469577458,1.3203767715152543,0.9567153369906941,0.287409285629464,0.6727000136271126
0.035,1.769585253724656,1.0,2734.3151116975546,0.32601380452503215,1.3199659041259761,0.9576284589628584,0.28737558065643554,0.6735389674644345
0.035500000000000004,1.7687827543668353,1.0,2739.7033513798024,0.32979433540965675,1.3195545752252735,0.9585072049119806,0.2873418756834071,0.6743777852442443
0.036000000000000004,1.7679802550090145,1.0,2745.1367475098505,0.3335536589722654,1.3191428851109872,0.9593533135185642,0.2873081707103786,0.6752162591933522
0.0365,1.7671777556511936,1.0,2750.604341553992,0.3372918945735039,1.3187309340809579,0.9601684151220187,0.28727446573735016,0.6760541825889034
0.037,1.7663752562933728,1.0,2756.0951315110365,0.341009161574018,1.3183188224330267,0.9609540396980485,0.28724076076432165,0.6768913497603675
0.0375,1.7655727569355522,1.0,2761.602669104537,0.3447055738561509,1.3179066089176286,0.9617116189439671,0.2872070557912932,0.6777276403268303
0.038,1.7647702575777313,1.0,2767.116362291733,0.3483812541359813,1.317494389460279,0.962442504008613,0.2871733508182647,0.6785628592514179
0.0385,1.7639677582199105,1.0,2772.6281442028235,0.3520363217318234,1.3170822368309565,0.9631479628885822,0.2871396458452362,0.6793968593312412
0.039,1.7631652588620896,1.0,2778.1346479291183,0.355670889608094,1.3166701811653427,0.9638291839866282,0.28710594087220775,0.6802295802318528
0.0395,1.762362759504269,1.0,2783.6324933473684,0.35928507072920995,1.31625825259912,0.9644872868762077,0.2870722358991793,0.6810609619354312
0.04,1.7615602601464482,1.0,2789.118287194861,0.3628789780595881,1.3158464812679707,0.9651233270265778,0.28703853092615084,0.6818909447405659
0.0405,1.7607577607886273,1.0,2794.5886231644677,0.36645272456364514,1.3154348973075765,0.965738300155413,0.2870048259531224,0.6827194692619857
0.041,1.7599552614308065,1.0,2800.0400820195428,0.3700064232057981,1.3150235308536198,0.966333146241919,0.28697112098009386,0.6835464764302247
0.0415,1.7591527620729859,1.0,2805.4692317294457,0.37354018695046365,1.314612412041783,0.9669087532302001,0.2869374160070654,0.6843719074912351
0.042,1.758350262715165,1.0,2810.872627624772,0.3770541287620587,1.3142015710077477,0.9674659604497442,0.28690371103403695,0.6851957040059415
0.0425,1.7575477633573442,1.0,2816.2477292398194,0.3805483575026055,1.313791029684368,0.9680055604372639,0.28687000606100843,0.6860178242653829
0.043000000000000003,1.7567452639995234,1.0,2821.5949664234936,0.38402297361374127,1.3133807833711344,0.9685282998207561,0.28683630108798,0.6868382800181574
0.043500000000000004,1.7559427646417027,1.0,2826.9077549772555,0.387478112394479,1.312970890037527,0.9690348961457443,0.2868025961149515,0.6876569578734637
0.044,1.755140265283882,1.0,2832.1858467442134,0.3909138790410267,1.312561350903323,0.9695260201694529,0.28676889114192305,0.6884738581680161
0.0445,1.754337765926061,1.0,2837.4289938904367,0.39433037874959254,1.312152167188299,0.9700023079166352,0.2867351861688946,0.6892889812488784
0.045,1.7535352665682402,1.0,2842.636948914453,0.39772771671638457,1.3117433401122316,0.9704643628197571,0.2867014811958661,0.6901023274734359
0.0455,1.7527327672104196,1.0,2847.8094646567765,0.40110599813761083,1.3113348708948982,0.9709127577071893,0.2866677762228376,0.6909138972093657
0.046,1.7519302678525988,1.0,2852.9462943097014,0.4044653282094794,1.310926760756075,0.9713480366515772,0.28663407124980916,0.6917236908346125
0.0465,1.751127768494778,1.0,2858.047191426798,0.4078058121281983,1.3105190109155391,0.9717707166894722,0.28660036627678065,0.6925317087373575
0.047,1.7503252691369573,1.0,2863.1119099329053,0.41112755508997567,1.3101116225930673,0.9721812894223374,0.2865666613037522,0.6933379513159916
0.0475,1.7495227697791365,1.0,2868.1402041337287,0.41443066229101955,1.3097045970084364,0.9725802225081653,0.28653295633072373,0.694142418979088
0.048,1.7487202704213156,1.0,2873.131828725627,0.417715238927538,1.3092979353814231,0.9729679610521301,0.2864992513576953,0.6949451121453731
0.0485,1.7479177710634948,1.0,2878.0865388054103,0.4209813901957391,1.3088916389318044,0.9733449289040024,0.28646554638466676,0.6957460312436983
0.049,1.747115271705674,1.0,2883.004089880467,0.4242292212918309,1.3084857088793571,0.9737115298693719,0.2864318414116383,0.696545176713012
0.0495,1.7463127723478533,1.0,2887.884237878353,0.4274588374120215,1.3080801464438578,0.9740681488411516,0.28639813643860984,0.6973425490023314
0.05,1.7455102729900325,1.0,2892.728035210445,0.4306703016675406,1.3076749414016424,0.974415147243637,0.2863644314655814,0.6981381710251784
0.0505,1.7447077736322116,1.0,2897.5351642557894,0.43386377018378147,1.307270095657502,0.9747528813699329,0.28633072649255287,0.6989320418196094
0.051000000000000004,1.743905274274391,1.0,2902.306080510414,0.43703934195278554,1.3068656043025295,0.9750816843246602,0.2862970215195244,0.6997241737756486
0.051500000000000004,1.7431027749165702,1.0,2907.041302897312,0.44019711284244445,1.3064614618927304,0.9754018738430557,0.28626331654649595,0.7005145802760542
0.052000000000000005,1.7423002755587493,1.0,2911.7413531720913,0.4433371787206499,1.306057662984111,0.9757137534992145,0.2862296115734675,0.7013032746451031
0.0525,1.7414977762009285,1.0,2916.4067558816582,0.4464596354552935,1.3056542021326767,0.976017613460549,0.286195906600439,0.7020902701487144
0.053,1.7406952768431079,1.0,2921.0380383227134,0.4495645789142669,1.305251073894434,0.9763137311957449,0.2861622016274105,0.7028755799945624
0.0535,1.739892777485287,1.0,2925.635730501343,0.45265210496546165,1.3048482728253887,0.9766023721394621,0.28612849665438206,0.7036592173321983
0.054,1.7390902781274662,1.0,2930.2003650932006,0.4557223094767695,1.3044457934815465,0.9768837903167686,0.28609479168135354,0.7044411952531617
0.0545,1.7382877787696454,1.0,2934.732477404584,0.458775288316082,1.3040436304189136,0.9771582289300702,0.2860610867083251,0.7052215267910941
0.055,1.7374852794118247,1.0,2939.23260533349,0.46181113735129087,1.3036417781934957,0.9774259209110812,0.2860273817352966,0.7060002249218493
0.0555,1.736682780054004,1.0,2943.7012893321726,0.46482995245028763,1.3032402313612987,0.9776870894402001,0.28599367676226817,0.7067773025636034
0.056,1.735880280696183,1.0,2948.1390723696154,0.467831829480964,1.302838984478329,0.9779419484354653,0.2859599717892397,0.7075527725769593
0.0565,1.7350777813383622,1.0,2952.5464998952702,0.4708168643112116,1.302438032100592,0.9781907030131096,0.2859262668162112,0.7083266477650552
0.057,1.7342752819805416,1.0,2956.924119803147,0.4737851528089221,1.3020373687840938,0.9784335499215842,0.28589256184318274,0.709098940873665
0.0575,1.7334727826227208,1.0,2961.272482396391,0.476736790841987,1.3016369890848405,0.9786706779507813,0.2858588568701543,0.7098696645913005
0.058,1.7326702832649,1.0,2965.592140352926,0.4796718742782981,1.3012368875588378,0.9789022683180636,0.28582515189712576,0.7106388315493115
0.0585,1.731867783907079,1.0,2969.883648691549,0.4825904989857469,1.3008370587620917,0.9791284950325871,0.2857914469240973,0.7114064543219829
0.059000000000000004,1.7310652845492585,1.0,2974.1462475771755,0.48549268572225657,1.3004375087201252,0.9793495196288229,0.28575774195106884,0.7121725234503977
0.059500000000000004,1.7302627851914376,1.0,2978.3822437597264,0.48837861283306994,1.3000382167615472,0.9795655089108781,0.2857240369780404,0.712937080620379
0.06,1.7294602858336168,1.0,2982.592303238228,0.491248378921221,1.299639176544822,0.9797766173937801,0.2856903320050119,0.7137001399220055
0.0605,1.728657786475796,1.0,2986.776838102352,0.4941020691472373,1.2992403839563376,0.9799829926947969,0.2856566270319834,0.714461711127754
0.061,1.7278552871179753,1.0,2990.9362621814116,0.4969397686716467,1.2988418348824804,0.9801847768161843,0.28562292205895495,0.7152218039670675
0.0615,1.7270527877601545,1.0,2995.0709910213754,0.4997615626549768,1.2984435252096385,0.9803821064016228,0.2855892170859265,0.7159804281264155
0.062,1.7262502884023336,1.0,2999.1814418632284,0.5025675362577552,1.298045450824199,0.9805751129790725,0.285555512112898,0.7167375932493623
0.0625,1.7254477890445128,1.0,3003.2680336216295,0.5053577746405097,1.297647607612549,0.9807639231908499,0.2855218071398695,0.7174933089366267
0.063,1.7246452896866922,1.0,3007.3311868629207,0.5081323629637678,1.297249991461076,0.9809486590117015,0.28548810216684106,0.7182475847461424
0.0635,1.7238427903288713,1.0,3011.371323784746,0.5108913863880574,1.2968525982561676,0.9811294379555766,0.2854543971938126,0.7190004301931198
0.064,1.7230402909710505,1.0,3015.3888681953904,0.513634930073906,1.2964554238842108,0.9813063732717688,0.28542069222078414,0.719751854750105
0.0645,1.7222377916132297,1.0,3019.3842454935675,0.5163630791818414,1.2960584642315929,0.9814795741310446,0.28538698724775563,0.7205018678470365
0.065,1.721435292255409,1.0,3023.357882648957,0.5190759188723914,1.2956617151847014,0.9816491458023399,0.28535328227472717,0.7212504788713027
0.0655,1.7206327928975882,1.0,3027.3102081822567,0.5217735343060832,1.2952651726299238,0.9818151898205666,0.2853195773016987,0.7219976971677975
0.066,1.7198302935397674,1.0,3031.2416521466116,0.5244560106434449,1.294868832453647,0.9819778041460407,0.2852858723286702,0.7227435320389766
0.0665,1.7190277941819465,1.0,3035.152646108934,0.5271234330450041,1.2944726905422586,0.982137083316001,0.28525216735564174,0.7234879927449083
0.067,1.718225294824126,1.0,3039.0436231313547,0.5297758866712884,1.294076742782146,0.98229311858867,0.2852184623826133,0.7242310885033276
0.0675,1.717422795466305,1.0,3042.915017753537,0.5324134566828255,1.2936809850596964,0.9824459980802707,0.2851847574095848,0.7249728284896887
0.068,1.7166202961084842,1.0,3046.767265975261,0.5350362282401431,1.293285413261297,0.9825958068953912,0.28515105243655636,0.7257132218372138
0.0685,1.7158177967506634,1.0,3050.6008052388274,0.5376442865037688,1.2928900232733356,0.9827426272510666,0.28511734746352785,0.7264522776369418
0.069,1.7150152973928428,1.0,3054.416074413016,0.5402377166342304,1.292494810982199,0.9828865385949175,0.2850836424904994,0.7271900049377796
0.0695,1.714212798035022,1.0,3058.213513775996,0.5428166037920555,1.2920997722742749,0.9830276177176736,0.28504993751747093,0.7279264127465459
0.07,1.713410298677201,1.0,3061.993564999624,0.5453810331377719,1.2917049030359502,0.983165938860383,0.2850162325444424,0.7286615100280194
0.07050000000000001,1.7126077993193802,1.0,3065.7557149298214,0.5479310290805022,1.2913102073546567,0.9833015705533998,0.28498252757141396,0.7293952904687082
0.07100000000000001,1.7118052999615596,1.0,3069.5010952044126,0.550466730187458,1.29091567521126,0.9834345852557229,0.2849488225983855,0.7301277739680379
