Time [s],Phi [rad],STIM [ ],Fsee [N],Gamma [ ],Lcerel [ ],q [ ],Lmtc [m],fisomrel [ ]
0.0,1.8,1.0,17.972734883695367,7.071193840174202e-05,1.3793391214894872,0.005001312220465401,0.288653,0.5411410424348981
0.0005,1.79999375,1.0,18.302168366089724,0.005679524609160535,1.3792995646350075,0.01310991965045755,0.2886527375,0.541236735547493
0.001,1.799975,1.0,21.688888641145883,0.011256876275462764,1.378931106714977,0.035925634443159535,0.28865195,0.542127603200774
0.0015,1.79994375,1.0,31.23605714386679,0.016802943409579565,1.3780320101677053,0.07103526511577798,0.2886506375,0.5442978293640434
0.002,1.7999,1.0,53.94132093015708,0.02231790149204293,1.3763448848236806,0.11523103181054187,0.2886488,0.5483562744485033
0.0025,1.79984375,1.0,97.72177979498642,0.02780192501961639,1.3739061626753224,0.16513282341495666,0.28864643749999996,0.5541906298259418
0.003,1.7997750000000001,1.0,161.74238829667632,0.03325518751245728,1.3711850252681246,0.2178559487523518,0.28864354999999997,0.5606558578338703
0.0035,1.79969375,1.0,238.56929201496658,0.038677861514154095,1.3685574696903755,0.2711852217943287,0.2886401375,0.5668539270900126
0.004,1.7996,1.0,322.4092664999205,0.04407011860238451,1.366131147569536,0.3234699357024588,0.2886362,0.5725382103935419
0.0045000000000000005,1.7994937500000001,1.0,410.24367071584385,0.04943212939413661,1.36389991924643,0.37356049836345345,0.2886317375,0.5777322983815105
0.005,1.799375,1.0,500.4092450222541,0.05476406353711504,1.3618371934728548,0.42073954582687123,0.28862675,0.5825058846291067
0.0055,1.79924375,1.0,591.794888843049,0.06006608975390044,1.3599192184313575,0.4646292814966715,0.2886212375,0.5869201409558698
0.006,1.7991000000000001,1.0,683.5237181601099,0.06533837579306212,1.3581281421654758,0.5050986324726865,0.2886152,0.5910211536642371
0.006500000000000001,1.79894375,1.0,774.8818446101712,0.07058108848111964,1.3564501784625005,0.5421835512243994,0.2886086375,0.5948446118432766
0.007,1.798775,1.0,865.2696491013612,0.07579439363397296,1.3548745073818218,0.5760256684880637,0.28860155,0.5984186352375935
0.0075,1.79859375,1.0,954.2151746321994,0.0809784563991232,1.353391833262721,0.606827186347919,0.2885939375,0.6017672582372868
0.008,1.7984,1.0,1041.3121687427988,0.08613344059178378,1.351994608041746,0.6348203189426296,0.2885858,0.604910063487046
0.0085,1.79819375,1.0,1126.2500860855998,0.09125950937649198,1.3506759959352868,0.6602462580545997,0.2885771375,0.6078646233252384
0.009000000000000001,1.797975,1.0,1208.7917642574719,0.09635682501530438,1.3494298548667045,0.68334227151272,0.28856795,0.6106466088260007
0.0095,1.79774375,1.0,1288.7533673306818,0.10142554867939088,1.3482507302366675,0.704334034048693,0.2885582375,0.613269862530701
0.01,1.7975,1.0,1366.010662287203,0.10646584092156636,1.3471335442460202,0.7234313353474267,0.288548,0.6157471379438659
0.0105,1.79724375,1.0,1440.472824789162,0.11147786097813693,1.3460737684307218,0.7408263779109171,0.2885372375,0.6180897538397931
0.011,1.796975,1.0,1512.0990545129637,0.11646176747605873,1.3450670654216417,0.7566932706641933,0.28852595000000003,0.6203084195194403
0.0115,1.79669375,1.0,1580.878626936915,0.1214177186737925,1.3441094332704016,0.7711886783809848,0.2885141375,0.6224129398415914
0.012,1.7964,1.0,1646.7950495684163,0.1263458706126513,1.343197527310383,0.7844530235376245,0.28850180000000003,0.6244115345919605
0.0125,1.79609375,1.0,1709.872931727334,0.13124637931033256,1.3423280069236898,0.7966115000795984,0.2884889375,0.6263122948841013
0.013000000000000001,1.7957750000000001,1.0,1770.158615413891,0.1361193996990789,1.3414977122152978,0.8077755710961556,0.28847555,0.6281228078817528
0.0135,1.79544375,1.0,1827.7248943459715,0.14096508736057475,1.340703559102757,0.8180443324178714,0.2884616375,0.629850398006104
0.014,1.7951000000000001,1.0,1882.6107182192563,0.14578359437576058,1.3399431604667302,0.8275060744733722,0.2884472,0.6315007897062848
0.0145,1.79474375,1.0,1934.8786030942376,0.1505750728255768,1.3392141291878807,0.8362392350196205,0.2884322375,0.6330796382630988
0.015,1.794375,1.0,1984.610587212265,0.1553396746216461,1.338514099701953,0.844313542935258,0.28841675,0.6345924882110214
0.0155,1.79399375,1.0,2031.891104192215,0.16007755056170234,1.3378408871977183,0.8517910887594434,0.2884007375,0.6360444353873042
0.016,1.7936,1.0,2076.817870115054,0.16478885208630117,1.3371923460452422,0.858727180512214,0.2883842,0.637440439312837
0.0165,1.7931937500000001,1.0,2119.455076989237,0.16947372685417583,1.3365668349519901,0.8651712825228903,0.2883671375,0.6387843291147954
0.017,1.792775,1.0,2159.8790351432003,0.1741323225240596,1.3359627126254272,0.8711675553041949,0.28834955,0.6400798970834332
0.0175,1.7923437500000001,1.0,2198.1771595990967,0.17876478675468574,1.335378337773019,0.8767554824979746,0.2883314375,0.6413309009968327
0.018000000000000002,1.7919,1.0,2234.4339581432905,0.18337126586219624,1.334812200286167,0.881970455097236,0.2883128,0.6425407861592333
0.0185,1.79144375,1.0,2268.7479544187067,0.18795190763442138,1.3342627386217414,0.8868442024139092,0.2882936375,0.6437130789830785
0.019,1.790975,1.0,2301.193394942933,0.19250685634503037,1.3337287130352153,0.8914053063477574,0.28827395,0.6448505934179174
0.0195,1.79049375,1.0,2331.8396516854023,0.19703625496443936,1.3332089968145264,0.8956795092568466,0.2882537375,0.6459558815110233
0.02,1.79,1.0,2360.7618690888335,0.20154024646306457,1.3327024632476123,0.8996900094228609,0.288233,0.6470314762403417
0.0205,1.78949375,1.0,2388.040479659959,0.20601897381132223,1.3322079856224105,0.90345774672417,0.2882117375,0.6480798925022331
0.021,1.788975,1.0,2413.747077038439,0.2104725780416855,1.3317245693657436,0.9070016809797834,0.28818995000000003,0.649103348466556
0.021500000000000002,1.78844375,1.0,2437.968894224613,0.21490120290330858,1.3312511092092232,0.9103389592529406,0.2881676375,0.6501042814019748
0.022,1.7879,1.0,2460.768467975764,0.21930498767035192,1.330786774474112,0.9134851877950265,0.2881448,0.6510845339062914
0.0225,1.78734375,1.0,2482.2033420418315,0.2236840703395675,1.330330811800214,0.9164545569619416,0.28812143749999997,0.6520457741562871
0.023,1.786775,1.0,2502.333783158239,0.22803858890770712,1.3298824678273327,0.9192599757626356,0.28809755,0.6529896601407807
0.0235,1.78619375,1.0,2521.222553205952,0.23236868137152264,1.329440989195272,0.921913205291997,0.28807313749999996,0.6539178400447724
0.024,1.7856,1.0,2538.930957473173,0.23667448504250532,1.329005657758593,0.9244249827425105,0.2880482,0.6548318787080218
0.0245,1.78499375,1.0,2555.5147648475704,0.24095613598784135,1.3285758264355751,0.9268051310563801,0.2880227375,0.6557331832977641
0.025,1.784375,1.0,2571.0472075670923,0.24521377292552818,1.328150701023569,0.9290626141665987,0.28799675,0.6566234611535087
0.025500000000000002,1.78374375,1.0,2585.571119555589,0.24944752855652125,1.3277297878073429,0.931205693637491,0.2879702375,0.6575037824737054
0.026000000000000002,1.7831000000000001,1.0,2599.1305979146587,0.25365753558177595,1.3273125930716656,0.9332419490598199,0.2879432,0.6583752117879536
0.0265,1.78244375,1.0,2611.770897722841,0.2578439267022477,1.326898623101306,0.9351783435503737,0.2879156375,0.6592388080818568
0.027,1.781775,1.0,2623.538332239771,0.262006834618892,1.326487384181033,0.9370212821625197,0.28788755,0.6600956249063348
0.0275,1.7810937500000001,1.0,2634.4801785146124,0.2661463920326642,1.326078382595615,0.9387766640509889,0.2878589375,0.6609467104713893
0.028,1.7804,1.0,2644.638843480758,0.2702627278386473,1.3256711776801124,0.9404499353873127,0.2878298,0.6617929975396959
0.0285,1.77969375,1.0,2654.062431029857,0.2743559774508624,1.3252652831717657,0.9420461203737034,0.2878001375,0.6626355088111959
0.029,1.778975,1.0,2662.7842724558404,0.27842626853484403,1.3248603553114413,0.9435698800487445,0.28776995,0.6634749666674876
0.029500000000000002,1.7782437500000001,1.0,2670.837545961622,0.2824737283129596,1.324456056764049,0.9450255281671464,0.2877392375,0.6643120766234827
0.03,1.7775,1.0,2678.2559228038212,0.2864984840075763,1.3240520501944988,0.9464170608609171,0.287708,0.6651475407038968
0.0305,1.77674375,1.0,2685.073521626046,0.2905006628410616,1.3236479982677,0.9477481840585096,0.2876762375,0.6659820574531595
0.031,1.775975,1.0,2691.324865315208,0.29448039203578263,1.3232435636485627,0.9490223382128452,0.28764395,0.6668163219380665
0.0315,1.7751937500000001,1.0,2697.0391771166337,0.29843779494460987,1.322838460787754,0.9502427258774735,0.2876111375,0.6676509191205162
0.032,1.7744,1.0,2702.243894277558,0.3023729959020554,1.3224324232254454,0.9514123288828008,0.2875778,0.6684863917505334
0.0325,1.77359375,1.0,2706.981987144173,0.3062861315116605,1.3220250451509232,0.9525339107326466,0.2875439375,0.6693235659934498
0.033,1.772775,1.0,2711.273564756996,0.31017732209641735,1.321616131869088,0.9536100672641022,0.28750955,0.6701628307447877
0.0335,1.7719437500000002,1.0,2715.138919751761,0.3140466879793181,1.3212054886848403,0.954643220148262,0.2874746375,0.6710045728275922
0.034,1.7711000000000001,1.0,2718.5985110379715,0.3178943494833551,1.320792920903081,0.9556356306496089,0.2874392,0.6718491769721606
0.0345,1.7702437500000001,1.0,2721.672947318542,0.32172042693152036,1.3203782338287107,0.9565894121436601,0.2874032375,0.6726970257933547
0.035,1.7693750000000001,1.0,2724.38297144916,0.32552504064680615,1.3199612327666297,0.9575065415179884,0.28736675,0.673548499765493
0.035500000000000004,1.76849375,1.0,2726.7494456386703,0.3293083109522047,1.319541723021739,0.9583888695678994,0.2873297375,0.6744039771948286
0.036000000000000004,1.7676,1.0,2728.7933374896706,0.3330703581707082,1.3191195098989392,0.9592381304858744,0.2872922,0.6752638341896072
0.0365,1.76669375,1.0,2730.535706879347,0.33681130262530873,1.318694398703131,0.960055950533144,0.2872541375,0.6761284446277098
0.037,1.765775,1.0,2731.9976936811713,0.34053126463899863,1.3182661947392147,0.9608438559722907,0.28721555,0.6769981801218758
0.0375,1.76484375,1.0,2733.1865328248723,0.3442303541404845,1.317834830240093,0.9616032905303641,0.2871764375,0.6778731526985051
0.038,1.7639,1.0,2734.131277857325,0.34790870062818685,1.31740003972207,0.9623355962812649,0.28713679999999997,0.6787538736748355
0.0385,1.76294375,1.0,2734.846356612297,0.3515664197908408,1.3169616910195185,0.963042045427231,0.28709663750000003,0.679640581715712
0.039,1.761975,1.0,2735.3429277776236,0.35520362453946724,1.3165196819939635,0.9637238377651186,0.28705595,0.6805334531582915
0.0395,1.7609937500000001,1.0,2735.6321812519323,0.358820427785087,1.31607391050693,0.9643821034961824,0.2870147375,0.6814326629364071
0.04,1.76,1.0,2735.725333764806,0.3624169424387211,1.3156242744199427,0.9650179080037141,0.286973,0.6823383845563926
0.0405,1.7589937500000001,1.0,2735.6336247296954,0.3659932814113903,1.3151706715945262,0.9656322562538675,0.2869307375,0.6832507900722429
0.041,1.757975,1.0,2735.3683123264873,0.3695495576141156,1.3147129998922058,0.9662260968530488,0.28688795,0.6841700500601036
0.0415,1.75694375,1.0,2734.940669817012,0.3730858839579179,1.314251157174506,0.966800325791985,0.2868446375,0.6850963335921045
0.042,1.7559,1.0,2734.3619820906024,0.37660237335381813,1.3137850413029517,0.9673557899036636,0.28680079999999997,0.6860298082095182
0.0425,1.75484375,1.0,2733.6435424419747,0.3800991387128371,1.313314550139068,0.9678932900597355,0.2867564375,0.6869706398952599
0.043000000000000003,1.753775,1.0,2732.783532392566,0.3835762916731735,1.3128397007028536,0.96841359361694,0.28671155,0.6879187553065975
0.043500000000000004,1.75269375,1.0,2731.8198090448313,0.38703394150344334,1.3123601496400403,0.9689173978648763,0.28666613750000003,0.6888747988420014
0.044,1.7516,1.0,2730.7500942006773,0.390472196865985,1.3118759181531812,0.9694053922697815,0.2866202,0.689838685191678
0.0445,1.7504975476258582,1.0,2729.7425414267445,0.3938911659749775,1.311387193458044,0.9698782432222078,0.286573897000286,0.6908099992038349
0.045,1.7493947913749546,1.0,2729.1937578581965,0.39729095704459955,1.3108941627703965,0.9703365826791315,0.2865275812377481,0.6917883276635657
0.0455,1.748292035124051,1.0,2729.0970813389445,0.4006716777473493,1.3103970226284871,0.9707810109109516,0.28648126547521013,0.6927732408908497
0.046,1.7471892788731473,1.0,2729.4087451323953,0.40403343591311325,1.309896170642122,0.971212112809056,0.2864349497126722,0.6937639139711379
0.0465,1.7460865226222435,1.0,2730.095024591244,0.4073763375527893,1.30939191395695,0.9716304370025981,0.28638863395013425,0.6947597052871658
0.047,1.74498376637134,1.0,2731.1273191785563,0.4107004878313204,1.308884513746521,0.9720365014539855,0.28634231818759626,0.6957600674986456
0.0475,1.7438810101204363,1.0,2732.4770761480627,0.4140059919136499,1.3083742311843845,0.9724307987054782,0.2862960024250583,0.6967644564459179
0.048,1.7427782538695327,1.0,2734.118754149507,0.4172929537960497,1.3078613003703408,0.9728137953139329,0.2862496866625204,0.6977723843567692
0.0485,1.741675497618629,1.0,2736.0237973101507,0.4205614791997566,1.307345982940865,0.9731859375423232,0.28620337089998243,0.6987833124046989
0.049,1.7405727413677254,1.0,2738.168726847353,0.4238116721555158,1.3068284944627544,0.9735476470320644,0.2861570551374445,0.699796795235075
0.0495,1.7394699851168218,1.0,2740.5362675813944,0.4270436341988489,1.306308994194534,0.9738993214461875,0.2861107393749065,0.7008125002408575
0.05,1.738367228865918,1.0,2743.1091423897756,0.4302574668652775,1.3057876413947287,0.9742413399223978,0.28606442361236856,0.7018300968439057
0.0505,1.7372644726150144,1.0,2745.8700653845267,0.43345327169032327,1.3052645953218627,0.9745740641068097,0.2860181078498306,0.7028492565146027
0.051000000000000004,1.7361617163641108,1.0,2748.8017356523137,0.43663115020950793,1.304740015234461,0.9748978391211734,0.2859717920872926,0.7038696527898611
0.051500000000000004,1.7350589601132071,1.0,2751.89212479966,0.4397911999257991,1.3042140124735961,0.9752129909295366,0.2859254763247547,0.7048910542561055
0.052000000000000005,1.7339562038623035,1.0,2755.1231620642816,0.442933524212383,1.3036867529255731,0.9755198350192851,0.28587916056221674,0.7059131253109754
0.0525,1.7328534476114,1.0,2758.476311664518,0.44605822756682856,1.3031584063962305,0.9758186732267696,0.2858328447996788,0.7069355249722511
0.053,1.7317506913604963,1.0,2761.943462404708,0.4491654063769315,1.302629048160239,0.9761097873601858,0.28578652903714086,0.7079580969694763
0.0535,1.7306479351095927,1.0,2765.5164893258643,0.4522551570304875,1.302098753492269,0.9763934469699563,0.28574021327460286,0.7089806860281164
0.054,1.7295451788586889,1.0,2769.1872520803645,0.4553275759152924,1.3015675976669916,0.9766699099882706,0.2856938975120649,0.7100031378742331
0.0545,1.7284424226077852,1.0,2772.947593431572,0.4583827594191418,1.3010356559590772,0.976939423330062,0.285647581749527,0.7110252992388013
0.055,1.7273396663568816,1.0,2776.7893378795525,0.46142080392983154,1.300503003643197,0.9772022234580522,0.28560126598698904,0.7120470178616605
0.0555,1.726236910105978,1.0,2780.7042904122545,0.46444180583515726,1.2999697159940213,0.9774585369142921,0.2855549502244511,0.7130681424951091
0.056,1.7251341538550744,1.0,2784.6842353824536,0.4674458615229147,1.299435868286221,0.977708580820449,0.2855086344619131,0.714088522907133
0.0565,1.7240313976041708,1.0,2788.7209355102586,0.47043306738089957,1.2989015357944669,0.9779525633489166,0.28546231869937516,0.7151080098842764
0.057,1.7229286413532672,1.0,2792.812181119805,0.47340350923165075,1.2983667394271092,0.9781906801048526,0.2854160029368372,0.7161265586850623
0.0575,1.7218258851023633,1.0,2796.9472167360177,0.47635729282165556,1.2978315767802344,0.9784231249010226,0.2853696871742992,0.7171439791855847
0.058,1.7207231288514597,1.0,2801.1195719959846,0.47929451506736437,1.2972961067221842,0.9786500808058803,0.28532337141176134,0.7181601560198714
0.0585,1.7196203726005561,1.0,2805.3263200969036,0.48221526600651576,1.2967603561810668,0.9788717212354925,0.28527705564922334,0.7191750350742551
0.059000000000000004,1.7185176163496525,1.0,2809.5645257840215,0.48511963567684835,1.2962243520849908,0.9790882127722987,0.2852307398866854,0.7201885626014906
0.059500000000000004,1.7174148600987489,1.0,2813.831245190349,0.4880077141161009,1.2956881213620641,0.979299715488898,0.28518442412414746,0.7212006852212157
0.06,1.7163121038478453,1.0,2818.123525693646,0.49087959136201187,1.2951516909403955,0.9795063832540564,0.28513810836160947,0.7222113499203612
0.0605,1.7152093475969417,1.0,2822.4384057894285,0.49373535745232006,1.2946150877480933,0.9797083640220479,0.2850917925990716,0.7232205040535181
0.061,1.714106591346038,1.0,2826.772914979108,0.49657510242476405,1.2940783387132655,0.979905800106356,0.2850454768365336,0.7242280953432586
0.0615,1.7130038350951342,1.0,2831.1240736756804,0.49939891631708255,1.2935414707640207,0.9800988284386946,0.28499916107399564,0.7252340718804069
0.062,1.7119010788442306,1.0,2835.488893124027,0.5022068891670142,1.2930045108284671,0.9802875808142398,0.2849528453114577,0.7262383821242688
0.0625,1.710798322593327,1.0,2839.864375338222,0.5049991110122976,1.2924674858347132,0.9804721841239096,0.2849065295489197,0.7272409749028121
0.063,1.7096955663424234,1.0,2844.247513054917,0.5077756718906713,1.2919304227108672,0.9806527605744637,0.28486021378638177,0.728241799412801
0.0635,1.7085928100915198,1.0,2848.6388493187756,0.510536642172949,1.2913933167132872,0.9808294248484194,0.2848138980238438,0.7292408640779016
0.064,1.7074900538406161,1.0,2853.034144401587,0.5132821275874185,1.2908562056350323,0.9810022921825711,0.2847675822613059,0.7302380983532901
0.0645,1.7063872975897125,1.0,2857.430261865443,0.5160122254192515,1.2903191173513682,0.981171472540606,0.28472126649876794,0.731233450575008
0.065,1.7052845413388087,1.0,2861.8264514976318,0.5187270183316935,1.2897820584693411,0.9813370698628837,0.28467495073622995,0.7322269087668092
0.0655,1.704181785087905,1.0,2866.2219608030064,0.52142658898799,1.2892450355959977,0.9814991844079584,0.284628634973692,0.733218461042953
0.066,1.7030790288370015,1.0,2870.6160350085415,0.5241110200513863,1.2887080553383843,0.9816579129097963,0.28458231921115407,0.7342080956081902
0.0665,1.7019762725860978,1.0,2875.007917069088,0.5267803941851281,1.2881711243035476,0.9818133487272005,0.2845360034486161,0.7351958007577465
0.067,1.7008735163351942,1.0,2879.396847674305,0.5294347940524607,1.2876342490985342,0.9819655819858778,0.2844896876860782,0.7361815648773036
0.0675,1.6997707600842906,1.0,2883.782065256285,0.5320743023166297,1.2870974363303902,0.982114699713564,0.2844433719235402,0.7371653764429769
0.068,1.698668003833387,1.0,2888.1628059981863,0.5346990016408804,1.2865606926061623,0.9822607859685893,0.28439705616100225,0.73814722402129
0.0685,1.6975652475824834,1.0,2892.5383038437885,0.5373089746884584,1.286024024532897,0.9824039219622479,0.2843507403984643,0.7391270962691476
0.069,1.6964624913315796,1.0,2896.907790508099,0.5399043041226093,1.2854874387176407,0.9825441861753097,0.2843044246359263,0.7401049819338053
0.0695,1.695359735080676,1.0,2901.2704954892492,0.5424850726065782,1.28495094176744,0.9826816544689946,0.28425810887338837,0.7410808698528348
0.07,1.6942569788297723,1.0,2905.6256460804934,0.5450513628036109,1.2844145402893414,0.9828164001907079,0.28421179311085043,0.7420547489540898
0.07050000000000001,1.6931542225788687,1.0,2909.9724673841124,0.5476032573769527,1.2838782408903913,0.9829484942748163,0.2841654773483125,0.7430266082556665
0.07100000000000001,1.692051466327965,1.0,2914.310182325682,0.5501408389898492,1.283342050177636,0.9830780053387327,0.28411916158577455,0.7439964368658609
0.07150000000000001,1.6909487100770615,1.0,2918.6380116695427,0.5526641903055458,1.2828059747581224,0.9832049997745537,0.28407284582323655,0.7449642239831258
0.07200000000000001,1.6898459538261579,1.0,2922.9575878731534,0.5551733355192684,1.282270000036533,0.9833295374548315,0.2840265300606986,0.7459299970643356
