Time [s],Phi [rad],STIM [ ],Fsee [N],Gamma [ ],Lcerel [ ],q [ ],Lmtc [m],fisomrel [ ]
0.0,1.8,1.0,17.9676134621792,1.0462452187165842e-05,1.3793396952118229,0.005000029163395175,0.288653,0.5411396544534481
0.0005,1.79999375,1.0,18.27705904026592,0.005619613074898899,1.3793023528110389,0.012941797506709405,0.2886527375,0.5412299909184
0.001,1.799975,1.0,21.618998030927074,0.011197300797537488,1.378938239150491,0.03561098514520778,0.28865195,0.5421103664206802
0.0015,1.79994375,1.0,31.070489450779437,0.016743702102956396,1.378046096940714,0.07060500178315138,0.2886506375,0.5442638666705749
0.002,1.7999,1.0,53.58484090038119,0.02225899248235877,1.3763679725468319,0.11472174092754275,0.2886488,0.5483008585490665
0.0025,1.79984375,1.0,97.12287347035493,0.027743346442860983,1.373934977603524,0.16457892199819152,0.28864643749999996,0.5541219149383039
0.003,1.7997750000000001,1.0,160.96333394535807,0.03319693751520872,1.3712141503474367,0.2172846106082784,0.28864354999999997,0.5605869087430826
0.0035,1.79969375,1.0,237.68919005942993,0.038619938253369436,1.3685845537764616,0.2706170226027777,0.2886401375,0.5667902637672407
0.004,1.7996,1.0,321.4730338860372,0.04401252024531436,1.36615592652602,0.3229198046366415,0.2886362,0.5724803490748467
0.0045000000000000005,1.7994937500000001,1.0,409.2742771204085,0.04937485411820305,1.3639226609693211,0.3730383077429157,0.2886317375,0.5776795179623998
0.005,1.799375,1.0,499.4201854571217,0.05470710952947227,1.3618582003704442,0.4202510167077302,0.28862675,0.5824574069664012
0.0055,1.79924375,1.0,590.7971843138216,0.06000945521430151,1.3599387028241685,0.4641769912259352,0.2886212375,0.5868754152080833
0.006,1.7991000000000001,1.0,682.5249015501151,0.06528205892877367,1.35814629126501,0.5046829892177291,0.2886152,0.5909797004244854
0.006500000000000001,1.79894375,1.0,773.8883546749405,0.07052508750512695,1.3564671324702842,0.5418035256316827,0.2886086375,0.5948060697334595
0.007,1.798775,1.0,864.2925781396748,0.07573870683682452,1.3548902856888827,0.5756793048875132,0.28860155,0.5983829245014771
0.0075,1.79859375,1.0,953.2490827132009,0.08092308188635078,1.3534066889461067,0.6065122202345841,0.2885939375,0.601733776173947
0.008,1.7984,1.0,1040.3634415513038,0.08607837666828377,1.3520085729217508,0.6345341605978604,0.2885858,0.6048787136147719
0.0085,1.79819375,1.0,1125.3250534780943,0.09120475438904453,1.3506890882430138,0.65998629937974,0.2885771375,0.6078353424339402
0.009000000000000001,1.797975,1.0,1207.8846739965243,0.09630237694611966,1.3494422469303058,0.6831060860943988,0.28856795,0.6106189925392194
0.0095,1.79774375,1.0,1287.8788514436583,0.1013714061511839,1.3482623005166736,0.7041191878114904,0.2885582375,0.6132441646646496
0.01,1.7975,1.0,1365.1721509168663,0.10641200227061372,1.3471443197093098,0.7232356655616315,0.288548,0.6157232821860985
0.0105,1.79724375,1.0,1439.6651316263012,0.11142432430344357,1.346083875893285,0.7406479671248282,0.2885372375,0.6180674453019177
0.011,1.796975,1.0,1511.312875559987,0.11640853086648516,1.3450766677185702,0.7565304065293573,0.28852595000000003,0.6202872876155853
0.0115,1.79669375,1.0,1580.1161007952867,0.12136478051212737,1.3441185417361696,0.7710397562732308,0.2885141375,0.6223929503615182
0.012,1.7964,1.0,1646.070751610247,0.12629322974710577,1.343206004123792,0.7843165463966238,0.28850180000000003,0.6243929806549094
0.0125,1.79609375,1.0,1709.1838728486898,0.13119403387193632,1.3423359210969361,0.7964862210785789,0.2884889375,0.6262950163479348
0.013000000000000001,1.7957750000000001,1.0,1769.4987316919878,0.13606734816880284,1.3415051610644901,0.8076603939392388,0.28847555,0.6281065847140199
0.0135,1.79544375,1.0,1827.0775923175393,0.1409133268446679,1.340710749905736,0.8179383226208496,0.2884616375,0.6298347732738234
0.014,1.7951000000000001,1.0,1881.99038545141,0.1457321242955899,1.3399499504330061,0.827408275612689,0.2884472,0.6314860688794537
0.0145,1.79474375,1.0,1934.2896571341719,0.1505238918848948,1.3392204878978407,0.8361488362255808,0.2884322375,0.6330658819845375
0.015,1.794375,1.0,1984.0489052955554,0.1552887809759085,1.3385200875517789,0.8442298535236754,0.28841675,0.6345795609819387
0.0155,1.79399375,1.0,2031.350803867553,0.16002694213635266,1.3378465796744723,0.8517134985882069,0.2884007375,0.6360321702878203
0.016,1.7936,1.0,2076.2903232933577,0.1647385265331134,1.3371978436911591,0.8586551533892461,0.2883842,0.6374286167411755
0.0165,1.7931937500000001,1.0,2118.9555389831094,0.16942368393960072,1.3365719880618143,0.8651042664877391,0.2883671375,0.6387732680233352
0.017,1.792775,1.0,2159.41241540018,0.1740825611502876,1.335967480877781,0.8711050882908762,0.28834955,0.6400696804612176
0.0175,1.7923437500000001,1.0,2197.737595691033,0.17871530495964721,1.3353827902304027,0.876697181033491,0.2883314375,0.6413213776060895
0.018000000000000002,1.7919,1.0,2234.0175108706553,0.18332206216215263,1.334816384211022,0.8819159701378622,0.2883128,0.6425318522444432
0.0185,1.79144375,1.0,2268.339933561639,0.18790297866169822,1.3342668067641195,0.8867932463648899,0.2882936375,0.6437044065552259
0.019,1.790975,1.0,2300.795756642685,0.19245820062024505,1.3337326496035047,0.8913575797675981,0.28827395,0.6448422148871951
0.0195,1.79049375,1.0,2331.465771204746,0.19698787256138642,1.3332126737688788,0.8956347164322893,0.2882537375,0.6459480677289375
0.02,1.79,1.0,2360.415825513721,0.20149213643041525,1.3327058455154284,0.8996479047111156,0.288233,0.6470242996169131
0.0205,1.78949375,1.0,2387.71680767323,0.2059711341726244,1.33221113109834,0.9034181286435331,0.2882117375,0.6480732282345714
0.021,1.788975,1.0,2413.44422674794,0.21042500773330672,1.3317274967728006,0.906964359300841,0.28818995000000003,0.6490971552450625
0.021500000000000002,1.78844375,1.0,2437.6713791488787,0.21485389779906722,1.3312539707209203,0.9103037878447816,0.2881676375,0.6500982362296673
0.022,1.7879,1.0,2460.4743812015145,0.21925794614001407,1.3307895898764792,0.9134520083909574,0.2881448,0.6510785944813479
0.0225,1.78734375,1.0,2481.9215191793783,0.2236372929395524,1.3303334981171455,0.9164232064745033,0.28812143749999997,0.6520401148650823
0.023,1.786775,1.0,2502.0682382382115,0.22799207511764932,1.3298849887776008,0.9192303140424737,0.28809755,0.6529843564387827
0.0235,1.78619375,1.0,2520.9723910122666,0.232322429594272,1.3294433551925267,0.9218851126974476,0.28807313749999996,0.6539128690034781
0.024,1.7856,1.0,2538.694035902878,0.2366284932893876,1.329007890696605,0.924398351914349,0.2880482,0.6548271934291162
0.0245,1.78499375,1.0,2555.2952464386685,0.2409104031229633,1.3285778886245172,0.9267798536849361,0.2880227375,0.6557288619485152
0.025,1.784375,1.0,2570.8272137209296,0.24516829290437916,1.3281527614265791,0.929038624282595,0.28799675,0.6566191491330059
0.025500000000000002,1.78374375,1.0,2585.355927748352,0.24940230178901168,1.3277317975659793,0.9311828974477707,0.2879702375,0.6574995818372832
0.026000000000000002,1.7831000000000001,1.0,2598.9284837372265,0.25361256321862646,1.3273144757605078,0.9332202562233857,0.2879432,0.6583712817526275
0.0265,1.78244375,1.0,2611.585789167618,0.2577992085731181,1.3269003432026107,0.9351576768536461,0.2879156375,0.6592352219834672
0.027,1.781775,1.0,2623.3697617407934,0.26196236923238136,1.3264889470847345,0.9370015762705483,0.28788755,0.6600923706361652
0.0275,1.7810937500000001,1.0,2634.3232429596237,0.26610217657631074,1.3260798345993245,0.9387578643866672,0.2878589375,0.6609436909045827
0.028,1.7804,1.0,2644.489916254916,0.27021876198480094,1.3256725529388276,0.9404319908637253,0.2878298,0.6617901411425592
0.0285,1.77969375,1.0,2653.914229658284,0.27431225683774657,1.325266649295689,0.942028987000415,0.2878001375,0.6626326749233267
0.029,1.778975,1.0,2662.6319930553136,0.27838278738989414,1.3248617567264172,0.9435535134108272,0.28776995,0.6634720631907722
0.029500000000000002,1.7782437500000001,1.0,2670.6932067788243,0.28243048957479255,1.3244573831006412,0.9450098691824182,0.2877392375,0.6643093321157008
0.03,1.7775,1.0,2678.127405674342,0.2864554894905366,1.3240532295033764,0.9464020594016235,0.287708,0.6651451034707654
0.0305,1.77674375,1.0,2684.963309906367,0.29045791257433484,1.3236490083145596,0.9477337994345655,0.2876762375,0.6659799726307467
0.031,1.775975,1.0,2691.2300137646657,0.29443788426339584,1.3232444319141277,0.9490085383730438,0.28764395,0.6668145320041865
0.0315,1.7751937500000001,1.0,2696.956951013083,0.2983955299949282,1.3228392126820174,0.9502294814390781,0.2876111375,0.6676493710295125
0.032,1.7744,1.0,2702.1738620729247,0.30233097520614033,1.322433062998166,0.9513996102429082,0.2875778,0.6684850761658825
0.0325,1.77359375,1.0,2706.9107630402855,0.30624434533424094,1.3220256952425102,0.9525217011232359,0.2875439375,0.6693222308787561
0.033,1.772775,1.0,2711.1905448563093,0.3101357607913412,1.3216168890266118,0.9535983482075943,0.28750955,0.6701612777195283
0.0335,1.7719437500000002,1.0,2715.0422428392417,0.3140053477202318,1.3212063697702077,0.9546319669642052,0.2874746375,0.671002767917872
0.034,1.7711000000000001,1.0,2718.4996081389727,0.3178532360786295,1.3207938217019086,0.9556248092799623,0.2874392,0.6718473340493752
0.0345,1.7702437500000001,1.0,2721.580295682909,0.3216795444271613,1.3203790772143393,0.9565789931449553,0.2874032375,0.6726953025615063
0.035,1.7693750000000001,1.0,2724.302083831177,0.32548439132645435,1.3199619687001238,0.9574964997282931,0.28736675,0.6735469980406281
0.035500000000000004,1.76849375,1.0,2726.682861872315,0.3292678953371358,1.3195423285518866,0.9583791838010087,0.2873297375,0.6744027431876217
0.036000000000000004,1.7676,1.0,2728.7406181413794,0.33303017501983273,1.319119989162252,0.9592287832503907,0.2872922,0.6752628587917224
0.0365,1.76669375,1.0,2730.4934287614947,0.3367713489351722,1.3186947829238445,0.9600469277743231,0.2872541375,0.6761276637025627
0.037,1.765775,1.0,2731.9594470076195,0.3404915356437814,1.318266542229288,0.9608351468347284,0.28721555,0.6769974748004235
0.0375,1.76484375,1.0,2733.15689329376,0.3441908537062874,1.3178350994712071,0.9615948769408033,0.2871764375,0.6778726069646934
0.038,1.7639,1.0,2734.104045782299,0.34786942168331725,1.3174002870422263,0.9623274683253261,0.28713679999999997,0.6787533730405368
0.0385,1.76294375,1.0,2734.8155156591656,0.35152735364726945,1.3169619710787726,0.9630341933507083,0.28709663750000003,0.6796400155926638
0.039,1.761975,1.0,2735.305546688395,0.35516476658162177,1.3165200214120052,0.9637162506473904,0.28705595,0.680532768001734
0.0395,1.7609937500000001,1.0,2735.592520552802,0.35878178295184754,1.316074270604728,0.9643747669433147,0.2870147375,0.681431937058958
0.04,1.76,1.0,2735.686542433589,0.3623785141858779,1.3156246266183238,0.9650108090169556,0.286973,0.6823376756123842
0.0405,1.7589937500000001,1.0,2735.597739358954,0.365955071711644,1.3151709974141763,0.965625383149143,0.2869307375,0.6832501351688561
0.041,1.757975,1.0,2735.3362567225818,0.3695115669570769,1.314713290953669,0.966219439185933,0.28688795,0.6841694658708907
0.0415,1.75694375,1.0,2734.9122549902754,0.3730481113501076,1.314251415198185,0.9667938742877673,0.2868446375,0.6850958164730164
0.042,1.7559,1.0,2734.3359065946106,0.37656481631866734,1.3137852781091077,0.9673495363921517,0.28680079999999997,0.6860293343175698
0.0425,1.75484375,1.0,2733.6173930169393,0.3800617932906871,1.3133147876478208,0.9678872274144585,0.2867564375,0.686970165309952
0.043000000000000003,1.753775,1.0,2732.7669020570847,0.383539153694098,1.3128398517757072,0.9684077062091372,0.28671155,0.6879184538933469
0.043500000000000004,1.75269375,1.0,2731.794625291967,0.3869970089568312,1.3123603784541507,0.9689116913115046,0.28666613750000003,0.6888743430228947
0.044,1.7516,1.0,2730.694305294889,0.3904354695218007,1.311876425139758,0.9693998751280961,0.2866202,0.689837676792235
0.0445,1.75049375,1.0,2729.494312829859,0.39385464401132264,1.3113877346564038,0.969872889228343,0.2865737375,0.6908089244437279
0.045,1.7493750000000001,1.0,2728.2290221439403,0.39725464108565933,1.3108939950802767,0.9703313285655202,0.28652675,0.6917886601499519
0.0455,1.7482442973870862,1.0,2726.8968598421916,0.40063556698895225,1.310395468341553,0.9707758008930609,0.2864792604902576,0.6927763177073595
0.046,1.7471104966677131,1.0,2725.908704019,0.4039975279653429,1.3098924163704089,0.9712068831668604,0.28643164086004397,0.6937713337886133
0.0465,1.74597669594834,1.0,2725.3893834544497,0.4073406302589727,1.3093851010970199,0.9716251234078606,0.2863840212298303,0.694773148020366
0.047,1.7448428952289667,1.0,2725.3099698476262,0.41066498011398306,1.308873784451562,0.9720310424351801,0.2863364015996166,0.6957812030566644
0.0475,1.7437090945095937,1.0,2725.643785975878,0.4139706823800277,1.3083587089159052,0.9724251339092596,0.28628878196940294,0.6967949828945026
0.048,1.7425752937902204,1.0,2726.346560002814,0.4172578434729536,1.3078402778258045,0.9728078790437081,0.2862411623391893,0.6978136586356234
0.0485,1.7414414930708473,1.0,2727.387838190903,0.42052656720024956,1.307318769397895,0.9731797268094274,0.28619354270897557,0.6988366517084295
0.049,1.740307692351474,1.0,2728.7433820259744,0.4237769558535315,1.3067944057432137,0.9735411007464412,0.2861459230787619,0.6998634968261108
0.0495,1.739173891632101,1.0,2730.388985862957,0.42700911172441536,1.306267408972797,0.973892404436628,0.28609830344854825,0.7008937315085761
0.05,1.7380400909127278,1.0,2732.3004634119397,0.43022313710451715,1.3057380011976818,0.9742340226309942,0.28605068381833454,0.7019268961213212
0.0505,1.7369062901933545,1.0,2734.453635318525,0.4334191342854527,1.3052064045289045,0.974566322303611,0.2860030641881209,0.7029625339111567
0.051000000000000004,1.7357724894739814,1.0,2736.828899575606,0.4365972036874619,1.3046727994870138,0.9748896507068225,0.2859554445579072,0.7040002718518683
0.051500000000000004,1.7346386887546081,1.0,2739.403126951754,0.4397574482747882,1.304137398541082,0.9752043417148901,0.2859078249276935,0.7050396773235429
0.052000000000000005,1.733504888035235,1.0,2742.1613331070103,0.4428999670247051,1.3036003401088487,0.975510709055367,0.28586020529747985,0.7060804639215287
0.0525,1.732371087315862,1.0,2745.0895378977725,0.44602485842334594,1.3030617534030944,0.9758090518963378,0.2858125856672662,0.7071223648732208
0.053,1.7312372865964887,1.0,2748.1737472064833,0.4491322209568444,1.3025217676365992,0.9760996562522534,0.28576496603705254,0.7081651151340163
0.0535,1.7301034858771156,1.0,2751.3999487484557,0.45222215311133374,1.3019805120221433,0.9763827956785766,0.2857173464068389,0.7092084513993757
0.054,1.7289696851577423,1.0,2754.7553950543,0.4552947521689332,1.3014381041296694,0.9766587310929501,0.28566972677662517,0.7102521344984394
0.0545,1.7278358844383692,1.0,2758.2331504385343,0.458350110583063,1.3008946087772935,0.9769277085992374,0.2856221071464115,0.7112960280891567
0.055,1.726702083718996,1.0,2761.8099958671046,0.46138833733773243,1.3003502378346683,0.9771899742689344,0.28557448751619785,0.7123397150276091
0.0555,1.7255682829996228,1.0,2765.4794748070667,0.4644095258150996,1.2998050513065837,0.9774457533545841,0.28552686788598414,0.7133830714638287
0.056,1.7244344822802498,1.0,2769.2351177351893,0.4674137693973227,1.2992591091978298,0.9776952617489053,0.2854792482557705,0.7144259743690095
0.0565,1.7233006815608765,1.0,2773.0704410928456,0.4704011614665598,1.2987124715131961,0.9779387064521043,0.2854316286255568,0.715468301538514
0.057,1.7221668808415034,1.0,2776.978946320414,0.47337179540496915,1.2981651982574722,0.9781762860121953,0.2853840089953431,0.7165099315946502
0.0575,1.72103308012213,1.0,2780.9541189723564,0.4763257645947089,1.2976173494354484,0.9784081909400946,0.28533638936512945,0.7175507439892164
0.058,1.719899279402757,1.0,2784.9894279109503,0.4792631624179371,1.2970689850519141,0.978634604101129,0.2852887697349158,0.7185906190058214
0.0585,1.718765478683384,1.0,2789.078324580931,0.482184082256812,1.2965201651116591,0.9788557010844721,0.28524115010470213,0.7196294377619721
0.059000000000000004,1.7176316779640106,1.0,2793.214242363242,0.48508861749349164,1.2959709496194736,0.9790716505519186,0.2851935304744885,0.7206670822109281
0.059500000000000004,1.7164978772446375,1.0,2797.390596009011,0.4879768615101343,1.2954213985801468,0.979282614567308,0.28514591084427476,0.7217034351433356
0.06,1.7153640765252642,1.0,2801.60735923097,0.49084889337524895,1.294871512980672,0.9794887445506708,0.2850982912140611,0.7227384911750299
0.0605,1.7142302758058912,1.0,2805.8538025112293,0.49370482186030407,1.2943213897671375,0.979690193642918,0.28505067158384745,0.7237720648135866
0.061,1.7130964750865179,1.0,2810.1258992833677,0.49654473835168556,1.293771065549837,0.9798871045406402,0.28500305195363373,0.7248040849671985
0.0615,1.7119626743671448,1.0,2814.4214493631757,0.49936872974557167,1.2932205604817688,0.9800796133278139,0.2849554323234201,0.7258345118327723
0.062,1.7108288736477717,1.0,2818.73824592566,0.5021768829381408,1.292669894715933,0.9802678509886827,0.2849078126932064,0.7268633058895558
0.0625,1.7096950729283984,1.0,2823.0740754293392,0.5049692848255711,1.2921190884053282,0.9804519436379467,0.2848601930629927,0.7278904278993624
0.063,1.7085612722090253,1.0,2827.4267175488085,0.507746022304041,1.2915681617029537,0.9806320127389048,0.28481257343277905,0.7289158389067609
0.0635,1.707427471489652,1.0,2831.7939451162774,0.5105071822697286,1.291017134761809,0.9808081753102628,0.2847649538025654,0.7299395002392448
0.064,1.706293670770279,1.0,2836.1735240723788,0.5132528516188122,1.2904660277348925,0.9809805441222772,0.28471733417235173,0.7309613735073746
0.0645,1.7051598700509056,1.0,2840.563213425813,0.5159831172474701,1.2899148607752038,0.9811492278828582,0.284669714542138,0.7319814206048922
0.065,1.7040260693315326,1.0,2844.960765222439,0.5186980660518807,1.289363654035742,0.9813143314142158,0.28462209491192436,0.7329996037088118
0.0655,1.7028922686121595,1.0,2849.3639245222894,0.5213977849282221,1.2888124276695065,0.9814759558205942,0.2845744752817107,0.7340158852794836
0.066,1.7017584678927862,1.0,2853.770429387038,0.5240823607726727,1.288261201829496,0.9816341986476059,0.28452685565149705,0.735030228060633
0.0665,1.700624667173413,1.0,2858.1780108750622,0.5267518804814106,1.2877099966687102,0.9817891540336423,0.28447923602128333,0.736042595079371
0.067,1.6994908664540398,1.0,2862.5892215802746,0.529406396357919,1.287158789482998,0.9819409084906838,0.2844316163910697,0.73705302813348
0.0675,1.6983570657346667,1.0,2866.9976946771076,0.5320460386846217,1.286607636744259,0.9820895544903229,0.284383996760856,0.7380614239791803
0.068,1.6972232650152934,1.0,2871.4028532002944,0.5346708873884747,1.2860565434401259,0.9822351755975833,0.2843363771306423,0.7390677740914776
0.0685,1.6960894642959203,1.0,2875.8041919232933,0.5372810217953917,1.285505513907858,0.9823778524816866,0.28428875750042865,0.7400720711996491
0.069,1.6949556635765473,1.0,2880.201204145441,0.539876521231287,1.284954552484715,0.9825176631034185,0.284241137870215,0.7410743080938642
0.0695,1.693821862857174,1.0,2884.593381698358,0.5424574650220746,1.2844036635079572,0.9826546828249575,0.2841935182400013,0.742074477625168
0.07,1.6926880621378009,1.0,2888.98021495318,0.5450239324936684,1.283852851314844,0.9827889845145308,0.2841458986097876,0.7430725727054628
0.07050000000000001,1.6915542614184276,1.0,2893.3611928271634,0.5475760029719827,1.2833021202426351,0.9829206386461709,0.28409827897957396,0.7440685863074856
0.07100000000000001,1.6904204606990545,1.0,2897.7358027915066,0.5501137557829314,1.2827514746285904,0.9830497133948388,0.2840506593493603,0.7450625114647882
0.07150000000000001,1.6892866599796812,1.0,2902.1035308793985,0.5526372702524285,1.2822009188099697,0.9831762747271522,0.2840030397191466,0.7460543412717121
0.07200000000000001,1.6881528592603081,1.0,2906.4638616945463,0.5551466257063882,1.2816504571240326,0.9833003864879578,0.28395542008893293,0.7470440688833657
0.0725,1.687019058540935,1.0,2910.8162784197125,0.5576419014707243,1.2811000939080388,0.9834221104829552,0.2839078004587193,0.7480316875155988
