Time [s],Phi [rad],STIM [ ],Fsee [N],Gamma [ ],Lcerel [ ],q [ ],Lmtc [m],fisomrel [ ]
0.0,1.8,1.0,17.9673430149444,1.0000047231967858e-05,1.3793397255106878,0.005000026652021995,0.288653,0.5411395811526658
0.0005,1.79999375,1.0,18.27665785665876,0.005619153263669744,1.379302397374589,0.012940514273374105,0.2886527375,0.5412298831182696
0.001,1.799975,1.0,21.618266996083374,0.011196843565485719,1.378938313814507,0.03560857734697503,0.28865195,0.5421101859802876
0.0015,1.79994375,1.0,31.06902876269,0.016743247435614797,1.378046221385276,0.07060170633102275,0.2886506375,0.5442635666336573
0.002,1.7999,1.0,53.581915296980796,0.02225854036534177,1.3763681623431507,0.11471783806275213,0.2886488,0.5483004029797185
0.0025,1.79984375,1.0,97.11809040104414,0.027742896861862733,1.3739352080863858,0.164574675491186,0.28864643749999996,0.554121365285049
0.003,1.7997750000000001,1.0,160.95717946035137,0.033196490456004424,1.3712143807141721,0.2172802289686047,0.28864354999999997,0.560586363364138
0.0035,1.79969375,1.0,237.6822764583719,0.03861949370181402,1.368584766732587,0.27061266391756755,0.2886401375,0.566789763178203
0.004,1.7996,1.0,321.46570626135184,0.0440120781873418,1.3661561206060253,0.3229155837356245,0.2886362,0.5724798958633477
0.0045000000000000005,1.7994937500000001,1.0,409.2667100606786,0.04937441453982548,1.363922838596461,0.3730343006340637,0.2886317375,0.5776791057011932
0.005,1.799375,1.0,499.4124822018116,0.05470667241677967,1.361858364063516,0.42024726747357144,0.28862675,0.5824570292004971
0.0055,1.79924375,1.0,590.789423796901,0.06000902055346952,1.3599388544454791,0.46417351984782745,0.2886212375,0.5868750671571308
0.006,1.7991000000000001,1.0,682.5171427811329,0.06528162670604686,1.3581464322984773,0.5046797989034508,0.2886152,0.5909793782904089
0.006500000000000001,1.79894375,1.0,773.8804048803308,0.07052465770716981,1.3564672681782206,0.541800611188824,0.2886086375,0.5948057612166981
0.007,1.798775,1.0,864.284926810066,0.07573827944960074,1.354890409282163,0.5756766468797755,0.28860155,0.5983826447689377
0.0075,1.79859375,1.0,953.2424406797365,0.0809226568959383,1.353406791107309,0.606509794426802,0.2885939375,0.6017335459159272
0.008,1.7984,1.0,1040.344282585036,0.08607795369096573,1.3520088549995515,0.6345320660781537,0.2885858,0.6048780803632168
0.0085,1.79819375,1.0,1125.314478109954,0.09120433391748907,1.350689237950976,0.6599843306650732,0.2885771375,0.6078350076063894
0.009000000000000001,1.797975,1.0,1207.8996120537035,0.096301959496322,1.3494420428188323,0.6831041067281017,0.28856795,0.6106194474190095
0.0095,1.79774375,1.0,1287.8909746815052,0.10137099097915578,1.3482621400933625,0.7041174050064133,0.2885582375,0.6132445209744615
0.01,1.7975,1.0,1365.1658833203287,0.10641158891768175,1.3471444002648099,0.7232341614301471,0.288548,0.6157231038417905
0.0105,1.79724375,1.0,1439.6593516483128,0.1114239132336739,1.3460839482340765,0.7406465939603623,0.2885372375,0.6180672856336513
0.011,1.796975,1.0,1511.3222702688145,0.11640812267867709,1.3450765529579631,0.7565290670274887,0.28852595000000003,0.6202875401742668
0.0115,1.79669375,1.0,1580.120412090814,0.12136437443303387,1.3441184902310528,0.77103855767233,0.2885141375,0.6223930633963675
0.012,1.7964,1.0,1646.0553354136923,0.12629282509344306,1.343206184567351,0.7843155475739406,0.28850180000000003,0.6243925856974533
0.0125,1.79609375,1.0,1709.1727577514473,0.13119363166588602,1.342336048772257,0.7964852862805857,0.2884889375,0.6262947375988484
0.013000000000000001,1.7957750000000001,1.0,1769.5062190249746,0.13606694894648388,1.3415050765387584,0.8076594528340152,0.28847555,0.6281067688082167
0.0135,1.79544375,1.0,1827.0916888148379,0.14091293033728355,1.3407105932958199,0.8179374279975593,0.2884616375,0.6298351135714618
0.014,1.7951000000000001,1.0,1881.9927570227985,0.1457317292403319,1.3399499244724054,0.8274074955664221,0.2884472,0.6314861251632842
0.0145,1.79474375,1.0,1934.2801739900144,0.15052349814729127,1.3392205902930192,0.8361481596322581,0.2884322375,0.6330656604631875
0.015,1.794375,1.0,1984.0510763894297,0.15528839003032555,1.3385200644050474,0.8442291866531173,0.28841675,0.6345796109540898
0.0155,1.79399375,1.0,2031.3721051199543,0.16002655480888708,1.3378463552351687,0.8517128160764506,0.2884007375,0.636032653872169
0.016,1.7936,1.0,2076.313736436613,0.16473814171237441,1.3371975996844114,0.8586545116528208,0.2883842,0.6374291414766309
0.0165,1.7931937500000001,1.0,2118.9607160074725,0.1694232999701861,1.3365719346538036,0.8651037237275897,0.2883671375,0.6387733826638895
0.017,1.792775,1.0,2159.3972933611362,0.17408217776371718,1.3359676354141474,0.8711046414555712,0.28834955,0.6400693493438345
0.0175,1.7923437500000001,1.0,2197.7243280277758,0.17871492407425996,1.3353829246289441,0.876696760439282,0.2883314375,0.6413210901381887
0.018000000000000002,1.7919,1.0,2234.0167352962017,0.18332168465682405,1.3348163920033569,0.8819155453411953,0.2883128,0.6425318356054033
0.0185,1.79144375,1.0,2268.3482594861166,0.1879026044418845,1.3342667237474362,0.8867928264913738,0.2882936375,0.6437045835304694
0.019,1.790975,1.0,2300.8001537109185,0.19245782835991637,1.3337326060712318,0.8913571958028154,0.28827395,0.644842307541148
0.0195,1.79049375,1.0,2331.454179622641,0.19698750049137778,1.3332127877718347,0.8956343928690904,0.2882537375,0.6459478254634
0.02,1.79,1.0,2360.3968356896657,0.201491765417355,1.3327060311312249,0.8996476176888788,0.288233,0.6470239057682029
0.0205,1.78949375,1.0,2387.7060338199512,0.205970766204896,1.332211235803363,0.9034178422543998,0.2882117375,0.648073006396691
0.021,1.788975,1.0,2413.4445448652164,0.21042464317678589,1.3317274936977235,0.9069640675498997,0.28818995000000003,0.6490971617507233
0.021500000000000002,1.78844375,1.0,2437.6790724986868,0.21485353665580992,1.33125389672378,0.9103034987075317,0.2881676375,0.6500983925552021
0.022,1.7879,1.0,2460.4799261559174,0.21925758696475323,1.3307895367910065,0.91345173949726,0.2881448,0.6510787064719112
0.0225,1.78734375,1.0,2481.9148659254656,0.22363693323829908,1.330333561537366,0.9164229739393281,0.28812143749999997,0.6520399812565028
0.023,1.786775,1.0,2502.0539613700207,0.2279917153609183,1.3298851243188154,0.919230107208972,0.28809755,0.6529840712792081
0.0235,1.78619375,1.0,2520.964792538785,0.23232207262761007,1.3294434270596087,0.9218849059730272,0.28807313749999996,0.6539127180077178
0.024,1.7856,1.0,2538.6979860362435,0.23662814026643017,1.3290078534665406,0.9243981374551213,0.2880482,0.6548272715476382
0.0245,1.78499375,1.0,2555.306037839471,0.24091005350543435,1.3285777872464053,0.9267796394830135,0.2880227375,0.6557290743885715
0.025,1.784375,1.0,2570.843156697695,0.24516794757267837,1.328152612105997,0.9290384134613505,0.28799675,0.6566194616326884
0.025500000000000002,1.78374375,1.0,2585.365115953053,0.24940195769621804,1.32773171175211,0.9311827069132691,0.2879702375,0.6574997611990815
0.026000000000000002,1.7831000000000001,1.0,2598.92131866186,0.2536122171674592,1.3273145425043609,0.9332200978369045,0.2879432,0.6583711424271714
0.0265,1.78244375,1.0,2611.5647679075714,0.2577988611598101,1.3269005385442594,0.9351575453201925,0.2879156375,0.659234814730463
0.027,1.781775,1.0,2623.3488068788492,0.2619620241409969,1.3264891413715345,0.9370014516279449,0.28788755,0.660091966092086
0.0275,1.7810937500000001,1.0,2634.310406473134,0.2661018357613686,1.3260799533673517,0.9387577357432612,0.2878589375,0.6609434439156432
0.028,1.7804,1.0,2644.487320134406,0.2702184256712742,1.3256725769128759,0.9404318555543055,0.2878298,0.6617900913486192
0.0285,1.77969375,1.0,2653.918016363317,0.2743119235210627,1.3252666143892728,0.942028849824272,0.2878001375,0.6626327473333549
0.029,1.778975,1.0,2662.6416147334294,0.2783824589610832,1.3248616681777077,0.9435533758350703,0.28776995,0.6634722466479495
0.029500000000000002,1.7782437500000001,1.0,2670.69782541169,0.2824301616416847,1.3244573406593458,0.9450097431977745,0.2877392375,0.6643094199370703
0.03,1.7775,1.0,2678.120360034577,0.28645515870167404,1.3240532941569418,0.9464019514001282,0.287708,0.6651449698534264
0.0305,1.77674375,1.0,2684.948392942341,0.29045758034534386,1.3236491450242331,0.9477337044722315,0.2876762375,0.6659796904498818
0.031,1.775975,1.0,2691.215313681404,0.29443755387325293,1.3232445664792023,0.9490084474241238,0.28764395,0.6668142545971703
0.0315,1.7751937500000001,1.0,2696.9471690930413,0.2983952033314784,1.3228393021308906,0.95022938950025,0.2876111375,0.6676491868610954
0.032,1.7744,1.0,2702.1702946402474,0.3023306527660974,1.3224330955883388,0.9513995160104807,0.2875778,0.6684850091496212
0.0325,1.77359375,1.0,2706.9112869447367,0.3062440262231871,1.3220256904605883,0.9525216066986365,0.2875439375,0.669322240699558
0.033,1.772775,1.0,2711.1969777812765,0.3101354477488246,1.3216168303566798,0.9535982523928976,0.28750955,0.6701613980590646
0.0335,1.7719437500000002,1.0,2715.054409529534,0.31400504138908714,1.3212062588856548,0.9546318701171715,0.2874746375,0.6710029950659493
0.034,1.7711000000000001,1.0,2718.5007599296123,0.31785292590432995,1.3207938112114073,0.9556247256859531,0.2874392,0.6718473555116709
0.0345,1.7702437500000001,1.0,2721.5709401707313,0.3216792299976918,1.3203791623761223,0.9565789216426522,0.2874032375,0.6726951285560404
0.035,1.7693750000000001,1.0,2724.287994318763,0.3254840753237828,1.3199620968907513,0.9574964348403316,0.28736675,0.6735467364581426
0.035500000000000004,1.76849375,1.0,2726.6684034964464,0.329267579869427,1.319542460041107,0.9583791215691155,0.2873297375,0.6744024752260126
0.036000000000000004,1.7676,1.0,2728.7287435427024,0.33302986162144843,1.3191200971130022,0.9592287211279248,0.2872922,0.6752626390898855
0.0365,1.76669375,1.0,2730.485674734207,0.33677103856667095,1.3186948533922498,0.9600468645274751,0.2872541375,0.67612752047606
0.037,1.765775,1.0,2731.9559320376648,0.34049122869191883,1.3182665741646624,0.9608350824516588,0.28721555,0.6769974099792393
0.0375,1.76484375,1.0,2733.1563158926983,0.3441905499840159,1.3178351047160528,0.9615948125480748,0.2871764375,0.6778725963333411
0.038,1.7639,1.0,2734.1036835251466,0.3478691204297862,1.3174002903322337,0.9623274061110276,0.28713679999999997,0.6787533663807837
0.0385,1.76294375,1.0,2734.8148860244974,0.351527057472782,1.3169619767963494,0.9630341341511136,0.28709663750000003,0.6796400040349186
0.039,1.761975,1.0,2735.306819002046,0.35516447284316455,1.3165200098594356,0.9637161919757643,0.28705595,0.6805327913220114
0.0395,1.7609937500000001,1.0,2735.5936569794803,0.35878149044760105,1.3160742602865492,0.9643747102151015,0.2870147375,0.6814319578581338
0.04,1.76,1.0,2735.6860750918977,0.36237822206425085,1.3156246308614776,0.965010755184402,0.286973,0.6823376670712882
0.0405,1.7589937500000001,1.0,2735.5947707080268,0.36595477947127325,1.315171024368008,0.965625332729084,0.2869307375,0.683250080991137
0.041,1.757975,1.0,2735.3304597297356,0.3695112744468275,1.3147133435899272,0.9662193922855681,0.28688795,0.6841693602246443
0.0415,1.75694375,1.0,2734.903873101314,0.373047818769073,1.314251491311023,0.9667938306285763,0.2868446375,0.6850956639311161
0.042,1.7559,1.0,2734.325753528526,0.37656452421616904,1.3137853703150821,0.9673494953320808,0.28680079999999997,0.6860291497966415
0.0425,1.75484375,1.0,2733.606852406978,0.38006150256627486,1.313314883385892,0.9678871879685054,0.2867564375,0.6869699740079236
0.043000000000000003,1.753775,1.0,2732.757926959794,0.38353886559754985,1.3128399333072398,0.9684076670684486,0.28671155,0.6879182912255157
0.043500000000000004,1.75269375,1.0,2731.7880261422647,0.3869967245608785,1.3123604384127665,0.9689116520251558,0.28666613750000003,0.6888742235796693
0.044,1.7516,1.0,2730.704057186052,0.3904351883724366,1.311876336518218,0.9693998255877494,0.2866202,0.6898378530611455
0.0445,1.75049375,1.0,2729.514432901751,0.3938543651980636,1.3113875517727,0.9698728338061843,0.2865737375,0.6908092876307528
0.045,1.7493750000000001,1.0,2728.226083901479,0.3972543628766653,1.310894021794018,0.9703312904554536,0.28652675,0.6917886071834844
0.0455,1.74824375,1.0,2726.844817275499,0.4006352890915963,1.3103956944097406,0.9707757787776881,0.2864792375,0.6927758701909916
0.046,1.7471,1.0,2725.3815751976204,0.40399725122763136,1.309892470728654,0.9712068490626339,0.2864312,0.6937712263574312
0.0465,1.7459437500000001,1.0,2723.8432041557953,0.4073403556302628,1.3093842890573248,0.9716250267213213,0.28638263750000004,0.6947747502694314
0.047,1.744775,1.0,2722.2268549194882,0.4106647076190012,1.308871175910989,0.9720308174425828,0.28633355,0.6957863414903154
0.0475,1.7435985639056633,1.0,2720.76859382687,0.41397041248273325,1.3083531567065867,0.9724247020487656,0.2862841396840379,0.6968059016233521
0.048,1.7424220342129324,1.0,2719.8243492065762,0.41725757497125476,1.3078304180499387,0.9728071493354601,0.28623472543694317,0.6978330156989796
0.0485,1.7412455045202018,1.0,2719.3524922423626,0.4205262994490397,1.3073033788697317,0.9731786216647754,0.28618531118984847,0.69886681548229
0.049,1.740068974827471,1.0,2719.3175516351616,0.4237766887750631,1.306772361069423,0.9735395524531091,0.28613589694275376,0.6999066278185317
0.0495,1.73889244513474,1.0,2719.6841681917404,0.4270088458083001,1.3062376865524712,0.9738903546452632,0.28608648269565906,0.7009517835937193
0.05,1.7377159154420094,1.0,2720.4286648582292,0.43022286949543453,1.305699571631717,0.9742314143396174,0.2860370684485644,0.7020018236740584
0.0505,1.7365393857492786,1.0,2721.5010761239732,0.4334188683957003,1.3051584725517307,0.9745631167818559,0.2859876542014697,0.7030558247126742
0.051000000000000004,1.7353628560565477,1.0,2722.8776666699764,0.43659694251171594,1.304614607082909,0.9748858129500144,0.285938239954375,0.704113332754225
0.051500000000000004,1.7341863263638169,1.0,2724.5381634673336,0.4397571906791424,1.304068161764302,0.9751998357675441,0.2858888257072803,0.7051739572744844
0.052000000000000005,1.7330097966710862,1.0,2726.462314971859,0.4428997117336407,1.3035193231349593,0.975505503221613,0.2858394114601856,0.7062373102158679
0.0525,1.7318332669783554,1.0,2728.629880840025,0.44602460451087184,1.3029682777339309,0.9758031191683233,0.28578999721309095,0.7073030060170145
0.053,1.7306567372856245,1.0,2731.020622416002,0.4491319678464969,1.3024152121002666,0.9760929740878775,0.28574058296599625,0.7083706616401493
0.0535,1.729480207592894,1.0,2733.614293991115,0.4522219005761769,1.301860312773016,0.9763753457932088,0.28569116871890154,0.7094398965962276
0.054,1.728303677900163,1.0,2736.390634833689,0.45529450153557277,1.301303766291229,0.9766505000953049,0.28564175447180684,0.7105103329678586
0.0545,1.7271271482074322,1.0,2739.3383861845336,0.45834986424709484,1.3007456773148132,0.97691868595921,0.28559234022471214,0.7115817524759385
0.055,1.7259506185147016,1.0,2742.434043030477,0.46138809234233485,1.3001862614796136,0.9771801494171315,0.28554292597761743,0.7126537258255519
0.0555,1.7247740888219707,1.0,2745.66573902274,0.4644092812535759,1.2996256285740861,0.9774351191120434,0.2854935117305228,0.7137260290229075
0.056,1.7235975591292398,1.0,2749.0241397818727,0.46741352468491854,1.2990638652903912,0.9776838126631372,0.2854440974834281,0.7147984836657231
0.0565,1.722421029436509,1.0,2752.499896485077,0.47040091634046344,1.298501058320689,0.9779264387215703,0.2853946832363334,0.7158709125683309
0.057,1.7212444997437784,1.0,2756.083643776501,0.4733715499243113,1.2979372943571401,0.9781631974153617,0.2853452689892387,0.7169431397676876
0.0575,1.7200679700510475,1.0,2759.7659978447505,0.47632551914056276,1.297372660091904,0.9783942807687683,0.285295854742144,0.718014990528906
0.058,1.7188914403583166,1.0,2763.5375546665086,0.47926291769331847,1.2968072422171415,0.9786198730977992,0.2852464404950493,0.7190862913503033
0.0585,1.717714910665586,1.0,2767.3888884171433,0.4821838392866791,1.2962411274250125,0.9788401513834067,0.2851970262479546,0.7201568699679768
0.059000000000000004,1.7165383809728552,1.0,2771.310840106862,0.48508837717887543,1.2956743997911166,0.9790552854419512,0.2851476120008599,0.7212265602938869
0.059500000000000004,1.7153618512801243,1.0,2775.302666595053,0.4879766133242723,1.2951070673148104,0.9792654333552365,0.2850981977537652,0.7222953406277168
0.06,1.7141853215873937,1.0,2779.347193194707,0.49084865697457536,1.2945392860054867,0.9794707573264337,0.2850487835066705,0.7233629113500577
0.0605,1.7130087918946628,1.0,2783.4408012107833,0.4937045959808443,1.2939710894147833,0.9796714050112811,0.2849993692595758,0.7244292046820326
0.061,1.711832262201932,1.0,2787.5798621916574,0.49654451819413864,1.2934025110943375,0.9798675184400749,0.28494995501248116,0.7254941533276058
0.0615,1.7106557325092013,1.0,2791.7607376323417,0.49936851146551786,1.2928335845957863,0.9800592342759142,0.28490054076538646,0.7265576904744339
0.062,1.7094792028164705,1.0,2795.9797787033335,0.5021766636460415,1.2922643434707677,0.9802466840592087,0.28485112651829175,0.7276197497946465
0.0625,1.7083026731237396,1.0,2800.233326004021,0.5049690625867693,1.2916948212709185,0.9804299944392769,0.28480171227119705,0.7286802654455578
0.063,1.7071261434310088,1.0,2804.5177093409166,0.5077457961387606,1.2911250515478765,0.9806092873938086,0.28475229802410235,0.7297391720703006
0.0635,1.7059496137382781,1.0,2808.8292475313124,0.510506952153075,1.290555067853279,0.9807846804369126,0.2847028837770077,0.7307964047983945
0.064,1.7047730840455473,1.0,2813.164248231264,0.513252618480772,1.2899849037387632,0.9809562868164248,0.284653469529913,0.7318518992462381
0.0645,1.7035965543528164,1.0,2817.519007789431,0.5159828829729112,1.2894145927559666,0.9811242157011035,0.2846040552828183,0.732905591517532
0.065,1.7024200246600858,1.0,2821.8898111248427,0.5186978334805522,1.2888441684565264,0.9812885723583029,0.2845546410357236,0.7339574182036283
0.0655,1.701243494967355,1.0,2826.2756113844034,0.5213975461820026,1.2882736404547803,0.9814494563331597,0.2845052267886289,0.7350073603920537
0.066,1.700066965274624,1.0,2830.673666001969,0.5240821108087053,1.2877030334713493,0.981606965346706,0.2844558125415342,0.7360553715924224
0.0665,1.6988904355818932,1.0,2835.078604019075,0.5267516287928934,1.2871323955925391,0.9817611956273611,0.28440639829443953,0.7371013628867654
0.067,1.6977139058891626,1.0,2839.489387313397,0.5294061810631621,1.2865617361419022,0.9819122368227245,0.28435698404734483,0.738145316898402
0.0675,1.6965373761964317,1.0,2843.904974515388,0.5320458485481062,1.2859910644429904,0.9820601755019708,0.2843075698002501,0.7391872163863691
0.068,1.695360846503701,1.0,2848.3243210045853,0.534670712176321,1.2854203898193564,0.982205095283517,0.2842581555531554,0.7402270442454294
0.0685,1.6941843168109703,1.0,2852.746378908174,0.5372808528764014,1.2848497215945522,0.9823470769565403,0.2842087413060608,0.7412647835060782
0.069,1.6930077871182394,1.0,2857.170097101146,0.5398763515769424,1.2842790690921304,0.9824861985966871,0.28415932705896607,0.74230041733454
0.0695,1.6918312574255086,1.0,2861.5944212087866,0.5424572892065389,1.283708441635643,0.9826225356762835,0.28410991281187137,0.7433339290327645
0.07,1.690654727732778,1.0,2866.0182936109222,0.5450237466937861,1.2831378485486424,0.9827561611693495,0.28406049856477666,0.744365302038412
0.07050000000000001,1.689478198040047,1.0,2870.4406534477594,0.5475758049672789,1.2825672991546808,0.9828871456516913,0.28401108431768196,0.7453945199248377
0.07100000000000001,1.6883016683473162,1.0,2874.860436628358,0.5501135449556123,1.2819968027773108,0.9830155573963386,0.28396167007058726,0.7464215664010667
0.07150000000000001,1.6871251386545854,1.0,2879.2765758403207,0.5526370475873813,1.2814263687400842,0.9831414624645671,0.28391225582349255,0.7474464253117671
0.07200000000000001,1.6859486089618547,1.0,2883.6880005618887,0.555146393791181,1.2808560063665535,0.9832649247927453,0.2838628415763979,0.7484690806372145
0.0725,1.6847720792691239,1.0,2888.093637075519,0.5576416644956063,1.280285724980271,0.983386006275217,0.2838134273293032,0.7494895164932522
