Time [s],Phi [rad],STIM [ ],Fsee [N],Gamma [ ],Lcerel [ ],q [ ],Lmtc [m],fisomrel [ ]
0.0,1.8,1.0,17.967731279027692,1.0008970836292791e-05,1.3793396820125845,0.00500002669941853,0.288653,0.5411396863858141
0.0005,1.79999375,1.0,18.27701322195879,0.005619162137219566,1.3793023579005201,0.01294053826308484,0.2886527375,0.5412299786068423
0.001,1.799975,1.0,21.618607852224976,0.011196852389262059,1.3789382790011142,0.03560862129413942,0.28865195,0.5421102701137556
0.0015,1.79994375,1.0,31.069381270377367,0.016743256209896595,1.3780461913528164,0.07060176561759866,0.2886506375,0.5442636390421867
0.002,1.7999,1.0,53.582302342438155,0.02225854909040691,1.3763681372335708,0.11471790804604873,0.2886488,0.5483004632504211
0.0025,1.79984375,1.0,97.11850741852717,0.027742905537987084,1.3739351879912427,0.1645747520902205,0.28864643749999996,0.5541214132077614
0.003,1.7997750000000001,1.0,160.95759843547694,0.03319649908346261,1.3712143650314967,0.21728030872813797,0.28864354999999997,0.5605864004919091
0.0035,1.79969375,1.0,237.68267860545134,0.038619502280879084,1.3685847543453709,0.2706127439038643,0.2886401375,0.5667897922964369
0.004,1.7996,1.0,321.4660864244477,0.044012086718285146,1.3661561105369433,0.3229156616813626,0.2886362,0.5724799193764597
0.0045000000000000005,1.7994937500000001,1.0,409.2670686953039,0.04937442302291678,1.3639228301779303,0.37303437499014896,0.2886317375,0.5776791252400681
0.005,1.799375,1.0,499.41281928733696,0.05470668085228475,1.3618583569004705,0.42024733733422076,0.28862675,0.5824570457311598
0.0055,1.79924375,1.0,590.7897433980605,0.06000902894166248,1.3599388482012431,0.4641735847252246,0.2886212375,0.5868750814909518
0.006,1.7991000000000001,1.0,682.5174429250126,0.06528163504719045,1.3581464268426573,0.5046798587164927,0.2886152,0.5909793907520317
0.006500000000000001,1.79894375,1.0,773.88068501091,0.07052466600152629,1.3564672633962054,0.5418006660515986,0.2886086375,0.5948057720880751
0.007,1.798775,1.0,864.2851994228307,0.07573828769742859,1.3548904048785915,0.5756766969047155,0.28860155,0.5983826547356805
0.0075,1.79859375,1.0,953.2427051943164,0.08092266509749528,1.3534067870388002,0.6065098399496291,0.2885939375,0.6017335550858167
0.008,1.7984,1.0,1040.343850630538,0.0860779618155527,1.3520088613592551,0.6345321133656788,0.2885858,0.6048780660859716
0.0085,1.79819375,1.0,1125.3138338459016,0.09120434198862225,1.3506892470713865,0.6599843754168063,0.2885771375,0.60783498720824
0.009000000000000001,1.797975,1.0,1207.9001063612286,0.09630196756593162,1.3494420360647068,0.6831041389937257,0.28856795,0.6106194624711485
0.0095,1.79774375,1.0,1287.8926395497067,0.10137099904173488,1.3482621180627006,0.7041174260501952,0.2885582375,0.6132445699058725
0.01,1.7975,1.0,1365.1672430307758,0.10641159691028608,1.3471443827888518,0.7232341822480067,0.288548,0.6157231425323568
0.0105,1.79724375,1.0,1439.6586305302646,0.11142392115197376,1.3460839572594236,0.7406466256078553,0.2885372375,0.6180672657131934
0.011,1.796975,1.0,1511.3213072556541,0.11640813055022382,1.345076564721587,0.7565290974301683,0.28852595000000003,0.6202875142855497
0.0115,1.79669375,1.0,1580.1204820467308,0.12136438228265034,1.3441184893953213,0.7710385800008778,0.2885141375,0.6223930652304915
0.012,1.7964,1.0,1646.0573261542947,0.12629283301339012,1.3432061612660753,0.7843155584193149,0.28850180000000003,0.6243926366996324
0.0125,1.79609375,1.0,1709.173954255269,0.13119363948505217,1.342336035028407,0.7964852996995664,0.2884889375,0.626294767605323
0.013000000000000001,1.7957750000000001,1.0,1769.5063640391277,0.13606695661766904,1.3415050749016715,0.8076594695974355,0.28847555,0.6281067723737365
0.0135,1.79544375,1.0,1827.0909514421342,0.140912937901425,1.3407106014879022,0.8179374470852413,0.2884616375,0.6298350957708925
0.014,1.7951000000000001,1.0,1881.9917597498118,0.14573173682650445,1.3399499353891338,0.8274075144273288,0.2884472,0.6314861014952926
0.0145,1.79474375,1.0,1934.280246355444,0.15052350575568435,1.3392205895116456,0.8361481731346685,0.2884322375,0.6330656621536086
0.015,1.794375,1.0,1984.0542795717345,0.15528839772940603,1.3385200302549116,0.8442291878994275,0.28841675,0.634579684681804
0.0155,1.79399375,1.0,2031.3738423221398,0.16002656235609103,1.3378463369312994,0.8517128218908543,0.2884007375,0.6360326933102772
0.016,1.7936,1.0,2076.3120888748213,0.16473814907779177,1.3371976168549011,0.8586545279021418,0.2883842,0.6374291045515794
0.0165,1.7931937500000001,1.0,2118.9565783038533,0.1694233073365607,1.3365719773398095,0.8651037468576795,0.2883671375,0.6387732910381722
0.017,1.792775,1.0,2159.390420300075,0.17408218501551742,1.3359677056520685,0.8711046714043349,0.28834955,0.6400691988484857
0.0175,1.7923437500000001,1.0,2197.7203696622955,0.1787149315341202,1.3353829647264037,0.8766967807696737,0.2883314375,0.6413210043728567
0.018000000000000002,1.7919,1.0,2234.0141599647086,0.1833216920856248,1.3348164178781825,0.8819155607999382,0.2883128,0.6425317803546629
0.0185,1.79144375,1.0,2268.34631606841,0.18790261173327105,1.3342667431249815,0.8867928393438961,0.2882936375,0.6437045422213573
0.019,1.790975,1.0,2300.7988998946857,0.19245783554029897,1.333732618484378,0.8913572061466857,0.28827395,0.6448422811210477
0.0195,1.79049375,1.0,2331.4525929139354,0.19698750748306723,1.333212803377102,0.8956344032992026,0.2882537375,0.6459477923009336
0.02,1.79,1.0,2360.396635632036,0.20149177252460881,1.3327060330866898,0.8996476244923295,0.288233,0.6470239016190003
0.0205,1.78949375,1.0,2387.7065026489036,0.2059707733440132,1.3322112312470733,0.9034178472327039,0.2882117375,0.6480730160500752
0.021,1.788975,1.0,2413.4451614648815,0.21042465028889876,1.3317274877373706,0.9069640719082124,0.28818995000000003,0.6490971743604995
0.021500000000000002,1.78844375,1.0,2437.6795182190326,0.21485354370688392,1.3312538924367003,0.9103035031238521,0.2881676375,0.6500984016120375
0.022,1.7879,1.0,2460.480089816218,0.21925759394558714,1.3307895352241805,0.9134517441838012,0.2881448,0.6510787097773298
0.0225,1.78734375,1.0,2481.915028159238,0.2236369401970005,1.3303335599909183,0.9164229783736072,0.28812143749999997,0.6520399845144336
0.023,1.786775,1.0,2502.054034156909,0.22799172227112333,1.3298851236277927,0.9192301115550396,0.28809755,0.6529840727330228
0.0235,1.78619375,1.0,2520.9647111094678,0.23232207948551278,1.3294434278297755,0.9218849103517707,0.28807313749999996,0.6539127163895646
0.024,1.7856,1.0,2538.697731911334,0.23662814707199825,1.3290078558616707,0.9243981418977729,0.2880482,0.6548272665220221
0.0245,1.78499375,1.0,2555.3056395274753,0.24091006026240913,1.3285777909882808,0.9267796439410739,0.2880227375,0.6557290665473906
0.025,1.784375,1.0,2570.842690281095,0.2451679542885748,1.3281526164744093,0.929038417815406,0.28799675,0.6566194524904313
0.025500000000000002,1.78374375,1.0,2585.364705575197,0.2494019643823246,1.327731715584859,0.9311827109808172,0.2879702375,0.6574997531881541
0.026000000000000002,1.7831000000000001,1.0,2598.920915201725,0.25361222377474524,1.3273145462626612,0.9332201016868668,0.2879432,0.6583711345818501
0.0265,1.78244375,1.0,2611.5647520908897,0.2577988677768952,1.3269005386912374,0.935157548443166,0.2879156375,0.6592348144240396
0.027,1.781775,1.0,2623.3490484225913,0.26196203074393204,1.3264891391320137,0.9370014542426893,0.28788755,0.6600919707552187
0.0275,1.7810937500000001,1.0,2634.3107998832834,0.26610184233266565,1.3260799497273683,0.93875773801912,0.2878589375,0.660943451485322
0.028,1.7804,1.0,2644.4877850394796,0.27021843219990593,1.325672572619678,0.9404318576157294,0.2878298,0.6617901002655628
0.0285,1.77969375,1.0,2653.918497799774,0.27431193000246284,1.325266609951321,0.9420288517549076,0.2878001375,0.6626327565394616
0.029,1.778975,1.0,2662.6420833868597,0.27838246539714623,1.3248616638646744,0.9435533776814526,0.28776995,0.6634722555837861
0.029500000000000002,1.7782437500000001,1.0,2670.6982778184456,0.28243016804076604,1.3244573365021157,0.9450097449726692,0.2877392375,0.6643094285393905
0.03,1.7775,1.0,2678.120772974097,0.2864551650467017,1.324053290367644,0.9464019531305288,0.287708,0.6651449776846408
0.0305,1.77674375,1.0,2684.948855060926,0.29045758666939225,1.3236491407890438,0.9477337060663527,0.2876762375,0.6659796991916891
0.031,1.775975,1.0,2691.215793714752,0.2944375601713808,1.3232445620849547,0.9490084489241513,0.28764395,0.66681426365595
0.0315,1.7751937500000001,1.0,2696.9476430820832,0.2983952095995602,1.322839297796586,0.9502293909373887,0.2876111375,0.6676491957850998
0.032,1.7744,1.0,2702.1707459788568,0.3023306590008235,1.3224330914651474,0.9513995174058751,0.2875778,0.6684850176282777
0.0325,1.77359375,1.0,2706.911706419154,0.3062440324220636,1.3220256866318487,0.9525216080642078,0.2875439375,0.6693222485627754
0.033,1.772775,1.0,2711.1973636017938,0.3101354539101735,1.3216168268378994,0.9535982537321059,0.28750955,0.6701614052765328
0.0335,1.7719437500000002,1.0,2715.054767355725,0.3140050475120461,1.321206255624509,0.9546318714257043,0.2874746375,0.6710030017464368
0.034,1.7711000000000001,1.0,2718.500982838953,0.3178529319768585,1.3207938091811509,0.9556247270718019,0.2874392,0.6718473596653296
0.0345,1.7702437500000001,1.0,2721.5710224288896,0.32167923601017384,1.3203791616273381,0.9565789231065744,0.2874032375,0.672695130085982
0.035,1.7693750000000001,1.0,2724.2880308185854,0.32548408129951,1.3199620965586643,0.9574964362926931,0.28736675,0.6735467371357908
0.035500000000000004,1.76849375,1.0,2726.6684563450617,0.3292675858247089,1.3195424595604837,0.9583791229552471,0.2873297375,0.6744024762054741
0.036000000000000004,1.7676,1.0,2728.728841976319,0.3330298675656126,1.3191200962181513,0.9592287224255479,0.2872922,0.6752626409110901
0.0365,1.76669375,1.0,2730.4858150544937,0.336771044502063,1.3186948521170216,0.9600468657443437,0.2872541375,0.676127523067952
0.037,1.765775,1.0,2731.9560775671116,0.3404912346139023,1.3182665728424494,0.9608350836234008,0.28721555,0.676997412663016
0.0375,1.76484375,1.0,2733.1563969474178,0.34419055588097236,1.3178351039797889,0.9615948137362106,0.2871764375,0.6778725978257552
0.038,1.7639,1.0,2734.1035974026777,0.3478691262831152,1.3174002911143952,0.9623274074011579,0.28713679999999997,0.6787533647975039
0.0385,1.76294375,1.0,2734.8145135986174,0.35152706340236883,1.3169619801782688,0.9630341356663706,0.28709663750000003,0.6796399971985674
0.039,1.761975,1.0,2735.3062427992213,0.35516447860038486,1.3165200150913394,0.9637161935899634,0.28705595,0.6805327807607726
0.0395,1.7609937500000001,1.0,2735.593150132483,0.3587814961013275,1.316074264888463,0.964374711712886,0.2870147375,0.6814319485816893
0.04,1.76,1.0,2735.685839073486,0.362378227667688,1.3156246330043688,0.965010756416334,0.286973,0.6823376627578364
0.0405,1.7589937500000001,1.0,2735.5949352790867,0.3659547850619579,1.3151710228737865,0.9656253336074092,0.2869307375,0.6832500839945509
0.041,1.757975,1.0,2735.3310829154507,0.36951128004662837,1.3147133379314455,0.9662193927803063,0.28688795,0.684169371581785
0.0415,1.75694375,1.0,2734.9049411924643,0.373047824384191,1.3142514816120754,0.9667938307639119,0.2868446375,0.6850956833693095
0.042,1.7559,1.0,2734.327181105356,0.37656452983713695,1.3137853573504057,0.9673494951830282,0.28680079999999997,0.6860291757413208
0.0425,1.75484375,1.0,2733.6084823825363,0.3800615081679578,1.313314868581166,0.9678871876578299,0.2867564375,0.686970003590455
0.043000000000000003,1.753775,1.0,2732.7595306400517,0.38353887113914475,1.3128399187390858,0.9684076667638213,0.28671155,0.687918320291206
0.043500000000000004,1.75269375,1.0,2731.7772389000093,0.38699669709121903,1.3123605364237485,0.9689116556188531,0.28666613750000003,0.6888740283324876
0.044,1.7516,1.0,2730.6732024373287,0.39043510540051657,1.311876616915178,0.9693998351617216,0.2866202,0.6898372953493088
0.0445,1.75049375,1.0,2729.474703412535,0.3938542547818642,1.3113879128991033,0.969872845573853,0.2865737375,0.6908085704730245
0.045,1.7493750000000001,1.0,2728.186104709178,0.39725424719876806,1.3108943852759323,0.970331301617173,0.28652675,0.6917878864920286
0.0455,1.74824375,1.0,2726.811769784039,0.4006351846147344,1.3103959949460724,0.9707757867490397,0.2864792375,0.692775275259687
0.046,1.7471,1.0,2725.3560619719046,0.40399716899326943,1.3098927028099323,0.9712068550149028,0.2864312,0.6937707676822544
0.0465,1.7459437500000001,1.0,2723.8233438241427,0.40734030229787943,1.3093844697679191,0.9716250328090222,0.28638263750000004,0.6947743937067077
0.047,1.744775,1.0,2722.217976481007,0.4106646864920706,1.3088712567204415,0.9720308205136269,0.28633355,0.6957861823084667
0.0475,1.74359375,1.0,2720.544319078759,0.4139704235393492,1.3083530245679067,0.9724246940259648,0.28628393750000003,0.6968061614790304
0.048,1.7424,1.0,2718.8067281890744,0.41725761540322137,1.3078297342107228,0.972807106181899,0.2862338,0.6978343582135069
0.0485,1.74119375,1.0,2717.009557294018,0.42052636404719346,1.307301346549298,0.9731784880839539,0.2861831375,0.6988707984980493
0.049,1.739975,1.0,2715.157156293702,0.42377677143477155,1.3067678224840398,0.9735392503410487,0.28613195,0.6999155072971961
0.0495,1.73874375,1.0,2713.2538710485287,0.427008939529462,1.3062291229153564,0.9738897842265473,0.2860802375,0.7009685085411081
0.05,1.7375,1.0,2711.3040429550315,0.43022297029477097,1.3056852087436557,0.9742304627606965,0.286028,0.7020298251127157
0.0505,1.73624375,1.0,2709.312008555708,0.4334189656942047,1.3051360408693453,0.9745616417230362,0.2859752375,0.7030994788347615
0.051000000000000004,1.734975,1.0,2707.2820991826247,0.4365970276912694,1.3045815801928333,0.9748836605998862,0.28592195,0.7041774904567495
0.051500000000000004,1.73369375,1.0,2705.2186406351366,0.4397572582494713,1.3040217876145277,0.9751968434716254,0.2858681375,0.7052638796417954
0.052000000000000005,1.7324,1.0,2703.1259528912483,0.4428997593323167,1.303456624034836,0.9755014998440755,0.2858138,0.7063586649533808
0.0525,1.73109375,1.0,2701.008349853093,0.44602463290331174,1.3028860503541666,0.9757979254279775,0.28575893750000003,0.7074618638420065
0.053,1.729775,1.0,2698.8701391261166,0.4491319809259626,1.3023100274729271,0.9760864028702181,0.28570355000000003,0.708573492631754
0.0535,1.72844375,1.0,2696.7156218324144,0.4522219053637757,1.3017285162915255,0.976367202440186,0.2856476375,0.7096935665067431
0.054,1.7271,1.0,2694.5470694152045,0.4552944976877065,1.3011414962179404,0.9766405827584954,0.2855912,0.7108220639528705
0.0545,1.7257437500000001,1.0,2692.363683972379,0.45834985752850727,1.3005489747191832,0.9769067938409796,0.2855342375,0.7119589087858667
0.055,1.724375,1.0,2690.167544450478,0.4613880866983149,1.2999509329356502,0.9771660736759635,0.28547675,0.7131040747163044
0.0555,1.72299375,1.0,2687.960250845616,0.4644092783067757,1.299347356364981,0.97741864961694,0.2854187375,0.714257526266891
0.056,1.7216,1.0,2685.743400642795,0.4674135254635361,1.2987382305048145,0.9776647395011416,0.2853602,0.7154192271519526
0.0565,1.72019375,1.0,2683.5185887825187,0.47040092127824246,1.2981235408527898,0.9779045521236474,0.28530113749999997,0.7165891402723055
0.057,1.718775,1.0,2681.2874076326552,0.4733715588605411,1.2975032729065463,0.9781382876841236,0.28524155,0.7177672277101181
0.0575,1.71734375,1.0,2679.0514469640516,0.47632553132007843,1.2968774121637232,0.9783661382079852,0.2851814375,0.7189534507237589
0.058,1.7159,1.0,2676.8122939319182,0.4792629317665008,1.2962459441219594,0.9785882879436396,0.2851208,0.7201477697426306
0.0585,1.71444375,1.0,2674.571533061031,0.48218385330945457,1.2956088542788942,0.9788049137373467,0.2850596375,0.7213501443619883
0.059000000000000004,1.7129750000000001,1.0,2672.3307462359207,0.4850883890585861,1.294966128132167,0.9790161853871246,0.28499795,0.722560533337749
0.059500000000000004,1.71149375,1.0,2670.0915126958225,0.4879766321235417,1.2943177511794166,0.9792222659770322,0.2849357375,0.7237788945812851
0.06,1.71,1.0,2667.855409033998,0.4908486756139678,1.2936637089182825,0.9794233121930525,0.284873,0.7250051851542036
0.0605,1.7084937500000001,1.0,2665.6209043946355,0.4937045756103043,1.2930040154040696,0.9796194731748739,0.2848097375,0.7262393078988895
0.061,1.7069750000000001,1.0,2663.3910154061873,0.49654445535489594,1.2923386428708814,0.9798108954687391,0.28474595,0.7274812432538624
0.0615,1.7054437500000001,1.0,2661.168130989542,0.499368426331991,1.2916675692847766,0.9799977193334188,0.2846816375,0.728730959909152
0.062,1.7039,1.0,2658.952556421272,0.5021765729974575,1.2909907917642938,0.9801800785820196,0.2846168,0.729988390013997
0.0625,1.70234375,1.0,2656.74459647856,0.5049689798071635,1.290308307427971,0.9803581019910871,0.2845514375,0.7312534650456206
0.063,1.7007750000000001,1.0,2654.5445554435623,0.5077457312169769,1.2896201133943475,0.9805319135260936,0.28448555,0.7325261158081802
0.0635,1.69919375,1.0,2652.3527371071827,0.5105069116827656,1.2889262067819616,0.9807016325552059,0.28441913750000003,0.7338062724317194
0.064,1.6976,1.0,2650.1694447732198,0.5132526056603977,1.2882265847093517,0.9808673740520191,0.2843522,0.735093864371119
0.0645,1.69599375,1.0,2647.9949812631576,0.5159828976057411,1.2875212442950565,0.9810292487879062,0.2842847375,0.7363888204050459
0.065,1.694375,1.0,2645.829648920328,0.5186978719746639,1.2868101826576148,0.981187363514586,0.28421675,0.7376910686349032
0.0655,1.69274375,1.0,2643.673749614771,0.5213976132230339,1.286093396915565,0.9813418211374706,0.2841482375,0.7390005364837786
0.066,1.6911,1.0,2641.527584748386,0.5240822058067193,1.2853708841874456,0.9814927208803262,0.2840792,0.7403171506953938
0.0665,1.6894437500000001,1.0,2639.39145526003,0.5267517341815878,1.284642641591795,0.9816401584417361,0.2840096375,0.7416408373330513
0.067,1.687775,1.0,2637.2656616303548,0.5294062828035075,1.2839086662471524,0.9817842261438295,0.28393955,0.7429715217785811
0.0675,1.68609375,1.0,2635.1505038881496,0.5320459361283466,1.2831689552720558,0.9819250130737155,0.2838689375,0.7443091287312897
0.068,1.6844000000000001,1.0,2633.0462816153204,0.5346707786119729,1.282423505785044,0.9820626052180196,0.2837978,0.7456535822069046
0.0685,1.68269375,1.0,2630.9532939530172,0.5372808947102542,1.2816723149046554,0.9821970855909115,0.2837261375,0.7470048055365199
0.069,1.680975,1.0,2628.871839607851,0.5398763688790588,1.2809153797494288,0.9823285343559792,0.28365395,0.7483627213655428
0.0695,1.67924375,1.0,2626.802216857718,0.5424572855742544,1.2801526974379027,0.9824570289422839,0.28358123749999997,0.749727251652637
0.07,1.6775,1.0,2624.744723558801,0.5450237292517093,1.2793842650886158,0.9825826441549135,0.283508,0.7510983176686673
0.07050000000000001,1.67574375,1.0,2622.6980982137234,0.5475757659344552,1.2786100942759016,0.9827054518087466,0.2834342375,0.7524758143098638
0.07100000000000001,1.673975,1.0,2620.6603837238545,0.550113457825734,1.2778302030454582,0.9828255213992341,0.28335995,0.7538596246036973
0.07150000000000001,1.67219375,1.0,2618.636013250078,0.5526369383252603,1.2770445501695702,0.9829429217330538,0.2832851375,0.7552497360374378
0.07200000000000001,1.6704,1.0,2616.624763892301,0.5551462824237303,1.2762531375824544,0.9830577177615367,0.2832098,0.756646058596459
0.0725,1.66859375,1.0,2614.62641315886,0.5576415651118402,1.2754559672183274,0.9831699723123556,0.2831339375,0.7580485016703308
0.073,1.6667750000000001,1.0,2612.640738961785,0.5601228613802861,1.2746530410114059,0.983279746171478,0.28305755,0.75945697405353
0.0735,1.66494375,1.0,2610.667519611812,0.5625902462197643,1.273844360895907,0.9833870981614268,0.2829806375,0.760871383946149
0.074,1.6631,1.0,2608.7065338138796,0.5650437946209708,1.2730299288060472,0.9834920852160415,0.2829032,0.7622916389546073
0.0745,1.6612437500000001,1.0,2606.7575606624646,0.567483581574602,1.272209746676043,0.9835947624519162,0.2828252375,0.7637176460923614
0.075,1.659375,1.0,2604.82037963702,0.5699096820713538,1.2713838164401114,0.9836951832366834,0.28274675,0.765149311780612
0.0755,1.65749375,1.0,2602.8947705975115,0.5723221711019225,1.270552140032469,0.9837933992542999,0.2826677375,0.7665865418490154
