Time [s],Phi [rad],STIM [ ],Fsee [N],Gamma [ ],Lcerel [ ],q [ ],Lmtc [m],fisomrel [ ]
0.0,1.8,1.0,19.760986862863408,0.0013682816029034265,1.3791435577663689,0.005479506007617677,0.288653,0.5416140389166457
0.0005,1.79999375,1.0,20.453055472273487,0.0069698159339267995,1.3790674394444202,0.017136725842745205,0.2886527375,0.5417980751053917
0.001,1.799975,1.0,24.811276684811318,0.012539930086890406,1.3786234211030908,0.043032078583383815,0.28865195,0.5428708705108152
0.0015,1.79994375,1.0,36.627078466907,0.018078800302781403,1.3775921649614382,0.0805342087759604,0.2886506375,0.5453576433664988
0.002,1.7999,1.0,63.70837587806691,0.02358660183647227,1.3757396196072609,0.1263343718002395,0.2886488,0.549807838830966
0.0025,1.79984375,1.0,112.59926030180569,0.029063508959256266,1.3732167765274106,0.17711936183778274,0.28864643749999996,0.5558330284390589
0.003,1.7997750000000001,1.0,180.15113632153364,0.034509694963274995,1.3705161598431408,0.23016073212797947,0.28864354999999997,0.562237803874656
0.0035,1.79969375,1.0,258.8638639650583,0.03992533216966437,1.367946238756956,0.28338040105028,0.2886401375,0.5682894304356156
0.004,1.7996,1.0,343.70830609367465,0.04531059193371693,1.3655768506370483,0.3352474240969198,0.2886362,0.5738315251221215
0.0045000000000000005,1.7994937500000001,1.0,432.1037603371149,0.05066564465221444,1.36339404187159,0.38471908401813437,0.2886317375,0.5789055176410367
0.005,1.799375,1.0,522.5621120214735,0.05599065975244829,1.3613720081092866,0.43116494725626936,0.28862675,0.5835786726883345
0.0055,1.79924375,1.0,614.0358455488233,0.06128580573140691,1.3594890573286151,0.47427214094483355,0.2886212375,0.5879069440720142
0.006,1.7991000000000001,1.0,705.6909999829948,0.06655125012824264,1.3577287091543173,0.5139545518981582,0.2886152,0.5919329421134754
0.006500000000000001,1.79894375,1.0,796.827269490816,0.07178715938781023,1.3560784114357451,0.5502775167358184,0.2886086375,0.5956893013692481
0.007,1.798775,1.0,886.9094318465045,0.07699369966595575,1.354527311706141,0.5833997326438886,0.28860155,0.5992040346122984
0.0075,1.79859375,1.0,975.4438524465949,0.08217103529372954,1.353067275796284,0.6135330844326665,0.2885939375,0.6024984016638735
0.008,1.7984,1.0,1062.0455004603664,0.08731932995657059,1.3516909951681098,0.640913385324094,0.2885858,0.6055913390231652
0.0085,1.79819375,1.0,1146.444168671636,0.09243874684085347,1.3503915103387059,0.6657816746768191,0.2885771375,0.6085006042173489
0.009000000000000001,1.797975,1.0,1228.403520308883,0.09752944794554196,1.3491630601598537,0.6883732130154078,0.28856795,0.6112409356498929
0.0095,1.79774375,1.0,1307.7461783364001,0.1025915939749201,1.3480004074402234,0.7089103499619935,0.2885582375,0.6138256263438728
0.01,1.7975,1.0,1384.3631837042722,0.10762534514867318,1.3468985243293945,0.7275988745738502,0.288548,0.6162672634505373
0.0105,1.79724375,1.0,1458.2027685826326,0.11263086198111517,1.345852605692228,0.7446266571246797,0.2885372375,0.618577726836404
0.011,1.796975,1.0,1529.1900607674092,0.11760830160168842,1.3448589314988602,0.76016398643546,0.28852595000000003,0.6207663181296699
0.0115,1.79669375,1.0,1597.3022426243162,0.12255782113983535,1.3439137817194275,0.7743637268085375,0.2885141375,0.6228421898706695
0.012,1.7964,1.0,1662.5623812602685,0.1274795776285505,1.3430134543597545,0.7873624996757483,0.28850180000000003,0.6248143180108057
0.0125,1.79609375,1.0,1725.012017425959,0.13237372716351054,1.342154527895599,0.7992821635151885,0.2884889375,0.6266909408180475
0.013000000000000001,1.7957750000000001,1.0,1784.6929183240536,0.13724042489906813,1.3413339978620396,0.8102312753594159,0.28847555,0.6284792790290727
0.0135,1.79544375,1.0,1841.642580194308,0.14207982400383226,1.3405492560271206,0.8203064488331142,0.2884616375,0.6301856001893325
0.014,1.7951000000000001,1.0,1895.9251040475967,0.14689207764641207,1.3397976941588874,0.8295935075061631,0.2884472,0.6318160938912731
0.0145,1.79474375,1.0,1947.6072277333692,0.1516773377786634,1.339076936963001,0.8381687882788658,0.2884322375,0.6333763737875928
0.015,1.794375,1.0,1996.7967291272573,0.1564357577001572,1.3383843964661708,0.8461000868288381,0.28841675,0.6348724497073512
0.0155,1.79399375,1.0,2043.5549112499557,0.16116748675531792,1.3377181840863719,0.853447955519137,0.2884007375,0.6363087631932507
0.016,1.7936,1.0,2087.9527381493663,0.16587267395746477,1.3370764703653533,0.8602663482629865,0.2883842,0.6376895826723059
0.0165,1.7931937500000001,1.0,2130.074996186697,0.17055146831991694,1.336457425844864,0.8666033843781592,0.2883671375,0.6390191345467087
0.017,1.792775,1.0,2170.0096740093563,0.1752040179392074,1.3358593172438784,0.8725020668128268,0.28834955,0.6403013999377418
0.0175,1.7923437500000001,1.0,2207.8514858724807,0.17983047144070294,1.335280456477331,0.8780008720798966,0.2883314375,0.6415402280113283
0.018000000000000002,1.7919,1.0,2243.6775827038177,0.18443097475503,1.334719432444668,0.8831343398679544,0.2883128,0.6427388442089264
0.0185,1.79144375,1.0,2277.560983171366,0.1890056724484187,1.334174958072316,0.8879334894005072,0.2882936375,0.6439001830273148
0.019,1.790975,1.0,2309.5819758392413,0.1935547090870992,1.3336457462867013,0.8924261947732675,0.28827395,0.6450271555637441
0.0195,1.79049375,1.0,2339.8253205251967,0.19807822889560303,1.3331305314519435,0.8966375498288041,0.2882537375,0.6461226052759748
0.02,1.79,1.0,2368.3680458082936,0.20257637480217577,1.3326281821512078,0.9005902084276297,0.288233,0.6471890702767313
0.0205,1.78949375,1.0,2395.2984886167114,0.2070492917222862,1.3321375074844086,0.9043046149070676,0.2882117375,0.6482291968177437
0.021,1.788975,1.0,2420.6774153201422,0.21149711940847502,1.3316576295472402,0.9077993252505974,0.28818995000000003,0.6492449514129642
0.021500000000000002,1.78844375,1.0,2444.5693683471973,0.21591999761328287,1.331187670435397,0.9110911479493742,0.2881676375,0.6502382874731341
0.022,1.7879,1.0,2467.0423546967695,0.22031806608925036,1.3307267522445736,0.9141953326763667,0.2881448,0.651211145885703
0.0225,1.78734375,1.0,2488.167551537544,0.22469146458891828,1.3302739970704636,0.9171257364268988,0.28812143749999997,0.6521654555455977
0.023,1.786775,1.0,2508.0079840208523,0.22904033036527746,1.3298286317416814,0.9198949886934611,0.28809755,0.6531029135312829
0.0235,1.78619375,1.0,2526.633684009133,0.23336480459783374,1.3293898402147861,0.9225145943633946,0.28807313749999996,0.6540252970767784
0.024,1.7856,1.0,2544.098706476859,0.2376650234623573,1.328956978660653,0.924995082982339,0.2880482,0.6549340120869092
0.0245,1.78499375,1.0,2560.4528942544894,0.24194112139994509,1.3285294602896194,0.9273460877691307,0.2880227375,0.6558303371231231
0.025,1.784375,1.0,2575.7477226500637,0.24619323285169403,1.3281066983120229,0.9295764257858798,0.28799675,0.656715543758875
0.025500000000000002,1.78374375,1.0,2590.036160308004,0.2504214922587011,1.327688105938201,0.9316941782188066,0.2879702375,0.6575908967686044
0.026000000000000002,1.7831000000000001,1.0,2603.372537701765,0.25462603406206324,1.3272730963784913,0.9337067617830974,0.2879432,0.6584576542947536
0.0265,1.78244375,1.0,2615.8020796721044,0.25880698976987376,1.3268611788840254,0.9356210062043104,0.2879156375,0.6593168677887281
0.027,1.781775,1.0,2627.376899250839,0.26296449505344494,1.3264518084340364,0.9374431891774153,0.28788755,0.6601696963333775
0.0275,1.7810937500000001,1.0,2638.1450722946865,0.2670986831851972,1.3260444864480634,0.9391791002568837,0.2878589375,0.6610171966097533
0.028,1.7804,1.0,2648.141452416427,0.2712096827263423,1.3256388442248264,0.9408340969048575,0.2878298,0.66186015029311
0.0285,1.77969375,1.0,2657.4015643119296,0.275297622238092,1.3252345130630456,0.9424131265219823,0.2878001375,0.6626993351806238
0.029,1.778975,1.0,2665.961545388562,0.27936263028165814,1.3248311242614417,0.9439207631609939,0.28776995,0.6635355252265557
0.029500000000000002,1.7782437500000001,1.0,2673.858090407285,0.28340483541825234,1.324428309118734,0.9453612405130751,0.2877392375,0.6643694905687472
0.03,1.7775,1.0,2681.128399138691,0.28742436620908646,1.3240256989336436,0.9467384815859449,0.287708,0.6652019975464405
0.0305,1.77674375,1.0,2687.809847033801,0.29142135100513394,1.323622927569645,0.9480561257041558,0.2876762375,0.6660338034159832
0.031,1.775975,1.0,2693.9317954840903,0.2953959125366675,1.323219705948007,0.9493175603132057,0.28764395,0.6668655028280734
0.0315,1.7751937500000001,1.0,2699.5339350971476,0.2993481847503416,1.3228156535980216,0.9505259263450984,0.2876111375,0.6676978756125069
0.032,1.7744,1.0,2704.639336578965,0.30327829004846113,1.3224105448734225,0.951684161648601,0.2875778,0.6685313793189505
0.0325,1.77359375,1.0,2709.271308735852,0.3071863508333313,1.3220041541279446,0.9527950023833173,0.2875439375,0.6693664691465144
0.033,1.772775,1.0,2713.4533760811332,0.31107248950725713,1.3215962557153222,0.9538609993078353,0.28750955,0.6702035979269294
0.0335,1.7719437500000002,1.0,2717.2092575717124,0.3149368284725437,1.32118662398929,0.9548845325667866,0.2874746375,0.6710432161044722
0.034,1.7711000000000001,1.0,2720.562846472352,0.31877949013149603,1.3207750333035824,0.9558678251310891,0.2874392,0.6718857717126455
0.0345,1.7702437500000001,1.0,2723.5381913501183,0.3226005968864193,1.320361258011934,0.9568129550282705,0.2874032375,0.672731710347612
0.035,1.7693750000000001,1.0,2726.157178134815,0.3264002690519304,1.31994509338758,0.957721868210257,0.28736675,0.6735814324528466
0.035500000000000004,1.76849375,1.0,2728.4338170619176,0.33017861968045203,1.3195264073667974,0.9585963927739546,0.2873297375,0.6744351881226641
0.036000000000000004,1.7676,1.0,2730.406739264335,0.3339357860848404,1.3191048449550604,0.9594382246377655,0.2872922,0.675293679611629
0.0365,1.76669375,1.0,2732.0893556150736,0.3376718834606203,1.3186802813096428,0.9602489727447789,0.2872541375,0.6761571374502773
0.037,1.765775,1.0,2733.4951419092067,0.34138702700331663,1.3182525915878187,0.9610301473518075,0.28721555,0.6770257906493529
0.0375,1.76484375,1.0,2734.6376317189843,0.345081331908454,1.3178216509468625,0.9617831671804526,0.2871764375,0.6778998666754167
0.038,1.7639,1.0,2735.5304095934443,0.3487549133715573,1.317387334544048,0.9625093659740402,0.28713679999999997,0.6787795914254608
0.0385,1.76294375,1.0,2736.1871046044434,0.3524078865881512,1.3169495175366497,0.963209998515754,0.28709663750000003,0.6796651892005261
0.039,1.761975,1.0,2736.6213842373204,0.3560403667537605,1.3165080750819411,0.9638862461576122,0.28705595,0.6805568826783301
0.0395,1.7609937500000001,1.0,2736.8469486283702,0.35965246906390996,1.3160628823371967,0.9645392219048978,0.2870147375,0.6814548928848959
0.04,1.76,1.0,2736.8775251465595,0.36324430871412433,1.3156138144596903,0.965169975096154,0.286973,0.6823594391651919
0.0405,1.7589937500000001,1.0,2736.726863321528,0.3668160008999284,1.3151607466066961,0.9657794957148742,0.2869307375,0.6832707391527739
0.041,1.757975,1.0,2736.4084997974396,0.3703676606460883,1.3147035560263645,0.9663687185160558,0.28688795,0.6841890045419672
0.0415,1.75694375,1.0,2735.931784368281,0.3738993990568027,1.3142421580981845,0.9669385291071617,0.2868446375,0.6851143688577668
0.042,1.7559,1.0,2735.3098573251355,0.377411329061066,1.313776433884467,0.9674897620653474,0.28680079999999997,0.6860470329679422
0.0425,1.75484375,1.0,2734.551098595207,0.38090356028409833,1.313306307735011,0.9680232098218058,0.2867564375,0.6869871094816794
0.043000000000000003,1.753775,1.0,2733.663894193155,0.3843762023511198,1.3128317039996142,0.9685396223672849,0.28671155,0.6879347097343678
0.043500000000000004,1.75269375,1.0,2732.6566341999587,0.38782936488735037,1.3123525470280752,0.9690397099476813,0.28666613750000003,0.68888994376618
0.044,1.7516,1.0,2731.537710867091,0.39126315751801016,1.311868761170193,0.9695241455624305,0.2866202,0.6898529203002843
0.0445,1.75049375,1.0,2730.310409190089,0.3946776895814046,1.3113803171955476,0.9699935708357151,0.2865737375,0.6908236545382658
0.045,1.7493750000000001,1.0,2728.992740241566,0.39807306923715685,1.3108870520404277,0.9704485840234534,0.28652675,0.6918024262551417
0.0455,1.748243799120886,1.0,2727.5870240382337,0.4014494034998417,1.3103889673898441,0.9708897652484579,0.2864792395630772,0.692789186615645
0.046,1.7471074072824913,1.0,2726.4383179098263,0.4048067989955666,1.3098862042379067,0.9713176756976146,0.2864315111058646,0.6937836110428011
0.0465,1.7459710154440966,1.0,2725.7846282348314,0.408145362081018,1.3093789405043512,0.9717328511893135,0.28638378264865205,0.6947853034834346
0.047,1.7448346236057022,1.0,2725.5817201945183,0.41146519878504506,1.308867576935316,0.9721358170813063,0.2863360541914395,0.6957934308613096
0.0475,1.7436982317673075,1.0,2725.7938832933633,0.4147664137448724,1.3083524378874454,0.9725270673134703,0.2862883257342269,0.6968073152068531
0.048,1.7425618399289131,1.0,2726.38772492234,0.4180491113326682,1.3078338274999577,0.9729070703939152,0.28624059727701434,0.6978263222153263
0.0485,1.7414254480905185,1.0,2727.3322364554347,0.4213133952774005,1.307312028874747,0.9732762707858388,0.28619286881980177,0.6988498625921129
0.049,1.740289056252124,1.0,2728.595510778777,0.4245593698967166,1.3067873337385834,0.9736350924859335,0.2861451403625892,0.6998773337294997
0.0495,1.7391526644137294,1.0,2730.153539926609,0.4277871371615499,1.306259962299375,0.9739839344153823,0.28609741190537663,0.7009082764425556
0.05,1.738016272575335,1.0,2731.9830184010852,0.43099679883370534,1.3057301285890472,0.9743231764888814,0.28604968344816406,0.7019422464060097
0.0505,1.7368798807369403,1.0,2734.060651913094,0.4341884566749877,1.305198046639526,0.974653181110543,0.2860019549909515,0.7029788020644696
0.051000000000000004,1.735743488898546,1.0,2736.3736393535414,0.43736220698350337,1.3046638352237645,0.9749742873220163,0.2859542265337389,0.7040176897536572
0.051500000000000004,1.7346070970601513,1.0,2738.885806713858,0.4405181593312223,1.3041278252841624,0.9752868339929947,0.28590649807652635,0.7050582458160906
0.052000000000000005,1.7334707052217566,1.0,2741.5824267784824,0.44365641230068126,1.3035901528638738,0.9755911311873623,0.2858587696193138,0.7061001884058984
0.0525,1.7323343133833622,1.0,2744.451161179879,0.4467770632046851,1.3030509322601065,0.975887473735227,0.2858110411621012,0.7071432795162002
0.053,1.7311979215449675,1.0,2747.4796619400763,0.4498802093560387,1.3025102777700686,0.9761761435376405,0.28576331270488864,0.7081872826641453
0.0535,1.7300615297065731,1.0,2750.6555676923695,0.45296594806754686,1.301968303690968,0.9764574102472905,0.28571558424767607,0.7092319629017837
0.054,1.7289251378681785,1.0,2753.966500192441,0.4560343766520145,1.3014251243200126,0.9767315319078179,0.2856678557904635,0.7102770868261001
0.0545,1.727788746029784,1.0,2757.400061118991,0.45908559242224645,1.3008808539544108,0.9769987555545916,0.28562012733325093,0.711322422588216
0.055,1.7266523541913894,1.0,2760.943829164477,0.4621196926910475,1.3003356068913703,0.9772593177795702,0.28557239887603836,0.7123677399017612
0.0555,1.725515962352995,1.0,2764.585357414939,0.46513677477122256,1.2997894974280992,0.9775134452626796,0.2855246704188258,0.7134128100504071
0.056,1.7243795705146003,1.0,2768.3191355937097,0.46813692961795894,1.2992425770018423,0.977761351016729,0.2854769419616132,0.714457525858726
0.0565,1.723243178676206,1.0,2772.130406843848,0.4711202603443739,1.2986949803514103,0.9780032452194976,0.28542921350440065,0.7155016221711437
0.057,1.7221067868378113,1.0,2776.0131220925978,0.47408685969319564,1.2981467633920425,0.9782393240290114,0.2853814850471881,0.7165449855830658
0.0575,1.7209703949994166,1.0,2779.9618737980704,0.4770368196805066,1.2975979761290124,0.9784697752830047,0.2853337565899755,0.7175875146808539
0.058,1.7198340031610222,1.0,2783.9712409357617,0.47997023232238895,1.2970486685675942,0.9786947792995324,0.28528602813276294,0.7186291087443227
0.0585,1.7186976113226275,1.0,2788.0357883937513,0.48288718963492505,1.2964988907130617,0.9789145092392124,0.28523829967555037,0.7196696677484818
0.059000000000000004,1.7175612194842331,1.0,2792.1500664240007,0.4857877836341971,1.2959486925706887,0.9791291314472662,0.2851905712183378,0.7207090923651148
0.059500000000000004,1.7164248276458385,1.0,2796.308610148134,0.48867210633628755,1.2953981241457493,0.9793388057766349,0.2851428427611252,0.7217472839641981
0.06,1.715288435807444,1.0,2800.5059391196855,0.49154024975727856,1.2948472354435172,0.9795436858933563,0.28509511430391266,0.722784144615163
0.0605,1.7141520439690494,1.0,2804.736556940891,0.49439230591325245,1.2942960764692664,0.9797439195653078,0.2850473858467001,0.7238195770879966
0.061,1.713015652130655,1.0,2809.0020569446,0.49722834877009237,1.2937446335579,0.9799396441438624,0.2849996573894875,0.7248536041324461
0.0615,1.7118792602922603,1.0,2813.2899187937624,0.50004849398001,1.2931930194533445,0.9801310016842965,0.28495192893227494,0.7258860119382358
0.062,1.710742868453866,1.0,2817.5979840854775,0.5028528280715558,1.2926412538567476,0.9803181218246669,0.2849042004750624,0.7269167619296896
0.0625,1.7096064766154713,1.0,2821.924374832222,0.5056414367809938,1.2920893539037415,0.9805011292018827,0.2848564720178498,0.7279458205870373
0.063,1.7084700847770766,1.0,2826.267207297574,0.5084144058445876,1.2915373367299596,0.9806801438665858,0.28480874356063723,0.7289731546313843
0.0635,1.7073336929386822,1.0,2830.6245919485827,0.5111718209986008,1.2909852194710347,0.9808552814865281,0.28476101510342466,0.7299987310248526
0.064,1.7061973011002876,1.0,2834.9946334142633,0.5139137679792971,1.2904330192625997,0.9810266535394865,0.2847132866462121,0.7310225169706965
0.0645,1.7050609092618931,1.0,2839.3754304509225,0.5166403325229404,1.2898807532402874,0.9811943674963259,0.2846655581889995,0.7320444799134044
0.065,1.7039245174234985,1.0,2843.765075913968,0.5193516003657941,1.2893284385397308,0.9813585269947844,0.28461782973178695,0.7330645875387795
0.0655,1.702788125585104,1.0,2848.161656736023,0.522047657244122,1.2887760922965625,0.9815192320045123,0.2845701012745744,0.7340828077740025
0.066,1.7016517337467094,1.0,2852.563253911859,0.5247285888941879,1.2882237316464156,0.9816765789838648,0.2845223728173618,0.7350991087876755
0.0665,1.700515341908315,1.0,2856.967942489364,0.5273944810522554,1.287671373724923,0.9818306610289186,0.28447464436014924,0.7361134589898459
0.067,1.6993789500699203,1.0,2861.373791567689,0.5300454194545883,1.2871190356677178,0.9819815680151479,0.2844269159029367,0.7371258270320147
0.0675,1.698242558231526,1.0,2865.7788643013787,0.5326814898374501,1.2865667346104324,0.9821293867321711,0.2843791874457241,0.7381361818071238
0.068,1.6971061663931313,1.0,2870.1840329652346,0.5353027522600682,1.2860144627358956,0.9822741981726154,0.28433145898851153,0.7391445379652328
0.0685,1.6959697745547366,1.0,2874.5864613938124,0.5379093124801039,1.2854622450976145,0.9824160850735546,0.28428373053129896,0.7401508502035379
0.069,1.6948333827163422,1.0,2878.9839288309,0.5405012670860345,1.2849101012258382,0.9825551265378141,0.2842360020740864,0.7411550836080443
0.0695,1.6936969908779476,1.0,2883.376037657975,0.5430786940841432,1.2843580344680623,0.9826913971160085,0.2841882736168738,0.7421572328873096
0.07,1.6925605990395531,1.0,2887.7623891411577,0.5456416714807133,1.283806048171783,0.9828249688974491,0.28414054515966125,0.7431572927969248
0.07050000000000001,1.6914242072011585,1.0,2892.142583437296,0.5481902772820281,1.283254145684496,0.9829559116083342,0.2840928167024487,0.7441552581394973
0.07100000000000001,1.690287815362764,1.0,2896.516219600161,0.5507245894943705,1.2827023303536966,0.9830842927053901,0.2840450882452361,0.7451511237646344
0.07150000000000001,1.6891514235243694,1.0,2900.882895586458,0.5532446861240242,1.2821506055268814,0.9832101774651968,0.28399735978802354,0.7461448845689227
0.07200000000000001,1.688015031685975,1.0,2905.24220826275,0.555750645177272,1.281598974551546,0.9833336290694309,0.28394963133081097,0.7471365354959113
