Time [s],Phi [rad],STIM [ ],Fsee [N],Gamma [ ],Lcerel [ ],q [ ],Lmtc [m],fisomrel [ ]
0.0,1.8,1.0,18.232464410366397,0.0005242780945552955,1.3793101319696137,0.005070993145278198,0.288653,0.5412111727844204
0.0005,1.79999375,1.0,18.702900625466487,0.0061305466178987475,1.3792553228706494,0.014429725335623238,0.2886527375,0.5413437502368605
0.001,1.799975,1.0,22.426198309304258,0.011705368407380635,1.3788565522083334,0.03833867752340927,0.28865195,0.5423077578087193
0.0015,1.79994375,1.0,32.7181391008377,0.0172489198552211,1.3779075388653954,0.07430585539872568,0.2886506375,0.5445978701170271
0.002,1.7999,1.0,56.89868273255893,0.022761376362243547,1.3761562172665796,0.11908349852751983,0.2886488,0.5488089930219956
0.0025,1.79984375,1.0,102.49488519250916,0.028242912346863172,1.3736796021994524,0.169310659532963,0.28864643749999996,0.5547307235333514
0.003,1.7997750000000001,1.0,167.8280415105592,0.03369370124910095,1.3709598845898594,0.22215733287213202,0.28864354999999997,0.5611886607942544
0.0035,1.79969375,1.0,245.37631382886426,0.039113915535123917,1.3683496570387368,0.27545733818369517,0.2886401375,0.5673422517839445
0.004,1.7996,1.0,329.61087227141576,0.04450372670465013,1.365941735417878,0.32760218439165284,0.2886362,0.5729803771663003
0.0045000000000000005,1.7994937500000001,1.0,417.6648842053933,0.04986330525734184,1.363726702260185,0.3774802069640209,0.2886317375,0.5781342030067942
0.005,1.799375,1.0,507.9773079144371,0.05519282090759708,1.361677135746479,0.42440449075685344,0.28862675,0.5828751577749459
0.0055,1.79924375,1.0,599.4133037079209,0.060492442121491324,1.3597709750271816,0.46802113446242055,0.2886212375,0.5872603492601758
0.006,1.7991000000000001,1.0,691.1352818595079,0.06576233665221042,1.3579902687810046,0.5082149181147083,0.2886152,0.5913359931699748
0.006500000000000001,1.79894375,1.0,782.4378848792645,0.07100267125070547,1.3563215879210915,0.5450323856904083,0.2886086375,0.5951368813182139
0.007,1.798775,1.0,872.7338292656459,0.07621361169873046,1.3547542642802337,0.5786215005783771,0.28860155,0.5986907269610654
0.0075,1.79859375,1.0,961.5465629727661,0.08139532295856262,1.3532793420372715,0.6091879875375831,0.2885939375,0.6020207477350528
0.008,1.7984,1.0,1048.4766936263238,0.08654796869853514,1.3518893538975982,0.6369654328275978,0.2885858,0.6051463093543714
0.0085,1.79819375,1.0,1133.238984134304,0.09167171241095391,1.3505772528988456,0.662194950252986,0.2885771375,0.6080854264984021
0.009000000000000001,1.797975,1.0,1215.5887509967033,0.09676671608240593,1.3493371465207435,0.6851132199609449,0.28856795,0.6108531825916599
0.0095,1.79774375,1.0,1295.339008368954,0.1018331405302284,1.348163724724838,0.7059448129555957,0.2885582375,0.6134630764850998
0.01,1.7975,1.0,1372.3711294952159,0.1068711461072013,1.347051915206305,0.7248981185412449,0.288548,0.6159278321161854
0.0105,1.79724375,1.0,1446.622862096559,0.11188089306568302,1.3459968996869665,0.7421637273620952,0.2885372375,0.6182593922417323
0.011,1.796975,1.0,1518.0317961890735,0.11686253926767509,1.3449946839629539,0.7579144766139096,0.28852595000000003,0.6204676914454771
0.0115,1.79669375,1.0,1586.5727799588701,0.12181624199385455,1.3440414852662161,0.7723057489126524,0.2885141375,0.6225620421422704
0.012,1.7964,1.0,1652.2581410502157,0.1267421580989723,1.3431336500415567,0.7854765430241927,0.28850180000000003,0.6245513335751227
0.0125,1.79609375,1.0,1715.1296436751431,0.13164044430221963,1.3422676834652736,0.7975508300912596,0.2884889375,0.6264439823192451
0.013000000000000001,1.7957750000000001,1.0,1775.2187814202066,0.13651125517309104,1.3414406385169613,0.8086391209916075,0.28847555,0.6282470993913578
0.0135,1.79544375,1.0,1832.564822667296,0.14135474423539865,1.3406498332064203,0.818839725486103,0.2884616375,0.6299671273483356
0.014,1.7951000000000001,1.0,1887.2335473942821,0.1461710649242679,1.3398925956312904,0.8282399789035981,0.2884472,0.6316104063616841
0.0145,1.79474375,1.0,1939.303891427399,0.15096036975441787,1.3391663813201355,0.8369175209560743,0.2884322375,0.6331829266014172
0.015,1.794375,1.0,1988.8590354412274,0.15572281128685614,1.3384688362345745,0.8449414358006436,0.28841675,0.6346902005676429
0.0155,1.79399375,1.0,2035.9621903272,0.1604585390700261,1.3377980195078105,0.8523733182739431,0.2884007375,0.6361367921447731
0.016,1.7936,1.0,2080.692407935592,0.16516770265237107,1.337151990273048,0.8592680235604909,0.2883842,0.6375272176496256
0.0165,1.7931937500000001,1.0,2123.137361382275,0.1698504510247756,1.3365288681438863,0.8656744839618343,0.2883671375,0.6388658192149069
0.017,1.792775,1.0,2163.3884797799437,0.17450693297840014,1.3359268671163629,0.8716364202066351,0.28834955,0.6401566962671732
0.0175,1.7923437500000001,1.0,2201.541867671337,0.1791372973023543,1.3353442705035012,0.8771929486081049,0.2883314375,0.6414037635219216
0.018000000000000002,1.7919,1.0,2237.6636970537,0.18374168893697893,1.334779765265373,0.8823792075065275,0.2883128,0.6426100407170336
0.0185,1.79144375,1.0,2271.8282694394734,0.18832025282261475,1.3342320383620494,0.8872267137887947,0.2882936375,0.6437785221057064
0.019,1.790975,1.0,2304.1173439488352,0.19287313389960264,1.333699776753602,0.8917637820183705,0.28827395,0.6449121779164417
0.0195,1.79049375,1.0,2334.6161444229133,0.1974004766231562,1.3331817004154598,0.8960158991316186,0.2882537375,0.6460138855493074
0.02,1.79,1.0,2363.4055749875183,0.20190242449749374,1.3326766315533558,0.9000060607390868,0.288233,0.6470862844971708
0.0205,1.78949375,1.0,2390.5714301611793,0.20637912176461404,1.3321833969454058,0.9037550285403035,0.2882117375,0.6481319859496524
0.021,1.788975,1.0,2416.1746968263337,0.21083070842739754,1.3317011101758898,0.9072816361982141,0.28818995000000003,0.6491529767477113
0.021500000000000002,1.78844375,1.0,2440.280209850908,0.21525732448872467,1.3312288848290876,0.9106029396939797,0.2881676375,0.6501512304045887
0.022,1.7879,1.0,2462.9563346937434,0.2196591099514759,1.3307658344892794,0.9137344096291204,0.2881448,0.6511287076996513
0.0225,1.78734375,1.0,2484.2746674309956,0.22403620481853165,1.330311072740745,0.9166901005277076,0.28812143749999997,0.6520873572221246
0.023,1.786775,1.0,2504.29436431652,0.22838874609283852,1.3298638591913452,0.9194828265626375,0.28809755,0.6530288086715319
0.0235,1.78619375,1.0,2523.0969968301133,0.23271687576645558,1.329423264716561,0.9221242312521658,0.28807313749999996,0.6539550786463094
0.024,1.7856,1.0,2540.731982907693,0.23702072899660578,1.3289886868622462,0.9246249962894487,0.2880482,0.6548674869791291
0.0245,1.78499375,1.0,2557.248859489857,0.24130044059182781,1.3285595392021277,0.9269948852166516,0.2880227375,0.6557673124977218
0.025,1.784375,1.0,2572.698816950046,0.24555614536066042,1.328135235309932,0.9292428324828674,0.28799675,0.6566558270028556
0.025500000000000002,1.78374375,1.0,2587.134558905544,0.24978797811164227,1.327715188759386,0.9313770251667312,0.2879702375,0.657534295460459
0.026000000000000002,1.7831000000000001,1.0,2600.6101696535216,0.25399607365331206,1.3272988131242165,0.9334049756472459,0.2879432,0.6584039761718088
0.0265,1.78244375,1.0,2613.170906255719,0.2581805629024483,1.3268856156462594,0.935333599427101,0.2879156375,0.6592659256491262
0.027,1.781775,1.0,2624.877244016693,0.2623415837632472,1.3264749722248672,0.9371692412330361,0.28788755,0.6601214684654726
0.0275,1.7810937500000001,1.0,2635.7668248628984,0.26647926620484796,1.3260664798792188,0.9389177755473479,0.2878589375,0.6609714626886959
0.028,1.7804,1.0,2645.876089753903,0.2705937394512004,1.3256597539072137,0.9405846222183479,0.2878298,0.6618167241233834
0.0285,1.77969375,1.0,2655.242176716696,0.2746851327262545,1.3252544096067516,0.942174785403152,0.2878001375,0.6626580645132765
0.029,1.778975,1.0,2663.9028592699638,0.27875357525396005,1.3248500622757322,0.9436928908587416,0.28776995,0.6634962915798881
0.029500000000000002,1.7782437500000001,1.0,2671.896488130048,0.2827991962582669,1.324446327212055,0.9451432194400342,0.2877392375,0.6643322090516841
0.03,1.7775,1.0,2679.2612822915544,0.286822124552457,1.3240428257128463,0.946529737889025,0.287708,0.6651666042858225
0.0305,1.77674375,1.0,2686.025238215625,0.2908224819028325,1.3236392770234775,0.9478561356599267,0.2876762375,0.6660000585705383
0.031,1.775975,1.0,2692.239105075173,0.29480040685793035,1.323235195535427,0.949125817547273,0.28764395,0.666833572599408
0.0315,1.7751937500000001,1.0,2697.926260440205,0.2987560221790829,1.3228303498240317,0.9503419747854122,0.2876111375,0.6676676187260628
0.032,1.7744,1.0,2703.110352242686,0.3026894506276225,1.322424508464628,0.9515075761722274,0.2875778,0.6685026669047929
0.0325,1.77359375,1.0,2707.8152743257724,0.3066008149648814,1.322017440032553,0.9526253862946297,0.2875439375,0.6693391846775545
0.033,1.772775,1.0,2712.0651431808587,0.310490237952192,1.3216089131031434,0.9536979820513366,0.28750955,0.6701776371575725
0.0335,1.7719437500000002,1.0,2715.8842758719716,0.3143578423508866,1.3211986962517357,0.9547277676501872,0.2874746375,0.6710184870095193
0.034,1.7711000000000001,1.0,2719.29716914738,0.3182037509222976,1.3207865580536666,0.9557169882370351,0.2874392,0.6718621944262806
0.0345,1.7702437500000001,1.0,2722.3284797391175,0.32202808642775715,1.3203722670842732,0.9566677422955595,0.2874032375,0.6727092171023058
0.035,1.7693750000000001,1.0,2725.002547888985,0.32583097092120855,1.3199555960850131,0.9575819932139419,0.28736675,0.6735600017024361
0.035500000000000004,1.76849375,1.0,2727.338187745539,0.3296125179650922,1.3195363691690385,0.9584615826698692,0.2873297375,0.6744148876858034
0.036000000000000004,1.7676,1.0,2729.36297954005,0.33337286087240653,1.3191143316677907,0.9593082329585958,0.2872922,0.6752743728450871
0.0365,1.76669375,1.0,2731.091431863491,0.3371121153807784,1.3186893485880522,0.9601235673526436,0.2872541375,0.6761387088537084
0.037,1.765775,1.0,2732.5381222439823,0.34083039722783487,1.318261284936605,0.9609091093875568,0.28721555,0.6770081457605264
0.0375,1.76484375,1.0,2733.717689269016,0.34452782215120287,1.317830005720232,0.961666290101235,0.2871764375,0.6778829319638946
0.038,1.7639,1.0,2734.6448251115485,0.3482045058885093,1.317395375945715,0.962396454670786,0.28713679999999997,0.6787633141845606
0.0385,1.76294375,1.0,2735.334268460393,0.35186056417738115,1.316957260619837,0.9631008685030912,0.28709663750000003,0.6796495374374003
0.039,1.761975,1.0,2735.800797854155,0.35549611275544535,1.31651552474938,0.9637807228295061,0.28705595,0.6805418450019917
0.0395,1.7609937500000001,1.0,2736.0592254200196,0.35911126736032883,1.3160700333411268,0.9644371398499896,0.2870147375,0.6814404783920248
0.04,1.76,1.0,2736.1243910156936,0.3627061437296586,1.3156206514018596,0.9650711774673849,0.286973,0.6823456773235519
0.0405,1.7589937500000001,1.0,2736.0110623163027,0.36628085730770854,1.3151672447959413,0.9656838336711057,0.2869307375,0.6832576779583395
0.041,1.757975,1.0,2735.72992324123,0.3698355206224218,1.3147097166218136,0.9662760532464316,0.28688795,0.684176639871868
0.0415,1.75694375,1.0,2735.28940705312,0.3733702453885704,1.3142479905402844,0.9668487302315483,0.2868446375,0.6851026799789328
0.042,1.7559,1.0,2734.6986357929327,0.37688514288095515,1.3137819840638711,0.9674027090586181,0.28680079999999997,0.6860359262657543
0.0425,1.75484375,1.0,2733.9667404805336,0.380380324374377,1.3133116147050912,0.9679387883674104,0.2867564375,0.6869765053918638
0.043000000000000003,1.753775,1.0,2733.1033439673292,0.38385590064747027,1.312836795568417,0.9684577235127751,0.28671155,0.687924551462004
0.043500000000000004,1.75269375,1.0,2732.1195864250935,0.3873119820844639,1.3123574260088482,0.9689602285958595,0.28666613750000003,0.6888802245444099
0.044,1.7516,1.0,2731.0222489483217,0.39074867749823583,1.3118734449972809,0.9694469831050003,0.2866202,0.6898436042905869
0.0445,1.75049375,1.0,2729.8178381749144,0.39416609556956866,1.3113847940173435,0.9699186313815107,0.2865737375,0.6908147642052823
0.045,1.7493785362600376,1.0,2728.686008919413,0.3975643445643744,1.310891437470363,0.9703757863080892,0.28652689852292157,0.6917937312104954
0.0455,1.7482629387331663,1.0,2728.0260433177214,0.4009435324608475,1.3103936193278594,0.9708190505979344,0.286480043426793,0.6927799779354336
0.046,1.747147341206295,1.0,2727.8200145825685,0.40430376566442594,1.3098916743544842,0.9712490029946135,0.2864331883306644,0.6937728002735151
0.0465,1.746031743679424,1.0,2728.0315214478314,0.40764515041315946,1.3093859330444175,0.9716661928884973,0.2863863332345358,0.6947715064867194
0.047,1.7449161461525526,1.0,2728.625794993628,0.4109677925650733,1.308876711925077,0.9720711413505033,0.2863394781384072,0.6957754363212787
0.0475,1.7438005486256813,1.0,2729.569988342296,0.4142717977061303,1.3083643106941123,0.9724643426329186,0.2862926230422786,0.6967839664864317
0.048,1.7426849510988103,1.0,2730.836975074882,0.41755726988870895,1.307848977509259,0.9728462631509439,0.28624576794615003,0.6977965785921676
0.0485,1.741569353571939,1.0,2732.4003817761704,0.4208243129630299,1.3073309540071383,0.9732173464313877,0.2861989128500214,0.6988127701181832
0.049,1.7404537560450677,1.0,2734.2429315292475,0.42407302661086965,1.306810399400422,0.9735780087422612,0.28615205775389285,0.6998322028691119
0.0495,1.7393381585181966,1.0,2736.3271046541604,0.42730352037945146,1.306287656859871,0.9739286604261547,0.28610520265776423,0.7008541812987563
0.05,1.7382225609913253,1.0,2738.632158284841,0.4305158966775739,1.3057629171144574,0.9742696816109732,0.2860583475616357,0.7018783115996732
0.0505,1.737106963464454,1.0,2741.1433810172357,0.43371025515977235,1.3052363161216844,0.974601430953171,0.28601149246550706,0.7029043090575993
0.051000000000000004,1.735991365937583,1.0,2743.8460581824343,0.4368866954805823,1.3047079898390561,0.9749242507432931,0.2859646373693785,0.7039318907150564
0.051500000000000004,1.7348757684107117,1.0,2746.7254664406087,0.440045317294539,1.304178074224076,0.9752384678010367,0.2859177822732499,0.704960775386902
0.052000000000000005,1.7337601708838404,1.0,2749.7668687857736,0.4431862202561779,1.303646705234248,0.9755443943138462,0.28587092717712126,0.7059906836746994
0.0525,1.7326445733569693,1.0,2752.9555099595755,0.44630950402003433,1.3031140188270751,0.975842328623053,0.2858240720809927,0.7070213379799093
0.053,1.731528975830098,1.0,2756.2766122749535,0.44941526824064376,1.3025801509600614,0.9761325559612712,0.28577721698486414,0.7080524625159006
0.0535,1.7304133783032267,1.0,2759.7166524676927,0.4525036114215966,1.3020452260142812,0.9764153483138898,0.2857303618887355,0.7090838056185644
0.054,1.7292977807763557,1.0,2763.2667811131255,0.4555746295960974,1.3015093259104624,0.9766909631041324,0.2856835067926069,0.7101151989445744
0.0545,1.7281821832494844,1.0,2766.911412155853,0.4586284259163215,1.300972593237355,0.9769596511225082,0.28563665169647834,0.7111463588009619
0.055,1.727066585722613,1.0,2770.6438880542814,0.46166509482678114,1.3004350897029078,0.9772216468655025,0.2855897966003498,0.7121771584030796
0.0555,1.725950988195742,1.0,2774.4575370038356,0.4646847307719883,1.2998968770150692,0.9774771750043988,0.28554294150422116,0.7132074718004098
0.056,1.7248353906688707,1.0,2778.3456719248484,0.4676874281964552,1.299358016881788,0.9777264508797635,0.28549608640809254,0.7142371738794744
0.0565,1.7237197931419994,1.0,2782.3015895342055,0.47067328154469396,1.2988185710110127,0.9779696809671421,0.285449231311964,0.7152661403665062
0.057,1.7226041956151283,1.0,2786.3185695018515,0.47364238526121666,1.2982786011106922,0.9782070633158699,0.2854023762158354,0.7162942478298744
0.0575,1.721488598088257,1.0,2790.3898736914543,0.47659483379053547,1.2977381688887748,0.9784387879627507,0.2853555211197068,0.7173213736822686
0.058,1.7203730005613858,1.0,2794.5087454860627,0.4795307215771624,1.2971973360532094,0.9786650373222334,0.2853086660235782,0.7183473961826394
0.0585,1.7192574030345147,1.0,2798.673525484762,0.48245013223888666,1.296656118385125,0.9788859830797785,0.2852618109274496,0.7193722813286693
0.059000000000000004,1.7181418055076434,1.0,2802.874685790944,0.48535316972689657,1.296114602207014,0.9791017957594134,0.285214955831321,0.7203958621166513
0.059500000000000004,1.717026207980772,1.0,2807.1057474721747,0.4882399313981826,1.2955728462610197,0.9793126371515758,0.28516810073519244,0.7214180247230857
0.06,1.715910610453901,1.0,2811.3642714476396,0.49111050554861124,1.295030872934169,0.9795186600687208,0.2851212456390638,0.7224387245398667
0.0605,1.7147950129270297,1.0,2815.6478113986827,0.49396498047404896,1.2944887046134887,0.9797200114569184,0.28507439054293526,0.7234579172674406
0.061,1.7136794154001584,1.0,2819.9539136654666,0.4968034444703624,1.2939463636860054,0.9799168326668629,0.28502753544680665,0.7244755589150977
0.0615,1.7125638178732874,1.0,2824.2801171565743,0.499625985833418,1.2934038725387456,0.9801092597103679,0.2849806803506781,0.7254916058012358
0.062,1.711448220346416,1.0,2828.6239532682603,0.5024326928590822,1.292861253558736,0.980297423503232,0.28493382525454947,0.7265060145535898
0.0625,1.7103326228195448,1.0,2832.9829458159734,0.5052236538432218,1.2923185291330033,0.9804814500952921,0.2848869701584209,0.7275187421094309
0.063,1.7092170252926737,1.0,2837.3546109759,0.5079989570817028,1.2917757216485743,0.9806614608884363,0.2848401150622923,0.7285297457157324
0.0635,1.7081014277658024,1.0,2841.73645723868,0.5107586908703923,1.2912328534924757,0.9808375728432888,0.28479325996616367,0.7295389829293054
0.064,1.7069858302389311,1.0,2846.125985373535,0.5135029435051564,1.290689947051734,0.9810098986752336,0.2847464048700351,0.7305464116169009
0.0645,1.70587023271206,1.0,2850.520688403712,0.5162318032818618,1.2901470247133755,0.9811785470404053,0.28469954977390655,0.7315519899552803
0.065,1.7047546351851888,1.0,2854.9180597571653,0.5189453584365407,1.2896041087918646,0.9813436227044348,0.28465269467777793,0.7325556765652739
0.0655,1.7036390376583175,1.0,2859.3207304853518,0.5216436644377155,1.2890611759063284,0.9815052222066246,0.2846058395816493,0.733557514616233
0.066,1.7025234401314464,1.0,2863.721788016652,0.5243268511571625,1.288518287438415,0.9816634479352784,0.28455898448552075,0.7345573909872583
0.0665,1.7014078426045751,1.0,2868.120654166058,0.5269949993554489,1.2879754484126764,0.9818183926230679,0.28451212938939213,0.7355552969117282
0.067,1.7002922450777038,1.0,2872.5167490251783,0.5296481897931417,1.2874326638536657,0.9819701457960096,0.28446527429326357,0.7365512236925562
0.0675,1.6991766475508328,1.0,2876.9094909674573,0.5322865032308078,1.2868899387859354,0.9821187939072283,0.28441841919713495,0.7375451627021756
0.068,1.6980610500239615,1.0,2881.2982966552636,0.5349100204290145,1.2863472782340384,0.9822644204642434,0.2843715641010064,0.7385371053825198
0.0685,1.6969454524970902,1.0,2885.682581046157,0.5375188221483287,1.2858046872225273,0.9824071061501283,0.2843247090048778,0.7395270432450043
0.069,1.695829854970219,1.0,2890.0617574007933,0.5401129891493175,1.2852621707759548,0.9825469289388836,0.2842778539087492,0.7405149678705037
0.0695,1.6947142574433478,1.0,2894.435237290648,0.5426926021925479,1.2847197339188738,0.9826839642053347,0.2842309988126206,0.7415008709093294
0.07,1.6935986599164765,1.0,2898.802430606973,0.545257742038587,1.2841773816758366,0.9828182848298496,0.28418414371649203,0.742484744081205
0.07050000000000001,1.6924830623896054,1.0,2903.162745569371,0.5478084894480019,1.2836351190713962,0.982949961298156,0.2841372886203634,0.743466579175239
0.07100000000000001,1.6913674648627341,1.0,2907.5155887360734,0.5503449251813596,1.283092951130105,0.9830790617965186,0.2840904335242348,0.7444463680498978
0.07150000000000001,1.6902518673358629,1.0,2911.860365013938,0.552867129999227,1.2825508828765162,0.983205652302518,0.28404357842810624,0.7454241026329759
0.07200000000000001,1.6891362698089918,1.0,2916.1964776693067,0.5553751846621715,1.282008919335182,0.9833297966716691,0.2839967233319777,0.7463997749215651
