Time [s],Phi [rad],STIM [ ],Fsee [N],Gamma [ ],Lcerel [ ],q [ ],Lmtc [m],fisomrel [ ]
0.0,1.8,1.0,17.9662542133458,1.0749267258496355e-05,1.3793398474941,0.005000030777710769,0.288653,0.5411392860432171
0.0005,1.79999375,1.0,18.27592208319141,0.005619898281165106,1.379302479105715,0.012942596590377983,0.2886527375,0.5412296854089882
0.001,1.799975,1.0,21.618148882153694,0.01119758440402163,1.378938325878155,0.035612488708896266,0.28865195,0.5421101568260883
0.0015,1.79994375,1.0,31.070102572551193,0.016743984118633013,1.3780461299008484,0.07060706305920754,0.2886506375,0.5442637872034147
0.002,1.7999,1.0,53.585337708892745,0.02225927291614972,1.3763679403172682,0.11472418303847443,0.2886488,0.5483009359098765
0.0025,1.79984375,1.0,97.12454583734026,0.02774362530364053,1.3739348970181302,0.1645815773134452,0.28864643749999996,0.5541221071174758
0.003,1.7997750000000001,1.0,160.96595463933107,0.03319721481179962,1.371214052254341,0.21728734753172688,0.28864354999999997,0.560587140972294
0.0035,1.79969375,1.0,237.69240707327933,0.03862021399454516,1.3685844546854817,0.27061974261320076,0.2886401375,0.5667904966970857
0.004,1.7996,1.0,321.47662718599554,0.0440127944397998,1.3661558313544218,0.322922436714905,0.2886362,0.5724805713174499
0.0045000000000000005,1.7994937500000001,1.0,409.27812317581214,0.04937512677467553,1.363922570688673,0.37304080507295984,0.2886317375,0.5776797274979202
0.005,1.799375,1.0,499.4242123719596,0.054707380656570145,1.361858114799583,0.42025335216717263,0.28862675,0.5824576044441705
0.0055,1.79924375,1.0,590.8013208129365,0.06000972482057045,1.3599386220076115,0.46417915282970557,0.2886212375,0.5868756007246867
0.006,1.7991000000000001,1.0,682.5291143296971,0.06528232702275655,1.3581462146883898,0.5046849750534638,0.2886152,0.5909798753328374
0.006500000000000001,1.79894375,1.0,773.8743496582845,0.07052535383636792,1.3564673715450928,0.5418055379446638,0.2886086375,0.5948055262236377
0.007,1.798775,1.0,864.3029569218588,0.07573897199569442,1.3548901180394533,0.5756808967090783,0.28860155,0.5983833039475221
0.0075,1.79859375,1.0,953.2682918458461,0.08092334568581652,1.3534063934921927,0.6065135831027216,0.2885939375,0.6017344420881424
0.008,1.7984,1.0,1040.369834396424,0.08607863883591164,1.3520084788003566,0.6345355071568418,0.2885858,0.6048789249128155
0.0085,1.79819375,1.0,1125.3299468021019,0.09120501502823597,1.3506890189719456,0.6599875333822485,0.2885771375,0.6078354973612704
0.009000000000000001,1.797975,1.0,1207.894918519742,0.09630263631466165,1.349442106950472,0.6831071663635148,0.28856795,0.6106193044962208
0.0095,1.79774375,1.0,1287.884777549387,0.10137166393853053,1.3482622220981308,0.7041201986492142,0.2885582375,0.6132443388369648
0.01,1.7975,1.0,1365.1723747510619,0.10641225839691722,1.3471443168324406,0.7232366219886092,0.288548,0.6157232885552872
0.0105,1.79724375,1.0,1439.6697668056815,0.11142457914371612,1.346083817880618,0.7406488118385698,0.2885372375,0.6180675733455843
0.011,1.796975,1.0,1511.3203315092826,0.11640878443990428,1.3450765766407564,0.756531160927682,0.28852595000000003,0.620287488054516
0.0115,1.79669375,1.0,1580.1149067703143,0.1213650322251678,1.3441185560006634,0.7710404911275937,0.2885141375,0.6223929190561808
0.012,1.7964,1.0,1646.068850313715,0.12629348022475495,1.3432060263780496,0.7843172236288368,0.28850180000000003,0.6243929319444819
0.0125,1.79609375,1.0,1709.183518313711,0.13119428325857774,1.342335925169352,0.7964868358328717,0.2884889375,0.6262950074567724
0.013000000000000001,1.7957750000000001,1.0,1769.4961888574167,0.1360675961465482,1.3415051897710077,0.807660968871822,0.28847555,0.6281065221921811
0.0135,1.79544375,1.0,1827.0696174161287,0.1409135732269356,1.3407108385059314,0.8179388751362483,0.2884616375,0.6298345807544169
0.014,1.7951000000000001,1.0,1881.9774923229422,0.14573236868790929,1.3399500915689826,0.8274088047713357,0.2884472,0.631485762889797
0.0145,1.79474375,1.0,1934.2879629258475,0.15052413533071693,1.3392205061912028,0.8361492837437596,0.2884322375,0.6330658424087505
0.015,1.794375,1.0,1984.0582227505902,0.15528902363382083,1.3385199882154772,0.8442302283892882,0.28841675,0.6345797754419424
0.0155,1.79399375,1.0,2031.3637294553403,0.1600271840756832,1.3378464434846908,0.8517138336888889,0.2884007375,0.6360324637268674
0.016,1.7936,1.0,2076.2947673007216,0.16473876695895,1.3371977973765634,0.8586554912566319,0.2883842,0.6374287163405423
0.0165,1.7931937500000001,1.0,2118.9383575400802,0.16942392133551099,1.3365721653121119,0.8651046460838632,0.2883671375,0.6387728875545805
0.017,1.792775,1.0,2159.3937071567457,0.17408279714025554,1.3359676720626572,0.8711054474601017,0.28834955,0.6400692708188738
0.0175,1.7923437500000001,1.0,2197.7273814602295,0.178715540310947,1.3353828936983019,0.8766974937042802,0.2883314375,0.6413211562964081
0.018000000000000002,1.7919,1.0,2234.015313425673,0.18332229678534867,1.3348164062891479,0.881916241494785,0.2883128,0.64253180510083
0.0185,1.79144375,1.0,2268.342025536974,0.18790321250122383,1.334266785905298,0.8867934895993346,0.2882936375,0.6437044510221357
0.019,1.790975,1.0,2300.7902964309656,0.19245843222696735,1.3337327036612694,0.8913578255021388,0.28827395,0.6448420998308015
0.0195,1.79049375,1.0,2331.4526290124873,0.19698810184438664,1.3332128030220731,0.8956349647214997,0.2882537375,0.645947793055399
0.02,1.79,1.0,2360.405648994972,0.20149236472228305,1.33270594498559,0.8996481319246563,0.288233,0.6470240885562677
0.0205,1.78949375,1.0,2387.713845795281,0.20597136200700217,1.3322111598831432,0.9034183273998673,0.2882117375,0.648073167248395
0.021,1.788975,1.0,2413.446164033498,0.21042523484488962,1.3317274780460555,0.9069645364832005,0.28818995000000003,0.6490971948635325
0.021500000000000002,1.78844375,1.0,2437.6756330345333,0.21485412438229093,1.3312539298056503,0.9103039505245277,0.2881676375,0.6500983226668154
0.022,1.7879,1.0,2460.4737428594344,0.21925817067354134,1.3307895959877492,0.9134521708634138,0.2881448,0.6510785815888447
0.0225,1.78734375,1.0,2481.912241330853,0.22363751425670883,1.3303335865555788,0.9164233751989769,0.28812143749999997,0.652039928550153
0.023,1.786775,1.0,2502.059750588851,0.22799229510371763,1.3298850693572926,0.9192304724160734,0.28809755,0.6529841869105047
0.0235,1.78619375,1.0,2520.9694167385455,0.2323226492655639,1.3294433833234762,0.9218852536112605,0.28807313749999996,0.6539128098991744
0.024,1.7856,1.0,2538.696509308699,0.2366287127932437,1.3290078673847157,0.9243984767217611,0.2880482,0.6548272423436268
0.0245,1.78499375,1.0,2555.298243231746,0.2409106217377532,1.328577860471596,0.9267799712819018,0.2880227375,0.6557289209435853
0.025,1.784375,1.0,2570.833610513239,0.24516851215008853,1.3281527015147034,0.9290387312888638,0.28799675,0.6566192745172257
0.025500000000000002,1.78374375,1.0,2585.3527856316227,0.24940251752571968,1.3277318269120293,0.9311830127818892,0.2879702375,0.6574995205003307
0.026000000000000002,1.7831000000000001,1.0,2598.9150864009475,0.2536127751097719,1.3273146005589695,0.9332203803895424,0.2879432,0.6583710212401856
0.0265,1.78244375,1.0,2611.570962678276,0.25779941894559544,1.3269004809788025,0.9351577973974662,0.2879156375,0.6592349347443481
0.027,1.781775,1.0,2623.3592426639534,0.26196257950401464,1.3264890446141646,0.9370016857957412,0.28788755,0.6600921675603637
0.0275,1.7810937500000001,1.0,2634.3196429774034,0.266102387255854,1.3260798679076924,0.9387579600789937,0.2878589375,0.6609436216368045
0.028,1.7804,1.0,2644.492692434848,0.27021897267193795,1.3256725273020218,0.9404320740615385,0.2878298,0.6617901943900315
0.0285,1.77969375,1.0,2653.9196598049175,0.2743124662230909,1.3252665992397894,0.9420290628072284,0.2878001375,0.6626327787595097
0.029,1.778975,1.0,2662.642485541516,0.2783829983801373,1.3248616601636318,0.9435535802369122,0.28776995,0.6634722632516868
0.029500000000000002,1.7782437500000001,1.0,2670.6976112856787,0.2824306985785491,1.3244573426269803,0.945009940219499,0.2877392375,0.6643094158655558
0.03,1.7775,1.0,2678.1248452340787,0.28645569527057463,1.324053252998975,0.9464021351170746,0.287708,0.6651450549132089
0.0305,1.77674375,1.0,2684.9561401072883,0.2904581150851005,1.323649074023653,0.947733876806737,0.2876762375,0.6659798370013774
0.031,1.775975,1.0,2691.219719149138,0.29443808406728106,1.3232445261513586,0.9490086158133281,0.28764395,0.6668143377333663
0.0315,1.7751937500000001,1.0,2696.944139720275,0.2983957282622708,1.3228393298324361,0.9502295586553663,0.2876111375,0.6676491298257128
0.032,1.7744042767624093,1.0,2702.3687946609784,0.30233117208409777,1.322433213671224,0.951399688616301,0.2875779796240212,0.6684847663317819
0.0325,1.7736146169297304,1.0,2707.8805022626425,0.30624454277579566,1.3220262685442712,0.952521827706938,0.2875448139110487,0.6693210534676433
0.033,1.7728249570970516,1.0,2713.472971728988,0.31013596351852607,1.3216186383423554,0.9535986104186561,0.2875116481980762,0.67015768963906
0.0335,1.7720352972643727,1.0,2719.133425577521,0.3140055562020219,1.3212104415458021,0.9546324905052633,0.28747848248510366,0.670994426791935
0.034,1.7712456374316938,1.0,2724.8490345956834,0.317853442716016,1.320801796634937,0.9556257586070718,0.28744531677213114,0.6718310180988409
0.0345,1.770455977599015,1.0,2730.606916508548,0.3216797449502411,1.320392822090085,0.956580555023647,0.2874121510591586,0.6726672179628546
0.035,1.769666317766336,1.0,2736.3944575454575,0.3254845844970879,1.3199836334630584,0.9574988809555035,0.2873789853461861,0.6735027879967447
0.035500000000000004,1.7688766579336574,1.0,2742.2041594890643,0.32926807912700073,1.319574299430535,0.9583826036598931,0.2873458196332136,0.674337586554473
0.036000000000000004,1.7680869981009786,1.0,2748.020459176075,0.33303035542723264,1.3191649614399255,0.959233482087176,0.2873126539202411,0.6751713245824327
0.0365,1.7672973382682997,1.0,2753.838353420874,0.33677153006851623,1.3187556647794272,0.9600531532388505,0.28727948820726856,0.6760039099841373
0.037,1.7665076784356208,1.0,2759.6528178883027,0.34049171972158426,1.3183464547372385,0.960843153300574,0.28724632249429605,0.6768352511359418
0.0375,1.765718018602942,1.0,2765.45880715813,0.3441910410571693,1.3179373766015574,0.9616049249829562,0.28721315678132353,0.6776652568868605
0.038,1.764928358770263,1.0,2771.2512548346604,0.3478696107460041,1.3175284756605818,0.9623398242500105,0.287179991068351,0.6784938365582502
0.0385,1.7641386989375842,1.0,2777.0250737021206,0.35152754545882126,1.3171197972025095,0.9630491264924876,0.28714682535537855,0.679320899943365
0.039,1.7633490391049054,1.0,2782.775155924821,0.35516496186635343,1.3167113865155384,0.9637340321974374,0.28711365964240604,0.680146357306777
0.0395,1.7625593792722265,1.0,2788.499894833641,0.35878196732623424,1.316303257218835,0.964395667500202,0.2870804939294335,0.6809701832677155
0.04,1.7617697194395479,1.0,2794.1936299769513,0.3623786844146552,1.315895459298533,0.965035100107308,0.287047328216461,0.681792279319416
0.0405,1.760980059606869,1.0,2799.850998084487,0.36595523567338123,1.3154880398759883,0.9656533368211401,0.2870141625034885,0.6826125532372667
0.041,1.7601903997741901,1.0,2805.471234400375,0.36951173069775123,1.3150810046611594,0.9662513220421546,0.286980996790516,0.683430996497814
0.0415,1.7594007399415112,1.0,2811.0535725879795,0.373048279083104,1.314674359364006,0.9668299478684641,0.28694783107754346,0.6842476006340956
0.042,1.7586110801088324,1.0,2816.597244778902,0.3765649904247784,1.3142681096944868,0.9673900575348813,0.28691466536457094,0.6850623572355039
0.0425,1.7578214202761535,1.0,2822.101481622709,0.38006197431811334,1.313862261362561,0.9679324485918698,0.2868814996515984,0.6858752579476386
0.043000000000000003,1.7570317604434746,1.0,2827.5655123373745,0.3835393403584476,1.313456820078188,0.9684578758465322,0.28684833393862597,0.6866862944721636
0.043500000000000004,1.756242100610796,1.0,2832.9885647603865,0.3869971981411201,1.3130517915513267,0.9689670540856774,0.28681516822565345,0.6874954585666604
0.044,1.7554524407781171,1.0,2838.369865400873,0.39043565726146967,1.312647181491936,0.9694606605991469,0.28678200251268093,0.6883027420444783
0.0445,1.7546627809454383,1.0,2843.70863949185,0.39385482731483523,1.3122429956099755,0.969939337519897,0.2867488367997084,0.6891081367745817
0.045,1.7538731211127594,1.0,2849.0041110439297,0.3972548178965556,1.3118392396154037,0.9704036939958278,0.2867156710867359,0.6899116346813994
0.0455,1.7530834612800805,1.0,2854.2555028991114,0.40063573860196955,1.3114359192181804,0.9708543082069878,0.2866825053737634,0.6907132277446653
0.046,1.7522938014474017,1.0,2859.4634946979513,0.4039976771062898,1.311033027181044,0.9712917252659965,0.28664933966079087,0.6915129336817474
0.0465,1.7515041416147228,1.0,2864.6276678407385,0.40734076076784137,1.310630566048335,0.9717164693103766,0.28661617394781835,0.6923107507541166
0.047,1.750714481782044,1.0,2869.747792427284,0.4106651062975463,1.3102285366933601,0.9721290370172083,0.28658300823484584,0.6931066805519659
0.0475,1.749924821949365,1.0,2874.824442957048,0.4139708145359865,1.3098269328727914,0.9725298982366144,0.2865498425218733,0.6939007387329044
0.048,1.7491351621166864,1.0,2879.8581976365044,0.4172579863237438,1.309425748343301,0.9729195001574524,0.2865166768089008,0.6946929408870797
0.0485,1.7483455022840075,1.0,2884.8496383206684,0.4205267225014,1.309024976861561,0.9732982686107905,0.2864835110959283,0.6954833025373461
0.049,1.7475558424513287,1.0,2889.799350455456,0.4237771239095369,1.3086246121842435,0.9736666092868047,0.2864503453829558,0.6962718391394301
0.0495,1.7467661826186498,1.0,2894.7079230210734,0.4270092913887365,1.308224648068021,0.9740249088715927,0.28641717966998326,0.6970585660820936
0.05,1.745976522785971,1.0,2899.5759484759715,0.4302233257795805,1.3078250782695653,0.9743735361098526,0.2863840139570108,0.6978434986872959
0.0505,1.745186862953292,1.0,2904.404022701829,0.4334193279226507,1.3074258965455487,0.9747128427988939,0.2863508482440383,0.6986266522103495
0.051000000000000004,1.7443972031206132,1.0,2909.1927449495706,0.4365973986585291,1.3070270966526432,0.9750431647189942,0.28631768253106576,0.6994080418400782
0.051500000000000004,1.7436075432879345,1.0,2913.9427177859448,0.4397576388277974,1.3066286723475211,0.9753648225047068,0.28628451681809325,0.7001876826989686
0.052000000000000005,1.7428178834552557,1.0,2918.654547041137,0.4429001492710375,1.3062306173868545,0.9756781224613584,0.28625135110512073,0.7009655898433225
0.0525,1.7420282236225768,1.0,2923.328841757209,0.44602503082883116,1.3058329255273156,0.9759833573306368,0.2862181853921482,0.7017417782634039
0.053,1.741238563789898,1.0,2927.96621413744,0.44913238434176034,1.3054355905255763,0.9762808070088564,0.2861850196791757,0.7025162628835857
0.0535,1.740448903957219,1.0,2932.567279496429,0.45222231065040686,1.305038606138309,0.9765707392212142,0.2861518539662032,0.7032890585624922
0.054,1.7396592441245402,1.0,2937.1317956645375,0.4552948655568651,1.3046419736626833,0.9768534061556701,0.28611868825323067,0.7040601654429368
0.0545,1.7388695842918613,1.0,2941.66118975988,0.45835017011085305,1.3042456797832438,0.9771290548249003,0.28608552254025815,0.7048296120319895
0.055,1.7380799244591825,1.0,2946.1571089806184,0.46138836543803824,1.3038497093068881,0.9773979235259243,0.2860523568272857,0.7055974303383915
0.0555,1.7372902646265036,1.0,2950.620116331415,0.4644095417065078,1.3034540565715975,0.9776602362255361,0.2860191911143132,0.7063636337699034
0.056,1.736500604793825,1.0,2955.05077745651,0.4674137890843485,1.3030587159153533,0.9779162076026386,0.28598602540134066,0.7071282356751825
0.0565,1.735710944961146,1.0,2959.4496606000857,0.47040119773964745,1.3026636816761368,0.9781660435095474,0.28595285968836814,0.7078912493438971
0.057,1.7349212851284672,1.0,2963.8173365676193,0.47337185784049146,1.3022689481919292,0.9784099414067515,0.28591969397539563,0.7086526880068393
0.0575,1.7341316252957883,1.0,2968.1543786875623,0.4763258595549676,1.3018745098007118,0.978648090772862,0.2858865282624231,0.709412564836033
0.058,1.7333419654631095,1.0,2972.4613627740823,0.4792632930511627,1.3014803608404661,0.9788806734913507,0.2858533625494506,0.7101708929448416
0.0585,1.7325523056304306,1.0,2976.7388670903692,0.4821842484971638,1.3010864956491734,0.9791078642155712,0.2858201968364781,0.7109276853880748
0.059000000000000004,1.7317626457977517,1.0,2980.9874723125904,0.48508881606105786,1.3006929085648147,0.9793298307134432,0.28578703112350556,0.7116829551620919
0.059500000000000004,1.730972985965073,1.0,2985.207761494624,0.4879770859109317,1.3002995939253716,0.9795467341930831,0.28575386541053305,0.7124367152049008
0.06,1.7301833261323942,1.0,2989.400320033671,0.49084914821487236,1.299906546068825,0.9797587296105796,0.28572069969756053,0.7131889783962619
0.0605,1.7293936662997154,1.0,2993.5657356361025,0.49370509314096683,1.2995137593331567,0.9799659659610178,0.285687533984588,0.7139397575577802
0.061,1.7286040064670365,1.0,2997.704598284598,0.496545010857302,1.2991212280563476,0.9801685865537942,0.2856543682716155,0.7146890654530055
0.0615,1.7278143466343576,1.0,3001.817500205549,0.49936899153196485,1.2987289465763792,0.9803667292731755,0.285621202558643,0.7154369147875217
0.062,1.7270246868016788,1.0,3005.9050358375866,0.5021771253330423,1.2983369092312327,0.9805605268250067,0.2855880368456705,0.7161833182090409
0.0625,1.7262350269689999,1.0,3009.9678018000955,0.5049695024286213,1.2979451103588895,0.980750106970399,0.285554871132698,0.716928288307491
0.063,1.725445367136321,1.0,3014.0063968634745,0.5077462129867888,1.2975535442973307,0.9809355927471777,0.2855217054197255,0.7176718376151034
0.0635,1.7246557073036421,1.0,3018.021421919312,0.5105073471756317,1.297162205384538,0.9811171026798203,0.285488539706753,0.7184139786064977
0.064,1.7238660474709635,1.0,3022.0134799513457,0.5132529951632371,1.2967710879584922,0.981294750978562,0.28545537399378046,0.7191547236987657
0.0645,1.7230763876382846,1.0,3025.9831760077127,0.5159832471176918,1.2963801863571747,0.981468647728302,0.28542220828080794,0.7198940852515512
0.065,1.7222867278056058,1.0,3029.93104356384,0.5186981896259324,1.2959894955536102,0.9816388988508082,0.2853890425678354,0.7206320743683654
0.0655,1.721497067972927,1.0,3033.8562359559915,0.5213978451827329,1.2955990224355698,0.9818056027033817,0.2853558768548629,0.7213686796401004
0.066,1.720707408140248,1.0,3037.7609294760023,0.5240823855683802,1.2952087478295824,0.9819688630698064,0.2853227111418904,0.7221039387911035
0.0665,1.7199177483075692,1.0,3041.6454389514247,0.5267518902461961,1.2948186686421712,0.9821287746162705,0.28528954542891793,0.7228378591200819
0.067,1.7191280884748903,1.0,3045.510080384415,0.529406438679503,1.2944287817798583,0.982285428730818,0.2852563797159454,0.7235704478942238
0.0675,1.7183384286422116,1.0,3049.35517093837,0.532046110331623,1.2940390841491671,0.9824389136600254,0.2852232140029729,0.7243017123492316
0.068,1.7175487688095328,1.0,3053.1810289252257,0.5346709846658779,1.29364957265662,0.9825893146390551,0.2851900482900004,0.7250316596893638
0.0685,1.716759108976854,1.0,3056.9879737920955,0.5372811411455902,1.2932602442087398,0.9827367140154567,0.28515688257702787,0.7257602970874691
0.069,1.715969449144175,1.0,3060.7763261088535,0.5398766592340819,1.2928710957120493,0.9828811913670535,0.28512371686405535,0.7264876316850245
0.0695,1.7151797893114962,1.0,3064.546407555652,0.542457618394675,1.2924821240730715,0.9830228236142351,0.28509055115108284,0.7272136705921697
0.07,1.7143901294788173,1.0,3068.298540910754,0.5450240980906917,1.2920933261983287,0.9831616851269617,0.2850573854381103,0.7279384208877446
0.07050000000000001,1.7136004696461384,1.0,3072.033050038371,0.5475761777854541,1.2917046989943441,0.9832978478267596,0.2850242197251378,0.7286618896193211
0.07100000000000001,1.7128108098134596,1.0,3075.7502598769547,0.5501139369422843,1.2913162393676403,0.9834313812839742,0.2849910540121653,0.7293840838032388
