Time [s],Phi [rad],STIM [ ],Fsee [N],Gamma [ ],Lcerel [ ],q [ ],Lmtc [m],fisomrel [ ]
0.0,1.8,1.0,19.02604981224785,0.0010499546466436484,1.3792228131387227,0.005283051201199991,0.288653,0.5414223788110759
0.0005,1.79999375,1.0,19.64002541381714,0.006653274540198212,1.379153677030257,0.01607776187034039,0.2886527375,0.5415895701353175
0.001,1.799975,1.0,23.754944461591958,0.012225164240694916,1.3787252243041157,0.041231411579766765,0.28865195,0.5426250142723128
0.0015,1.79994375,1.0,34.97502995739948,0.01776580004343948,1.3777232916733253,0.07816392018845815,0.2886506375,0.5450418205595282
0.002,1.7999,1.0,60.94222486294445,0.0232753572614064,1.3759060213279222,0.12358748625805421,0.2886488,0.5494090023259304
0.0025,1.79984375,1.0,108.60725457728208,0.02875401021968158,1.3733970418776316,0.1741692036776503,0.28864643749999996,0.5554038556027878
0.003,1.7997750000000001,1.0,175.3573466282418,0.034201932266825656,1.370686912016697,0.22714242639114732,0.28864354999999997,0.56183422595512
0.0035,1.79969375,1.0,253.65363902584406,0.03961929577937545,1.3681008033835453,0.28039633897563127,0.2886401375,0.5679266535344021
0.004,1.7996,1.0,338.28710924103297,0.04500627216580777,1.3657162658787916,0.33237075854628634,0.2886362,0.5735064185958961
0.0045000000000000005,1.7994937500000001,1.0,426.5737836719078,0.05036303187585921,1.3635207816295702,0.38199715368725595,0.2886317375,0.5786117389139869
0.005,1.799375,1.0,516.9744811590862,0.0556897443546482,1.3614883970621567,0.4286243810970889,0.28862675,0.5833103915479354
0.0055,1.79924375,1.0,608.4561177335347,0.06098657828939897,1.359596232334143,0.4719237123795489,0.2886212375,0.587661191616993
0.006,1.7991000000000001,1.0,700.1450693893212,0.0662537011096518,1.3578280459873313,0.5117987596869094,0.2886152,0.5917062803089551
0.006500000000000001,1.79894375,1.0,791.3559087951872,0.07149127951367715,1.356170615076637,0.5483077165288751,0.2886086375,0.595479888252328
0.007,1.798775,1.0,881.5206402353386,0.07669947930542027,1.3546133715043966,0.5816054794432342,0.28860155,0.5990094284128978
0.0075,1.79859375,1.0,970.1536790808119,0.08187846506696574,1.353147822204464,0.611901651524484,0.2885939375,0.6023170142609833
0.008,1.7984,1.0,1056.897035804578,0.08702840104707935,1.351766109159915,0.6394309615611419,0.2885858,0.6054228458115269
0.0085,1.79819375,1.0,1141.4375486881308,0.0921494498716044,1.3504618063171832,0.66443485149206,0.2885771375,0.6083435022732692
0.009000000000000001,1.797975,1.0,1223.5403959672992,0.09724177345355513,1.349229017433721,0.6871490770522064,0.28856795,0.6110940477751208
0.0095,1.79774375,1.0,1303.0491101267899,0.10230553338716461,1.3480621440829215,0.7077966532214618,0.2885582375,0.6136885964808662
0.01,1.7975,1.0,1379.8344048280662,0.10734088969183668,1.346956373760964,0.7265844854817927,0.288548,0.6161392688349562
0.0105,1.79724375,1.0,1453.8130029623046,0.11234800138412092,1.3459072376760044,0.7437016336360814,0.2885372375,0.6184572159545798
0.011,1.796975,1.0,1524.9418005132866,0.11732702678962066,1.3449105576446445,0.7593191599272571,0.28852595000000003,0.620652765386672
0.0115,1.79669375,1.0,1593.232340083596,0.12227812464008916,1.3439621716217687,0.7735906898407561,0.2885141375,0.6227360474911894
0.012,1.7964,1.0,1658.6720498840934,0.12720145070438202,1.3430587899506314,0.7866539298893597,0.28850180000000003,0.624715135961762
0.0125,1.79609375,1.0,1721.2770038655028,0.1320971603251221,1.34219725650651,0.7986316528757246,0.2884889375,0.6265976965542661
0.013000000000000001,1.7957750000000001,1.0,1781.0963429853562,0.13696540863453527,1.3413744474178462,0.8096330789637787,0.28847555,0.6283912201854598
0.0135,1.79544375,1.0,1838.195686224345,0.1418063501582296,1.3405874166963285,0.8197553353294107,0.2884616375,0.6301027155233465
0.014,1.7951000000000001,1.0,1892.6388345647458,0.14662013845106114,1.3398335506906576,0.829084828607168,0.2884472,0.6317383859214932
0.0145,1.79474375,1.0,1944.481029868812,0.15140692488086968,1.339110590253398,0.8376984535719092,0.2884322375,0.6333035955930869
0.015,1.794375,1.0,1993.798038928296,0.1561668608154949,1.3384162762371146,0.8456645673239631,0.28841675,0.6348036478884087
0.0155,1.79399375,1.0,2040.671231539702,0.16090009662130414,1.3377484877079648,0.8530440348765997,0.2884007375,0.6362434918717561
0.016,1.7936,1.0,2085.2000164506817,0.16560678380911845,1.3371050879228987,0.85989106653257,0.2883842,0.6376280602566796
0.0165,1.7931937500000001,1.0,2127.4605667236133,0.17028707087164094,1.336484335007489,0.8662541258142117,0.2883671375,0.6389613912454333
0.017,1.792775,1.0,2167.5237285715934,0.17494110479543196,1.3358846669290487,0.8721765422714822,0.28834955,0.6402470998787054
0.0175,1.7923437500000001,1.0,2205.470978619167,0.17956903256705184,1.3353045216548904,0.8776970660325868,0.2883314375,0.6414887683602841
0.018000000000000002,1.7919,1.0,2241.3935252211104,0.18417100117306084,1.3347423371523275,0.8828504057422215,0.2883128,0.6426899480797115
0.0185,1.79144375,1.0,2275.369760436764,0.18874715562665845,1.3341967674559336,0.8876677542554186,0.2882936375,0.643853700963025
0.019,1.790975,1.0,2307.501668821465,0.19329764328957674,1.3336663073679782,0.8921771018021091,0.28827395,0.6449834034675316
0.0195,1.79049375,1.0,2337.85507999817,0.19782260663914944,1.3331498781280438,0.8964037404933831,0.2882537375,0.6460815009670586
0.02,1.79,1.0,2366.499111479484,0.2023221879111764,1.3326464228942814,0.9003704739424049,0.288233,0.6471503741570119
0.0205,1.78949375,1.0,2393.507905169041,0.2067965293414575,1.3321548848248426,0.9040978911197579,0.2882117375,0.6481923867570012
0.021,1.788975,1.0,2418.9602034634745,0.2112457731657927,1.3316742070778789,0.9076046116345411,0.28818995000000003,0.6492098863496822
0.021500000000000002,1.78844375,1.0,2442.922260819981,0.21567005917393994,1.3312034931618761,0.9109075335232051,0.2881676375,0.6502048664456985
0.022,1.7879,1.0,2465.481069320318,0.22006953066262375,1.330741681910682,0.9140219549640731,0.2881448,0.6511796551240217
0.0225,1.78734375,1.0,2486.6923634148147,0.22444432516960475,1.3302880432870146,0.9169618390968587,0.28812143749999997,0.6521358688189898
0.023,1.786775,1.0,2506.612999622858,0.22879457998596006,1.3298418615232444,0.9197398940864125,0.28809755,0.6530750841418396
0.0235,1.78619375,1.0,2525.3022208131956,0.23312043240276684,1.3294024208517428,0.9223677008712352,0.28807313749999996,0.6539988684215923
0.024,1.7856,1.0,2542.8214539592113,0.23742201971110227,1.3289690055048815,0.9248558287171407,0.2880482,0.6549087800291111
0.0245,1.78499375,1.0,2559.2261541894086,0.24169947740052047,1.328540974484096,0.9272139498048002,0.2880227375,0.6558062120058694
0.025,1.784375,1.0,2574.5787652702343,0.2459529430395557,1.3281176374644907,0.9294509089608141,0.28799675,0.6566926530125032
0.025500000000000002,1.78374375,1.0,2588.9350959694716,0.2501825522286341,1.3276983812101495,0.9315748244530379,0.2879702375,0.6575694226793608
0.026000000000000002,1.7831000000000001,1.0,2602.3373377354683,0.25438843695441554,1.3272827321534155,0.9335931675730236,0.2879432,0.658437542200879
0.0265,1.78244375,1.0,2614.8287960113203,0.25857072920355956,1.3268702167266322,0.9355128034507624,0.2879156375,0.6592980274779481
0.027,1.781775,1.0,2626.453795574364,0.262729560962726,1.3264603613621424,0.9373400483542842,0.28788755,0.6601518892197047
0.0275,1.7810937500000001,1.0,2637.2575908473605,0.2668650642185746,1.3260526924922897,0.9390807208755327,0.2878589375,0.6610001330310216
0.028,1.7804,1.0,2647.284958186945,0.2709773703972015,1.32564674876025,0.9407401892856774,0.2878298,0.6618437341258887
0.0285,1.77969375,1.0,2656.5740453532326,0.27506660793379417,1.3252421368464842,0.9423234194246052,0.2878001375,0.6626835217459595
0.029,1.778975,1.0,2665.1760761329915,0.27913291188827183,1.3248383489914335,0.9438349886805248,0.28776995,0.6635205581139021
0.029500000000000002,1.7782437500000001,1.0,2673.1209404303536,0.283176408547194,1.3244350793576176,0.9452791581482415,0.2877392375,0.6643554824050267
0.03,1.7775,1.0,2680.438987462568,0.2871972241971202,1.3240320221075577,0.9466598758662222,0.287708,0.6651889306405845
0.0305,1.77674375,1.0,2687.160985004365,0.29119548512460997,1.323628871403774,0.9479808037833106,0.2876762375,0.6660215356948964
0.031,1.775975,1.0,2693.3180807052204,0.29517131761622284,1.3232253214087868,0.949245342084418,0.28764395,0.666853927296513
0.0315,1.7751937500000001,1.0,2698.941765480824,0.2991248479585184,1.322821066285117,0.9504566511624678,0.2876111375,0.667686732023406
0.032,1.7744,1.0,2704.063838978397,0.30305620243805614,1.322415800195285,0.9516176714897748,0.2875778,0.6685205732922004
0.0325,1.77359375,1.0,2708.7054758973863,0.3069654988302936,1.322009316769288,0.9527311509630676,0.2875439375,0.669355867071991
0.033,1.772775,1.0,2712.9084793827224,0.31085287324530775,1.3216012234932932,0.9537996346913316,0.28750955,0.6701934089528598
0.0335,1.7719437500000002,1.0,2716.6936647627927,0.3147184466485927,1.3211913213432864,0.9548255154220521,0.2874746375,0.6710335940489596
0.034,1.7711000000000001,1.0,2720.080438161193,0.31856233878216744,1.3207794256039487,0.9558110290345231,0.2874392,0.6718767860625025
0.0345,1.7702437500000001,1.0,2723.0883479919366,0.32238466938805094,1.3203653515599598,0.9567582654920301,0.2874032375,0.6727233466832377
0.035,1.7693750000000001,1.0,2725.7370703822344,0.32618555820826217,1.319948914496001,0.9576691800673766,0.28736675,0.6735736355638732
0.035500000000000004,1.76849375,1.0,2728.0463953531325,0.3299651249848202,1.3195299296967524,0.9585456035805676,0.2873297375,0.6744280102933305
0.036000000000000004,1.7676,1.0,2730.0362137555626,0.33372348945974395,1.3191082124468947,0.9593892517458441,0.2872922,0.6752868263678173
0.0365,1.76669375,1.0,2731.7265049637235,0.3374607713750524,1.3186835780311084,0.9602017337147439,0.2872541375,0.6761504371597273
0.037,1.765775,1.0,2733.1373253241645,0.3411770904727646,1.318255841734074,0.9609845598925947,0.28721555,0.6770191938843626
0.0375,1.76484375,1.0,2734.2794721652326,0.34487256061156824,1.3178249035288019,0.9617391561057709,0.2871764375,0.677893273905956
0.038,1.7639,1.0,2735.1740156744827,0.34854730459536687,1.3173905705628461,0.9624668556636019,0.28713679999999997,0.6787730411919355
0.0385,1.76294375,1.0,2735.839858136406,0.3522014409318501,1.3169526701165246,0.9631689139124575,0.28709663750000003,0.6796588166645585
0.039,1.761975,1.0,2736.2885045401317,0.35583508260902774,1.3165110969850473,0.9638465178666217,0.28705595,0.6805507827975829
0.0395,1.7609937500000001,1.0,2736.5314904986367,0.3594483426149097,1.3160657459636245,0.9645007858249786,0.2870147375,0.6814491206264592
0.04,1.76,1.0,2736.580377770217,0.3630413339375058,1.3156165118474656,0.9651327720789611,0.286973,0.6823540097233374
0.0405,1.7589937500000001,1.0,2736.44675002585,0.36661416956482584,1.3151632894317808,0.9657434712498697,0.2869307375,0.6832656281713634
0.041,1.757975,1.0,2736.142208861586,0.37016696248487974,1.31470597351178,0.9663338222883388,0.28688795,0.6841841525382741
0.0415,1.75694375,1.0,2735.6783700565693,0.3736998256856773,1.3142444588826734,0.9669047121655134,0.2868446375,0.6851097578492851
0.042,1.7559,1.0,2735.066860076616,0.3772128721552283,1.3137786403396703,0.9674569792826613,0.28680079999999997,0.6860426175592724
0.0425,1.75484375,1.0,2734.3175233024385,0.380706212204511,1.3133084289297074,0.9679914175278699,0.2867564375,0.6869828710510155
0.043000000000000003,1.753775,1.0,2733.438643057216,0.38417995583849956,1.3128337499295462,0.9685087793542936,0.28671155,0.6879306278858999
0.043500000000000004,1.75269375,1.0,2732.4428056952265,0.3876342199265657,1.3123544895634696,0.9690097752526171,0.28666613750000003,0.6888860741375777
0.044,1.7516,1.0,2731.336264429832,0.3910691110836677,1.311870591592821,0.9694950813882772,0.2866202,0.6898492796541575
0.0445,1.75049375,1.0,2730.125274471086,0.394484735924764,1.3113819997789447,0.9699653388226479,0.2865737375,0.6908203131813307
0.045,1.7493750000000001,1.0,2728.8160918038184,0.397881201064813,1.310888657883184,0.97042115567599,0.28652675,0.6917992423456396
0.0455,1.74824375,1.0,2727.4149720368337,0.4012586131187729,1.3103905096668824,0.970863109136785,0.2864792375,0.6927861336375414
0.046,1.7471,1.0,2725.928169321967,0.4046170787016022,1.3098874988913836,0.971291747329742,0.2864312,0.693781052394269
0.0465,1.7459437500000001,1.0,2724.3619353428357,0.40795670442825915,1.3093795693180315,0.9717075910536883,0.28638263750000004,0.6947840627824916
0.047,1.744775,1.0,2722.722518374376,0.4112775969137022,1.3088666647081695,0.9721111353995537,0.28633355,0.6957952277807755
0.0475,1.74359375,1.0,2721.016162412368,0.4145798627728896,1.3083487288231415,0.972502851257786,0.28628393750000003,0.6968146091618392
0.048,1.7424,1.0,2719.2462686382937,0.41786358502781795,1.3078257312668,0.9728831855756176,0.2862338,0.6978422167412621
0.0485,1.74119375,1.0,2717.424922017604,0.42112890065867425,1.307297562517237,0.9732525651170144,0.2861831375,0.6988782145120054
0.049,1.739975,1.0,2715.555481611772,0.42437591061451635,1.3067641924401476,0.9736113973571453,0.28613195,0.6999226091726534
0.0495,1.73874375,1.0,2713.6409589173018,0.42760471392744714,1.3062255940406864,0.9739600706064374,0.2860802375,0.7009754003648876
0.05,1.7375,1.0,2711.684362460422,0.4308154096295696,1.3056817403240075,0.9742989551023173,0.286028,0.7020365868382845
0.0505,1.73624375,1.0,2709.688697555316,0.4340080967529866,1.3051326042952656,0.9746284040095365,0.2859752375,0.7031061664412911
0.051000000000000004,1.734975,1.0,2707.6569660792993,0.437182874329801,1.3045781589596148,0.9749487543565089,0.28592195,0.7041841361121544
0.051500000000000004,1.73369375,1.0,2705.5921662634646,0.4403398413921158,1.3040183773222098,0.9752603279122822,0.2858681375,0.7052704918698038
0.052000000000000005,1.7324,1.0,2703.497292499746,0.4434790969720338,1.3034532323882049,0.9755634320083983,0.2858138,0.706365228804688
0.0525,1.73109375,1.0,2701.37533516424,0.4466007401016579,1.3028826971627543,0.9758583603095533,0.28575893750000003,0.707468341069564
0.053,1.729775,1.0,2699.229280456611,0.4497048698130911,1.3023067446510128,0.9761453935366662,0.28570355000000003,0.7085798218702403
0.0535,1.72844375,1.0,2697.0621102554346,0.45279158513843626,1.3017253478581343,0.9764248001456777,0.2856476375,0.7096996634562751
0.054,1.7271,1.0,2694.8768019902477,0.4558609851097963,1.3011384797892735,0.9766968369651416,0.2855912,0.710827857111624
0.0545,1.7257437500000001,1.0,2692.676328528969,0.458913168759274,1.3005461134495848,0.976961749795443,0.2855342375,0.7119643931452465
0.055,1.724375,1.0,2690.4636580820393,0.46194823511897243,1.2999482218442227,0.9772197739722498,0.28547675,0.7131092608816614
0.0555,1.72299375,1.0,2688.232202208391,0.4649662375236472,1.2993448654654436,0.9774711357540291,0.2854187375,0.7142622816309805
0.056,1.7216,1.0,2685.9958646425935,0.46796732929961476,1.2987359171386879,0.9777160503444501,0.2853602,0.7154236346023821
0.0565,1.72019375,1.0,2683.756329912434,0.47095160456036017,1.2981213614887632,0.9779547249471445,0.28530113749999997,0.7165932838778258
0.057,1.718775,1.0,2681.514389499541,0.47391915310696003,1.2975011913046897,0.9781873583284052,0.28524155,0.7177711772075588
0.0575,1.71734375,1.0,2679.2708335779275,0.47687006474049104,1.296875399375487,0.9784141411597919,0.2851814375,0.7189572616251441
0.058,1.7159,1.0,2677.026451010258,0.47980442926202976,1.2962439784901745,0.9786352564105981,0.2851208,0.7201514834448758
0.0585,1.71444375,1.0,2674.782029344579,0.48272233647265284,1.2956069214377721,0.9788508797182676,0.2850596375,0.7213537882591927
0.059000000000000004,1.7129750000000001,1.0,2672.538354812016,0.4856238761734369,1.2949642210072996,0.9790611797381578,0.28499795,0.7225641209360871
0.059500000000000004,1.71149375,1.0,2670.296212326301,0.4885091381654586,1.2943158699877766,0.9792663184739561,0.2849357375,0.7237824256165121
0.06,1.71,1.0,2668.056385483672,0.4913782122497945,1.2936618611682227,0.9794664515899639,0.284873,0.7250086457117841
0.0605,1.7084937500000001,1.0,2665.819656564612,0.4942311882275213,1.2930021873376578,0.9796617287063739,0.2848097375,0.7262427239009823
0.061,1.7069750000000001,1.0,2663.5868065365103,0.49706815589971565,1.2923368412851013,0.9798522936785865,0.28474595,0.7274846021283466
0.0615,1.7054437500000001,1.0,2661.3586150567953,0.4998892050674541,1.2916658157995733,0.9800382848615519,0.2846816375,0.7287342216006677
0.062,1.7039,1.0,2659.1358604788757,0.5026944255318133,1.2909891036700931,0.980219835360038,0.2846168,0.7299915227846805
0.0625,1.70234375,1.0,2656.919319857159,0.5054839070938699,1.2903066976856807,0.9803970732656804,0.2845514375,0.7312564454044477
0.063,1.7007750000000001,1.0,2654.709768954875,0.5082577395547007,1.2896185906353557,0.9805701218816034,0.28448555,0.7325289284387445
0.0635,1.69919375,1.0,2652.5079822524067,0.5110160127153819,1.2889247753081376,0.9807390999353501,0.28441913750000003,0.7338089101184381
0.064,1.6976,1.0,2650.3147329562844,0.5137588163769905,1.2882252444930464,0.9809041217808143,0.2843522,0.7350963279238636
0.0645,1.69599375,1.0,2648.1307930107278,0.5164862403406031,1.2875199909791017,0.9810652975898159,0.2842847375,0.7363911185821979
0.065,1.694375,1.0,2645.9528787708186,0.5191983313795137,1.2868090449850018,0.981222732357654,0.28421675,0.7376931496007373
0.0655,1.69274375,1.0,2643.7868150885897,0.5218952251539227,1.2860923526551573,0.981376529398122,0.2841482375,0.7390024418119805
0.066,1.6911,1.0,2641.633080068031,0.5245770074654359,1.2853699094477353,0.9815267872475291,0.2840792,0.7403189246868347
0.0665,1.6894437500000001,1.0,2639.491630229436,0.5272437589499397,1.284641715635321,0.9816736008281197,0.2840096375,0.7416425182403734
0.067,1.687775,1.0,2637.362422214568,0.5298955602433211,1.2839077714904992,0.9818170617229852,0.28393955,0.7429731418600081
0.0675,1.68609375,1.0,2635.2454127869937,0.5325324919814667,1.2831680772858551,0.9819572583154961,0.2838689375,0.7443107143055867
0.068,1.6844000000000001,1.0,2633.140558830706,0.5351546348002635,1.2824226332939737,0.9820942759219627,0.2837978,0.7456551537094952
0.0685,1.68269375,1.0,2631.0478173496817,0.5377620693355982,1.2816714397874396,0.982228196917897,0.2837261375,0.7470063775767564
0.069,1.680975,1.0,2628.9671454673494,0.5403548762233576,1.2809144970388384,0.9823591008582233,0.28365395,0.748364302785129
0.0695,1.67924375,1.0,2626.8985004257975,0.5429331360994285,1.2801518053207548,0.9824870645917726,0.28358123749999997,0.7497288455852102
0.07,1.6775,1.0,2624.841839585405,0.5454969295996976,1.279383364905774,0.9826121623703616,0.283508,0.751099921600533
0.07050000000000001,1.67574375,1.0,2622.797120424051,0.5480463373600518,1.2786091760664806,0.982734465952755,0.2834342375,0.7524774458276684
0.07100000000000001,1.673975,1.0,2620.764300536236,0.5505814400163779,1.27782923907546,0.982854044703776,0.28335995,0.753861332636323
0.07150000000000001,1.67219375,1.0,2618.743337632938,0.5531023182045626,1.277043554205297,0.9829709656888306,0.2832851375,0.7552514957694411
0.07200000000000001,1.6704,1.0,2616.7341895407676,0.5556090525604926,1.2762521217285765,0.9830852937640775,0.2832098,0.7566478483433028
0.0725,1.66859375,1.0,2614.7368142011883,0.558101723720055,1.275454941917884,0.9831970916624793,0.2831339375,0.7580503028476249
0.073,1.6667750000000001,1.0,2612.7511696703123,0.5605804123191364,1.2746520150458038,0.9833064200759436,0.28305755,0.7594587711456618
0.0735,1.66494375,1.0,2610.777214117773,0.5630451989936235,1.2738433413849217,0.9834133377337592,0.2829806375,0.7608731644743023
0.074,1.6631,1.0,2608.8149058265585,0.5654961643794033,1.273028921207822,0.9835179014775128,0.2829032,0.7622933934441738
0.0745,1.6612437500000001,1.0,2606.8639505597957,0.5679333471313424,1.2722087571368141,0.9836201640637361,0.2828252375,0.7637193639605578
0.075,1.659375,1.0,2604.9246995277094,0.5703568618095358,1.2713828457932317,0.9837201805789586,0.28274675,0.7651509917384153
0.0755,1.65749375,1.0,2602.9970871254222,0.5727668023601699,1.2705511876736695,0.9838180033782268,0.2826677375,0.7665881851032107
