Time [s],Phi [rad],STIM [ ],Fsee [N],Gamma [ ],Lcerel [ ],q [ ],Lmtc [m],fisomrel [ ]
0.0,1.8,1.0,17.968331434180595,3.6451194851823025e-05,1.3793396147767703,0.0050003505231972,0.288653,0.5411398490465931
0.0005,1.79999375,1.0,18.286495445614644,0.005645456041278624,1.3793013047543758,0.013014110779155777,0.2886527375,0.5412325261850386
0.001,1.799975,1.0,21.64779239655997,0.011222998805308367,1.3789352992503776,0.03574654321362028,0.28865195,0.5421174712437078
0.0015,1.79994375,1.0,31.140462218255884,0.0167692559652337,1.3780401389739938,0.07079048209629829,0.2886506375,0.5442782312644243
0.002,1.7999,1.0,53.737010225740825,0.022284403007651495,1.3763581078095692,0.11494136173913595,0.2886488,0.5483245366262777
0.0025,1.79984375,1.0,97.37965113396015,0.02776861443521462,1.3739226125189243,0.16481782607550235,0.28864643749999996,0.5541514025734132
0.003,1.7997750000000001,1.0,161.29802867738888,0.033222063774100856,1.3712016291117108,0.21753106481574572,0.28864354999999997,0.5606165514821808
0.0035,1.79969375,1.0,238.0676764771526,0.03864492357379973,1.3685729001745943,0.27086214342696635,0.2886401375,0.5668176570691599
0.004,1.7996,1.0,321.8758907339096,0.044037365417843304,1.366145259831496,0.3231571455779653,0.2886362,0.5725052573435149
0.0045000000000000005,1.7994937500000001,1.0,409.6915622110628,0.0493995599290054,1.3639128682712516,0.3732636046545434,0.2886317375,0.5777022458756081
0.005,1.799375,1.0,499.8460441687162,0.05473167676048509,1.3618491528970158,0.42046179752212437,0.28862675,0.5824782861853064
0.0055,1.79924375,1.0,591.226915068443,0.0600338846421236,1.3599303085016057,0.4643721401701166,0.2886212375,0.586894684381183
0.006,1.7991000000000001,1.0,682.9552544892441,0.0653063513266646,1.3581384698657113,0.5048623280803282,0.2886152,0.5909975650581856
0.006500000000000001,1.79894375,1.0,774.3141309942845,0.07054924359285972,1.3564598652219142,0.5419675231711664,0.2886086375,0.5948225908353787
0.007,1.798775,1.0,864.7212255596763,0.07576272753481098,1.3548833625449128,0.5758286774116012,0.28860155,0.5983985937143367
0.0075,1.79859375,1.0,953.6634550061851,0.08094696779104138,1.353400316184099,0.6066481411102844,0.2885939375,0.6017481394163866
0.008,1.7984,1.0,1040.77143501913,0.08610212859820632,1.3520025666431343,0.6346576406860058,0.2885858,0.6048921973107326
0.0085,1.79819375,1.0,1125.7249451362973,0.09122837309036973,1.350683427777462,0.660098457061633,0.2885771375,0.6078480021755408
0.009000000000000001,1.797975,1.0,1208.270962324301,0.09632586306368977,1.3494369691475487,0.6832080306371574,0.28856795,0.6106307544418847
0.0095,1.79774375,1.0,1288.2537525212545,0.1013947605054575,1.3482573399081097,0.7042119034829402,0.2885582375,0.6132551823983653
0.01,1.7975,1.0,1365.5421399142372,0.10643522578610756,1.3471395646815723,0.7233200358782012,0.288548,0.6157338094154609
0.0105,1.79724375,1.0,1440.026964216164,0.11144741765289595,1.3460793475741089,0.7407248622165798,0.2885372375,0.6180774399957882
0.011,1.796975,1.0,1511.662864067301,0.1164314948530787,1.3450723926918926,0.7566006139004018,0.28852595000000003,0.6202966957968503
0.0115,1.79669375,1.0,1580.4419722496168,0.12138761521891384,1.3441146488938938,0.7711040264285965,0.2885141375,0.6224014936754854
0.012,1.7964,1.0,1646.3806287618024,0.1263159363804312,1.3432023772516446,0.7843754436629318,0.28850180000000003,0.6244009191607776
0.0125,1.79609375,1.0,1709.4828323307975,0.13121661333783596,1.3423324872073423,0.7965402656532692,0.2884889375,0.6263025134006213
0.013000000000000001,1.7957750000000001,1.0,1769.7869105444927,0.13608980099893175,1.3415019078951034,0.807710072266696,0.28847555,0.6281136699745036
0.0135,1.79544375,1.0,1827.347488067922,0.1409356534454027,1.3407077515104167,0.8179841002279625,0.2884616375,0.6298412884589164
0.014,1.7951000000000001,1.0,1882.2479094837424,0.14575432547303407,1.3399471315205689,0.8274505109642324,0.2884472,0.6314921803920187
0.0145,1.79474375,1.0,1934.5464635873598,0.15054596891008465,1.3392177151004165,0.8361878280359983,0.2884322375,0.6330718806187903
0.015,1.794375,1.0,1984.3042141599733,0.15531073452110836,1.338517365708503,0.844265914122882,0.28841675,0.6345854372250499
0.0155,1.79399375,1.0,2031.6006933861674,0.1600487730706592,1.3378439468033716,0.8517469173076186,0.2884007375,0.6360378431387774
0.016,1.7936,1.0,2076.5238891082204,0.16476023457754624,1.3371954095800194,0.8586862090895274,0.2883842,0.6374338512696525
0.0165,1.7931937500000001,1.0,2119.167377510446,0.1694452693470748,1.3365698027140878,0.865133190384468,0.2883671375,0.6387779588679849
0.017,1.792775,1.0,2159.609684614061,0.17410402539887976,1.3359654649778185,0.8711320504382221,0.28834955,0.6400739998158106
0.0175,1.7923437500000001,1.0,2197.924128452174,0.17873664911304352,1.3353809007370723,0.8767223433071075,0.2883314375,0.641325419071397
0.018000000000000002,1.7919,1.0,2234.1936686157806,0.18334328686964846,1.3348146143577089,0.8819394870196785,0.2883128,0.6425356314174065
0.0185,1.79144375,1.0,2268.507120867966,0.1879240846683865,1.3342651397909595,0.8868152539926039,0.2882936375,0.6437079602057727
0.019,1.790975,1.0,2300.947230818767,0.19247918750017318,1.3337311499884372,0.8913782199852379,0.28827395,0.6448454066562348
0.0195,1.79049375,1.0,2331.6068889321027,0.19700874165178767,1.3332112859018506,0.8956540892208226,0.2882537375,0.6459510170524082
0.02,1.79,1.0,2360.549658877536,0.20151288875602205,1.3327045373840687,0.8996661055238431,0.288233,0.6470270752680256
0.0205,1.78949375,1.0,2387.8440738326276,0.20599177044566835,1.3322098942879608,0.9034352488430103,0.2882117375,0.6480758486517282
0.021,1.788975,1.0,2413.5632276207807,0.21044552835351865,1.3317263464663955,0.9069804865375873,0.28818995000000003,0.6490995888394673
0.021500000000000002,1.78844375,1.0,2437.7843884718754,0.21487430411236497,1.3312528837722422,0.9103189940627547,0.2881676375,0.6501005325018285
0.022,1.7879,1.0,2460.571464548615,0.2192782366420381,1.330788660442788,0.9134663811797163,0.2881448,0.6510805552374549
0.0225,1.78734375,1.0,2482.011693394124,0.22365746905149703,1.3303326385658878,0.91643679093812,0.28812143749999997,0.6520419256954673
0.023,1.786775,1.0,2502.1588736787667,0.2280121382539188,1.3298841283151557,0.9192431544988574,0.28809755,0.6529861667275189
0.0235,1.78619375,1.0,2521.066696738296,0.23234238074083144,1.3294424632490476,0.9218972568921049,0.28807313749999996,0.6539147430114793
0.024,1.7856,1.0,2538.7909884277688,0.2366483330037629,1.329006976926019,0.9244098505913448,0.2880482,0.6548291107589348
0.0245,1.78499375,1.0,2555.3895294875983,0.24093013153424112,1.3285770029045265,0.9267907602044464,0.2880227375,0.6557307179919605
0.025,1.784375,1.0,2570.9200242713814,0.2451879123665203,1.328151892177253,0.9290489780609632,0.28799675,0.6566209683051292
0.025500000000000002,1.78374375,1.0,2585.4322063091067,0.24942180925322754,1.3277310851617412,0.9311927574511187,0.2879702375,0.6575010708504705
0.026000000000000002,1.7831000000000001,1.0,2598.9938693486747,0.2536319603512306,1.327313866687054,0.9332296471896486,0.2879432,0.6583725531708208
0.0265,1.78244375,1.0,2611.644799005201,0.2578184967417093,1.3268997948534345,0.9351666230820296,0.2879156375,0.6592363651938217
0.027,1.781775,1.0,2623.425773957639,0.26198154950584357,1.3264884277611249,0.9370101016616106,0.28788755,0.6600934519708825
0.0275,1.7810937500000001,1.0,2634.3784819748116,0.2661212497248132,1.326079323510368,0.9387659924764348,0.2878589375,0.6609447537596325
0.028,1.7804,1.0,2644.5454402712753,0.2702377284797981,1.325672040201407,0.9404397448529339,0.2878298,0.6617912060939194
0.0285,1.77969375,1.0,2653.9699201929025,0.2743311168519781,1.3252661359344844,0.9420363897797639,0.2878001375,0.6626337398413569
0.029,1.778975,1.0,2662.6636034850144,0.278401543344935,1.3248614658148998,0.9435606182087423,0.28776995,0.6634726659075085
0.029500000000000002,1.7782437500000001,1.0,2670.7225256502657,0.2824491400020344,1.3244571136858507,0.9450166657722524,0.2877392375,0.6643098896002773
0.03,1.7775,1.0,2678.18160151158,0.28647403453844783,1.32405273218387,0.9464085323437907,0.287708,0.6651461312632941
0.0305,1.77674375,1.0,2685.0454604503343,0.2904763526566754,1.3236482554353195,0.9477399634091447,0.2876762375,0.6659815266379916
0.031,1.775975805623344,1.0,2691.3587212883376,0.2944562200592169,1.323243617566561,0.9490144354447302,0.28764398383618045,0.6668162107859786
0.0315,1.7752052934494986,1.0,2697.5773895704647,0.2984137624485725,1.3228387527039558,0.9502351785901805,0.2876116223248789,0.6676503180885016
0.032,1.7744347812756536,1.0,2703.8353020631776,0.3023491055272421,1.3224335949738661,0.9514051971472508,0.28757926081357743,0.6684839822456277
0.0325,1.7736642691018083,1.0,2710.1394991361894,0.30626237479247204,1.3220280811699274,0.9525272883951159,0.28754689930227595,0.6693173307972407
0.033,1.7728937569279632,1.0,2716.472707142008,0.3101536942819654,1.321622369920546,0.9536040846614456,0.28751453779097447,0.6701500356080722
0.0335,1.772123244754118,1.0,2722.815864355819,0.31402318695399045,1.3212166353919166,0.9546380424218249,0.287482176279673,0.6709817383529864
0.034,1.771352732580273,1.0,2729.1603459791863,0.3178709745599295,1.3208109560663148,0.9556314437227157,0.28744981476837145,0.6718122782774778
0.0345,1.7705822204064277,1.0,2735.497487063323,0.3216971788511649,1.320405410426017,0.9565864209438398,0.28741745325706997,0.6726414954392079
0.035,1.7698117082325826,1.0,2741.8247623611983,0.32550191355053915,1.3200000209086293,0.9575049603371361,0.2873850917457685,0.6734693450844286
0.035500000000000004,1.7690411960587373,1.0,2748.126357938932,0.32928531106950404,1.3195949302285537,0.9583889385372297,0.28735273023446695,0.6742955375389219
0.036000000000000004,1.7682706838848923,1.0,2754.396034582421,0.3330474923579601,1.3191901938136827,0.9592401016655716,0.28732036872316546,0.6751199622869377
0.0365,1.767500171711047,1.0,2760.6312629874806,0.33678857352092584,1.3187858333155213,0.960060082411002,0.287288007211864,0.6759425780527062
0.037,1.766729659537202,1.0,2766.8295039274726,0.34050867066341994,1.3183818703855734,0.960850412972829,0.2872556457005625,0.6767633437811988
0.0375,1.7659591473633567,1.0,2772.988208438768,0.3442078998904609,1.3179783266753435,0.9616125323740055,0.28722328418926096,0.6775822186375909
0.038,1.7651886351895116,1.0,2779.104818017188,0.34788637730706734,1.317575223836336,0.9623477931644798,0.2871909226779595,0.6783991620066998
0.0385,1.7644181230156664,1.0,2785.1767648238847,0.3515442190182578,1.3171725835200554,0.9630574675717053,0.287158561166658,0.67921413349239
0.039,1.7636476108418213,1.0,2791.2014719025397,0.35518154112905076,1.316770427378006,0.9637427531494237,0.28712619965535646,0.6800270929169496
0.0395,1.762877098667976,1.0,2797.176353406795,0.35879845974446495,1.3163687770616925,0.9644047779706317,0.287093838144055,0.6808380003204372
0.04,1.7621065864941308,1.0,2803.0988148372417,0.36239509096951883,1.3159676542226189,0.9650446054060037,0.2870614766327535,0.6816468159599987
0.0405,1.7613360743202857,1.0,2808.9691965004467,0.36597153590182097,1.315567054140761,0.9656632334959366,0.287029115121452,0.6824535533830424
0.041,1.7605655621464404,1.0,2814.785004940221,0.36952792247321464,1.3151669974967852,0.9662616113885204,0.2869967536101505,0.6832581750282569
0.0415,1.7597950499725954,1.0,2820.544594225871,0.3730643713446443,1.31476749732474,0.9668406336013281,0.286964392098849,0.6840606588900502
0.042,1.7590245377987501,1.0,2826.2483995745406,0.3765809904754879,1.3143685480333311,0.9674011418870966,0.2869320305875475,0.6848610204318086
0.0425,1.758254025624905,1.0,2831.8968607634283,0.3800778878251233,1.3139701440312637,0.9679439324246257,0.286899669076246,0.6856592750541695
0.043000000000000003,1.7574835134510598,1.0,2837.490422061942,0.3835551713529285,1.313572279727243,0.9684697587505963,0.2868673075649445,0.6864554380952156
0.043500000000000004,1.7567130012772147,1.0,2843.02953216415,0.38701294901828137,1.3131749495299747,0.9689793344742882,0.286834946053643,0.687249524830669
0.044,1.7559424891033695,1.0,2848.5146441223205,0.39045132878055977,1.312778147848164,0.969473335793283,0.28680258454234153,0.688041550474082
0.0445,1.7551719769295244,1.0,2853.9462152811575,0.3938704185991417,1.3123818690905162,0.9699524038265911,0.28677022303104005,0.6888315301770267
0.045,1.7544014647556792,1.0,2859.3247072124936,0.397270326433405,1.3119861076657369,0.9704171467801248,0.2867378615197385,0.6896194790292833
0.0455,1.753630952581834,1.0,2864.650585651048,0.4006511602427276,1.3115908579825313,0.9708681419580952,0.28670550000843703,0.6904054120590244
0.046,1.7528604404079888,1.0,2869.9243204302693,0.40401302798648747,1.3111961144496047,0.9713059376326884,0.2866731384971355,0.6911893442329992
0.0465,1.7520899282341438,1.0,2875.14638541958,0.4073560376240625,1.3108018714756628,0.9717310547832813,0.286640776985834,0.6919712904567141
0.047,1.7513194160602985,1.0,2880.317258461807,0.41068029711483056,1.3104081234694107,0.9721439887154639,0.28660841547453253,0.6927512655746144
0.0475,1.7505489038864535,1.0,2885.4372568279105,0.41398589047855744,1.3100148662936866,0.9725452075972025,0.28657605396323105,0.6935292814952412
0.048,1.7497783917126082,1.0,2890.507720767402,0.417272930421908,1.3096220868044326,0.9729351600704726,0.28654369245192957,0.6943053678662896
0.0485,1.7490078795387631,1.0,2895.530014427071,0.420541553289199,1.3092297717064314,0.9733142761905232,0.28651133094062803,0.6950795544974118
0.049,1.7482373673649179,1.0,2900.5050013186215,0.4237918572740045,1.3088379121778626,0.9736829612232176,0.28647896942932655,0.69585186225006
0.0495,1.7474668551910728,1.0,2905.433549785657,0.4270239405698986,1.3084464993969054,0.9740416014665563,0.28644660791802506,0.6966223118934785
0.05,1.7466963430172275,1.0,2910.3165329155067,0.4302379013704554,1.3080555245417396,0.9743905653102808,0.2864142464067235,0.6973909241049544
0.0505,1.7459258308433823,1.0,2915.1548284529404,0.433433837869249,1.3076649787905443,0.9747302042270719,0.28638188489542205,0.6981577194700699
0.051000000000000004,1.7451553186695372,1.0,2919.9493187149737,0.4366118482598534,1.3072748533214993,0.9750608537003354,0.28634952338412056,0.6989227184829436
0.051500000000000004,1.744384806495692,1.0,2924.700890508069,0.43977203073584276,1.306885139312784,0.9753828340931603,0.2863171618728191,0.6996859415464705
0.052000000000000005,1.743614294321847,1.0,2929.410435046728,0.4429144834907911,1.306495827942578,0.9756964514626681,0.2862848003615176,0.7004474089725562
0.0525,1.7428437821480016,1.0,2934.0788478737722,0.44603930471827247,1.3061069103890606,0.9760019983236317,0.28625243885021606,0.7012071409823458
0.053,1.7420732699741566,1.0,2938.7070287828283,0.44914659261186113,1.3057183778304113,0.9762997543649401,0.2862200773389146,0.7019651577064473
0.0535,1.7413027578003113,1.0,2943.295881741617,0.45223644536513097,1.3053302214448097,0.9765899871222034,0.28618771582761304,0.7027214791851514
0.054,1.7405322456264662,1.0,2947.8463148179576,0.4553089611716562,1.3049424324104353,0.9768729526095344,0.28615535431631156,0.7034761253686452
0.0545,1.739761733452621,1.0,2952.3592401067795,0.4583642382250108,1.3045550019054675,0.9771488959133134,0.2861229928050101,0.7042291161172216
0.055,1.738991221278776,1.0,2956.835573659237,0.461402374718769,1.3041679211080859,0.9774180517505233,0.2860906312937086,0.7049804712014835
0.0555,1.7382207091049307,1.0,2961.276235413549,0.46442346884650476,1.3037811811964697,0.977680644994051,0.2860582697824071,0.7057302103025436
0.056,1.7374501969310856,1.0,2965.682149127186,0.4674276188017921,1.3033947733487987,0.9779368911671669,0.2860259082711056,0.7064783530122164
0.0565,1.7366796847572403,1.0,2970.054242311438,0.4704149227782053,1.3030086887432524,0.9781869969092294,0.2859935467598041,0.7072249188332105
0.057,1.7359091725833953,1.0,2974.3913984452342,0.47338541254668665,1.302622936388332,0.9784311555235585,0.2859611852485026,0.707969892766912
0.0575,1.73513866040955,1.0,2978.696524804904,0.4763392477845019,1.302237490261069,0.9786695618466635,0.2859288237372011,0.7087133274256705
0.058,1.734368148235705,1.0,2982.9709974933266,0.4792765421529545,1.3018523377327809,0.9789023995300387,0.2858964622258996,0.7094552493790025
0.0585,1.7335976360618597,1.0,2987.215361133808,0.48219738278455476,1.3014674734405558,0.9791298430306999,0.2858641007145981,0.7101956711013003
0.059000000000000004,1.7328271238880144,1.0,2991.430162663736,0.4851018568118128,1.301082892021482,0.9793520599364581,0.28583173920329663,0.7109346050126931
0.059500000000000004,1.7320566117141694,1.0,2995.615951300694,0.48799005136723883,1.3006985881126483,0.9795692112903128,0.2857993776919951,0.7116720634791451
0.06,1.7312860995403243,1.0,2999.773278509252,0.490862053583343,1.300314556351143,0.9797814518970829,0.2857670161806936,0.7124080588125516
0.0605,1.730515587366479,1.0,3003.9026979679406,0.49371795059263557,1.2999307913740539,0.9799889306133754,0.28573465466939213,0.7131426032708348
0.061,1.7297450751926338,1.0,3008.004765537489,0.4965578295276267,1.2995472878184702,0.9801917906219222,0.2857022931580906,0.7138757090580312
0.0615,1.7289745630187887,1.0,3012.080039229453,0.49938177752082663,1.29916404032148,0.9803901696912372,0.2856699316467891,0.7146073883243875
0.062,1.7282040508449434,1.0,3016.1290791752467,0.5021898817047455,1.2987810435201714,0.9805842004214883,0.28563757013548763,0.7153376531664459
0.0625,1.7274335386710984,1.0,3020.152447596116,0.5049822292118935,1.298398292051633,0.9807740104774127,0.28560520862418615,0.7160665156271311
0.063,1.7266630264972531,1.0,3024.1507087735804,0.507758907174781,1.2980157805529535,0.9809597228090498,0.2855728471128846,0.716793987695835
0.0635,1.725892514323408,1.0,3028.124429020927,0.5105200027259179,1.2976335036612208,0.9811414558610168,0.2855404856015831,0.7175200813085016
0.064,1.7251220021495628,1.0,3032.0741766544065,0.5132656029978145,1.2972514560135238,0.9813193237710014,0.28550812409028165,0.7182448083477047
0.0645,1.7243514899757177,1.0,3036.00052196604,0.5159957951229811,1.2968696322469504,0.9814934365581014,0.2854757625789801,0.718968180642731
0.065,1.7235809778018725,1.0,3039.9040371968495,0.5187106662339278,1.2964880269985892,0.9816639003016018,0.2854434010676786,0.7196902099696552
0.0655,1.7228104656280274,1.0,3043.7852965100383,0.5214103034631649,1.2961066349055286,0.9818308173107404,0.28541103955637714,0.7204109080514158
0.066,1.7220399534541821,1.0,3047.6448759656055,0.5240947939432024,1.295725450604857,0.9819942862859784,0.28537867804507566,0.7211302865578899
0.0665,1.721269441280337,1.0,3051.4833534955255,0.5267642248065506,1.295344468733663,0.982154402472258,0.2853463165337742,0.7218483571059641
0.067,1.7204989291064918,1.0,3055.3013088789116,0.5294186831857198,1.2949636839290346,0.9823112578046991,0.28531395502247264,0.7225651312596064
0.0675,1.7197284169326468,1.0,3059.0993237187827,0.53205825621322,1.2945830908280604,0.9824649410471618,0.28528159351117116,0.723280620529932
0.068,1.7189579047588015,1.0,3062.877981418432,0.5346830310215616,1.294202684067829,0.9826155379240644,0.2852492319998697,0.723994836375272
0.0685,1.7181873925849565,1.0,3066.6366248820996,0.5372930352514642,1.2938224689384954,0.9827631279955366,0.28521687048856814,0.7247077702387976
0.069,1.7174168804111112,1.0,3070.37660650379,0.539888406017325,1.2934424334975534,0.982907794212074,0.28518450897726666,0.7254194458642664
0.0695,1.716646368237266,1.0,3074.098652080622,0.5424692432525581,1.293062571200318,0.9830496146541144,0.2851521474659652,0.7261298767903651
0.07,1.7158758560634209,1.0,3077.803033275432,0.5450356235146766,1.2926828794070289,0.9831886635524911,0.2851197859546637,0.7268390692028399
0.07050000000000001,1.7151053438895756,1.0,3081.4900226889667,0.5475876233611939,1.2923033554779246,0.9833250126979396,0.28508742444336216,0.7275470292613075
0.07100000000000001,1.7143348317157305,1.0,3085.1598938501147,0.5501253193496232,1.291923996773245,0.9834587315378344,0.2850550629320607,0.7282537630992808
