Time [s],Phi [rad],STIM [ ],Fsee [N],Gamma [ ],Lcerel [ ],q [ ],Lmtc [m],fisomrel [ ]
0.0,1.8,1.0,17.96702272069511,1.0044534797474454e-05,1.3793397613943306,0.005000026888745636,0.288653,0.5411394943408557
0.0005,1.79999375,1.0,18.276382163650148,0.005619197501695324,1.3793024279989037,0.012940638427061595,0.2886527375,0.541229809037425
0.001,1.799975,1.0,21.618041909012575,0.011196887555370858,1.3789383368039592,0.035608811272268566,0.28865195,0.5421101304217131
0.0015,1.79994375,1.0,31.06887606729451,0.016743291178751597,1.3780462343944586,0.07060202727688007,0.2886506375,0.5442635352683994
0.002,1.7999,1.0,53.58189787025883,0.022258583863114016,1.376368163473712,0.11471821837538253,0.2886488,0.5483004002660243
0.0025,1.79984375,1.0,97.11825699170036,0.02774294011564695,1.3739352000587481,0.16457508888072608,0.28864643749999996,0.5541213844292858
0.003,1.7997750000000001,1.0,160.957500154432,0.033196533467169075,1.3712143687102567,0.21728065486023143,0.28864354999999997,0.560586391782671
0.0035,1.79969375,1.0,237.68269864681574,0.03861953647171993,1.368584753728043,0.27061308699583386,0.2886401375,0.5667897937475701
0.004,1.7996,1.0,321.4661953832854,0.044012120717342285,1.366156107651037,0.322915992999074,0.2886362,0.5724799261155685
0.0045000000000000005,1.7994937500000001,1.0,409.26724586137175,0.04937445683126657,1.3639228260191645,0.3730346888442578,0.2886317375,0.5776791348922989
0.005,1.799375,1.0,499.4130529643764,0.05470671447100197,1.36185835193485,0.4202476304390571,0.28862675,0.5824570571906706
0.0055,1.79924375,1.0,590.7900168750967,0.06000906237179645,1.3599388428581625,0.464173855738541,0.2886212375,0.5868750937561449
0.006,1.7991000000000001,1.0,682.5177532470797,0.06528166828980428,1.3581464212018257,0.5046801074281247,0.2886152,0.5909794036362387
0.006500000000000001,1.79894375,1.0,773.8812533951929,0.07052469905735585,1.3564672536935112,0.5418008906716363,0.2886086375,0.5948057941460649
0.007,1.798775,1.0,864.2855364878637,0.07573832056794186,1.3548903994339097,0.57567690388922,0.28860155,0.5983826670588013
0.0075,1.79859375,1.0,953.2422729522751,0.08092269778411852,1.3534067936871321,0.6065100354537574,0.2885939375,0.601733540101342
0.008,1.7984,1.0,1040.3564260690464,0.08607799471392558,1.3520086762105195,0.6345321785019917,0.2885858,0.6048784817363446
0.0085,1.79819375,1.0,1125.317425339487,0.09120437458873666,1.3506891962290737,0.6599845052845834,0.2885771375,0.607835100919025
0.009000000000000001,1.797975,1.0,1207.8776009782148,0.09630199934445746,1.3494423435754548,0.6831044533221796,0.28856795,0.6106187771571869
0.0095,1.79774375,1.0,1287.8706546502465,0.10137103059990869,1.3482624089829056,0.7041177120697502,0.2885582375,0.6132439237545388
0.01,1.7975,1.0,1365.1630861232447,0.1064116287894499,1.3471444362163876,0.723234329222406,0.288548,0.6157230242474695
0.0105,1.79724375,1.0,1439.6565023953362,0.11142395292294903,1.3460839838946834,0.740646747811568,0.2885372375,0.6180672069246955
0.011,1.796975,1.0,1511.3031582044205,0.11640816151101738,1.345076786420828,0.7565293009825996,0.28852595000000003,0.6202870263822522
0.0115,1.79669375,1.0,1580.1079292802283,0.12136441330485429,1.3441186393577929,0.7710387386118509,0.2885141375,0.6223927361177976
0.012,1.7964,1.0,1646.0635987301519,0.1262928646444278,1.3432060878467464,0.7843156103818169,0.28850180000000003,0.6243927974009291
0.0125,1.79609375,1.0,1709.1773526206237,0.13119367082272998,1.3423359959925156,0.7964853602543932,0.2884889375,0.6262948528310341
0.013000000000000001,1.7957750000000001,1.0,1769.4928113855958,0.13606698713275295,1.3415052278999278,0.8076596008556487,0.28847555,0.6281064391486556
0.0135,1.79544375,1.0,1827.0698976829442,0.14091296780311854,1.3407108353921975,0.8179376007938609,0.2884616375,0.6298345875202517
0.014,1.7951000000000001,1.0,1881.9832155216511,0.14573176724309003,1.339950028919331,0.8274076085899545,0.2884472,0.6314858987173027
0.0145,1.79474375,1.0,1934.2846784688609,0.15052353686156877,1.3392205416554364,0.8361482123637293,0.2884322375,0.6330657656855625
0.015,1.794375,1.0,1984.0456843837937,0.15528842796736025,1.3385201218909806,0.8442292703400477,0.28841675,0.6345794868460322
0.0155,1.79399375,1.0,2031.3497276609328,0.1600265912928206,1.3378465910138868,0.8517129512064555,0.2884007375,0.6360321458555341
0.016,1.7936,1.0,2076.2894108465803,0.16473817767726304,1.3371978532005109,0.8586546448375507,0.2883842,0.637428596291348
0.0165,1.7931937500000001,1.0,2118.952742459349,0.16942333689929615,1.3365720169117674,0.8651037994704976,0.2883671375,0.6387732060967632
0.017,1.792775,1.0,2159.4071451405953,0.1740822158707108,1.335967534735983,0.8711046608003554,0.28834955,0.6400695650619455
0.0175,1.7923437500000001,1.0,2197.730781020301,0.17871496150329785,1.3353828592614836,0.8766967870088404,0.2883314375,0.6413212299540558
0.018000000000000002,1.7919,1.0,2234.0116519582557,0.18332172070884828,1.3348164430765954,0.8819156000430802,0.2883128,0.6425317265482684
0.0185,1.79144375,1.0,2268.3334162852475,0.18790263896898257,1.33426687174712,0.8867929021457592,0.2882936375,0.6437042680242169
0.019,1.790975,1.0,2300.792558714684,0.19245786333398873,1.3337326812639612,0.8913572499247243,0.28827395,0.6448421475011713
0.0195,1.79049375,1.0,2331.4617215421217,0.19698753722920706,1.3332127135971896,0.8956344093962643,0.2882537375,0.6459479830905526
0.02,1.79,1.0,2360.408839514861,0.20149180280826876,1.3327059137998996,0.8996476232591839,0.288233,0.647024154727595
0.0205,1.78949375,1.0,2387.706947358728,0.205970802224805,1.3322112269251842,0.9034178706026976,0.2882117375,0.648073025206836
0.021,1.788975,1.0,2413.4337520831946,0.21042467763244685,1.331727598026138,0.9069641181679129,0.28818995000000003,0.6490969410325542
0.021500000000000002,1.78844375,1.0,2437.6589934136637,0.21485356929906363,1.3312540898511946,0.9103035648146502,0.2881676375,0.6500979845563032
0.022,1.7879,1.0,2460.4662111941598,0.21925762011538755,1.3307896680934088,0.9134517905637762,0.2881448,0.6510784294727437
0.0225,1.78734375,1.0,2481.9174274869533,0.22363696886276901,1.3303335371200111,0.9164229933195861,0.28812143749999997,0.6520400326970097
0.023,1.786775,1.0,2502.067664706132,0.22799175267358068,1.3298849942225717,0.9192301060168647,0.28809755,0.652984344983335
0.0235,1.78619375,1.0,2520.97434699645,0.23232210868019534,1.3294433366926603,0.9218849111163995,0.28807313749999996,0.6539129078724695
0.024,1.7856,1.0,2538.6970995326,0.23662817401498565,1.3290078618218477,0.9243981588387155,0.2880482,0.6548272540159948
0.0245,1.78499375,1.0,2555.2975587661335,0.24091008581032436,1.3285778669017039,0.9267796718232298,0.2880227375,0.6557289074691524
0.025,1.784375,1.0,2570.827943026301,0.2451679775870951,1.328152754595956,0.9290384542533001,0.28799675,0.656619163428209
0.025500000000000002,1.78374375,1.0,2585.3570370261527,0.2494019891078762,1.3277317872057948,0.9311827357130654,0.2879702375,0.6574996034913765
0.026000000000000002,1.7831000000000001,1.0,2598.9267126194873,0.2536122522359554,1.3273144922587516,0.933220106752613,0.2879432,0.6583712473131238
0.0265,1.78244375,1.0,2611.579673425998,0.25779889874312234,1.3269004000335214,0.9351575408031985,0.2879156375,0.6592351035010322
0.027,1.781775,1.0,2623.3596530929194,0.26196206040116654,1.3264890408087986,0.9370014522602633,0.28788755,0.6600921754838988
0.0275,1.7810937500000001,1.0,2634.3113255951175,0.2661018689818777,1.326079944863278,0.9387577487481709,0.2878589375,0.6609434616006427
0.028,1.7804,1.0,2644.480220427405,0.27021845625704544,1.3256726424756544,0.9404318778635595,0.2878298,0.6617899551751422
0.0285,1.77969375,1.0,2653.897819738949,0.2743119492120778,1.3252668005650785,0.9420288868184151,0.2878001375,0.6626323611293286
0.029,1.778975,1.0,2662.6184558768937,0.27838248352598993,1.3248618813099122,0.9435534151343354,0.28776995,0.6634718050758435
0.029500000000000002,1.7782437500000001,1.0,2670.6829508306787,0.2824301893028734,1.3244574773441857,0.9450097720731757,0.2877392375,0.6643091371028291
0.03,1.7775,1.0,2678.11961619207,0.2864551920981693,1.3240533009827387,0.946401964091481,0.287708,0.6651449557467812
0.0305,1.77674375,1.0,2684.957174863707,0.29045761746731885,1.3236490645404104,0.9477337065566009,0.2876762375,0.665979856575629
0.031,1.775975,1.0,2691.224724517238,0.29443759096576333,1.3232444803320407,0.9490084485578854,0.28764395,0.6668144321902709
0.0315,1.7751937500000001,1.0,2696.951702887143,0.2983952381489439,1.3228392606724686,0.9502293953119237,0.2876111375,0.6676492722208351
0.032,1.7744,1.0,2702.167854898947,0.3023306845723018,1.3224331178765336,0.9513995284211296,0.2875778,0.6684849633176575
0.0325,1.77359375,1.0,2706.903201633033,0.3062440557912781,1.3220257642590754,0.9525216242144731,0.2875439375,0.6693220891369848
0.033,1.772775,1.0,2711.1854508105007,0.3101354757606506,1.3216169354856708,0.9535982726488741,0.28750955,0.6701611824260391
0.0335,1.7719437500000002,1.0,2715.038527037914,0.3140050664818464,1.3212064036352575,0.9546318935860281,0.2874746375,0.6710026985449746
0.034,1.7711000000000001,1.0,2718.4954766268656,0.3178529564883892,1.3207938593317108,0.955624739209522,0.2874392,0.67184725706335
0.0345,1.7702437500000001,1.0,2721.574430618404,0.3216792649417925,1.3203791306030987,0.9565789271377025,0.2874032375,0.6726951934757737
0.035,1.7693750000000001,1.0,2724.2936451783585,0.32548411100356983,1.319962045477489,0.9574964381886154,0.28736675,0.6735468413707312
0.035500000000000004,1.76849375,1.0,2726.6714887300577,0.3292676138352348,1.3195424319829496,0.9583791268017606,0.2873297375,0.6744025324056825
0.036000000000000004,1.7676,1.0,2728.726429742401,0.3330298925983009,1.3191201181475487,0.9592287305513048,0.2872922,0.6752625962802761
0.0365,1.76669375,1.0,2730.477025173995,0.33677106645428173,1.318694931999354,0.9600468788393377,0.2872541375,0.6761273607076759
0.037,1.765775,1.0,2731.941909572374,0.3404912545646908,1.3182667015664333,0.9608351008482721,0.28721555,0.6769971513840015
0.0375,1.76484375,1.0,2733.1397848297165,0.34419057609104176,1.3178352548768548,0.9615948328230798,0.2871764375,0.6778722919558825
0.038,1.7639,1.0,2734.0802355594383,0.34786913768634997,1.3174005032863259,0.9623274301582191,0.28713679999999997,0.6787529353111832
0.0385,1.76294375,1.0,2734.7936792033483,0.3515270739697959,1.3169621693713138,0.9630341556569131,0.28709663750000003,0.6796396147558372
0.039,1.761975,1.0,2735.290938311522,0.3551644974912629,1.3165201540558187,0.9637162101829196,0.28705595,0.6805325002438802
0.0395,1.7609937500000001,1.0,2735.582605446657,0.35878152047741707,1.3160743606289622,0.9643747250890727,0.2870147375,0.6814317555899003
0.04,1.76,1.0,2735.6792994501957,0.36237825515492444,1.3156246923798658,0.965010766838251,0.286973,0.6823375432401629
0.0405,1.7589937500000001,1.0,2735.5916615429587,0.36595481375045097,1.3151710525976517,0.9656253414094739,0.2869307375,0.683250024249006
0.041,1.757975,1.0,2735.330351632625,0.36951130849066266,1.3147133445714414,0.9662193983601447,0.28688795,0.6841693582546466
0.0415,1.75694375,1.0,2734.9060448287837,0.37304785160222553,1.3142514715903568,0.9667938345745924,0.2868446375,0.6850957034543852
0.042,1.7559,1.0,2734.329428165413,0.37656455531180555,1.31378533694352,0.9673494977261342,0.28680079999999997,0.6860292165792146
0.0425,1.75484375,1.0,2733.6111975309336,0.3800615318460688,1.3133148439200524,0.9678871894772862,0.2867564375,0.6869700528678355
0.043000000000000003,1.753775,1.0,2732.7620548046766,0.38353889343168124,1.312839895809076,0.968407668440387,0.28671155,0.6879183660400718
0.043500000000000004,1.75269375,1.0,2731.7873692618045,0.38699674355832303,1.312360444381061,0.9689116554485029,0.28666613750000003,0.6888742116902618
0.044,1.7516,1.0,2730.6951326297494,0.39043519247869246,1.3118764176212423,0.9693998326101136,0.2866202,0.6898376917466214
0.0445,1.75049375,1.0,2729.5030231435176,0.3938543658669463,1.311387655482925,0.9698728419702635,0.2865737375,0.6908090816736201
0.045,1.7493750000000001,1.0,2728.216225454227,0.3972543679609113,1.3108941114245776,0.9703312980590567,0.28652675,0.6917884294691402
0.0455,1.74824375,1.0,2726.839924524059,0.4006353029984143,1.3103957389046694,0.9707757841010518,0.2864792375,0.692775782110409
0.046,1.7471,1.0,2725.379304759524,0.403997275217282,1.3098924913816696,0.9712068539087354,0.2864312,0.6937711855397379
0.0465,1.7459437500000001,1.0,2723.839549192896,0.40734038885534124,1.3093843223140471,0.9716250336439336,0.28638263750000004,0.6947746846501206
0.047,1.744775,1.0,2722.225838711166,0.4106647481504188,1.3088711851602706,0.9720308234575418,0.28633355,0.6957863232706947
0.0475,1.74359375,1.0,2720.543351333857,0.4139704573403414,1.3083530333788094,0.9724246990170534,0.28628393750000003,0.6968061441520628
0.048,1.7424,1.0,2718.797261537706,0.4172576206629358,1.3078298204281325,0.9728071129305468,0.2862338,0.6978341889514788
0.0485,1.74119375,1.0,2716.9927396307876,0.4205263423560288,1.3073014997667085,0.9731784960750467,0.2861831375,0.6988704982178944
0.049,1.739975,1.0,2715.134951173188,0.42377672665744726,1.306768024853007,0.9735392588365083,0.28613195,0.6999151113768652
0.0495,1.73874375,1.0,2713.229056446781,0.42700887780501784,1.3062293491454966,0.9738897922680614,0.2860802375,0.7009680667153239
0.05,1.7375,1.0,2711.2802099729424,0.4302229000365673,1.3056854261026463,0.9742304691725963,0.286028,0.7020294013662105
0.0505,1.73624375,1.0,2709.2915064280924,0.4334188921531407,1.305136227919306,0.9745616457372135,0.2859752375,0.7030991148315606
0.051000000000000004,1.734975,1.0,2707.2626591880935,0.43659694713015673,1.3045817576189473,0.9748836632150647,0.28592195,0.7041771458091608
0.051500000000000004,1.73369375,1.0,2705.2050575501826,0.4397571876707004,1.304021911632651,0.9751968437618309,0.2858681375,0.7052636391812135
0.052000000000000005,1.7324,1.0,2703.1208478396507,0.4428997099033513,1.3034566706636723,0.9755014975129247,0.2858138,0.7063585747121158
0.0525,1.73109375,1.0,2701.012173563273,0.44602460995668924,1.3028860154152666,0.9757979207994744,0.28575893750000003,0.7074619313324709
0.053,1.729775,1.0,2698.8811753060095,0.4491319839592939,1.3023099265906888,0.9760863968794296,0.28570355000000003,0.7085736871324374
0.0535,1.72844375,1.0,2696.729990636614,0.4522219280397449,1.3017283848931942,0.9763671966238707,0.2856476375,0.7096938193550525
0.054,1.7271,1.0,2694.560754021237,0.45529453832662203,1.301141371026038,0.9766405791616288,0.2855912,0.7108223043895349
0.0545,1.7257437500000001,1.0,2692.3755967452876,0.458349910948505,1.300548865692475,0.9769067924850744,0.2855342375,0.7119591177645619
0.055,1.724375,1.0,2690.1766468432525,0.4613881420339735,1.299950849595761,0.9771660740197267,0.28547675,0.7131042341415216
0.0555,1.72299375,1.0,2687.9660290374613,0.4644093277116072,1.2993473034391507,0.977418651160124,0.2854187375,0.7142576273077457
0.056,1.7216,1.0,2685.7458646844852,0.4674135641099858,1.2987382079258993,0.9776647417742177,0.2853602,0.7154192701697135
0.0565,1.72019375,1.0,2683.5182717300822,0.47040094735768906,1.298123543759262,0.9779045546783811,0.28530113749999997,0.7165891347462354
0.057,1.718775,1.0,2681.2853646725052,0.4733715735832966,1.2975032916424942,0.9781382900849745,0.28524155,0.7177671921616104
0.0575,1.71734375,1.0,2679.0492545334673,0.4763255389153882,1.2968774322788508,0.9783661400242543,0.2851814375,0.718953412638764
0.058,1.7159,1.0,2676.806005165278,0.4792629182196671,1.296246001844329,0.978588290015112,0.2851208,0.7201476606863835
0.0585,1.71444375,1.0,2674.5605688346486,0.4821838235887086,1.2956089549578511,0.97880491680718,0.2850596375,0.7213499545558901
0.059000000000000004,1.7129750000000001,1.0,2672.3173656729236,0.48508835813679535,1.2949662510506537,0.9790161895722972,0.28499795,0.7225603021081721
0.059500000000000004,1.71149375,1.0,2670.0769906620403,0.4879766098179481,1.2943178846397911,0.979222271432984,0.2849357375,0.7237786440725721
0.06,1.71,1.0,2667.840037784443,0.4908486665861875,1.2936638502423188,0.9794233191237767,0.284873,0.7250049204746715
0.0605,1.7084937500000001,1.0,2665.6071000258808,0.49370461639553426,1.2930041423752916,0.9796194832889805,0.2848097375,0.7262390706343107
0.061,1.7069750000000001,1.0,2663.3787693781887,0.4965445472000092,1.2923387555557646,0.9798109087643214,0.28474595,0.7274810331636062
0.0615,1.7054437500000001,1.0,2661.1556368431307,0.49936854695363286,1.2916676843007928,0.9799977348434861,0.2846816375,0.7287307459649651
0.062,1.7039,1.0,2658.9382924371307,0.5021767036104261,1.2909909231274315,0.980180095530464,0.2846168,0.7299881462290985
0.0625,1.70234375,1.0,2656.7273251958936,0.5049691051244095,1.2903084665527353,0.9803581197785542,0.2845514375,0.7312531704330336
0.063,1.7007750000000001,1.0,2654.52332318057,0.5077458394496039,1.2896203090937597,0.9805319317168323,0.28448555,0.7325257543381222
0.0635,1.69919375,1.0,2652.3268734841954,0.5105069945400299,1.2889264452675595,0.9807016508648246,0.28441913750000003,0.7338058329880484
0.064,1.6976,1.0,2650.1385622383445,0.5132526583497083,1.2882268695911898,0.980867392336087,0.2843522,0.7350933407068344
0.0645,1.69599375,1.0,2647.958974621521,0.5159829188326598,1.2875215765817056,0.9810292670313362,0.2842847375,0.7363882110968443
0.065,1.694375,1.0,2645.7886948672067,0.518697863942905,1.286810560756162,0.9811873818217439,0.28421675,0.7376903770367855
0.0655,1.69274375,1.0,2643.6283062729726,0.5213975816344647,1.286093816631614,0.9813418397229617,0.2841482375,0.7389997706797079
0.066,1.6911,1.0,2641.4783912104754,0.5240821598613596,1.2853713387251167,0.9814927400604078,0.2840792,0.7403163234510036
0.0665,1.6894437500000001,1.0,2639.341237145824,0.5267516471112235,1.2846431057841043,0.9816401751667666,0.2840096375,0.741639994673403
0.067,1.687775,1.0,2637.2156543880033,0.5294061783736629,1.2839091286765154,0.9817842415267202,0.28393955,0.7429706844838706
0.0675,1.68609375,1.0,2635.101671255317,0.5320458335405684,1.2831694070206585,0.9819250279936235,0.2838689375,0.7443083129067878
0.068,1.6844000000000001,1.0,2632.9993248350215,0.5346706922446594,1.2824239403536797,0.9820626203136876,0.2837978,0.7456527994741747
0.0685,1.68269375,1.0,2630.908652200696,0.537280834118655,1.2816727282127252,0.9821971012749359,0.2837261375,0.747004063077807
0.069,1.680975,1.0,2628.8296904131744,0.5398763387952745,1.2809157701349416,0.9823285508281802,0.28365395,0.7483620219690454
0.0695,1.67924375,1.0,2626.7624765216747,0.5424572859072372,1.2801530656574749,0.9824570462022415,0.28358123749999997,0.7497265937586689
0.07,1.6775,1.0,2624.7070475647365,0.5450237550872623,1.2793846143174714,0.9825826620137179,0.283508,0.751097695416702
0.07050000000000001,1.67574375,1.0,2622.663440571297,0.5475758259680692,1.2786104156520774,0.9827054703715989,0.2834342375,0.7524752432722469
0.07100000000000001,1.673975,1.0,2620.6316925616707,0.5501135781823769,1.2778304691984395,0.9828255409769978,0.28335995,0.7538591530133132
0.07150000000000001,1.67219375,1.0,2618.6118405487623,0.5526370913629051,1.2770447744937032,0.9829429412182613,0.2832851375,0.755249339686649
0.07200000000000001,1.6704,1.0,2616.603921539026,0.5551464451423727,1.2762533310750155,0.9830577362617003,0.2832098,0.7566457176975698
0.0725,1.66859375,1.0,2614.6079725333952,0.5576417191534989,1.2754561384795222,0.9831699891381699,0.2831339375,0.7580482008097904
0.073,1.6667750000000001,1.0,2612.6240305286715,0.5601229930290033,1.2746531962443697,0.9832797608257142,0.28305755,0.7594567021452543
0.0735,1.66494375,1.0,2610.652132518304,0.5625903464016049,1.2738445039067043,0.9833871103284819,0.2829806375,0.7608711341839637
0.074,1.6631,1.0,2608.692315493495,0.5650438589040231,1.2730300610036722,0.9834920947520984,0.2829032,0.7622914087638106
0.0745,1.6612437500000001,1.0,2606.744616444378,0.5674836101689772,1.2722098670724198,0.9835947693756812,0.2828252375,0.7637174370804067
0.075,1.659375,1.0,2604.8090723611963,0.5699096798291864,1.271383921650093,0.9836951877206624,0.28274675,0.7651491296869137
