Time [s],Phi [rad],STIM [ ],Fsee [N],Gamma [ ],Lcerel [ ],q [ ],Lmtc [m],fisomrel [ ]
0.0,1.8,1.0,17.967875358596334,1.2318654843796977e-05,1.379339665871144,0.0050000403773604275,0.288653,0.5411397254361249
0.0005,1.79999375,1.0,18.277922121137113,0.005621458865727153,1.3793022569415119,0.012946951385202125,0.2886527375,0.541230222828684
0.001,1.799975,1.0,21.621230294578922,0.011199136234938574,1.3789380111667509,0.03562065688479129,0.28865195,0.5421109173883527
0.0015,1.79994375,1.0,31.075656424745386,0.016745527245005647,1.3780456567594537,0.07061824040964021,0.2886506375,0.5442649279506167
0.002,1.7999,1.0,53.595875538861506,0.02226080738680271,1.3763672567295853,0.11473741982606529,0.2886488,0.5483025767278267
0.0025,1.79984375,1.0,97.14137698522593,0.027745151167127103,1.3739340860238347,0.16459598019706395,0.28864643749999996,0.5541240411655592
0.003,1.7997750000000001,1.0,160.98739479876917,0.03319873211639846,1.3712132497749034,0.21730220992376453,0.28864354999999997,0.5605890407893979
0.0035,1.79969375,1.0,237.71636547737901,0.038621722788264354,1.368583716735942,0.27063452822120754,0.2886401375,0.5667922313683638
0.004,1.7996,1.0,321.5019355490972,0.04401429477037888,1.3661551610560168,0.3229367557483169,0.2886362,0.572482136581768
0.0045000000000000005,1.7994937500000001,1.0,409.30419605892115,0.049376618689588286,1.3639219586762277,0.37305439943987173,0.2886317375,0.5776811479376851
0.005,1.799375,1.0,499.45070304508414,0.05470886420302206,1.3618575518884783,0.42026607217351863,0.28862675,0.5824589035117258
0.0055,1.79924375,1.0,590.8279716297334,0.060011200045494414,1.3599381013259577,0.4641909304878395,0.2886212375,0.5868767959625785
0.006,1.7991000000000001,1.0,682.5557234936373,0.06528379397283296,1.3581457310132303,0.5046957994517599,0.2886152,0.590980980092471
0.006500000000000001,1.79894375,1.0,773.903098350397,0.07052681259697682,1.3564668807884235,0.5418154102866858,0.2886086375,0.5948066419036093
0.007,1.798775,1.0,864.3307572280323,0.07574042254428683,1.3548896689834926,0.575689899161642,0.28860155,0.5983843203086321
0.0075,1.79859375,1.0,953.2938461100997,0.08092478805374828,1.3534060004490034,0.606521787319253,0.2885939375,0.6017353279548439
0.008,1.7984,1.0,1040.3956395232212,0.0860800731339123,1.3520080988762884,0.6345429548361039,0.2885858,0.6048797778236645
0.0085,1.79819375,1.0,1125.354622715901,0.09120644129538125,1.350688669656086,0.6599943032411666,0.2885771375,0.6078362786187645
0.009000000000000001,1.797975,1.0,1207.9197883040076,0.09630405458282101,1.3494417671354424,0.6831133119064617,0.28856795,0.6106200618024848
0.0095,1.79774375,1.0,1287.904720188577,0.10137307411239738,1.348261958203944,0.7041258172874596,0.2885582375,0.6132449249615894
0.01,1.7975,1.0,1365.1925028479166,0.10641366065623035,1.3471440581334435,0.7232417320714606,0.288548,0.6157238612966978
0.0105,1.79724375,1.0,1439.69880846403,0.11142597379245986,1.3460834544051057,0.7406534116451502,0.2885372375,0.618068375596394
0.011,1.796975,1.0,1511.3545909196873,0.11641017146564522,1.345076158149355,0.7565353255125815,0.28852595000000003,0.6202884090461775
0.0115,1.79669375,1.0,1580.1439591263265,0.12136641148955163,1.3441182089264054,0.7710443224829544,0.2885141375,0.6223936807566415
0.012,1.7964,1.0,1646.0863221066336,0.12629485109315264,1.3432058218750413,0.7843207864260188,0.28850180000000003,0.6243933795633846
0.0125,1.79609375,1.0,1709.2082855766976,0.13119564652026877,1.3423356406777358,0.7964900668215037,0.2884889375,0.626295628577054
0.013000000000000001,1.7957750000000001,1.0,1769.5313212168207,0.13606895203971364,1.341504793157297,0.8076638883455882,0.28847555,0.6281073860031627
0.0135,1.79544375,1.0,1827.1084451290426,0.14091492192030075,1.340710407136533,0.8179415437268077,0.2884616375,0.6298355180767153
0.014,1.7951000000000001,1.0,1882.0010263345202,0.14573370929592783,1.339949833951833,0.8274113229784825,0.2884472,0.6314863214162028
0.0145,1.79474375,1.0,1934.307090475792,0.1505254682579324,1.3392202996602804,0.8361516242989671,0.2884322375,0.6330662892168034
0.015,1.794375,1.0,1984.0815215901198,0.1552903492344016,1.3385197398202844,0.8442323772687547,0.28841675,0.6345803117092059
0.0155,1.79399375,1.0,2031.3931356924504,0.16002850242178487,1.337846133649021,0.8517158023269003,0.2884007375,0.6360331313086984
0.016,1.7936,1.0,2076.3271047184994,0.16474007801653162,1.3371974603636674,0.8586573068493262,0.2883842,0.637429441085118
0.0165,1.7931937500000001,1.0,2118.9648934955585,0.16942522497090048,1.33657189155741,0.8651063498949966,0.2883671375,0.6387734751704943
0.017,1.792775,1.0,2159.4131221201924,0.17408409321232907,1.3359674736556237,0.871107053206549,0.28834955,0.640069695935771
0.0175,1.7923437500000001,1.0,2197.7436584609977,0.17871682907971398,1.3353827288159978,0.8766989988447419,0.2883314375,0.641321508966629
0.018000000000000002,1.7919,1.0,2234.030798819145,0.18332357840143584,1.334816250704838,0.8819176484219027,0.2883128,0.6425321373212853
0.0185,1.79144375,1.0,2268.357361920519,0.18790448700587514,1.3342666329884505,0.8867948049773592,0.2882936375,0.6437047770107288
0.019,1.790975,1.0,2300.7940392277383,0.19245969981024877,1.3337326666064302,0.8913590858910021,0.28827395,0.6448421786982186
0.0195,1.79049375,1.0,2331.4573524018683,0.1969893623777175,1.3332127565675922,0.895636144181399,0.2882537375,0.645947891774957
0.02,1.79,1.0,2360.427317481034,0.20149361801286453,1.332705733187701,0.8996491998081415,0.288233,0.647024537959293
0.0205,1.7894952328856506,1.0,2387.808904703097,0.20597260802307313,1.3322109057590172,0.9034193201544776,0.2882117997811973,0.648073705659354
0.021,1.7889888215752685,1.0,2414.0810253788504,0.21042647371572665,1.3317275835738005,0.9069655489850635,0.2881905305061613,0.6490969716080588
0.021500000000000002,1.7884824102648864,1.0,2439.3719985081407,0.2148553563982084,1.3312550759243114,0.9103051284861929,0.28816926123112524,0.6500959013851362
0.022,1.7879759989545043,1.0,2463.729386718824,0.21925939660425955,1.3307927599715934,0.9134537080240532,0.2881479919560892,0.6510719067295146
0.0225,1.7874695876441222,1.0,2487.1810088528428,0.2236387343725203,1.3303402200214194,0.9164255421730766,0.2881267226810531,0.652025953559312
0.023,1.7869631763337401,1.0,2509.7574683491757,0.22799350753964487,1.3298970280063174,0.9192335921936328,0.28810545340601706,0.6529590271447674
0.0235,1.7864567650233583,1.0,2531.4906500615016,0.2323238534570733,1.329462757107019,0.9218896648225525,0.288084184130981,0.6538721035696473
0.024,1.7859503537129762,1.0,2552.411264088606,0.2366299082062296,1.3290370039991324,0.9244045346892844,0.288062914855945,0.6547661033140145
0.0245,1.785443942402594,1.0,2572.5442982344084,0.2409118042740647,1.328619430198524,0.9267880550513612,0.28804164558090894,0.6556418051530533
0.025,1.784937531092212,1.0,2591.9439158637024,0.2451696889883656,1.3282094346356088,0.9290492028988988,0.2880203763058729,0.6565005325770856
0.025500000000000002,1.7844311197818299,1.0,2610.6333514915605,0.24940369378908403,1.3278067164279708,0.9311962455245445,0.28799910703083687,0.6573429740583927
0.026000000000000002,1.7839247084714478,1.0,2628.6366661498046,0.2536139501161716,1.3274109746931928,0.9332367672267455,0.2879778377558008,0.658169813936395
0.0265,1.7834182971610657,1.0,2645.9786998433356,0.25780058940958006,1.3270219085488586,0.9351777349588895,0.2879565684807648,0.6589817325544068
0.027,1.7829118858506836,1.0,2662.685026013463,0.26196374310926107,1.3266392171125512,0.9370255568698195,0.2879352992057287,0.6597794063906239
0.0275,1.7824054745403015,1.0,2678.781908008749,0.2661035426551662,1.3262625995018544,0.9387861345816294,0.28791402993069265,0.6605635081833308
0.028,1.7818990632299194,1.0,2694.296257562526,0.27022011948724733,1.3258917548343514,0.9404649099423228,0.2878927606556566,0.6613347070503413
0.0285,1.7813926519195376,1.0,2709.255595278029,0.274313605045456,1.3255263822276255,0.9420669068972287,0.28787149138062057,0.6620936686026591
0.029,1.7808862406091555,1.0,2723.686508941182,0.27838412970720844,1.325166194486265,0.9435967705583114,0.28785022210558453,0.6628410266687517
0.029500000000000002,1.7803798292987734,1.0,2737.605700063701,0.2824318177913304,1.3248109988682062,0.9450588100085914,0.2878289528305485,0.6635772162443818
0.03,1.7798734179883913,1.0,2751.0489991540117,0.286456807965442,1.3244604329359204,0.9464569993999346,0.28780768355551245,0.6643030212341681
0.0305,1.7793670066780092,1.0,2764.032838214068,0.2904592244599001,1.3241143143674932,0.9477950429810768,0.28778641428047635,0.6650188495602354
0.031,1.778860595367627,1.0,2776.5739743304625,0.29443919150506137,1.3237724608410095,0.9490763796330658,0.2877651450054403,0.6657251071459087
0.0315,1.778354184057245,1.0,2788.6894720647583,0.29839683333128253,1.3234346900345553,0.9503042052014029,0.2877438757304043,0.6664221979663622
0.032,1.777847772746863,1.0,2800.3966865815237,0.30233227416892045,1.3231008196262157,0.9514814926884231,0.28772260645536823,0.6671105240971544
0.0325,1.7773413614364808,1.0,2811.713247512845,0.30624563824833173,1.3227706672940762,0.9526110105340315,0.2877013371803322,0.6677904857606403
0.033,1.7768349501260987,1.0,2822.6570435600847,0.3101370497998732,1.322444050716222,0.9536953391863354,0.28768006790529616,0.6684624813702629
0.0335,1.7763285388157168,1.0,2833.246207832745,0.3140066330539017,1.322120787570739,0.9547368861404598,0.2876587986302601,0.6691269075727259
0.034,1.7758221275053347,1.0,2843.4983837616837,0.31785451143520294,1.3218007019491558,0.9557379001070413,0.2876375293552241,0.6697841461257354
0.0345,1.7753157161949527,1.0,2853.421972676902,0.3216807991267005,1.3214837019927863,0.9567004897425986,0.28761626008018804,0.67043440482466
0.035,1.7748093048845706,1.0,2863.0439689443256,0.32548563235720723,1.3211695320393801,0.9576266155953719,0.28759499080515194,0.6710782260510382
0.035500000000000004,1.7743028935741885,1.0,2872.3747194244097,0.3292691281082322,1.3208580861534296,0.9585181243908527,0.2875737215301159,0.6717158435904285
0.036000000000000004,1.7737964822638064,1.0,2881.424699377273,0.33303140336128445,1.320549258399427,0.959376746663294,0.28755245225507986,0.6723474902409994
0.0365,1.7732900709534243,1.0,2890.204506189085,0.33677257509787295,1.3202429428418647,0.9602041053949201,0.2875311829800438,0.6729733978315758
0.037,1.7727836596430422,1.0,2898.724853347509,0.34049276029950687,1.319939033545235,0.9610017239192697,0.2875099137050078,0.6735937972389701
0.0375,1.77227724833266,1.0,2906.9965646651513,0.34419207594769524,1.3196374245740299,0.9617710331588712,0.28748864442997174,0.6742089184045962
0.038,1.771770837022278,1.0,2915.0305687524306,0.3478706390239471,1.319338009992742,0.9625133782600839,0.2874673751549357,0.6748189903503679
0.0385,1.7712644257118961,1.0,2922.837893739129,0.35152856650977143,1.3190406838658635,0.9632300246813984,0.2874461058798996,0.6754242411938844
0.039,1.770758014401514,1.0,2930.429662244901,0.3551659753866774,1.3187453402578866,0.9639221637857024,0.2874248366048636,0.6760248981628958
0.0395,1.770251603091132,1.0,2937.817086597707,0.358782982636174,1.3184518732333035,0.9645909179818593,0.2874035673298275,0.6766211876090562
0.04,1.7697451917807498,1.0,2945.002505127956,0.362379689292309,1.3181602552559142,0.9652373494852764,0.2873822980547915,0.6772131759422562
0.0405,1.7692387804703678,1.0,2952.0048826056895,0.36595623059188676,1.31787031380345,0.9658624539554185,0.28736102877975545,0.6778012232222457
0.041,1.7687323691599857,1.0,2958.830976679919,0.3695127174220475,1.3175819839179035,0.9664671762409469,0.2873397595047194,0.6783854703149506
0.0415,1.7682259578496036,1.0,2965.4867682647905,0.37304925907103686,1.317295207869081,0.9670524092744028,0.28731849022968337,0.6789660429314947
0.042,1.7677195465392215,1.0,2971.9782844720366,0.3765659648271006,1.3170099279267893,0.9676189971526845,0.28729722095464727,0.6795430663133032
0.0425,1.7672131352288394,1.0,2978.311596659446,0.3800629439784843,1.3167260863608348,0.9681677383091167,0.2872759516796113,0.6801166652377202
0.043000000000000003,1.7667067239184573,1.0,2984.49281855195,0.38354030581343357,1.3164436254410243,0.9686993884483525,0.2872546824045752,0.6806869640234079
0.043500000000000004,1.7662003126080754,1.0,2990.5281044387343,0.3869981596201942,1.316162487437164,0.969214663264066,0.28723341312953915,0.6812540865355392
0.044,1.7656939012976933,1.0,2996.4236474419063,0.39043661468701174,1.315882614619061,0.9697142409575332,0.2872121438545031,0.6818181561907711
0.0445,1.7651874899873112,1.0,3002.185677860808,0.393855780302132,1.3156039492565212,0.9701987645735359,0.28719087457946707,0.6823792959620127
0.045,1.7646810786769291,1.0,3007.8204615892573,0.39725576575380045,1.3153264336193518,0.9706688441685125,0.28716960530443103,0.6829376283829738
0.0455,1.764174667366547,1.0,3013.334298607132,0.4006366803302629,1.315050009977359,0.9711250588245394,0.287148336029395,0.6834932755525064
0.046,1.763668256056165,1.0,3018.732032518915,0.40399862796329516,1.3147746334703199,0.9715679587360861,0.28712706675435895,0.6840463333023782
0.0465,1.7631618447457829,1.0,3024.0154928559446,0.4073417046164232,1.3145002854916836,0.9719980675861403,0.28710579747932286,0.6845968444695456
0.047,1.7626554334354008,1.0,3029.1961652071686,0.410666042601831,1.3142268642462127,0.9724158821157187,0.2870845282042868,0.6851450184502303
0.0475,1.7621490221250187,1.0,3034.277153311088,0.41397174291320227,1.3139543406000007,0.9728218758661158,0.2870632589292508,0.6856909184260802
0.048,1.7616426108146366,1.0,3039.2615777054148,0.41725890654422076,1.313682685419142,0.9732164995423409,0.28704198965421474,0.6862346073604454
0.0485,1.7611361995042547,1.0,3044.1525751571044,0.4205276344885703,1.3134118695697299,0.9736001823259095,0.2870207203791787,0.6867761480000212
0.049,1.7606297881938726,1.0,3048.953298110261,0.42377802773993456,1.3131418639178587,0.9739733331004816,0.28699945110414266,0.6873156028764327
0.0495,1.7601233768834905,1.0,3053.666914153774,0.4270101872919973,1.3128726393296222,0.9743363415968802,0.2869781818291066,0.6878530343077685
0.05,1.7596169655731084,1.0,3058.2966055071734,0.4302242141384423,1.3126041666711141,0.9746895794634793,0.2869569125540705,0.6883885044000584
0.0505,1.7591105542627263,1.0,3062.8455685257636,0.43342020927295327,1.3123364168084284,0.975033401267458,0.28693564327903454,0.688922075048698
0.051000000000000004,1.7586041429523442,1.0,3067.317013223735,0.436598273689214,1.312069360607659,0.9753681454319663,0.28691437400399844,0.6894538079398179
0.051500000000000004,1.7580977316419621,1.0,3071.714162817596,0.4397585083809082,1.3118029689348998,0.97569413511384,0.2868931047289624,0.6899837645516005
0.052000000000000005,1.75759132033158,1.0,3076.04025328682,0.44290101434171963,1.3115372126562446,0.9760116790261264,0.28687183545392636,0.6905120061555416
0.0525,1.757084909021198,1.0,3080.2985329540747,0.44602589256533204,1.3112720626377874,0.9763210722093488,0.2868505661788903,0.6910385938176574
0.053,1.7565784977108159,1.0,3084.4922620846264,0.44913324404542915,1.3110074897456219,0.97662259675512,0.2868292969038543,0.6915635883996394
0.0535,1.756072086400434,1.0,3088.6227622594856,0.45222315480791714,1.310743481510402,0.9769165219993654,0.28680802762881824,0.6920870175344211
0.054,1.755565675090052,1.0,3092.6907987450413,0.45529571156902887,1.3104800302650057,0.9772031060625299,0.2867867583537822,0.692608899255871
0.0545,1.7550592637796698,1.0,3096.703860248273,0.4583510542063961,1.3102170710043664,0.9774825977962658,0.2867654890787461,0.6931293649791834
0.055,1.7545528524692877,1.0,3100.6633751254103,0.46138927437076416,1.3099545905910472,0.9777552338807083,0.28674421980371007,0.6936484431490315
0.0555,1.7540464411589056,1.0,3104.5707772214223,0.4644104637128785,1.3096925758876106,0.9780212410827699,0.286722950528674,0.6941661621176549
0.056,1.7535400298485235,1.0,3108.427505732872,0.46741471388348443,1.3094310137566192,0.9782808367530059,0.286701681253638,0.6946825501452518
0.0565,1.7530336185381414,1.0,3112.235005073827,0.47040211653332753,1.3091698910606357,0.9785342292936302,0.28668041197860195,0.6951976354003655
0.057,1.7525272072277593,1.0,3115.994724746337,0.47337276331315314,1.3089091946622229,0.9787816185995923,0.2866591427035659,0.695711445960258
0.0575,1.7520207959173772,1.0,3119.708119213928,0.47632674587370666,1.3086489114239432,0.9790231964744606,0.28663787342852987,0.6962240098112719
0.058,1.7515143846069952,1.0,3123.3766477796266,0.47926415586573345,1.3083890282083597,0.9792591470227483,0.28661660415349377,0.6967353548491823
0.0585,1.7510079732966133,1.0,3127.001774467738,0.48218508493997897,1.3081295318780348,0.9794896470201937,0.2865953348784578,0.6972455088795381
0.059000000000000004,1.7505015619862312,1.0,3130.5849679083312,0.48508962474718864,1.3078704092955313,0.9797148662633944,0.2865740656034217,0.6977544996179912
0.059500000000000004,1.749995150675849,1.0,3134.127701227724,0.48797786693810785,1.307611647323412,0.979934967900107,0.28655279632838565,0.6982623546906147
0.06,1.749488739365467,1.0,3137.6314519406224,0.490849903163482,1.3073532328242394,0.9801501087414196,0.2865315270533496,0.698769101634212
0.0605,1.748982328055085,1.0,3141.097701847272,0.4937058250740565,1.307095152660576,0.9803604395569246,0.28651025777831357,0.6992747678966119
0.061,1.7484759167447028,1.0,3144.5279369341665,0.4965457243205768,1.3068373936949849,0.9805661053539475,0.28648898850327753,0.6997793808369543
0.0615,1.7479695054343207,1.0,3147.9236472785715,0.49936969255378827,1.3065799427900286,0.9807672456418002,0.28646771922824144,0.7002829677259654
0.062,1.7474630941239386,1.0,3151.2863269570958,0.5021778214244363,1.3063227868082699,0.9809639946819776,0.28644644995320545,0.7007855557462221
0.0625,1.7469566828135565,1.0,3154.617473957237,0.5049702025832664,1.3060659126122711,0.98115648172514,0.28642518067816936,0.7012871719924032
0.063,1.7464502715031744,1.0,3157.9171224896595,0.5077469022937982,1.3058093194667175,0.9813448300189044,0.2864039114031333,0.7017878192834921
0.0635,1.7459438601927926,1.0,3161.186121641006,0.5105080110370972,1.3055529997596527,0.9815291597041705,0.2863826421280973,0.7022875138325182
0.064,1.7454374488824105,1.0,3164.4273801535146,0.5132536535710097,1.3052969285117433,0.9817095880968993,0.28636137285306124,0.702786305616376
0.0645,1.7449310375720284,1.0,3167.6415173740616,0.5159839118799596,1.3050411001155409,0.9818862261992374,0.2863401035780252,0.7032842067611625
0.065,1.7444246262616463,1.0,3170.8291543968853,0.5186988679483708,1.3047855089635976,0.9820591810421612,0.28631883430298916,0.7037812293552321
0.0655,1.7439182149512642,1.0,3173.9909140339205,0.521398603760667,1.3045301494484645,0.9822285558562363,0.2862975650279531,0.7042773854492854
0.066,1.743411803640882,1.0,3177.127420785333,0.5240832013012722,1.3042750159626935,0.9823944502338499,0.286276295752917,0.7047726870564497
0.0665,1.7429053923305,1.0,3180.2393008114577,0.52675274255461,1.304020102898836,0.9825569602834039,0.286255026477881,0.7052671461523633
0.067,1.742398981020118,1.0,3183.327181904622,0.5294073095051043,1.3037654046494438,0.9827161787759168,0.28623375720284494,0.7057607746752541
0.0675,1.7418925697097358,1.0,3186.391693462447,0.532046984137179,1.3035109156070686,0.982872195284462,0.2862124879278089,0.7062535845260169
0.068,1.7413861583993537,1.0,3189.433466461271,0.5346718484352578,1.3032566301642619,0.9830250963168378,0.28619121865277286,0.7067455875682912
0.0685,1.7408797470889719,1.0,3192.453133430565,0.5372819843837646,1.3030025427135752,0.9831749654418444,0.2861699493777368,0.7072367956285334
0.069,1.7403733357785898,1.0,3195.4513284280697,0.5398774739671233,1.30274864764756,0.9833218834095169,0.2861486801027008,0.7077272204960892
0.0695,1.7398669244682077,1.0,3198.4286870151777,0.5424583991697576,1.3024949393587684,0.9834659282656422,0.2861274108276647,0.7082168739232624
0.07,1.7393605131578256,1.0,3201.385846234038,0.5450248419760914,1.3022414122397517,0.9836071754608712,0.2861061415526287,0.7087057676253843
