Time [s],Phi [rad],STIM [ ],Fsee [N],Gamma [ ],Lcerel [ ],q [ ],Lmtc [m],fisomrel [ ]
0.0,1.8,1.0,17.96749190492055,1.0000134312883267e-05,1.3793397088301513,0.005000026652483209,0.288653,0.541139621507194
0.0005,1.79999375,1.0,18.276793007636957,0.005619153350262149,1.3793023823619386,0.012940514214471899,0.2886527375,0.5412299194341765
0.001,1.799975,1.0,21.61839409807907,0.011196843651592455,1.3789383008328937,0.035608576821868056,0.28865195,0.5421102173529317
0.0015,1.79994375,1.0,31.069155058466865,0.01674324752123849,1.3780462106252844,0.07060170527717018,0.2886506375,0.5442635925760941
0.002,1.7999,1.0,53.58204430417576,0.02225854045048523,1.376368153973797,0.11471783672481577,0.2886488,0.5483004230687378
0.0025,1.79984375,1.0,97.1182174754716,0.027742896946528574,1.3739352019629478,0.1645746742116992,0.28864643749999996,0.5541213798881678
0.003,1.7997750000000001,1.0,160.95729726978232,0.03319649054019536,1.3712143763044404,0.21728022792926457,0.28864354999999997,0.5605863738039072
0.0035,1.79969375,1.0,237.682382179537,0.038619493785532755,1.3685847634760886,0.27061266313410415,0.2886401375,0.56678977083315
0.004,1.7996,1.0,321.46580041350654,0.044012078270590956,1.3661561181122903,0.32291558316649016,0.2886362,0.5724799016866662
0.0045000000000000005,1.7994937500000001,1.0,409.26679409704343,0.049374414622607596,1.3639228366238048,0.3730343002329882,0.2886317375,0.5776791102796031
0.005,1.799375,1.0,499.4125568693664,0.05470667249909635,1.361858362476835,0.4202472672108578,0.28862675,0.5824570328621923
0.0055,1.79924375,1.0,590.7894912519295,0.060009020635326205,1.3599388531275702,0.46417351968000553,0.2886212375,0.5868750701824281
0.006,1.7991000000000001,1.0,682.5172026892366,0.06528162678744508,1.3581464312095066,0.5046797988224521,0.2886152,0.5909793807777237
0.006500000000000001,1.79894375,1.0,773.8804573899642,0.0705246577881115,1.356467267281846,0.541800611181675,0.2886086375,0.5948057632545054
0.007,1.798775,1.0,864.2849771801821,0.07573827953008688,1.3548904084685238,0.5756766468829777,0.28860155,0.598382646610473
0.0075,1.79859375,1.0,953.242488922479,0.0809226569759702,1.3534067903652858,0.606509794438601,0.2885939375,0.6017335475883513
0.008,1.7984,1.0,1040.3440702835805,0.08607795375889962,1.3520088581252843,0.6345320683141922,0.2885858,0.604878073346089
0.0085,1.79819375,1.0,1125.3141927313584,0.09120433398224927,1.3506892419908876,0.6599843333263973,0.2885771375,0.6078349985709717
0.009000000000000001,1.797975,1.0,1207.8997720409511,0.09630195957732096,1.3494420406327965,0.6831041058647138,0.28856795,0.610619452290775
0.0095,1.79774375,1.0,1287.891602941974,0.10137099107383739,1.3482621317797936,0.7041174009041451,0.2885582375,0.6132445394393932
0.01,1.7975,1.0,1365.166436055895,0.10641158900152126,1.3471443931606613,0.7232341580546239,0.288548,0.615723119569886
0.0105,1.79724375,1.0,1439.6591386328946,0.11142391330628017,1.3460839509001281,0.7406465955390197,0.2885372375,0.6180672797492275
0.011,1.796975,1.0,1511.3220588547506,0.11640812275074507,1.3450765555404776,0.7565290684904321,0.28852595000000003,0.6202875344908154
0.0115,1.79669375,1.0,1580.1206268014046,0.1213643745130898,1.3441184876660033,0.771038556726301,0.2885141375,0.6223930690257103
0.012,1.7964,1.0,1646.0563686901082,0.1262928252226518,1.3432061724730269,0.7843155425935652,0.28850180000000003,0.6243926121696906
0.0125,1.79609375,1.0,1709.1734693905726,0.13119363177236337,1.3423360405978892,0.7964852830914784,0.2884889375,0.6262947554456644
0.013000000000000001,1.7957750000000001,1.0,1769.5064594586563,0.13606694900657326,1.341505073824466,0.8076594518716774,0.28847555,0.6281067747198533
0.0135,1.79544375,1.0,1827.0915975846913,0.14091293036659966,1.340710594309371,0.8179374284527858,0.2884616375,0.6298351113691176
0.014,1.7951000000000001,1.0,1881.9927810657098,0.14573172929376077,1.3399499242092177,0.8274074955725473,0.2884472,0.6314861257338877
0.0145,1.79474375,1.0,1934.2780967109454,0.15052349822515423,1.3392206127226771,0.8361481677954958,0.2884322375,0.6330656119389397
0.015,1.794375,1.0,1984.04911236371,0.15528839017529206,1.3385200853441581,0.8442291940897823,0.28841675,0.6345795657480355
0.0155,1.79399375,1.0,2031.3695306080406,0.16002655490897685,1.337846382361289,0.8517128251866675,0.2884007375,0.6360325954253501
0.016,1.7936,1.0,2076.3104157959974,0.16473814174837134,1.3371976342913305,0.8586545226869725,0.2883842,0.6374290670546241
0.0165,1.7931937500000001,1.0,2118.9571296870704,0.16942330001563824,1.3365719716515438,0.8651037350836308,0.2883671375,0.6387733032480625
0.017,1.792775,1.0,2159.3909510541325,0.17408217787276653,1.3359677002281258,0.871104660639793,0.28834955,0.6400692104701027
0.0175,1.7923437500000001,1.0,2197.7180110997383,0.17871492428020314,1.3353829886181932,0.8766967787966318,0.2883314375,0.6413209532701816
0.018000000000000002,1.7919,1.0,2234.010574452839,0.18332168477417712,1.3348164539024994,0.8819155623571577,0.2883128,0.6425317034316185
0.0185,1.79144375,1.0,2268.3428296554603,0.18790260443408058,1.3342667778875366,0.8867928407240542,0.2882936375,0.643704468114427
0.019,1.790975,1.0,2300.796486287993,0.19245782833930564,1.333732642379798,0.8913572049984154,0.28827395,0.6448422302621106
0.0195,1.79049375,1.0,2331.45151392553,0.19698750044970648,1.3332128139889472,0.8956343992555297,0.2882537375,0.6459477697498957
0.02,1.79,1.0,2360.3968835337973,0.2014917658580702,1.3327060306635723,0.8996476179712913,0.288233,0.6470239067604914
0.0205,1.78949375,1.0,2387.7034647342675,0.20597076656951713,1.3322112607708976,0.9034178482784002,0.2882117375,0.6480729534981209
0.021,1.788975,1.0,2413.436875469042,0.21042464321332066,1.3317275678339087,0.9069640839995753,0.28818995000000003,0.649097004907524
0.021500000000000002,1.78844375,1.0,2437.666736488794,0.21485353641875415,1.3312540153755914,0.9103035239670073,0.2881676375,0.6500981418926897
0.022,1.7879,1.0,2460.466333871941,0.21925758681509092,1.3307896669189314,0.9134517664118765,0.2881448,0.6510784319504541
0.0225,1.78734375,1.0,2481.8981440825987,0.2236369324936757,1.3303337209338755,0.9164230055093984,0.28812143749999997,0.652039645452744
0.023,1.786775,1.0,2502.044587852382,0.2279917158991069,1.329885213308988,0.9192301249238338,0.28809755,0.6529838840563886
0.0235,1.78619375,1.0,2520.959411711712,0.2323220734711301,1.3294434779520465,0.9218849161293112,0.28807313749999996,0.6539126110805467
0.024,1.7856,1.0,2538.6942119019122,0.23662814081365163,1.3290078890378108,0.924398144314856,0.2880482,0.6548271969097055
0.0245,1.78499375,1.0,2555.3024724318743,0.24091005353057784,1.3285778207410406,0.9267796454765742,0.2880227375,0.6557290041998362
0.025,1.784375,1.0,2570.839405805561,0.2451679472258151,1.3281526472364962,0.9290384193702542,0.28799675,0.6566193881112236
0.025500000000000002,1.78374375,1.0,2585.3618024333323,0.24940195750326977,1.3277317426989375,0.9311827120346874,0.2879702375,0.6574996965163185
0.026000000000000002,1.7831000000000001,1.0,2598.9179213848965,0.25361221625319197,1.3273145741505858,0.9332201025824255,0.2879432,0.6583710763667749
0.0265,1.78244375,1.0,2611.5689693637487,0.25779886194430823,1.3269004995018472,0.9351575394522534,0.2879156375,0.6592348961270498
0.027,1.781775,1.0,2623.35478209075,0.26196202540449604,1.3264890859711955,0.937001443579236,0.28788755,0.6600920814467262
0.0275,1.7810937500000001,1.0,2634.3141017242556,0.26610183669867704,1.3260799191774615,0.9387577309665167,0.2878589375,0.660943515016646
0.028,1.7804,1.0,2644.4864726016735,0.27021842589177314,1.3256725847394761,0.9404318568010954,0.2878298,0.6617900750928213
0.0285,1.77969375,1.0,2653.9121706366195,0.2743119230487061,1.3252666682760703,0.9420288573964426,0.2878001375,0.6626326355503342
0.029,1.778975,1.0,2662.6321365232106,0.27838245823439783,1.3248617554060749,0.9435533878115414,0.28776995,0.6634720659262869
0.029500000000000002,1.7782437500000001,1.0,2670.6849592582507,0.28243015992288373,1.32445745888841,0.9450097587770514,0.2877392375,0.6643091752923336
0.03,1.7775,1.0,2678.1023646847543,0.2864551535154772,1.324053459289746,0.9464019716761606,0.287708,0.6651446285789189
0.0305,1.77674375,1.0,2684.934623235835,0.2904575762235808,1.3236492712199592,0.9477337195731178,0.2876762375,0.665979429970629
0.031,1.775975,1.0,2691.2066321019256,0.2944375516332994,1.3232446459508562,0.9490084568453037,0.28764395,0.6668140907656429
0.0315,1.7751937500000001,1.0,2696.9436014837966,0.29839520333073766,1.3228393347542424,0.95022939357496,0.2876111375,0.6676491196920862
0.032,1.7744,1.0,2702.1710265580796,0.30233065490200034,1.322433088901924,0.9513995158442803,0.2875778,0.6684850228991198
0.0325,1.77359375,1.0,2706.914660814413,0.30624402993319216,1.322025659665707,0.9525216041095015,0.2875439375,0.669322303944089
0.033,1.772775,1.0,2711.200490764571,0.31013545201041787,1.321616798317397,0.9535982498564156,0.28750955,0.6701614637757232
0.0335,1.7719437500000002,1.0,2715.054712022824,0.3140050447197823,1.3212062561288005,0.9546318707164166,0.2874746375,0.671003000713391
0.034,1.7711000000000001,1.0,2718.503706758218,0.31785293164739004,1.320793784371723,0.9556247242017377,0.2874392,0.6718474104224123
0.0345,1.7702437500000001,1.0,2721.5722420968978,0.3216792346681761,1.3203791505248803,0.9565789215414724,0.2874032375,0.672695152770906
0.035,1.7693750000000001,1.0,2724.2798630880447,0.3254840714405793,1.319962170871288,0.9574964418407031,0.28736675,0.6735465854953209
0.035500000000000004,1.76849375,1.0,2726.656653536442,0.32926757250374483,1.3195425668993606,0.9583791310747117,0.2873297375,0.6744022574597184
0.036000000000000004,1.7676,1.0,2728.717804597762,0.3330298545290379,1.3191201965580281,0.9592287297668186,0.2872922,0.6752624366988695
0.0365,1.76669375,1.0,2730.4785880196914,0.3367710341878236,1.318694917796221,0.9600468700769358,0.2872541375,0.6761273895754462
0.037,1.765775,1.0,2731.95434729838,0.3404912281514672,1.31826658856287,0.9608350837681365,0.28721555,0.676997380754314
0.0375,1.76484375,1.0,2733.1604892833666,0.34419055309133384,1.3178350668069052,0.9615948095020366,0.2871764375,0.6778726731755425
0.038,1.7639,1.0,2734.112476229036,0.3478691256787886,1.317400210477257,0.9623273995263362,0.28713679999999997,0.6787535280261254
0.0385,1.76294375,1.0,2734.8258182939576,0.35152706258519667,1.316961877522856,0.9630341258112841,0.28709663750000003,0.6796402047104146
0.039,1.761975,1.0,2735.316066486954,0.3551644804819232,1.3165199258926326,0.9637161856859803,0.28705595,0.6805329608192678
0.0395,1.7609937500000001,1.0,2735.5988060616455,0.3587814960403334,1.316074213535517,0.9643747070202572,0.2870147375,0.6814320520979094
0.04,1.76,1.0,2735.657785749648,0.362378222203717,1.3156248877106793,0.9650107782270206,0.286973,0.6823371500561897
0.0405,1.7589937500000001,1.0,2735.566708795791,0.36595477613672633,1.315171279156537,0.9656253545787873,0.2869307375,0.683249568861072
0.041,1.757975613350344,1.0,2735.346225912612,0.36951127020522256,1.3147134774312341,0.96621940314034,0.28688797576071445,0.6841690915916456
0.0415,1.7569545291846858,1.0,2735.411365255234,0.3730478153320675,1.3142517511913288,0.9667938522021318,0.28684509022575677,0.6850951430905077
0.042,1.7559334450190278,1.0,2735.8791616018834,0.3765645224401227,1.3137863690933795,0.9673495788602368,0.28680220469079915,0.6860271510561013
0.0425,1.7549123608533699,1.0,2736.7201226820503,0.3800615024522498,1.3133175997939448,0.9678874123707986,0.2867593191558415,0.6869645461076577
0.043000000000000003,1.7538912766877117,1.0,2737.9048185433853,0.3835388662913105,1.3128457119495827,0.9684081372522654,0.2867164336208839,0.6879067618455318
0.043500000000000004,1.7528701925220538,1.0,2739.403862175958,0.38699672488016645,1.3123709742168517,0.9689124961566947,0.28667354808592627,0.6888532349069356
0.044,1.7518491083563958,1.0,2741.1945546346856,0.39043518610970973,1.311893594818374,0.9694011873012064,0.28663066255096864,0.6898035252272701
0.0445,1.750828024190738,1.0,2743.241981816393,0.3938543625883211,1.311413892901221,0.9698748818077904,0.286587777016011,0.6907569748345246
0.045,1.7498069400250797,1.0,2745.525115979563,0.3972543619380795,1.3109320616401496,0.9703342057059313,0.28654489148105333,0.6917131793501473
0.0455,1.7487858558594218,1.0,2748.0268812449076,0.40063529018437494,1.3104482583795378,0.9707797501339002,0.2865020059460957,0.692671807618341
0.046,1.7477647716937639,1.0,2750.730197397649,0.4039972533525976,1.3099626404637623,0.9712120763886001,0.2864591204111381,0.6936325303467232
0.0465,1.7467436875281057,1.0,2753.6179732826927,0.40734035746813774,1.309475365237201,0.9716317177221735,0.28641623487618045,0.694595020125322
0.047,1.7457226033624478,1.0,2756.6731007485428,0.41066470855638537,1.3089865900442312,0.9720391810140805,0.2863733493412228,0.6955589514439994
0.0475,1.7447015191967898,1.0,2759.878449140155,0.4139704126427306,1.30849647222923,0.9724349483283661,0.28633046380626515,0.6965240007082905
0.048,1.743680435031132,1.0,2763.224054472165,0.4172575702987074,1.308005104144863,0.972819473092619,0.2862875782713075,0.697489973918087
0.0485,1.7426593508654737,1.0,2766.6891182156874,0.420526292756432,1.3075126758365836,0.9731931951389302,0.2862446927363499,0.6984564866065825
0.049,1.7416382666998158,1.0,2770.2617578492486,0.42377668399776525,1.307019296505455,0.9735565269361643,0.28620180720139227,0.6994233149658657
0.0495,1.7406171825341579,1.0,2773.9341382988055,0.4270088446544186,1.306525038635674,0.9739098586808896,0.28615892166643464,0.7003903083207864
0.05,1.7395960983684997,1.0,2777.6984086256016,0.43022287535810333,1.3060299747114366,0.9742535624318368,0.28611603613147696,0.7013573168945073
0.0505,1.7385750142028418,1.0,2781.5467006724552,0.4334188767405308,1.3055341772169398,0.9745879931180317,0.28607315059651933,0.7023241918123968
0.051000000000000004,1.7375539300371838,1.0,2785.471127826545,0.43659694943341243,1.3050377186363797,0.9749134894822362,0.2860302650615617,0.7032907851055894
0.051500000000000004,1.736532845871526,1.0,2789.4637838987082,0.4397571940684594,1.3045406714539531,0.9752303749643898,0.2859873795266041,0.7042569497142073
0.052000000000000005,1.7355117617058677,1.0,2793.516742119398,0.44289971127738315,1.3040431081538564,0.9755389585293611,0.28594449399164645,0.70522253949025
0.0525,1.7344906775402098,1.0,2797.6220542509286,0.44602460169189495,1.303545101220286,0.9758395354429755,0.2859016084566888,0.7061874092001476
0.053,1.7334695933745519,1.0,2801.7768412806254,0.4491319564256603,1.303046677458762,0.9761323841684916,0.2858587229217312,0.7071515028099653
0.0535,1.732448509208894,1.0,2805.971678155191,0.4522218830539748,1.3025479222907557,0.9764177763657971,0.2858158373867735,0.7081146515227899
0.054,1.7314274250432358,1.0,2810.1990198878357,0.45529448531468103,1.302048904048306,0.9766959705297643,0.2857729518518159,0.7090767205459731
0.0545,1.7304063408775778,1.0,2814.456066236003,0.45834985734594064,1.3015496483908329,0.9769672105859577,0.28573006631685827,0.7100376580209345
0.055,1.72938525671192,1.0,2818.7400086856837,0.46138809328591546,1.3010501809777557,0.9772317301483548,0.28568718078190064,0.7109974124147338
0.0555,1.7283641725462617,1.0,2823.048030323445,0.46440928727276715,1.3005505274684943,0.9774897530419129,0.285644295246943,0.7119559325204396
0.056,1.7273430883806038,1.0,2827.3773057234625,0.4674135334446576,1.3000507135224684,0.9777414937944805,0.28560140971198533,0.7129131674574541
0.0565,1.7263220042149459,1.0,2831.7250008490137,0.4704009259397484,1.2995507647990978,0.9779871581000945,0.2855585241770277,0.7138690666717972
0.057,1.7253009200492877,1.0,2836.088272968235,0.4733715588962015,1.2990507069578021,0.9782269432555472,0.2855156386420701,0.7148235799363482
0.0575,1.7242798358836298,1.0,2840.4642705848796,0.4763255264521785,1.2985505656580012,0.9784610385719671,0.28547275310711245,0.7157766573510445
0.058,1.7232587517179718,1.0,2844.850133383571,0.4792629227458413,1.2980503665591145,0.9786896257630384,0.2854298675721548,0.7167282493430405
0.0585,1.7222376675523139,1.0,2849.2429921894545,0.4821838419153516,1.2975501353205623,0.9789128793113576,0.28538698203719715,0.7176783066668211
0.059000000000000004,1.7212165833866557,1.0,2853.639968943016,0.48508837809887106,1.297049897601764,0.9791309668143232,0.2853440965022395,0.7186267804042781
0.059500000000000004,1.7201954992209978,1.0,2858.0411581537483,0.48797660755252226,1.296549652578176,0.9793440463943663,0.2853012109672819,0.7195736720528163
0.06,1.7191744150553399,1.0,2862.4434112192293,0.4908486348423141,1.296049428213757,0.9795522739229977,0.28525832543232427,0.7205189287446033
0.0605,1.718153330889682,1.0,2866.8431676412856,0.49370456565463383,1.2955492560396973,0.9797557995310645,0.28521543989736664,0.7214624912448389
0.061,1.7171322467240238,1.0,2871.2397735721565,0.49654448642314,1.2950491417305752,0.979954764712979,0.285172554362409,0.7224043493751626
0.0615,1.7161111625583658,1.0,2875.6325732232335,0.49936848358149105,1.2945490909609692,0.9801493056180164,0.2851296688274514,0.7233444930295495
0.062,1.7150900783927079,1.0,2880.020908872799,0.5021766435633456,1.2940491094054571,0.9803395532930931,0.2850867832924937,0.7242829121742904
0.0625,1.7140689942270497,1.0,2884.4041208745434,0.5049690528023622,1.2935492027386173,0.9805256339127532,0.2850438977575361,0.7252195968479661
0.063,1.7130479100613918,1.0,2888.7815476661626,0.5077457977321993,1.2930493766350282,0.9807076689971268,0.28500101222257845,0.7261545371614203
0.0635,1.7120268258957339,1.0,2893.15252577947,0.5105069647865157,1.2925496367692677,0.9808857756185736,0.2849581266876208,0.7270877232977345
0.064,1.711005741730076,1.0,2897.516389850926,0.5132526403989697,1.292049988815914,0.9810600665976813,0.2849152411526632,0.7280191455121954
0.0645,1.7099846575644178,1.0,2901.872472632539,0.5159829110032199,1.2915504384495455,0.9812306506892374,0.2848723556177055,0.7289487941322632
0.065,1.7089635733987598,1.0,2906.2201050042618,0.518697863032925,1.2910509913447406,0.9813976327587608,0.2848294700827479,0.7298766595575374
0.0655,1.7079424892331019,1.0,2910.558615986217,0.5213975829217434,1.2905516531760772,0.9815611139501353,0.28478658454779027,0.730802732259721
0.066,1.7069214050674437,1.0,2914.8873327521173,0.5240821571033337,1.2900524296181335,0.9817211918448536,0.28474369901283264,0.731727002782582
0.0665,1.7059003209017858,1.0,2919.2055806434955,0.5267516720113545,1.289553326345488,0.9818779606133513,0.284700813477875,0.7326494617419113
0.067,1.7048792367361278,1.0,2923.512683184175,0.5294062140794643,1.2890543490327186,0.9820315111588749,0.28465792794291733,0.7335700998254824
0.0675,1.70385815257047,1.0,2927.807962096509,0.5320458697413216,1.2885555033544036,0.9821819312543044,0.28461504240795976,0.7344889077930064
0.068,1.7028370684048117,1.0,2932.0925107776543,0.5346706791284476,1.2880567794319002,0.9823293019483711,0.2845721568730021,0.7354059050488571
0.0685,1.7018159842391538,1.0,2936.364669811642,0.5372807809517505,1.2875581915408822,0.9824737090073749,0.28452927133804445,0.7363210665744173
0.069,1.7007949000734959,1.0,2940.624212360713,0.5398762596247895,1.287059741371059,0.9826152312476552,0.2844863858030868,0.7372343905739183
0.0695,1.6997738159078377,1.0,2944.871118672565,0.5424571929347021,1.2865614287961524,0.9827539443562876,0.2844435002681292,0.7381458785915422
0.07,1.6987527317421798,1.0,2949.1053691622974,0.5450236586686259,1.2860632536898853,0.9828899215160403,0.2844006147331716,0.7390555321695036
0.07050000000000001,1.6977316475765218,1.0,2953.3269444124708,0.5475757346136986,1.2855652159259794,0.9830232335053982,0.2843577291982139,0.7399633528480509
0.07100000000000001,1.696710563410864,1.0,2957.5358251725147,0.5501134985570577,1.2850673153781573,0.9831539487939457,0.28431484366325627,0.7408693421654662
0.07150000000000001,1.6956894792452057,1.0,2961.7319923582095,0.5526370282858409,1.284569551920141,0.9832821336333502,0.28427195812829864,0.7417735016580682
