Time [s],Phi [rad],STIM [ ],Fsee [N],Gamma [ ],Lcerel [ ],q [ ],Lmtc [m],fisomrel [ ]
0.0,1.8,1.0,18.02622352351916,0.00024727617271658484,1.379333134354052,0.005015888486111889,0.288653,0.5411555267255445
0.0005,1.79999375,1.0,18.412616752822995,0.005855098457777293,1.37928732293455,0.013612355846752345,0.2886527375,0.5412663477715002
0.001,1.799975,1.0,21.9304277957928,0.011431465293627647,1.3789065453694478,0.03685573053882234,0.28865195,0.5421869575133629
0.0015,1.79994375,1.0,31.7626110917107,0.016976553121450313,1.3779874565106833,0.07230188096323571,0.2886506375,0.5444052382671694
0.002,1.7999,1.0,55.03401595037336,0.02249053739057255,1.3762745868692499,0.11672689870963888,0.2886488,0.5485249849374214
0.0025,1.79984375,1.0,99.52346389177016,0.027973592567361618,1.3738200073194349,0.16675753570120586,0.28864643749999996,0.5543960527031175
0.003,1.7997750000000001,1.0,164.06410964927758,0.033425892140959576,1.3710986408609114,0.21953036989562758,0.28864354999999997,0.5608603276504602
0.0035,1.79969375,1.0,241.18013195685126,0.03884760862457631,1.3684774168029983,0.2728494253952973,0.2886401375,0.5670420704916757
0.004,1.7996,1.0,325.179669703027,0.044238913565687356,1.3660580342268611,0.325080492180031,0.2886362,0.5727089144705555
0.0045000000000000005,1.7994937500000001,1.0,413.10761756846364,0.04959997755141705,1.363832888292127,0.37508875005041553,0.2886317375,0.5778878488425023
0.005,1.799375,1.0,503.3276798406414,0.054930970200364186,1.3617753287769692,0.4221689436694593,0.28862675,0.5826486335724359
0.0055,1.79924375,1.0,594.7362887787604,0.06023206020054707,1.3598618705720737,0.46595242205208204,0.2886212375,0.5870517669271941
0.006,1.7991000000000001,1.0,686.4653699880758,0.06550341527694123,1.3580747674785343,0.5063144343394782,0.2886152,0.5911430513239593
0.006500000000000001,1.79894375,1.0,777.801769671057,0.07074520220137806,1.3564004124563962,0.5432951301775956,0.2886086375,0.5949577359722917
0.007,1.798775,1.0,868.158566987856,0.07595758689510974,1.3548279075023197,0.5770385535577649,0.28860155,0.5985240945711902
0.0075,1.79859375,1.0,957.0446691688429,0.08114073411877834,1.353348367081438,0.6077484736958624,0.2885939375,0.6018652151813821
0.008,1.7984,1.0,1044.084581502468,0.0862948081568781,1.3519538356663092,0.6356573858847434,0.2885858,0.6050015866064178
0.0085,1.79819375,1.0,1128.9568933679284,0.09141997183424438,1.350637716406165,0.6610066575409326,0.2885771375,0.6079502290608095
0.009000000000000001,1.797975,1.0,1211.4162436753834,0.09651638721246059,1.3493940271390574,0.684033364295686,0.28856795,0.6107264470648968
0.0095,1.79774375,1.0,1291.3041103034834,0.10158421605950095,1.3482170050441682,0.7049625524462091,0.2885582375,0.6133447621111918
0.01,1.7975,1.0,1368.4818395577972,0.1066236183232839,1.3471018070939675,0.7240035996809956,0.288548,0.615817396403387
0.0105,1.79724375,1.0,1442.8591019638707,0.11163475334048528,1.3460439231285868,0.7413481447714171,0.2885372375,0.6181556226587268
0.011,1.796975,1.0,1514.3986668731038,0.1166177797649491,1.3450389925483244,0.7571697189313182,0.28852595000000003,0.6203701964962927
0.0115,1.79669375,1.0,1583.0918681525577,0.1215728558391568,1.344083008273858,0.7716244475345748,0.2885141375,0.6224709292640696
0.012,1.7964,1.0,1648.9230420622691,0.1265001375815129,1.3431726331512024,0.7848522586450009,0.28850180000000003,0.6244660199492037
0.0125,1.79609375,1.0,1711.9165902804725,0.13139978093523363,1.3423045438942018,0.7969778993768729,0.2884889375,0.6263635179508369
0.013000000000000001,1.7957750000000001,1.0,1772.1198219666019,0.13627194088152575,1.3414755820641366,0.8081124235195163,0.28847555,0.628171003998594
0.0135,1.79544375,1.0,1829.6055457605635,0.14111677292975885,1.3406826743857467,0.8183545642599244,0.2884616375,0.629895776063059
0.014,1.7951000000000001,1.0,1884.4126539834326,0.14593442912520305,1.3399234433895686,0.8277922887356599,0.2884472,0.631543535185519
0.0145,1.79474375,1.0,1936.6034855695839,0.15072506151312842,1.3391955116061391,0.8365037482016924,0.2884322375,0.633119913604112
0.015,1.794375,1.0,1986.260649390651,0.1554888220400843,1.3384965139965779,0.8445584152383822,0.28841675,0.6346304528449125
0.0155,1.79399375,1.0,2033.4675058687662,0.16022586132450184,1.3378242829256257,0.8520181593231778,0.2884007375,0.636080210031208
0.016,1.7936,1.0,2078.3237346143633,0.16493633091751192,1.3371766570416106,0.8589380834162998,0.2883842,0.6374741771245029
0.0165,1.7931937500000001,1.0,2120.8933888704264,0.16962037844167518,1.3365520010749004,0.865367477488754,0.2883671375,0.6388161689173478
0.017,1.792775,1.0,2161.252580022909,0.1742781515195524,1.3359486797558635,0.8713503483004728,0.28834955,0.6401099635532279
0.0175,1.7923437500000001,1.0,2199.4884697659204,0.1789097977737042,1.3353650578148675,0.8769260438291397,0.2883314375,0.6413593048368322
0.018000000000000002,1.7919,1.0,2235.6852584186568,0.1835154634765382,1.3347996311807868,0.8821298352172948,0.2883128,0.6425676242385495
0.0185,1.79144375,1.0,2269.9417396172357,0.18809529641515554,1.3342508381733909,0.8869933442620911,0.2882936375,0.643738447641536
0.019,1.790975,1.0,2302.332117817128,0.19264944083465166,1.3337174417056945,0.8915450583308003,0.28827395,0.6448745825937704
0.0195,1.79049375,1.0,2332.925676625027,0.19717803967530612,1.3331983178959002,0.8958106360368997,0.2882537375,0.6459785744621896
0.02,1.79,1.0,2361.7974484436613,0.20168123587739847,1.3326923428622095,0.8998132013602054,0.288233,0.6470529496200703
0.0205,1.78949375,1.0,2389.027732158653,0.20615917238120832,1.3321983927228247,0.9035736281580209,0.2882117375,0.6481002164297575
0.021,1.788975,1.0,2414.671968219445,0.21061199021207325,1.3317156303327724,0.9071108516811408,0.28818995000000003,0.6491222595437867
0.021500000000000002,1.78844375,1.0,2438.8548670263885,0.21503983305914892,1.3312425889219701,0.9104418853136254,0.2881676375,0.6501222808809652
0.022,1.7879,1.0,2461.633977989998,0.21944284021950589,1.3307784895999604,0.9135823030939271,0.2881448,0.6511020115368906
0.0225,1.78734375,1.0,2483.0462955701637,0.22382114965545097,1.3303227777329019,0.9165462959162013,0.28812143749999997,0.6520626993329717
0.023,1.7867774869546347,1.0,2503.24949479777,0.22817489932929091,1.3298748986869535,0.9193467726417877,0.2880976544520947,0.6530055842355618
0.0235,1.7862103719952729,1.0,2522.7240081682016,0.23250422720333253,1.3294342978282738,0.9219954936197053,0.28807383562380146,0.6539318986428322
0.024,1.785643257035911,1.0,2541.559633288205,0.2368092710433888,1.32900042544195,0.9245031895006893,0.28805001679550823,0.6548428573310454
0.0245,1.7850761420765493,1.0,2559.7772792629025,0.24109016736447506,1.3285730106022358,0.9268797138538353,0.28802619796721507,0.6557390838768593
0.025,1.7845090271171873,1.0,2577.3876708355506,0.24534705195836357,1.3281518841663496,0.9291340985629168,0.28800237913892185,0.6566209850703913
0.025500000000000002,1.7839419121578255,1.0,2594.4102321181754,0.24958005855237028,1.3277368006894865,0.9312746036393562,0.2879785603106287,0.6574891245976398
0.026000000000000002,1.7833747971984637,1.0,2610.8649828585135,0.2537893208738112,1.3273275147268413,0.9333088065902806,0.28795474148233546,0.6583440628276451
0.0265,1.782807682239102,1.0,2626.766083989831,0.25797496611461684,1.3269238403398473,0.935243674452492,0.2879309226540423,0.6591862328362437
0.027,1.7822405672797401,1.0,2642.1331326197587,0.26213712585496507,1.3265255455933542,0.9370856101895553,0.2879071038257491,0.6600161609533239
0.0275,1.7816734523203783,1.0,2657.0043078247263,0.2662759508077798,1.3261322318799278,0.9388404935516346,0.28788328499745586,0.660834717248141
0.028,1.7811063373610165,1.0,2671.3940040044426,0.2703915675727329,1.3257437251805175,0.9405137692119045,0.2878594661691627,0.661642300719131
0.0285,1.7805392224016545,1.0,2685.3169773514596,0.2744841027494961,1.3253598514760732,0.942110463623982,0.28783564734086947,0.6624393081870779
0.029,1.7799721074422927,1.0,2698.7883276402763,0.27855368293774113,1.3249804367475446,0.9436352225933224,0.2878118285125763,0.6632261343474973
0.029500000000000002,1.779404992482931,1.0,2711.823480687263,0.2826004347371399,1.3246053069758814,0.9450923450237148,0.2877880096842831,0.6640031718210899
0.03,1.7788378775235691,1.0,2724.438171483245,0.2866244847473642,1.3242342881420335,0.9464858132698492,0.2877641908559899,0.6647708112022603
0.0305,1.7782707625642074,1.0,2736.648427995856,0.29062595956808573,1.32386720622695,0.947819320474215,0.2877403720276967,0.6655294411057084
0.031,1.7777036476048456,1.0,2748.4705556447793,0.29460498579897637,1.3235038872115812,0.9490962952207236,0.2877165531994035,0.666279448211086
0.0315,1.7771365326454838,1.0,2759.9211224474857,0.2985616900397079,1.3231441570768767,0.9503199237975507,0.2876927343711103,0.6670212173057233
0.032,1.776569417686122,1.0,2771.0169448367383,0.30249619888995216,1.322787841803786,0.9514931703269344,0.28766891554281715,0.6677551313254275
0.0325,1.77600230272676,1.0,2781.7750741493146,0.30640863894938086,1.3224347673732588,0.9526187949893175,0.28764509671452393,0.6684815713933434
0.033,1.7754351877673982,1.0,2792.2092049627995,0.31029913207484044,1.3220847919290255,0.9536993729514728,0.2876212778862307,0.6692008507909323
0.0335,1.7748680728080364,1.0,2802.329765198554,0.3141677981345335,1.3217378045692918,0.9547373098035009,0.28759745905793754,0.6699132178282277
0.034,1.7743009578486746,1.0,2812.159073095355,0.3180147733402597,1.3213935892595,0.9557348445469216,0.2875736402296443,0.6706191351495405
0.0345,1.7737338428893128,1.0,2821.706543088413,0.32184017567217266,1.3210520473139138,0.9566940780254792,0.2875498214013511,0.671318823072527
0.035,1.773166727929951,1.0,2830.9817131062523,0.3256441231104262,1.320713080046798,0.9576169755930982,0.28752600257305794,0.6720125009148472
0.035500000000000004,1.7725996129705892,1.0,2839.994238829284,0.32942673363517383,1.320376588772417,0.9585053774293277,0.28750218374476477,0.6727003870106811
0.036000000000000004,1.7720324980112272,1.0,2848.753888164579,0.3331881252265694,1.3200424748050346,0.9593610079560638,0.28747836491647155,0.6733826987266225
0.0365,1.7714653830518654,1.0,2857.2705359360607,0.3369284158647664,1.3197106394589155,0.9601854844431554,0.28745454608817833,0.6740596524769493
0.037,1.7708982680925036,1.0,2865.554158791328,0.3406477235299187,1.3193809840483237,0.9609803248811005,0.28743072725988517,0.6747314637382793
0.0375,1.7703311531331418,1.0,2873.6148303232317,0.3443461662021798,1.3190534098875237,0.9617469551907522,0.28740690843159195,0.6753983470635962
0.038,1.76976403817378,1.0,2881.462716408883,0.34802386186170353,1.3187278182907796,0.9624867158325969,0.2873830896032987,0.6760605160956626
0.0385,1.7691969232144182,1.0,2889.108070763449,0.3516809284886435,1.3184041105723556,0.9632008678716818,0.28735927077500556,0.676718183579806
0.039,1.7686298082550564,1.0,2896.560745441907,0.3553174829877219,1.318082192328331,0.9638905987335349,0.2873354519467124,0.6773715526900594
0.0395,1.7680626932956944,1.0,2903.822341848178,0.3589336258332558,1.3177620425441088,0.9645570306689342,0.2873116331184192,0.6780206770350639
0.04,1.7674955783363326,1.0,2910.911328640738,0.3625294966580977,1.317443492031797,0.9652012158479283,0.28728781429012595,0.6786659099702119
0.0405,1.7669284633769708,1.0,2917.8331271528273,0.3661052051945037,1.3171264872916364,0.9658241515481785,0.2872639954618328,0.6793073694453686
0.041,1.766361348417609,1.0,2924.5932038732635,0.36966086117472974,1.3168109748238672,0.9664267793016591,0.28724017663353957,0.6799451729309661
0.0415,1.7657942334582473,1.0,2931.197068644854,0.3731965743310319,1.31649690112873,0.9670099885928753,0.2872163578052464,0.6805794374231854
0.042,1.7652271184988855,1.0,2937.650272925701,0.3767124543956663,1.3161842127064651,0.9675746202748581,0.2871925389769532,0.6812102794489567
0.0425,1.7646600035395237,1.0,2943.958408114776,0.3802086111008889,1.3158728560573134,0.968121469727174,0.28716872014866,0.6818378150707773
0.043000000000000003,1.7640928885801617,1.0,2950.1271039399376,0.3836851541789557,1.315562777681515,0.9686512897778664,0.2871449013203668,0.6824621598913478
0.043500000000000004,1.7635257736207999,1.0,2956.1620269103573,0.38714219336212286,1.3152539240793109,0.9691647934091941,0.2871210824920736,0.6830834290580233
0.044,1.762958658661438,1.0,2962.068878831969,0.39057983838264626,1.3149462417509412,0.9696626562651806,0.2870972636637804,0.6837017372670845
0.0445,1.7623915437020763,1.0,2967.8533953860638,0.3939981989727821,1.3146396771966464,0.9701455189773227,0.2870734448354872,0.6843171987678257
0.045,1.7618244287427145,1.0,2973.5213447721712,0.39739738486478626,1.3143341769166674,0.9706139893233218,0.287049626007194,0.684929927366458
0.0455,1.7612573137833527,1.0,2979.078526413471,0.400777505790915,1.3140296874112443,0.9710686442323436,0.2870258071789008,0.685540036429835
0.046,1.760690198823991,1.0,2984.5253756222087,0.40413865046465297,1.313726202069392,0.9715100322306457,0.28700198835060764,0.6861475450737085
0.0465,1.7601230838646291,1.0,2989.8710713986306,0.4074809473859571,1.3134236384252809,0.9719386744609707,0.2869781695223144,0.686752623967662
0.047,1.759555968905267,1.0,2995.121116375579,0.4108045087924761,1.3131219462605368,0.9723550665047314,0.2869543506940212,0.6873553787309105
0.0475,1.7589888539459053,1.0,3000.2783520526937,0.41410943578415055,1.3128210986496462,0.9727596799928767,0.28693053186572803,0.6879558681110596
0.048,1.7584217389865435,1.0,3005.3456354578198,0.4173958294609209,1.312521068667095,0.9731529638225829,0.2869067130374348,0.6885541506351305
0.0485,1.7578546240271817,1.0,3010.3258386508924,0.4206637909227277,1.3122218293873693,0.9735353454636827,0.28688289420914165,0.6891502846109836
0.049,1.75728750906782,1.0,3015.221848243662,0.42391342126951137,1.3119233538849553,0.9739072321783947,0.2868590753808484,0.689744328128702
0.0495,1.7567203941084581,1.0,3020.0365649359755,0.4271448216012124,1.311625615234339,0.9742690121608435,0.28683525655255526,0.690336339061925
0.05,1.7561532791490964,1.0,3024.7729030676437,0.43035809301777134,1.3113285865100066,0.9746210556023337,0.28681143772426204,0.690926375069137
0.0505,1.7555861641897343,1.0,3029.433790186666,0.43355333661912865,1.3110322407864439,0.9749637156878421,0.2867876188959688,0.6915144935949095
0.051000000000000004,1.7550190492303726,1.0,3034.0221666335906,0.4367306535052248,1.310736551138137,0.9752973295287436,0.28676380006767566,0.6921007518710969
0.051500000000000004,1.7544519342710108,1.0,3038.540985141332,0.43989014477600025,1.3104414906395723,0.9756222190363875,0.28673998123938244,0.6926852069179859
0.052000000000000005,1.753884819311649,1.0,3042.993210452342,0.4430319115313956,1.3101470323652356,0.9759386917407663,0.28671616241108927,0.6932679155454002
0.0525,1.7533177043522872,1.0,3047.3818189501885,0.4461560548713512,1.3098531493896128,0.976247041558173,0.28669234358279605,0.6938489343537573
0.053,1.7527505893929254,1.0,3051.7097983088397,0.44926267589580765,1.3095598147871905,0.9765475495114502,0.2866685247545029,0.6944283197350776
0.0535,1.7521834744335636,1.0,3055.978402615686,0.45235186125302146,1.3092670166187172,0.9768404838701185,0.28664470592620966,0.695006098315555
0.054,1.7516163594742016,1.0,3060.188786579143,0.45542370217499534,1.3089747438480785,0.9771261018882735,0.28662088709791644,0.6955822948469843
0.0545,1.7510492445148398,1.0,3064.3469284231023,0.4584783308395435,1.308682944106276,0.9774046513530463,0.2865970682696233,0.6961570153631432
0.055,1.750482129555478,1.0,3068.4541732579946,0.46151583914788563,1.3083916048993236,0.9776763680012233,0.28657324944133006,0.6967302870778682
0.0555,1.7499150145961162,1.0,3072.511871533981,0.4645363190012417,1.3081007137332357,0.9779414777006233,0.2865494306130369,0.6973021371080064
0.056,1.7493478996367544,1.0,3076.5213789144805,0.46753986230083144,1.3078102581140263,0.9782001969445715,0.2865256117847437,0.6978725924737772
0.0565,1.7487807846773926,1.0,3080.484056154381,0.47052656094787476,1.3075202255477094,0.9784527333176807,0.2865017929564505,0.6984416800991261
0.057,1.7482136697180308,1.0,3084.4012689805613,0.47349650684359135,1.3072306035402992,0.9786992859348205,0.2864779741281573,0.6990094268120648
0.0575,1.7476465547586688,1.0,3088.27438797699,0.47644979188920117,1.3069413795978095,0.9789400458550265,0.28645415529986407,0.6995758593450044
0.058,1.747079439799307,1.0,3092.104788472307,0.47938650798592397,1.3066525412262548,0.9791751964719673,0.2864303364715709,0.7001410043350768
0.0585,1.7465123248399452,1.0,3095.893850431286,0.48230674703497967,1.3063640759316493,0.9794049138824791,0.2864065176432777,0.7007048883244472
0.059000000000000004,1.7459452098805834,1.0,3099.6429583502827,0.48521060093758794,1.3060759712200065,0.9796293672345553,0.2863826988149845,0.7012675377606179
0.059500000000000004,1.7453780949212216,1.0,3103.3535011547806,0.4880981615949687,1.305788214597341,0.979848719056099,0.2863588799866913,0.7018289789967174
0.06,1.7448109799618599,1.0,3107.026872102037,0.4909695209083418,1.3055007935696668,0.9800631255656388,0.28633506115839813,0.7023892382917853
0.0605,1.744243865002498,1.0,3110.6644686858344,0.49382477077892695,1.3052136956429978,0.9802727369661302,0.2863112423301049,0.7029483418110443
0.061,1.7436767500431363,1.0,3114.2676925455235,0.4966640031079441,1.3049269083233483,0.9804776977228872,0.2862874235018117,0.7035063156261618
0.0615,1.7431096350837743,1.0,3117.8379493782895,0.4994873097966131,1.3046404191167325,0.9806781468266189,0.2862636046735185,0.7040631857155026
0.062,1.7425425201244125,1.0,3121.3766488545584,0.5022947827461537,1.304354215529164,0.9808742180424727,0.2862397858452253,0.7046189779643723
0.0625,1.7419754051650507,1.0,3124.8840694982873,0.505086492038648,1.304068294708971,0.9810660390265646,0.28621596701693214,0.7051736994667677
0.063,1.7414082902056889,1.0,3128.3600680135546,0.5078625074015615,1.303782657396851,0.9812537328985601,0.2861921481886389,0.7057273503345265
0.0635,1.740841175246327,1.0,3131.8085491060024,0.5106229776732637,1.3034972699860832,0.9814374222399915,0.28616832936034575,0.7062799971651612
0.064,1.7402740602869653,1.0,3135.230091276347,0.5133679847864718,1.3032121271576944,0.9816172217534569,0.28614451053205253,0.7068316516087569
0.0645,1.7397069453276035,1.0,3138.6252747985413,0.516097610673903,1.3029272235927123,0.9817932420095008,0.2861206917037593,0.7073823252755449
0.065,1.7391398303682415,1.0,3141.9946816907504,0.5188119372682742,1.302642553972164,0.9819655896255105,0.28609687287546615,0.7079320297359879
0.0655,1.7385727154088797,1.0,3145.3388956876606,0.5215110465023028,1.302358112977077,0.9821343674356204,0.2860730540471729,0.7084807765208584
0.066,1.738005600449518,1.0,3148.6585022133463,0.5241950203087059,1.3020738952884783,0.9822996746521343,0.28604923521887976,0.7090285771213185
0.0665,1.7374384854901561,1.0,3151.9540883542672,0.5268639406202007,1.3017898955873952,0.9824616070189525,0.28602541639058654,0.7095754429889959
0.067,1.7368713705307943,1.0,3155.2262428337435,0.5295178893695042,1.3015061085548552,0.9826202569574497,0.2860015975622934,0.7101213855360584
0.0675,1.7363042555714325,1.0,3158.4755559859254,0.5321569484893335,1.3012225288718855,0.9827757137052259,0.28597777873400015,0.7106664161352874
0.068,1.7357371406120707,1.0,3161.7026197317346,0.534781199912406,1.3009391512195134,0.9829280634481268,0.28595395990570693,0.7112105461201493
0.0685,1.7351700256527087,1.0,3164.908027554192,0.5373907255714387,1.3006559702787663,0.9830773894459044,0.28593014107741377,0.7117537867848647
0.069,1.734602910693347,1.0,3168.0923744750166,0.5399856073991488,1.3003729807306712,0.9832237721518661,0.28590632224912055,0.7122961493844765
0.0695,1.7340357957339851,1.0,3171.256257032022,0.5425659273282534,1.3000901772562556,0.9833672893268376,0.2858825034208274,0.7128376451349141
0.07,1.7334686807746233,1.0,3174.4002732563617,0.5451317672914696,1.2998075545365468,0.9835080161477497,0.28585868459253416,0.7133782852130597
