Time [s],Phi [rad],STIM [ ],Fsee [N],Gamma [ ],Lcerel [ ],q [ ],Lmtc [m],fisomrel [ ]
0.0,1.8,1.0,17.96752891130312,1.2030316216210987e-05,1.3793397046842395,0.005000038516485396,0.288653,0.5411396315372257
0.0005,1.79999375,1.0,18.277510533174752,0.005621172144451262,1.3793023026597069,0.01294615130393794,0.2886527375,0.5412301122354723
0.001,1.799975,1.0,21.620622658232534,0.011198851121942258,1.3789380732242071,0.03561915641831886,0.28865195,0.5421107674143031
0.0015,1.79994375,1.0,31.074594800600224,0.0167452437312678,1.378045747197614,0.07061618732280514,0.2886506375,0.5442647099036918
0.002,1.7999,1.0,53.59389737529752,0.022260525463352897,1.376367385047679,0.11473498851511553,0.2886488,0.5483022687256766
0.0025,1.79984375,1.0,97.13824332317029,0.02774487082504482,1.373934237011306,0.16459333466165402,0.28864643749999996,0.5541236810930246
0.003,1.7997750000000001,1.0,160.9834174987726,0.0331984533468136,1.371213398636432,0.2172994799069815,0.28864354999999997,0.5605886883698641
0.0035,1.79969375,1.0,237.71192953945166,0.038621445582356535,1.3685838533657078,0.27063181223634997,0.2886401375,0.5667919101979798
0.004,1.7996,1.0,321.4972554078968,0.04401401911937707,1.3661552850087533,0.3229341254140387,0.2886362,0.572481847130608
0.0045000000000000005,1.7994937500000001,1.0,409.29937877973737,0.04937634458477032,1.3639220717514302,0.3730519021825493,0.2886317375,0.5776808854979174
0.005,1.799375,1.0,499.44581208480577,0.05470859163571536,1.361857655817362,0.4202637355008979,0.28862675,0.582458663668251
0.0055,1.79924375,1.0,590.8230536012464,0.060010929007075185,1.359938197409454,0.46418876690278604,0.2886212375,0.5868765754006152
0.006,1.7991000000000001,1.0,682.5508155919832,0.06528352445472511,1.3581458202235208,0.5046938109603135,0.2886152,0.5909807763278747
0.006500000000000001,1.79894375,1.0,773.8980926099042,0.07052654458839752,1.3564669662386304,0.5418135935143387,0.2886086375,0.5948064476423061
0.007,1.798775,1.0,864.3258580123024,0.07574015604082318,1.3548897481195799,0.5756882430753576,0.28860155,0.5983841411977716
0.0075,1.79859375,1.0,953.2891498221667,0.08092452304769268,1.3534060726809358,0.6065202799866247,0.2885939375,0.6017351651538174
0.008,1.7984,1.0,1040.3910160259247,0.08607980961275243,1.35200816694683,0.6345415854631633,0.2885858,0.6048796250087138
0.0085,1.79819375,1.0,1125.3500698676792,0.09120617925187315,1.350688734106586,0.6599930596074012,0.2885771375,0.6078361344729598
0.009000000000000001,1.797975,1.0,1207.9152700123914,0.09630379400907366,1.3494418288720829,0.6831121824274627,0.28856795,0.6106199242172639
0.0095,1.79774375,1.0,1287.9010131089215,0.10137281502009075,1.3482620072583182,0.7041247852886336,0.2885582375,0.6132448160089512
0.01,1.7975,1.0,1365.1889373959218,0.10641340302430848,1.3471441039587428,0.7232407923392381,0.288548,0.6157237598427345
0.0105,1.79724375,1.0,1439.6936900719925,0.11142571756906271,1.3460835184648923,0.7406525652265731,0.2885372375,0.6180682342058692
0.011,1.796975,1.0,1511.3487095064627,0.11640991665696784,1.345076229992661,0.7565345580386098,0.28852595000000003,0.6202882509376662
0.0115,1.79669375,1.0,1580.1382375766425,0.12136615805791574,1.3441182772787028,0.7710436206034351,0.2885141375,0.6223935307485262
0.012,1.7964,1.0,1646.0832881467832,0.12629459920029912,1.343205857386712,0.7843201308699721,0.28850180000000003,0.6243933018349869
0.0125,1.79609375,1.0,1709.205809301103,0.13119539603696956,1.3423356691216277,0.7964894631118246,0.2884889375,0.6262955664765544
0.013000000000000001,1.7957750000000001,1.0,1769.5281869475796,0.13606870292098044,1.3415048285403044,0.8076633367786756,0.28847555,0.6281073089402338
0.0135,1.79544375,1.0,1827.10443397277,0.14091467420538503,1.3407104516995962,0.8179410401288866,0.2884616375,0.6298354212457178
0.014,1.7951000000000001,1.0,1882.0013275736992,0.14573346308025087,1.339949830654302,0.8274108416319774,0.2884472,0.6314863285654061
0.0145,1.79474375,1.0,1934.3082916616438,0.15052522342501803,1.3392202866904348,0.8361511761812876,0.2884322375,0.6330663172756992
0.015,1.794375,1.0,1984.0797897145785,0.15529010564683932,1.3385197582842248,0.844231973065732,0.28841675,0.6345802718469071
0.0155,1.79399375,1.0,2031.3876426255872,0.16002826010395166,1.3378461915259618,0.8517154407916508,0.2884007375,0.6360330066052395
0.016,1.7936,1.0,2076.3190022888657,0.1647398370428157,1.3371975448050204,0.8586569802830605,0.2883842,0.6374292594944715
0.0165,1.7931937500000001,1.0,2118.9598648904553,0.16942498534886363,1.3365719434342227,0.865106037194315,0.2883671375,0.6387733638166786
0.017,1.792775,1.0,2159.413372634432,0.17408385516783142,1.3359674710955534,0.8711067468282008,0.28834955,0.640069701421105
0.0175,1.7923437500000001,1.0,2197.7457955847144,0.1787165924154484,1.3353827071674673,0.8766987077534423,0.2883314375,0.6413215552711125
0.018000000000000002,1.7919,1.0,2234.032757227978,0.18332334300744393,1.3348162310284188,0.88191737685302,0.2883128,0.6425321793364938
0.0185,1.79144375,1.0,2268.3584582766716,0.18790425285954726,1.3342666220568626,0.8867945530587227,0.2882936375,0.6437048003147148
0.019,1.790975,1.0,2300.805835886181,0.19245946676964856,1.333732549816082,0.8913588228008401,0.28827395,0.6448424272744147
0.0195,1.79049375,1.0,2331.466835302173,0.19698913052888456,1.3332126633035182,0.8956359022928924,0.2882537375,0.6459480899686743
0.02,1.79,1.0,2360.4189917361236,0.20149338763016997,1.3327058145672999,0.8996490135605844,0.288233,0.6470243652841501
0.0205,1.78949375,1.0,2387.726580634574,0.20597237919714517,1.3322110361206276,0.9034191570018759,0.2882117375,0.6480734294631985
0.021,1.788975,1.0,2413.4583266244736,0.21042624635345064,1.3317273604767033,0.9069653180441687,0.28818995000000003,0.6490974435942582
0.021500000000000002,1.78844375,1.0,2437.6870338821473,0.21485513022272676,1.331253820148728,0.9103046881121722,0.2881676375,0.650098554326767
0.022,1.7879,1.0,2460.4842525954346,0.2192591709288047,1.330789495371215,0.9134528680958669,0.2881448,0.6510787938522224
0.0225,1.78734375,1.0,2481.9212037208026,0.22363850880599614,1.3303335011241613,0.9164240362318639,0.28812143749999997,0.6520401085301459
0.023,1.786775,1.0,2502.0681162401356,0.22799328404611752,1.3298849899358203,0.9192310981885232,0.28809755,0.6529843540020528
0.0235,1.78619375,1.0,2520.977803755714,0.23232363267528439,1.3294433039983524,0.9218858455782458,0.28807313749999996,0.65391297656457
0.024,1.7856,1.0,2538.7051969213167,0.23662969071961226,1.3290077855039188,0.9243990367952652,0.2880482,0.6548274141511714
0.0245,1.78499375,1.0,2555.3071663631213,0.2409115942052167,1.3285777766446805,0.9267805017785389,0.2880227375,0.6557290966047146
0.025,1.784375,1.0,2570.8423551944193,0.24516947915821324,1.3281526196127982,0.9290392348832843,0.28799675,0.6566194459223794
0.025500000000000002,1.78374375,1.0,2585.3613332280765,0.24940347925924167,1.3277317470811112,0.9311834913942226,0.2879702375,0.6574996873570236
0.026000000000000002,1.7831000000000001,1.0,2598.9226446822336,0.2536137313849203,1.3273145301522566,0.9332208367811241,0.2879432,0.6583711682117586
0.0265,1.78244375,1.0,2611.5777464536127,0.2578003697876532,1.326900417940046,0.9351582327075979,0.2879156375,0.6592350661690791
0.027,1.781775,1.0,2623.3654295218985,0.26196352494823416,1.3264889872516237,0.9370021011330357,0.28788755,0.6600922870006669
0.0275,1.7810937500000001,1.0,2634.325372705999,0.26610332734745695,1.3260798148941337,0.9387583565235558,0.2878589375,0.6609437318833147
0.028,1.7804,1.0,2644.4980665217886,0.27021990746611557,1.3256724776747202,0.9404324526669222,0.2878298,0.6617902974655896
0.0285,1.77969375,1.0,2653.9247410104003,0.2743133957850037,1.3252665524005274,0.9420294246022051,0.2878001375,0.6626328759230709
0.029,1.778975,1.0,2662.647297537237,0.27838392278491525,1.3248616158786997,0.9435539262270748,0.28776995,0.6634723550021691
0.029500000000000002,1.7782437500000001,1.0,2670.699586845397,0.28243161506327985,1.324457324473283,0.9450102735595041,0.2877392375,0.6643094534299707
0.03,1.7775,1.0,2678.126535725089,0.28645660574703447,1.324053237486369,0.9464024541269975,0.287708,0.6651450869725861
0.0305,1.77674375,1.0,2684.960321611988,0.290459021993283,1.3236490357013853,0.9477341798147748,0.2876762375,0.6659799161019243
0.031,1.775975,1.0,2691.2281823946782,0.29443898840628097,1.3232444486785322,0.949008901918836,0.28764395,0.666814497444234
0.0315,1.7751937500000001,1.0,2696.9576841483745,0.298396629590284,1.3228392059780103,0.9502298276882132,0.2876111375,0.6676493848325505
0.032,1.7744,1.0,2702.176690407159,0.30233207014954766,1.3224330371600197,0.9513999405983717,0.2875778,0.6684851292977212
0.0325,1.77359375,1.0,2706.913333057536,0.30624543468832743,1.3220256717847607,0.9525220187055269,0.2875439375,0.6693222790547626
0.033,1.772775,1.0,2711.195984853324,0.31013684781087897,1.321616839412434,0.9535986512841224,0.28750955,0.6701613794845558
0.0335,1.7719437500000002,1.0,2715.0497265974545,0.31400643126434913,1.3212063015648439,0.9546322568016068,0.2874746375,0.6710029076372277
0.034,1.7711000000000001,1.0,2718.4977119524196,0.3178543062982302,1.3207938389723677,0.955625095586781,0.2874392,0.6718472987161054
0.0345,1.7702437500000001,1.0,2721.5735124211024,0.3216806044950373,1.3203791389613095,0.9565792725406447,0.2874032375,0.6726951763979908
0.035,1.7693750000000001,1.0,2724.2939727237076,0.325485443780075,1.3199620424973821,0.9574967697649447,0.28736675,0.6735468474518604
0.035500000000000004,1.76849375,1.0,2726.676045046428,0.32926894207864754,1.3195423905462977,0.9583794429007769,0.2873297375,0.6744026168493538
0.036000000000000004,1.7676,1.0,2728.736777866455,0.3330312173160595,1.3191200240737693,0.959229030647627,0.2872922,0.6752627877396586
0.0365,1.76669375,1.0,2730.493305338467,0.3367723874176151,1.3186947840455092,0.9600471634620729,0.2872541375,0.6761276614227878
0.037,1.765775,1.0,2731.962837241222,0.340492570308619,1.3182665114272296,0.9608353715152638,0.28721555,0.6769975373212409
0.0375,1.76484375,1.0,2733.1626494852394,0.34419188391437544,1.3178350471846436,0.9615950919799001,0.2871764375,0.677872712950049
0.038,1.7639,1.0,2734.1100751810427,0.3478704461601889,1.3174002322834637,0.9623276757100019,0.28713679999999997,0.6787534838852146
0.0385,1.76294375,1.0,2734.8224962688546,0.3515283749713638,1.316961907689402,0.9630343933701804,0.28709663750000003,0.6796401437305328
0.039,1.761975,1.0,2735.3094242053294,0.3551657823515931,1.3165199862042767,0.9637164465666758,0.28705595,0.680532839072846
0.0395,1.7609937500000001,1.0,2735.5890934703766,0.3587827885885061,1.3160743017209138,0.9643749615780303,0.2870147375,0.6814318743355765
0.04,1.76,1.0,2735.679238636899,0.3623795116447421,1.315624692932011,0.965011000069822,0.286973,0.6823375421287429
0.0405,1.7589937500000001,1.0,2735.589273542072,0.3659560625576734,1.3151710742795009,0.9656255689248217,0.2869307375,0.6832499806680656
0.041,1.757975,1.0,2735.3286298272596,0.3695125523646723,1.3147133602053156,0.9662196185551103,0.28688795,0.6841693268758906
0.0415,1.75694375,1.0,2734.9067539169196,0.3730490921031112,1.3142514651513875,0.9667940466538224,0.2868446375,0.6850957163590763
0.042,1.7559,1.0,2734.3331041601327,0.3765657928103625,1.3137853035596492,0.9673497016602174,0.28680079999999997,0.6860292833864121
0.0425,1.75484375,1.0,2733.617148134443,0.3800627655237984,1.313314789872033,0.9678873859627046,0.2867564375,0.6869701608655734
0.043000000000000003,1.753775,1.0,2732.7683601112917,0.3835401212807914,1.3128398385304714,0.9684078588621126,0.28671155,0.6879184803196066
0.043500000000000004,1.75269375,1.0,2731.796218685015,0.3869979711187137,1.3123603639768964,0.9689118393153926,0.28666613750000003,0.6888743718629491
0.044,1.7516,1.0,2730.7102045625506,0.3904364260749376,1.3118762806532405,0.9694000084780701,0.2866202,0.6898379641769808
0.0445,1.75049375,1.0,2729.5163068287247,0.39385558889071826,1.31138753473946,0.9698730133043234,0.2865737375,0.6908093214568931
0.045,1.7493750000000001,1.0,2728.225963150383,0.3972555779536057,1.3108940228918562,0.9703314659269228,0.28652675,0.6917886050067539
0.0455,1.74824375,1.0,2726.845533121393,0.40063649998162215,1.3103956878998053,0.9707759490759835,0.2864792375,0.6927758830778274
0.046,1.7471,1.0,2725.3804979291217,0.40399845952652697,1.3098924805280143,0.9712070163805482,0.2864312,0.6937712069904154
0.0465,1.7459437500000001,1.0,2723.836337088697,0.4073415611400796,1.3093843515411905,0.9716251938277799,0.28638263750000004,0.6947746269816233
0.047,1.744775,1.0,2722.218527626629,0.4106659093740394,1.3088712517040402,0.9720309814021332,0.28633355,0.6957861921899855
0.0475,1.74359375,1.0,2720.5325433178737,0.41397160878016587,1.308353131781271,0.9724248546123625,0.28628393750000003,0.69680595063993
0.048,1.7424,1.0,2718.7838539761565,0.41725876391021843,1.3078299425375897,0.9728072659150164,0.2862338,0.6978339492260978
0.0485,1.74119375,1.0,2716.9779247992874,0.4205274793159564,1.307301634737703,0.9731786460423403,0.2861831375,0.6988702336974978
0.049,1.739975,1.0,2715.1202157664848,0.4237778595491393,1.3067681591463185,0.9735394052418276,0.28613195,0.6999148486415148
0.0495,1.73874375,1.0,2713.215346243125,0.4270100037445436,1.3062294741393348,0.9738899343083913,0.2860802375,0.7009678226031457
0.05,1.7375,1.0,2711.2652200841508,0.4302239945604575,1.3056855628123012,0.9742306055611379,0.286028,0.7020291348473426
0.0505,1.73624375,1.0,2709.2797052882966,0.43341997471803995,1.3051363355866348,0.9745617762091872,0.2859752375,0.7030989053085479
0.051000000000000004,1.734975,1.0,2707.2611215260517,0.43659804065033936,1.304581771653001,0.9748837862885208,0.28592195,0.7041771185482115
0.051500000000000004,1.73369375,1.0,2705.211785730842,0.4397582887904039,1.304021850202065,0.9751969604238983,0.2858681375,0.7052637582899015
0.052000000000000005,1.7324,1.0,2703.1340119613524,0.4429008155712819,1.3034565504244922,0.9755016086597835,0.2858138,0.7063588074122056
0.0525,1.73109375,1.0,2701.030111273813,0.44602571742602154,1.3028858515109474,0.975798027239466,0.28575893750000003,0.7074622479416082
0.053,1.729775,1.0,2698.902391603526,0.4491330907876713,1.302309732652096,0.9760864993360249,0.28570355000000003,0.7085740610453388
0.0535,1.72844375,1.0,2696.7531576562205,0.4522230320892793,1.3017281730386032,0.976367295738505,0.2856476375,0.7096942270241924
0.054,1.7271,1.0,2694.584710809043,0.45529563776389387,1.3011411518611344,0.9766406754964041,0.2855912,0.7108227253053226
0.0545,1.7257437500000001,1.0,2692.399349020885,0.45835100424456326,1.3005486483103548,0.9769068865253369,0.2855342375,0.7119595344350086
0.055,1.724375,1.0,2690.199366752446,0.4613892279643358,1.2999506415769293,0.9771661661765221,0.28547675,0.7131046320713919
0.0555,1.72299375,1.0,2687.9870548962213,0.46441040535625966,1.299347110851523,0.9774187417725346,0.2854187375,0.7142579949771873
0.056,1.7216,1.0,2685.76470071537,0.46741463285338325,1.298738035324802,0.9776648311115882,0.2853602,0.7154195990123642
0.0565,1.72019375,1.0,2683.534587793038,0.4704020068887547,1.2981233941874304,0.9779046429424355,0.28530113749999997,0.7165894191268048
0.057,1.718775,1.0,2681.298995990659,0.47337262389542245,1.2975031666300743,0.9781383774118264,0.28524155,0.7177674293529281
0.0575,1.71734375,1.0,2679.060201415953,0.47632658030643465,1.2968773318433982,0.9783662264863203,0.2851814375,0.7189536027982936
0.058,1.7159,1.0,2676.8185531789522,0.47926395712678144,1.2962458866706066,0.9785883740008422,0.2851208,0.720147878286818
0.0585,1.71444375,1.0,2674.5731545378853,0.4821848330449581,1.295608839389708,0.9788049968704631,0.2850596375,0.7213501724319827
0.059000000000000004,1.7129750000000001,1.0,2672.330528531158,0.4850893464203063,1.2949661301320758,0.9790162662573247,0.28499795,0.7225605295755972
0.059500000000000004,1.71149375,1.0,2670.0912053421875,0.48797758416239806,1.294317754004054,0.9792223451996881,0.2849357375,0.723778889279366
0.06,1.71,1.0,2667.855714264005,0.4908496331808054,1.2936637061119864,0.9794233903536742,0.284873,0.72500519040999
0.0605,1.7084937500000001,1.0,2665.6245837022348,0.4937055803851004,1.2930039815622167,0.9796195522906062,0.2848097375,0.7262393711373984
0.061,1.7069750000000001,1.0,2663.3983411777854,0.49654551268485503,1.292338575461089,0.9798109757782815,0.28474595,0.7274813689329758
0.0615,1.7054437500000001,1.0,2661.1775133307665,0.4993695169896414,1.2916674829149468,0.9799978000471572,0.2846816375,0.7287311205677909
0.062,1.7039,1.0,2658.9626259249594,0.5021776802090314,1.2909906990301343,0.9801801590423683,0.2846168,0.7299885621108221
0.0625,1.70234375,1.0,2656.7542038520423,0.5049700892525972,1.290308218912995,0.9803581816624273,0.2845514375,0.7312536289271828
0.063,1.7007750000000001,1.0,2654.5527711371265,0.5077468310299108,1.2896200376698734,0.9805319919854117,0.28448555,0.7325262556763428
0.0635,1.69919375,1.0,2652.358850944822,0.5105079924505441,1.2889261504071128,0.9807017094833762,0.28441913750000003,0.7338063763103522
0.064,1.6976,1.0,2650.172965584991,0.5132536604240693,1.2882265522310572,0.9808674492256871,0.2843522,0.7350939240720589
0.0645,1.69599375,1.0,2647.995636520136,0.5159839218600584,1.2875212382480503,0.9810293220719299,0.2842847375,0.7363888314933287
0.065,1.694375,1.0,2645.8273843725738,0.5186988636680832,1.2868102035644364,0.9811874348549919,0.28421675,0.7376910303932607
0.0655,1.69274375,1.0,2643.668728932363,0.521398572757716,1.286093443286559,0.9813418905548921,0.2841482375,0.7390004518764046
0.066,1.6911,1.0,2641.5201891657994,0.5240831360385287,1.285370952520762,0.9814927884638867,0.2840792,0.7403170263309726
0.0665,1.6894437500000001,1.0,2639.3822832245382,0.5267526404200934,1.2846427263733895,0.9816402243433459,0.2840096375,0.7416406834270527
0.067,1.687775,1.0,2637.255528454664,0.5294071728119821,1.283908759950785,0.981784290572871,0.28393955,0.74297135211482
0.0675,1.68609375,1.0,2635.1404414074887,0.5320468201237668,1.2831690483592926,0.9819250762920837,0.2838689375,0.7443089606227443
0.068,1.6844000000000001,1.0,2633.036523322336,0.5346716293196391,1.2824235960943253,0.9820626653626068,0.2837978,0.7456534195444815
0.0685,1.68269375,1.0,2630.94457400011,0.5372817175290359,1.2816723956365803,0.9821971427632256,0.2837261375,0.7470046605113194
0.069,1.680975,1.0,2628.865013715061,0.5398771850119283,1.280915442970582,0.9823285896075608,0.28365395,0.748362608101536
0.0695,1.67924375,1.0,2626.7977392873595,0.5424581092950999,1.2801527389253102,0.9824570830165836,0.28358123749999997,0.7497271775275733
0.07,1.6775,1.0,2624.742647753438,0.5450245679053343,1.2793842843297452,0.9825826975054358,0.283508,0.7510982833850641
0.07050000000000001,1.67574375,1.0,2622.699636364047,0.547576638369415,1.2786100800128666,0.9827055050876587,0.2834342375,0.752475839653138
0.07100000000000001,1.673975,1.0,2620.668602582229,0.5501143982141257,1.2778301268036545,0.9828255753745659,0.28335995,0.7538597596947234
0.07150000000000001,1.67219375,1.0,2618.649444081468,0.55263792496625,1.2770444255310887,0.9829429756700144,0.2832851375,0.7552499562568529
0.07200000000000001,1.6704,1.0,2616.6420587438874,0.5551472961525714,1.276252977024149,0.9830577710608196,0.2832098,0.7566463414709661
0.0725,1.66859375,1.0,2614.646344658108,0.5576425892998736,1.275455782111816,0.9831700245030381,0.2831339375,0.7580488268532135
0.073,1.6667750000000001,1.0,2612.662200117864,0.5601238819349402,1.2746528416230687,0.9832797969043359,0.28305755,0.7594573233047626
0.0735,1.66494375,1.0,2610.689523619409,0.5625912515845548,1.2738441563868876,0.9833871472026395,0.2829806375,0.7608717411120978
0.074,1.6631,1.0,2608.728213860354,0.5650447757755009,1.2730297272322526,0.983492132441267,0.2829032,0.762291989947327
0.0745,1.6612437500000001,1.0,2606.7781697374558,0.5674845320345623,1.2722095549881434,0.98359480784071,0.2828252375,0.7637179788684852
0.075,1.659375,1.0,2604.839290345135,0.5699105978885224,1.27138364048354,0.9836952268672433,0.28274675,0.7651496163198366
0.0755,1.65749375,1.0,2602.911474973329,0.5723230508641648,1.2705519845474225,0.983793441298517,0.2826677375,0.7665868101321789
