Time [s],Phi [rad],STIM [ ],Fsee [N],Gamma [ ],Lcerel [ ],q [ ],Lmtc [m],fisomrel [ ]
0.0,1.8,1.0,17.967791699583014,1.6005046111381694e-05,1.3793396752435754,0.005000068018653112,0.288653,0.5411397027617946
0.0005,1.79999375,1.0,18.279089159990097,0.005625124579256403,1.3793021273124586,0.012957192945664917,0.2886527375,0.5412305364038376
0.001,1.799975,1.0,21.62515029258355,0.011202781386713077,1.3789376108411728,0.035639872842233,0.28865195,0.5421118848532649
0.0015,1.79994375,1.0,31.085410837066863,0.01674915195036252,1.37804482586807,0.07064454194523319,0.2886506375,0.5442669312320811
0.002,1.7999,1.0,53.6172761510738,0.022264411760425297,1.3763658686813953,0.11476856822387337,0.2886488,0.5483059084556718
0.0025,1.79984375,1.0,97.17761966615694,0.027748735323065897,1.373932339940112,0.16462986696205137,0.28864643749999996,0.5541282051878589
0.003,1.7997750000000001,1.0,161.03471030535133,0.03320229616805591,1.3712114790013428,0.21733716975674003,0.28864354999999997,0.5605932329643994
0.0035,1.79969375,1.0,237.76991420139083,0.03862526684840765,1.3685820675010727,0.2706693003840334,0.2886401375,0.5667961081525341
0.004,1.7996,1.0,321.55895885362753,0.044017818951145656,1.3661536508760408,0.32297042532070336,0.2886362,0.5724856631063343
0.0045000000000000005,1.7994937500000001,1.0,409.36328035285146,0.04938012310249426,1.3639205718544354,0.3730863611470319,0.2886317375,0.5776843666490458
0.005,1.799375,1.0,499.51101408385637,0.05471234895897643,1.3618562703703263,0.4202959750551094,0.28862675,0.5824618609492261
0.0055,1.79924375,1.0,590.8888469965241,0.06001466525466541,1.3599369120373501,0.46421861596501146,0.2886212375,0.5868795259981406
0.006,1.7991000000000001,1.0,682.6166975626934,0.06528723974489724,1.3581446227222438,0.5047212421405265,0.2886152,0.5909835115278752
0.006500000000000001,1.79894375,1.0,773.9817179862466,0.07053023926202404,1.3564655387526767,0.5418384788871602,0.2886086375,0.5948096928627677
0.007,1.798775,1.0,864.3862627437644,0.07574382969504578,1.354888772429262,0.5757111434268016,0.28860155,0.5983863495014398
0.0075,1.79859375,1.0,953.3421495258765,0.08092817601337418,1.3534052575216906,0.6065411682732781,0.2885939375,0.6017370024108022
0.008,1.7984,1.0,1040.453195156912,0.0860834422331842,1.352007251512404,0.6345604753273306,0.2885858,0.604881680110597
0.0085,1.79819375,1.0,1125.4125337449552,0.0912097915055673,1.350687849874095,0.6600102049508855,0.2885771375,0.6078381120876408
0.009000000000000001,1.797975,1.0,1207.9766695263602,0.09630738598903256,1.3494409899366124,0.6831277584825867,0.28856795,0.6106217938524245
0.0095,1.79774375,1.0,1287.9654355625753,0.10137638703788705,1.3482611547905516,0.7041389175613153,0.2885582375,0.6132467093876003
0.01,1.7975,1.0,1365.238422123563,0.1064169545939218,1.3471434679570864,0.7232537443614192,0.288548,0.615725167904105
0.0105,1.79724375,1.0,1439.7383867642225,0.11142924914219698,1.3460829590624719,0.7406643925977311,0.2885372375,0.6180694688984802
0.011,1.796975,1.0,1511.404967113655,0.11641342886957524,1.3450755427940815,0.7565452814501088,0.28852595000000003,0.62028976328243
0.0115,1.79669375,1.0,1580.199578893678,0.1213696508544963,1.344117544473206,0.7710533896996827,0.2885141375,0.6223951389851117
0.012,1.7964,1.0,1646.1317320064477,0.1262980721692289,1.3432052903684883,0.7843291350185668,0.28850180000000003,0.6243945429307449
0.0125,1.79609375,1.0,1709.2375785371707,0.1311988488354708,1.3423353042039086,0.7964977962234554,0.2884889375,0.6262963631875554
0.013000000000000001,1.7957750000000001,1.0,1769.5648198111226,0.1360721367650749,1.341504414991037,0.8076709693856374,0.28847555,0.6281082096352987
0.0135,1.79544375,1.0,1827.1472135436802,0.14091808915245307,1.3407099764305015,0.8179480364505418,0.2884616375,0.6298364539564003
0.014,1.7951000000000001,1.0,1882.0459474857132,0.14573685919201732,1.33994934222293,0.82741728186904,0.2884472,0.6314873875070064
0.0145,1.79474375,1.0,1934.3317457512871,0.1505285990652682,1.3392200334449007,0.8361571999387138,0.2884322375,0.6330668651455371
0.015,1.794375,1.0,1984.1003097473038,0.15529346219330756,1.3385195395157508,0.844237554949375,0.28841675,0.6345807441519262
0.0155,1.79399375,1.0,2031.4212795771837,0.1600315988271136,1.3378458371160924,0.8517205682287726,0.2884007375,0.636033770227445
0.016,1.7936,1.0,2076.3614081990713,0.16474315780702273,1.3371971028638,0.8586617094655523,0.2883842,0.637430209886033
0.0165,1.7931937500000001,1.0,2119.0015520807096,0.16942828797337137,1.3365715133767477,0.8651104339169372,0.2883671375,0.6387742869364978
0.017,1.792775,1.0,2159.4354704479783,0.1740871381664959,1.3359672452728102,0.8711108954395781,0.28834955,0.6400701852799726
0.0175,1.7923437500000001,1.0,2197.746129137353,0.17871985530698656,1.3353827037886634,0.8767026355243227,0.2883314375,0.6413215624981048
0.018000000000000002,1.7919,1.0,2234.0368340098935,0.18332658822254075,1.3348161900684241,0.8819210355514101,0.2883128,0.6425322667986764
0.0185,1.79144375,1.0,2268.373891133117,0.18790748113802866,1.3342664681786571,0.8867979461836173,0.2882936375,0.6437051283525728
0.019,1.790975,1.0,2300.8302897286126,0.19246267822279384,1.3337323077168852,0.8913619783211925,0.28827395,0.6448429425572775
0.0195,1.79049375,1.0,2331.4856481078846,0.19699232364617963,1.3332124782806318,0.895638873456035,0.2882537375,0.6459484831571412
0.02,1.79,1.0,2360.42065916299,0.20149656083027784,1.3327057982691035,0.8996518403897186,0.288233,0.6470243998664496
0.0205,1.78949375,1.0,2387.7168840835593,0.2059755331073714,1.332211130355752,0.903421838638058,0.2882117375,0.6480732298078876
0.021,1.788975,1.0,2413.4548357528784,0.21042938354543544,1.3317273942210877,0.9069678302276627,0.28818995000000003,0.6490973722043594
0.021500000000000002,1.78844375,1.0,2437.694323897653,0.21485825146084098,1.3312537500312103,0.9103070347938264,0.2881676375,0.6500987024561877
0.022,1.7879,1.0,2460.4986065089024,0.21926227616995894,1.3307893579522183,0.9134550688913629,0.2881448,0.6510790837549719
0.0225,1.78734375,1.0,2481.934104629636,0.22364159698916047,1.330333378150211,0.9164261173972914,0.28812143749999997,0.6520403676016255
0.023,1.786775,1.0,2502.070132781112,0.2279963532348165,1.3298849707912872,0.9192330845938361,0.28809755,0.6529843942794376
0.0235,1.78619375,1.0,2520.964352225505,0.23232668111174476,1.3294434312241368,0.9218877511953205,0.28807313749999996,0.6539127092578683
0.024,1.7856,1.0,2538.6946617551152,0.2366327220694901,1.3290078847979365,0.9244008377546176,0.2880482,0.6548272058060833
0.0245,1.78499375,1.0,2555.3089971920003,0.2409146105508247,1.3285777594452723,0.9267821905521325,0.2880227375,0.6557291326464437
0.025,1.784375,1.0,2570.8553288233793,0.24517248063234667,1.3281524981032016,0.9290408209658315,0.28799675,0.6566197002188403
0.025500000000000002,1.78374375,1.0,2585.3831086222867,0.24940646639065417,1.3277315437087809,0.9311849854457683,0.2879702375,0.6575001124306743
0.026000000000000002,1.7831000000000001,1.0,2598.943143889693,0.25361670190234537,1.3273143391990676,0.9332222590137479,0.2879432,0.6583715668197632
0.0265,1.78244375,1.0,2611.587477776576,0.2578033212440183,1.3269003275111186,0.9351596007101958,0.2879156375,0.6592352546974598
0.027,1.781775,1.0,2623.358601140309,0.2619664546515077,1.326489050562168,0.9370034256254031,0.28788755,0.6600921551754275
0.0275,1.7810937500000001,1.0,2634.314936246761,0.26610623927002025,1.3260799114561403,0.9387596239892261,0.2878589375,0.6609435310738383
0.028,1.7804,1.0,2644.494440066226,0.270222805008744,1.3256725111634182,0.940433653851741,0.2878298,0.6617902279097999
0.0285,1.77969375,1.0,2653.9316614831096,0.2743162802572785,1.3252664886067154,0.942030558989365,0.2878001375,0.6626330082571987
0.029,1.778975,1.0,2662.6617677955314,0.2783867934052233,1.3248614827087455,0.9435550012461426,0.28776995,0.6634726309064907
0.029500000000000002,1.7782437500000001,1.0,2670.7204899376234,0.28243447284217804,1.324457132392222,0.9450112943867988,0.2877392375,0.6643098508922707
0.03,1.7775,1.0,2678.144070592797,0.2864594469577423,1.324053076579859,0.9464034345446881,0.287708,0.6651454195125255
0.0305,1.77674375,1.0,2684.9692151979266,0.29046184414151555,1.3236489541943701,0.9477351276442076,0.2876762375,0.6659800843395743
0.031,1.775975,1.0,2691.2190356910055,0.29444178648706454,1.323244532407762,0.9490098284569195,0.28764395,0.6668143248357377
0.0315,1.7751937500000001,1.0,2696.9404006661457,0.2983994082476553,1.322839364023554,0.9502307244943791,0.2876111375,0.6676490594287856
0.032,1.7744,1.0,2702.163379364285,0.3023348351503418,1.3224331587626932,0.9514007976364549,0.2875778,0.668484879242066
0.0325,1.77359375,1.0,2706.9103259912354,0.3062481891099779,1.3220256992316624,0.9525228320636413,0.2875439375,0.6693222226860935
0.033,1.772775,1.0,2711.2038109010323,0.31013959204141756,1.3216167680369444,0.9535994227030822,0.28750955,0.6701615258847906
0.0335,1.7719437500000002,1.0,2715.066599956266,0.31400916585951466,1.3212061477850228,0.954632990368214,0.2874746375,0.6710032226565884
0.034,1.7711000000000001,1.0,2718.521634935719,0.3178570324791231,1.3207936210823803,0.955625795515646,0.2874392,0.6718477444925198
0.0345,1.7702437500000001,1.0,2721.5920149903077,0.32168331381509696,1.3203789705355002,0.9565799507601866,0.2874032375,0.6726955205312917
0.035,1.7693750000000001,1.0,2724.300979146566,0.32548813178228997,1.3199619787508654,0.9574974322731995,0.28736675,0.6735469775313481
0.035500000000000004,1.76849375,1.0,2726.671889857909,0.32927160829555624,1.3195424283349588,0.9583800901755972,0.2873297375,0.6744025398399162
0.036000000000000004,1.7676,1.0,2728.7188972940107,0.3330338583484998,1.31912018662441,0.9592296651796566,0.2872922,0.6752624569158219
0.0365,1.76669375,1.0,2730.469604929352,0.3367750093021856,1.3186949994345514,0.9600477800932788,0.2872541375,0.676127223646082
0.037,1.765775,1.0,2731.941384226284,0.34049517944499263,1.3182667063394962,0.9608359652635878,0.28721555,0.6769971416958193
0.0375,1.76484375,1.0,2733.147933747821,0.3441944839984175,1.3178351808556608,0.961595660693312,0.2871764375,0.6778724419976065
0.038,1.7639,1.0,2734.103004462144,0.3478730381839571,1.3174002964994613,0.9623282198905355,0.28713679999999997,0.678753353896856
0.0385,1.76294375,1.0,2734.8203931538965,0.35153095722310806,1.3169619267873145,0.9630349160107934,0.28709663750000003,0.679640105125233
0.039,1.761975,1.0,2735.3139361896306,0.35516835633736726,1.3165199452356366,0.9637169474986329,0.28705595,0.6805329217730536
0.0395,1.7609937500000001,1.0,2735.5975036390364,0.3587853507482314,1.316074225360844,0.964375443274406,0.2870147375,0.6814320282606583
0.04,1.76,1.0,2735.684993749461,0.3623820556771973,1.3156246406793533,0.9650114675074276,0.286973,0.6823376473087664
0.0405,1.7589937500000001,1.0,2735.590327776475,0.3659585863457617,1.3151710647075807,0.9656260240125385,0.2869307375,0.6832499999078124
0.041,1.757975,1.0,2735.318835030897,0.36951504703388754,1.3147134491414856,0.9662200651547769,0.28688795,0.6841691483720331
0.0415,1.75694375,1.0,2734.8898291776336,0.37305156256873084,1.3142516188389686,0.9667944832048313,0.2868446375,0.6850954083453049
0.042,1.7559,1.0,2734.3163154680565,0.37656824870879535,1.3137854560278228,0.9673501247317026,0.28680079999999997,0.6860289782698064
0.0425,1.75484375,1.0,2733.6055268218074,0.3800652134227821,1.3133148954259075,0.9678877934097792,0.2867564375,0.6869699499497852
0.043000000000000003,1.753775,1.0,2732.764703140521,0.3835425646793922,1.3128398717510814,0.9684082497673736,0.28671155,0.6879184140394354
0.043500000000000004,1.75269375,1.0,2731.801089550207,0.3870004104473266,1.3123603197212035,0.9689122139336748,0.28666613750000003,0.6888744600244501
0.044,1.7516,1.0,2730.72193473682,0.39043885869528633,1.3118761740541327,0.9694003681843103,0.2866202,0.6898381762033046
0.0445,1.75049375,1.0,2729.5344893778843,0.3938580173919725,1.3113873694677278,0.9698733593021331,0.2865737375,0.6908096496682679
0.045,1.7493750000000001,1.0,2728.2460046669703,0.3972579945060862,1.310893840679848,0.9703318007683402,0.28652675,0.6917889662861392
0.0455,1.74824375,1.0,2726.8637309338155,0.40063889800632835,1.3103955224083523,0.9707762747976565,0.2864792375,0.6927762106787183
0.046,1.7471,1.0,2725.3949163587267,0.4040008358614,1.3098923493710992,0.9712073342300903,0.2864312,0.6937714662029993
0.0465,1.7459437500000001,1.0,2723.846805780859,0.4073439160400023,1.3093842562859481,0.9716255042906524,0.28638263750000004,0.694774814931093
0.047,1.744775,1.0,2722.2268821095217,0.41066824643012184,1.3088711756635116,0.9720312840568113,0.28633355,0.6957863419778065
0.0475,1.74359375,1.0,2720.5440863370454,0.4139739315289157,1.30835302668692,0.9724251467739581,0.28628393750000003,0.6968061573119118
0.048,1.7424,1.0,2718.8003129085764,0.4172610746155301,1.3078297926377938,0.9728075471245398,0.2862338,0.69783424350948
0.0485,1.74119375,1.0,2716.998562607078,0.4205297792234729,1.3073014467163984,0.9731789172858366,0.2861831375,0.6988706021875274
0.049,1.739975,1.0,2715.137983561189,0.423780148720269,1.3067679972169348,0.9735396712742226,0.28613195,0.6999151654448683
0.0495,1.73874375,1.0,2713.214730485892,0.427012285690594,1.3062294797531069,0.973890205357257,0.2860802375,0.7009678116394819
0.05,1.7375,1.0,2711.28298728449,0.43022629431233683,1.3056854007732603,0.9742308619966612,0.286028,0.7020294507464644
0.0505,1.7362455749353827,1.0,2709.398576884818,0.4334222750542539,1.3051360752404337,0.9745620210388185,0.28597531414728605,0.7030994119479094
0.051000000000000004,1.734989829443845,1.0,2707.9898647110276,0.4366003283851016,1.3045818181176656,0.9748840448851392,0.28592257283664146,0.7041770282912541
0.051500000000000004,1.7337340839523072,1.0,2707.087306529239,0.4397605547736363,1.3040229443679943,0.9751972794566247,0.2858698315259969,0.7052616367915034
0.052000000000000005,1.7324783384607696,1.0,2706.6561437558094,0.44290305468861435,1.3034597689544583,0.9755020550971066,0.2858170902153523,0.7063525785271263
0.0525,1.7312225929692318,1.0,2706.663655044591,0.44602792713461525,1.302892589525073,0.9757986861707258,0.2857643489047077,0.7074492321772822
0.053,1.7299668474776941,1.0,2707.064442207222,0.4491352728415767,1.302321820453603,0.9760874806380853,0.28571160759406317,0.708550755349552
0.0535,1.7287111019861563,1.0,2707.8301265285468,0.4522251891769182,1.301747721518355,0.9763687230905532,0.2856588662834186,0.7096566089237285
0.054,1.7274553564946187,1.0,2708.933867772748,0.4552977731510204,1.3011705390228372,0.9766426849457706,0.285606124972774,0.710766283242008
0.0545,1.7261996110030808,1.0,2710.348870450451,0.4583531217742641,1.3005905192705578,0.9769096259891392,0.2855533836621294,0.7118792720811749
0.055,1.7249438655115432,1.0,2712.048367652102,0.4613913320570303,1.300007908565025,0.9771697949767605,0.2855006423514848,0.7129950726991061
0.0555,1.7236881200200054,1.0,2714.0143257257355,0.46441249713181515,1.2994228737269398,0.9774234251303322,0.2854479010408402,0.7141133376565724
0.056,1.7224323745284678,1.0,2716.213661956,0.4674167179824385,1.2988357188326847,0.977670748733247,0.28539515973019564,0.7152334602989561
0.0565,1.72117662903693,1.0,2718.6249558520835,0.47040409068202543,1.2982466415493858,0.9779119818513227,0.28534241841955105,0.7163550408307148
0.057,1.7199208835453923,1.0,2721.234401792509,0.4733747078151604,1.2976557701121416,0.9781473274136655,0.28528967710890646,0.7174778141548084
0.0575,1.7186651380538545,1.0,2724.028189601197,0.4763286619664277,1.2970632327560512,0.9783769801288545,0.28523693579826187,0.7186015170424878
0.058,1.7174093925623168,1.0,2726.9924996290133,0.479266045720412,1.2964691577162128,0.9786011268872921,0.28518419448761734,0.7197258881474469
0.0585,1.716153647070779,1.0,2730.1134981991254,0.4821869516616975,1.2958736732277256,0.9788199471408069,0.28513145317697275,0.7208506680189192
0.059000000000000004,1.7148979015792414,1.0,2733.3773334178018,0.4850914723748688,1.2952769075256882,0.9790336132609665,0.28507871186632816,0.7219755991137313
0.059500000000000004,1.7136421560877035,1.0,2736.770131349346,0.4879797004445104,1.2946789888451993,0.9792422908774485,0.28502597055568357,0.7231004258073053
0.06,1.712386410596166,1.0,2740.277992555562,0.4908517284552066,1.2940800454213575,0.9794461391977258,0.284973229245039,0.7242248944036108
0.0605,1.711130665104628,1.0,2743.8943009609634,0.4937076433678799,1.293480139200815,0.9796453072971876,0.2849204879343944,0.7253488772151474
0.061,1.7098749196130905,1.0,2747.6028303175767,0.4965475428109132,1.2928794190898467,0.9798399440449675,0.2848677466237498,0.7264720850561031
0.0615,1.7086191741215526,1.0,2751.3967297264885,0.4993715150509856,1.292277948759427,0.9800301874515044,0.2848150053131052,0.7275943898883349
0.062,1.707363428630015,1.0,2755.2697742764135,0.5021796477565285,1.291675786077549,0.9802161700055806,0.28476226400246063,0.7287156754338135
0.0625,1.7061076831384772,1.0,2759.2157244404475,0.5049720285959732,1.2910729889122061,0.9803980192713808,0.28470952269181604,0.7298358262937332
0.063,1.7048519376469395,1.0,2763.228325225288,0.5077487452377512,1.2904696151313912,0.9805758581099416,0.28465678138117145,0.7309547279509613
0.0635,1.703596192155402,1.0,2767.3013053939344,0.5105098853502935,1.2898657226030976,0.9807498048890697,0.28460404007052686,0.7320722667722707
0.064,1.702340446663864,1.0,2771.428376763304,0.5132555366020317,1.2892613691953185,0.9809199736824106,0.2845512987598823,0.7331883300103623
0.0645,1.7010847011723262,1.0,2775.6032335755885,0.515985786661397,1.2886566127760473,0.9810864744583013,0.2844985574492377,0.7343028058056732
0.065,1.6998289556807886,1.0,2779.8214863060743,0.5187007188794206,1.288051493790525,0.9812494120876384,0.2844458161385931,0.7354156151946657
0.0655,1.698573210189251,1.0,2784.080315781691,0.5214004152444124,1.2874460384364843,0.9814088869316404,0.2843930748279485,0.7365267059539897
0.066,1.6973174646977132,1.0,2788.3688029128602,0.524084977449611,1.2868403456824558,0.9815650007425684,0.2843403335173039,0.7376358931402083
0.0665,1.6960617192061753,1.0,2792.684672382548,0.5267544873480972,1.286234436522371,0.9817178465820142,0.28428759220665933,0.7387431356783187
0.067,1.6948059737146377,1.0,2797.025641982543,0.5294090267929513,1.2856283319501627,0.9818675142924006,0.28423485089601475,0.7398483928168613
0.0675,1.6935502282231,1.0,2801.3894225178115,0.5320486776372542,1.2850220529597622,0.9820140906316851,0.2841821095853702,0.7409516241281967
0.068,1.6922944827315622,1.0,2805.7737177200274,0.5346735217340863,1.2844156205451023,0.9821576594015228,0.2841293682747256,0.7420527895087513
0.0685,1.6910387372400246,1.0,2810.176224171736,0.5372836409365284,1.2838090557001147,0.9822983015692519,0.28407662696408104,0.7431518491792385
0.069,1.6897829917484868,1.0,2814.594631239729,0.539879117097661,1.2832023794187315,0.9824360953840374,0.28402388565343645,0.7442487636848496
0.0695,1.6885272462569492,1.0,2819.0266210179198,0.5424600320705649,1.282595612694885,0.9825711164874911,0.28397114434279186,0.7453434938954164
0.07,1.6872715007654113,1.0,2823.4698682808935,0.5450264677083206,1.2819887765225069,0.9827034380190708,0.28391840303214727,0.7464360010055475
0.07050000000000001,1.6860157552738737,1.0,2827.9220404461635,0.5475785058640088,1.2813818918955295,0.9828331307165311,0.2838656617215027,0.7475262465347339
0.07100000000000001,1.6847600097823359,1.0,2832.380797547194,0.5501162283907101,1.2807749798078851,0.9829602630116986,0.2838129204108581,0.7486141923274289
0.07150000000000001,1.6835042642907982,1.0,2836.8437922154694,0.5526397171415051,1.2801680612535056,0.9830849011218112,0.2837601791002135,0.7496998005530994
0.07200000000000001,1.6822485187992604,1.0,2841.310321283617,0.555149041878438,1.2795611425121498,0.9832071077601777,0.2837074377895689,0.7507830599403746
0.0725,1.6809927733077228,1.0,2845.7797459237895,0.5576442792349883,1.2789542292710934,0.9833269440221634,0.2836546964789244,0.7518639603691655
0.073,1.679737027816185,1.0,2850.247627153909,0.5601255347350632,1.2783473610021239,0.9834444722370049,0.2836019551682798,0.7529424318340349
