Time [s],Phi [rad],STIM [ ],Fsee [N],Gamma [ ],Lcerel [ ],q [ ],Lmtc [m],fisomrel [ ]
0.0,1.8,1.0,17.96794522952063,1.0005331787428284e-05,1.3793396580434276,0.005000026680082314,0.288653,0.541139744373391
0.0005,1.79999375,1.0,18.27720616175487,0.005619158518582809,1.379302336468879,0.012940527728312473,0.2886527375,0.5412300304504123
0.001,1.799975,1.0,21.618786420412377,0.011196848790923055,1.3789382607631353,0.035608600924908446,0.28865195,0.5421103141894454
0.0015,1.79994375,1.0,31.06955272546686,0.01674325263174135,1.3780461767454857,0.07060173725232187,0.2886506375,0.54426367426059
0.002,1.7999,1.0,53.58246580509404,0.022258545532322364,1.3763681266289556,0.11471787432195905,0.2886488,0.5483004887047527
0.0025,1.79984375,1.0,97.11865295036655,0.027742901999860535,1.3739351809783977,0.16457471565253262,0.28864643749999996,0.554121429931929
0.003,1.7997750000000001,1.0,160.95771934846056,0.03319649556518217,1.3712143605056013,0.21728027153861318,0.28864354999999997,0.5605864112066884
0.0035,1.79969375,1.0,237.6827757866893,0.03861949878233349,1.3685847513519278,0.27061270727270054,0.2886401375,0.566789799333028
0.004,1.7996,1.0,321.4661634386442,0.044012083239363654,1.3661561084971292,0.32291562648332744,0.2886362,0.5724799241397913
0.0045000000000000005,1.7994937500000001,1.0,409.26712907457636,0.04937441956350916,1.3639228287605976,0.37303434177702277,0.2886317375,0.5776791285296072
0.005,1.799375,1.0,499.41286495552964,0.05470667741228006,1.3618583559300246,0.42024730642189473,0.28862675,0.582457047970726
0.0055,1.79924375,1.0,590.7897781289722,0.060009025520956064,1.3599388475226848,0.4641735562132989,0.2886212375,0.5868750830486017
0.006,1.7991000000000001,1.0,682.51746670969,0.0652816316456725,1.358146426410315,0.5046798326194272,0.2886152,0.5909793917395437
0.006500000000000001,1.79894375,1.0,773.8806984722728,0.07052466261908823,1.3564672631664112,0.5418006422867038,0.2886086375,0.5948057726104865
0.007,1.798775,1.0,864.2852105409057,0.07573828433396104,1.3548904046989987,0.5756766752614666,0.28860155,0.5983826551421586
0.0075,1.79859375,1.0,953.24271429137,0.08092266175289,1.3534067868988782,0.6065098202776796,0.2885939375,0.6017335554011829
0.008,1.7984,1.0,1040.3434009951125,0.08607795846920122,1.3520088679792783,0.6345320994238944,0.2885858,0.6048780512243208
0.0085,1.79819375,1.0,1125.313223828794,0.09120433865504521,1.3506892557069887,0.6599843641315548,0.2885771375,0.6078349678943823
0.009000000000000001,1.797975,1.0,1207.9001884840732,0.0963019642793574,1.3494420349425957,0.683104123681914,0.28856795,0.6106194649718677
0.0095,1.79774375,1.0,1287.8933928934537,0.10137099579996219,1.3482621080939514,0.7041174074230769,0.2885582375,0.6132445920470564
0.01,1.7975,1.0,1365.1676491667395,0.10641159367468406,1.3471443775689076,0.7232341674359877,0.288548,0.6157231540889532
0.0105,1.79724375,1.0,1439.6576061561286,0.11142391791388415,1.3460839700802585,0.7406466209015089,0.2885372375,0.6180672374154552
0.011,1.796975,1.0,1511.3197130264416,0.11640812732534832,1.3450765841957972,0.7565290966029202,0.28852595000000003,0.6202874714278088
0.0115,1.79669375,1.0,1580.119404414284,0.12136437909027847,1.3441185022693067,0.7710385766747019,0.2885141375,0.6223930369768149
0.012,1.7964,1.0,1646.0572211829399,0.1262928298925241,1.3432061624947467,0.784315550644175,0.28850180000000003,0.6243926340102983
0.0125,1.79609375,1.0,1709.1733942568728,0.13119363634788736,1.3423360414609258,0.7964852947033312,0.2884889375,0.6262947535614264
0.013000000000000001,1.7957750000000001,1.0,1769.5053048442778,0.13606695345236572,1.3415050868590848,0.8076594672477808,0.28847555,0.628106746330896
0.0135,1.79544375,1.0,1827.089402509875,0.1409129347324118,1.3407106186962754,0.817937447103429,0.2884616375,0.6298350583788306
0.014,1.7951000000000001,1.0,1881.9895093149412,0.14573173369175776,1.3399499600237101,0.8274075174931594,0.2884472,0.6314860480863453
0.0145,1.79474375,1.0,1934.281275190475,0.15052350268971929,1.3392205784026867,0.8361481636077328,0.2884322375,0.6330656861866923
0.015,1.794375,1.0,1984.0562661943893,0.15528839472059933,1.3385200090749152,0.8442291755531414,0.28841675,0.634579730407906
0.0155,1.79399375,1.0,2031.3740510111002,0.16002655931470192,1.337846334732468,0.8517128163875307,0.2884007375,0.63603269804795
0.016,1.7936,1.0,2076.3100534690543,0.16473814600233105,1.3371976380674166,0.8586545301233018,0.2883842,0.6374290589341693
0.0165,1.7931937500000001,1.0,2118.952908558654,0.16942330418464419,1.336572015198226,0.8651037540925476,0.2883671375,0.6387732097748886
0.017,1.792775,1.0,2159.3878880403945,0.17408218181563087,1.3359677315300358,0.8711046748995764,0.28834955,0.6400691434010262
0.0175,1.7923437500000001,1.0,2197.7200484081286,0.17871492848922232,1.3353829679806462,0.8766967780242292,0.2883314375,0.641320997412286
0.018000000000000002,1.7919,1.0,2234.015236439232,0.1833216892020641,1.3348164070626447,0.881915554588919,0.2883128,0.6425318034491754
0.0185,1.79144375,1.0,2268.3475031638877,0.18790260895080163,1.334266731288618,0.8867928332708997,0.2882936375,0.6437045674541544
0.019,1.790975,1.0,2300.798426497058,0.19245783273208045,1.3337326231711535,0.8913572045231724,0.28827395,0.6448422711457298
0.0195,1.79049375,1.0,2331.451576951444,0.19698750486765756,1.333212813369088,0.8956344032773774,0.2882537375,0.6459477710671473
0.02,1.79,1.0,2360.3904166394564,0.2014917693649082,1.3327060938743196,0.8996476360691014,0.288233,0.6470237726367745
0.0205,1.78949375,1.0,2387.698787891553,0.20597077014247905,1.3322113062226004,0.9034178616984432,0.2882117375,0.6480728571998521
0.021,1.788975,1.0,2413.43781988584,0.21042464731974656,1.3317275587047013,0.906964085256204,0.28818995000000003,0.6490970242213616
0.021500000000000002,1.78844375,1.0,2437.6725341857386,0.21485354101608722,1.3312539596113926,0.9103035154899578,0.2881676375,0.6500982596995342
0.022,1.7879,1.0,2460.4715236778,0.21925759135087752,1.330789617233445,0.9134517593507805,0.2881448,0.6510785367683385
0.0225,1.78734375,1.0,2481.9066491385975,0.22363693844349394,1.330333639861629,0.9164229932514415,0.28812143749999997,0.6520398162492589
0.023,1.786775,1.0,2502.0366679017166,0.22799171935321666,1.3298852884994365,0.9192301418365877,0.28809755,0.6529837258662102
0.0235,1.78619375,1.0,2520.945941108213,0.2323220761225682,1.329443605358693,0.9218849418881865,0.28807313749999996,0.6539123433937044
0.024,1.7856,1.0,2538.6827999980283,0.23662814382320985,1.3290079965953296,0.9243981658536006,0.2880482,0.6548269712255343
0.0245,1.78499375,1.0,2555.29674470472,0.24091005740297683,1.3285778745492804,0.9267796572544841,0.2880227375,0.6557288914434865
0.025,1.784375,1.0,2570.838944132986,0.24516795180970427,1.3281526515604796,0.9290384225749639,0.28799675,0.6566193790619468
0.025500000000000002,1.78374375,1.0,2585.362094746271,0.24940196199122733,1.3277317399688615,0.9311827138704989,0.2879702375,0.6574997022225209
0.026000000000000002,1.7831000000000001,1.0,2598.920275656589,0.2536122228898224,1.327314552220134,0.9332201022314107,0.2879432,0.6583711221458329
0.0265,1.78244375,1.0,2611.561236150039,0.25779886536886526,1.3269005713634605,0.9351575525332556,0.2879156375,0.6592347463081731
0.027,1.781775,1.0,2623.3426957281645,0.26196202759037085,1.3264891980323217,0.937001461987547,0.28788755,0.6600918481129192
0.0275,1.7810937500000001,1.0,2634.3017128402093,0.2661018390048643,1.326080033804296,0.9387577493256005,0.2878589375,0.6609432766396339
0.028,1.7804,1.0,2644.4761291437217,0.2702184290628705,1.3256726802569616,0.9404318722153855,0.2878298,0.6617898767035932
0.0285,1.77969375,1.0,2653.9045018830648,0.27431192721491476,1.3252667389678965,0.9420288692275075,0.2878001375,0.6626324889068569
0.029,1.778975,1.0,2662.6260397867613,0.2783824629115221,1.324861811514679,0.943553397475427,0.28776995,0.6634719496792127
0.029500000000000002,1.7782437500000001,1.0,2670.68054248471,0.2824301656032176,1.3244574994748874,0.9450097664228949,0.2877392375,0.6643090913090033
0.03,1.7775,1.0,2678.1001263835615,0.28645516078550887,1.3240534798293664,0.946401976989489,0.287708,0.6651445861303522
0.0305,1.77674375,1.0,2684.920183461164,0.2904575774471554,1.3236494035570308,0.9477337372924993,0.2876762375,0.6659791568149818
0.031,1.775975,1.0,2691.1871642841875,0.29443755018498674,1.3232448241607915,0.9490084791417135,0.28764395,0.6668137233841167
0.0315,1.7751937500000001,1.0,2696.924616093898,0.29839520176812373,1.3228395083630409,0.9502294147669776,0.2876111375,0.6676487622446112
0.032,1.7744,1.0,2702.1563602032516,0.30233065496568723,1.3224332228861706,0.9513995322306593,0.2875778,0.6684847473827712
0.0325,1.77359375,1.0,2706.906467211588,0.30624403254679794,1.3220257344525728,0.95252161381592,0.2875439375,0.6693221503516616
0.033,1.772775,1.0,2711.1992334256256,0.3101354572805767,1.321616809784639,0.953598252695209,0.28750955,0.6701614402549468
0.0335,1.7719437500000002,1.0,2715.0591584871695,0.3140050519361443,1.3212062156047617,0.9546318680581813,0.2874746375,0.6710030837272556
0.034,1.7711000000000001,1.0,2718.5109242073177,0.31785293928262165,1.3207937186353322,0.9556247188578085,0.2874392,0.671847544911082
0.0345,1.7702437500000001,1.0,2721.5793746071736,0.3216792420891294,1.320379085598743,0.9565789163155147,0.2874032375,0.6726952854302084
0.035,1.7693750000000001,1.0,2724.289497165269,0.32548408312478844,1.3199620832173855,0.9574964353104385,0.28736675,0.6735467643596648
0.035500000000000004,1.76849375,1.0,2726.656277959099,0.3292675779989055,1.3195425703149963,0.9583791327612178,0.2873297375,0.6744022504989975
0.036000000000000004,1.7676,1.0,2728.707808818194,0.3330298545336633,1.3191202874289918,0.9592287391777805,0.2872922,0.6752622517577731
0.0365,1.76669375,1.0,2730.462827363147,0.3367710319973402,1.3186950610291663,0.9600468841310303,0.2872541375,0.676127098455408
0.037,1.765775,1.0,2731.935839485061,0.3404912262013955,1.3182667567165998,0.9608351001031242,0.28721555,0.6769970394422726
0.0375,1.76484375,1.0,2733.1414124374487,0.3441905529572884,1.317835240092372,0.9615948264324271,0.2871764375,0.6778723219241843
0.038,1.7639,1.0,2734.0941673861853,0.3478691280764782,1.3174003767575626,0.9623274160038717,0.28713679999999997,0.6787531914354507
0.0385,1.76294375,1.0,2734.8087723604494,0.35152706737042405,1.3169620323132514,0.963034141388073,0.28709663750000003,0.679639891810757
0.039,1.761975,1.0,2735.2999356035184,0.35516448665058525,1.3165200723605184,0.9637162004801171,0.28705595,0.6805326651559063
0.0395,1.7609937500000001,1.0,2735.582399325268,0.35878150172842105,1.3160743625004434,0.964374721683772,0.2870147375,0.6814317518174053
0.04,1.76,1.0,2735.6709338538412,0.36237822841539064,1.315624768334106,0.9650107686822471,0.286973,0.6823373903508989
0.0405,1.7589937500000001,1.0,2735.573410253757,0.36595477385109915,1.3151712183104356,0.9656253488040807,0.2869307375,0.6832496911629966
0.041,1.757975,1.0,2735.305549702194,0.36951125855250266,1.3147135697717367,0.9662194090940531,0.28688795,0.6841689062548795
0.0415,1.75694375,1.0,2734.8831690526295,0.37304780222054107,1.3142516793173424,0.9667938438253018,0.2868446375,0.6850952871372136
0.042,1.7559,1.0,2734.3138819541,0.37656451338509356,1.3137854781280605,0.9673495025711135,0.28680079999999997,0.6860289340431904
0.0425,1.75484375,1.0,2733.605311162292,0.3800615005760393,1.3133148973846984,0.9678871888008606,0.2867564375,0.686969946035765
0.043000000000000003,1.753775,1.0,2732.7650865558135,0.38353887232325756,1.3128398682680635,0.9684076628462647,0.28671155,0.6879184209885862
0.043500000000000004,1.75269375,1.0,2731.8008432579586,0.3869967371566275,1.312360321958964,0.9689116446479629,0.28666613750000003,0.6888744555666213
0.044,1.7516,1.0,2730.720219862502,0.3904352036060283,1.3118761896382067,0.9693998163006826,0.2866202,0.6898381452064838
0.0445,1.75049375,1.0,2729.530856765969,0.3938543802013392,1.3113874024866,0.9698728244136551,0.2865737375,0.6908095840964549
0.045,1.7493750000000001,1.0,2728.2403946032755,0.3972543754724395,1.310893891684951,0.9703312823013666,0.28652675,0.6917888651562052
0.0455,1.74824375,1.0,2726.8564727896173,0.40063529794920827,1.3103955884140674,0.970775772018388,0.2864792375,0.6927760800162144
0.046,1.7471,1.0,2725.3867281667776,0.40399725616152476,1.3098924238547571,0.9712068462507869,0.2864312,0.6937713189968864
0.0465,1.7459437500000001,1.0,2723.8380949826465,0.4073403571788072,1.309384335545998,0.9716250303457848,0.28638263750000004,0.6947746585419685
0.047,1.744775,1.0,2722.210753450148,0.41066469363291586,1.3088713224628619,0.9720308262201136,0.28633355,0.6957860528062589
0.0475,1.74359375,1.0,2720.5218590935424,0.4139703942245781,1.3083532290568534,0.9724247048669097,0.28628393750000003,0.6968057593437874
0.048,1.7424,1.0,2718.7749684826526,0.41725755977541334,1.3078300234624476,0.9728071195701071,0.2862338,0.6978337903543015
0.0485,1.74119375,1.0,2716.973635659185,0.42052629110704104,1.3073016738141192,0.9731785018627845,0.2861831375,0.6988701571142879
0.049,1.739975,1.0,2715.121411770754,0.42377668904108073,1.306768148246343,0.973539262767789,0.28613195,0.6999148699665491
0.0495,1.73874375,1.0,2713.2218447285877,0.42700885439915187,1.3062294148935933,0.9738897939566339,0.2860802375,0.7009679383097177
0.05,1.7375,1.0,2711.2784788871036,0.4302228880028739,1.3056854418903456,0.9742304688327603,0.286028,0.7020293705877045
0.0505,1.73624375,1.0,2709.2948547461215,0.4334188906738663,1.305136197371074,0.9745616435447232,0.2859752375,0.7030991742790847
0.051000000000000004,1.734975,1.0,2707.274508675721,0.4365969632337485,1.3045816494702536,0.9748836579344301,0.28592195,0.7041773558864145
0.051500000000000004,1.73369375,1.0,2705.220972663352,0.4397572065041401,1.3040217663223592,0.9751968364251338,0.2858681375,0.7052639209254873
0.052000000000000005,1.7324,1.0,2703.137774083754,0.4428997213066604,1.3034565160618652,0.9755014888535014,0.2858138,0.7063588739145248
0.0525,1.73109375,1.0,2701.028435491222,0.4460246084629289,1.3028858668232468,0.9757979112497431,0.28575893750000003,0.7074622183632985
0.053,1.729775,1.0,2698.896474434452,0.44913196879456524,1.3023097867409783,0.9760863865694636,0.28570355000000003,0.7085739567621946
0.0535,1.72844375,1.0,2696.739526320656,0.4522218880516872,1.3017282976924653,0.9763671871703788,0.2856476375,0.709693987154359
0.054,1.7271,1.0,2694.563146960216,0.4552944745452095,1.3011413491345685,0.9766405714575125,0.2855912,0.7108223464330738
0.0545,1.7257437500000001,1.0,2692.374832894743,0.4583498382164104,1.300548872683293,0.9769067857772011,0.2855342375,0.7119591043648015
0.055,1.724375,1.0,2690.1758160922986,0.46138807189537684,1.2999508572019631,0.9771660677186436,0.28547675,0.7131042195912229
0.0555,1.72299375,1.0,2687.9673266134323,0.4644092684121958,1.2993472915539033,0.9774186448427794,0.2854187375,0.7142576499979032
0.056,1.7216,1.0,2685.7505925860282,0.4674135205969543,1.2987381646024376,0.9776647351861913,0.2853602,0.7154193527103536
0.0565,1.72019375,1.0,2683.5268401833514,0.4704009212797392,1.2981234652108908,0.9779045477356856,0.28530113749999997,0.7165892840900854
0.057,1.718775,1.0,2681.297293604913,0.4733715632906375,1.2975031822425869,0.9781382828754749,0.28524155,0.7177673997306574
0.0575,1.71734375,1.0,2679.0631750595003,0.4763255394597362,1.2968773045608502,0.9783661328087638,0.2851814375,0.7189536544537125
0.058,1.7159,1.0,2676.825704751473,0.47926294261712227,1.296245821029005,0.9785882819553859,0.2851208,0.7201480023050086
0.0585,1.71444375,1.0,2674.5861008700085,0.48218386559288257,1.2956087205103761,0.9788049073270398,0.2850596375,0.7213503965504411
0.059000000000000004,1.7129750000000001,1.0,2672.34557958025,0.48508840121710417,1.2949659918682872,0.9790161788815498,0.28499795,0.7225607896720585
0.059500000000000004,1.71149375,1.0,2670.1053550182432,0.487976642319874,1.2943176239660628,0.9792222598574812,0.2849357375,0.7237791333640666
0.06,1.71,1.0,2667.866639287555,0.49084868173127894,1.2936636056670274,0.9794233070903439,0.284873,0.7250053785288285
0.0605,1.7084937500000001,1.0,2665.6306424597383,0.49370461228140605,1.2930039258345052,0.979619471311529,0.2848097375,0.7262394752728565
0.061,1.7069750000000001,1.0,2663.3987466906947,0.4965445244087008,1.2923385717296703,0.9798108971558565,0.28474595,0.7274813758898484
0.0615,1.7054437500000001,1.0,2661.1751227948093,0.4993684845959622,1.2916675049211863,0.9799977204874405,0.2846816375,0.7287310796334495
0.062,1.7039,1.0,2658.9584297025926,0.5021766198592841,1.2909907376748333,0.9801800793587525,0.2846168,0.7299884903936746
0.0625,1.70234375,1.0,2656.7490423477425,0.5049690149264107,1.2903082664671202,0.9803581025302102,0.2845514375,0.7312535408828302
0.063,1.7007750000000001,1.0,2654.5473350501793,0.5077457545250864,1.2896200877745558,0.9805319139512437,0.28448555,0.7325261631296511
0.0635,1.69919375,1.0,2652.353681520872,0.5105069233830556,1.2889261980736497,0.98070163297407,0.28441913750000003,0.733806288478017
0.064,1.6976,1.0,2650.168454866395,0.5132526062280626,1.2882265938409108,0.9808673745564324,0.2843522,0.7350938475856718
0.0645,1.69599375,1.0,2647.9920275946915,0.5159828877878517,1.2875212715528481,0.9810292494539551,0.2842847375,0.736388770422938
0.065,1.694375,1.0,2645.82477162047,0.5186978527901674,1.2868102276859712,0.9811873644027133,0.28421675,0.7376909862714329
0.0655,1.69274375,1.0,2643.6670582708775,0.521397585962754,1.2860934587167887,0.9813418222925827,0.2841482375,0.7390004237227842
0.066,1.6911,1.0,2641.5192582917643,0.5240821720333559,1.2853709611218098,0.9814927223319009,0.2840792,0.7403170106773422
0.0665,1.6894437500000001,1.0,2639.381741854166,0.5267516957297174,1.2846427313775441,0.9816401602039309,0.2840096375,0.741640674342893
0.067,1.687775,1.0,2637.254878560575,0.5294062417795828,1.2839087659605002,0.9817842282155897,0.28393955,0.7429713412333735
0.0675,1.68609375,1.0,2635.139037452418,0.5320458949106966,1.2831690613471873,0.9819250154388792,0.2838689375,0.7443089371675793
0.068,1.6844000000000001,1.0,2633.0345870167866,0.5346707398508032,1.282423614014115,0.9820626078454217,0.2837978,0.745653387267877
0.0685,1.68269375,1.0,2630.941895194174,0.5372808613276466,1.2816724204377918,0.9821970884344855,0.2837261375,0.7470046159589153
0.069,1.680975,1.0,2628.8613293861727,0.5398763440689717,1.280915477094727,0.9823285373548548,0.28365395,0.7483625469663324
0.0695,1.67924375,1.0,2626.793500988088,0.542457272173567,1.2801527781957582,0.9824570318750048,0.28358123749999997,0.749727107363515
0.07,1.6775,1.0,2624.7383328780893,0.5450237249638937,1.2793843243253664,0.9825826466418613,0.283508,0.75109821212136
0.07050000000000001,1.67574375,1.0,2622.6949578195045,0.547575782589497,1.2786101233963143,0.9827054541841417,0.2834342375,0.7524757625672529
0.07100000000000001,1.673975,1.0,2620.6634385846833,0.5501135250707287,1.2778301747071898,0.9828255242079639,0.28335995,0.7538596748156007
0.07150000000000001,1.67219375,1.0,2618.643837898371,0.552637032427941,1.2770444775565817,0.9829429241062563,0.2832851375,0.7552498643348238
0.07200000000000001,1.6704,1.0,2616.636218439633,0.555146384681486,1.276253031243078,0.983057719049517,0.2832098,0.7566462459471014
0.0725,1.66859375,1.0,2614.637837405662,0.5576416582092626,1.2754558611197264,0.983169973031747,0.2831339375,0.758048688057366
0.073,1.6667750000000001,1.0,2612.6492676244206,0.5601229369765444,1.27465296177439,0.9832797470402013,0.28305755,0.7594571128461589
0.0735,1.66494375,1.0,2610.67231062519,0.5625903007835741,1.2738443163673336,0.9833870993335035,0.2829806375,0.7608714617133536
0.074,1.6631,1.0,2608.707092663822,0.5650438259659847,1.2730299236100375,0.9834920867798526,0.2829032,0.7622916480022228
0.0745,1.6612437500000001,1.0,2606.753739856252,0.567483588859409,1.272209782213981,0.9835947644301866,0.2828252375,0.7637175843973757
0.075,1.659375,1.0,2604.8123781815993,0.5699096657994798,1.2713838908906445,0.9836951855864724,0.28274675,0.7651491829242818
0.0755,1.65749375,1.0,2602.8831334848837,0.5723221331218299,1.2705522483515073,0.9837934018669935,0.2826677375,0.7665863549488021
