Time [s],Phi [rad],STIM [ ],Fsee [N],Gamma [ ],Lcerel [ ],q [ ],Lmtc [m],fisomrel [ ]
0.0,1.8,1.0,17.979761459088202,0.00011326746654759709,1.379338334477109,0.005003354403438058,0.288653,0.5411429464162403
0.0005,1.79999375,1.0,18.32319908921978,0.005721841434456575,1.379297230824427,0.013229690249568566,0.2886527375,0.5412423810233464
0.001,1.799975,1.0,21.74156154623537,0.011298955736830749,1.378925738961499,0.036148721305776926,0.28865195,0.5421405751035775
0.0015,1.79994375,1.0,31.35679004292892,0.016844786838455514,1.3780217615367807,0.0713397758925572,0.2886506375,0.5443225376423129
0.002,1.7999,1.0,54.1975894923956,0.02235951021233422,1.3763283344799337,0.11559111758333432,0.2886488,0.5483959970266553
0.0025,1.79984375,1.0,98.14914950176468,0.027843300347912724,1.37388565476653,0.16552422045269774,0.28864643749999996,0.5542395317595765
0.003,1.7997750000000001,1.0,162.2962190039734,0.03329633075786935,1.3711643628480024,0.21825951495967216,0.28864354999999997,0.5607047696161878
0.0035,1.79969375,1.0,239.1938129240817,0.03871877397846645,1.3685382810966549,0.27158646292278144,0.2886401375,0.5668990285915912
0.004,1.7996,1.0,323.0729636841158,0.04411080158010772,1.3661136035031116,0.32385834071472597,0.2886362,0.5725791751593317
0.0045000000000000005,1.7994937500000001,1.0,410.9304483444496,0.04947258417259093,1.3638838238778248,0.37392912305738735,0.2886317375,0.5777696515307786
0.005,1.799375,1.0,501.1096509994732,0.05480429139674606,1.3618223299186158,0.42108437170344754,0.28862675,0.5825401835850266
0.0055,1.79924375,1.0,592.501070715606,0.0601060919662904,1.3599054371742043,0.4649485057697433,0.2886212375,0.5869517738917247
0.006,1.7991000000000001,1.0,684.2300420411367,0.06537815362434223,1.358115315838063,0.5053919816334664,0.2886152,0.591050448221315
0.006500000000000001,1.79894375,1.0,775.58269574054,0.07062064317428701,1.356438224903045,0.5424517702108866,0.2886086375,0.5948717851657086
0.007,1.798775,1.0,865.9704091321427,0.0758337265337575,1.354863196588634,0.5762700071099944,0.28860155,0.5984442337592364
0.0075,1.79859375,1.0,954.9015534604887,0.08101756859802554,1.3533812833219756,0.6070494322896216,0.2885939375,0.6017910350692399
0.008,1.7984,1.0,1041.9759792355555,0.08617233326750738,1.351984840802567,0.6350223254538377,0.2885858,0.6049319893022691
0.0085,1.79819375,1.0,1126.9065520669028,0.09129818411583346,1.3506667080057144,0.6604296950934736,0.2885771375,0.6078853950779178
0.009000000000000001,1.797975,1.0,1209.4306684742332,0.09639528280949489,1.3494211293729628,0.683508970078813,0.28856795,0.6106660534047297
0.0095,1.79774375,1.0,1289.3685114192397,0.1014637905785154,1.34824259392621,0.7044856780839954,0.2885582375,0.6132879329577323
0.01,1.7975,1.0,1366.6091638139205,0.10650386833309629,1.3471258551013245,0.7235693880020894,0.288548,0.6157641604597393
0.0105,1.79724375,1.0,1441.060430988894,0.1115156753617016,1.346066416914339,0.7409521873890024,0.2885372375,0.6181059792221648
0.011,1.796975,1.0,1512.6633734936602,0.11649936981388602,1.3450601744351156,0.7568081631524759,0.28852595000000003,0.6203235842436468
0.0115,1.79669375,1.0,1581.4008683315521,0.1214551093216123,1.3441031963019985,0.7712938722091986,0.2885141375,0.6224266272153964
0.012,1.7964,1.0,1647.3006866174724,0.12638305174268175,1.3431916106974735,0.784549377899182,0.28850180000000003,0.62442448452447
0.0125,1.79609375,1.0,1710.3754312666338,0.13128335248362744,1.3423222364797907,0.7966998468951149,0.2884889375,0.6263248928937317
0.013000000000000001,1.7957750000000001,1.0,1770.6494392137315,0.13615616596388988,1.341492172635816,0.8078567543881388,0.28847555,0.6281348725397642
0.0135,1.79544375,1.0,1828.1787391966411,0.14100164660290965,1.3406985181524151,0.818119170566696,0.2884616375,0.6298613511758561
0.014,1.7951000000000001,1.0,1883.0323011893438,0.14581994770979897,1.3399385465913263,0.8275751698246259,0.2884472,0.6315107925426553
0.0145,1.79474375,1.0,1935.2931388595584,0.15061122289125797,1.3392096541237413,0.8363030480787268,0.2884322375,0.6330893193534816
0.015,1.794375,1.0,1985.0188649873983,0.15537562264753763,1.3385097477596257,0.8443725747542931,0.28841675,0.634601883519498
0.0155,1.79399375,1.0,2032.284179956107,0.1601132973957578,1.337836746319786,0.8518458190085797,0.2884007375,0.6360533572578462
0.016,1.7936,1.0,2077.1750725883317,0.16482439707218682,1.3371886239802142,0.8587780723349686,0.2883842,0.6374484434257963
0.0165,1.7931937500000001,1.0,2119.7834226313385,0.16950907138383978,1.3365634481507707,0.8652186628855439,0.2883671375,0.6387915987527536
0.017,1.792775,1.0,2160.2024734500606,0.17416746966818417,1.3359594078050434,0.8712116686077058,0.28834955,0.6400869780206777
0.0175,1.7923437500000001,1.0,2198.4995899215687,0.1787997378992039,1.3353750720752813,0.8767966050168192,0.2883314375,0.641337885939094
0.018000000000000002,1.7919,1.0,2234.751520264347,0.18340602205088288,1.334809010093733,0.88200885572875,0.2883128,0.6425475980869086
0.0185,1.79144375,1.0,2269.0436145261133,0.18798646809720496,1.3342597909926472,0.8868801549835623,0.2882936375,0.6437193626452544
0.019,1.790975,1.0,2301.459237774844,0.1925412208228989,1.3337260814148961,0.8914390338042892,0.28827395,0.6448561944625578
0.0195,1.79049375,1.0,2332.0905911534805,0.19707042609837458,1.3332065290976791,0.8957111598355698,0.2882537375,0.6459611255314972
0.02,1.79,1.0,2361.013582016101,0.20157422719388704,1.3327000031336185,0.89971971605182,0.288233,0.6470366961571756
0.0205,1.78949375,1.0,2388.292910297496,0.20605276526547858,1.3322055326248083,0.9034856636082048,0.2882117375,0.6480850895837609
0.021,1.788975,1.0,2413.9977272372985,0.2105061814691915,1.3317221466733429,0.9070279530288446,0.28818995000000003,0.6491084738725421
0.021500000000000002,1.78844375,1.0,2438.2012648014334,0.21493461696106808,1.3312488743813164,0.9103637446487827,0.2881676375,0.6501090026183381
0.022,1.7879,1.0,2460.974838935242,0.21933821167902232,1.3307847989084014,0.9135086127768566,0.2881448,0.6510887015660984
0.0225,1.78734375,1.0,2482.390705822369,0.2237171064187671,1.3303290259454128,0.9164767098741774,0.28812143749999997,0.6520495364092946
0.023,1.786775,1.0,2502.5155277548147,0.22807144085481781,1.329880742512402,0.9192809264369444,0.28809755,0.6529932899217677
0.0235,1.78619375,1.0,2521.402835705155,0.2324013510552189,1.3294392841826717,0.9219330329496397,0.28807313749999996,0.6539214223125285
0.024,1.7856,1.0,2539.10828723521,0.2367069730880149,1.3290039865295247,0.9244437688477221,0.2880482,0.6548353853561235
0.0245,1.78499375,1.0,2555.689487685625,0.24098844302125028,1.3285741851262642,0.9268229470334252,0.2880227375,0.6557366226677661
0.025,1.784375,1.0,2571.205821154234,0.24524589692296955,1.3281492155461931,0.9290795465306343,0.28799675,0.6566265699503128
0.025500000000000002,1.78374375,1.0,2585.706899447765,0.24947946803251095,1.327728519750004,0.9312218112358044,0.2879702375,0.6575064328522682
0.026000000000000002,1.7831000000000001,1.0,2599.2529031345316,0.2536892940505041,1.3273114538369497,0.9332572929695657,0.2879432,0.6583775898824692
0.0265,1.78244375,1.0,2611.8931177715845,0.25787550876386905,1.3268974874180812,0.9351929461028821,0.2879156375,0.6592411757644944
0.027,1.781775,1.0,2623.6663602247763,0.26203824261108205,1.3264861972013564,0.9370351829509933,0.28788755,0.6600980964189955
0.0275,1.7810937500000001,1.0,2634.6123341725734,0.2661776260306192,1.3260771598947338,0.9387899092324227,0.2878589375,0.6609492531727812
0.028,1.7804,1.0,2644.771553996459,0.2702937894609565,1.3256699522061721,0.9404625707896989,0.2878298,0.6617955428253495
0.0285,1.77969375,1.0,2654.1852726437164,0.2743868633405701,1.3252641508436291,0.9420581954357398,0.2878001375,0.6626378577039951
0.029,1.778975,1.0,2662.895413462595,0.2784569781079362,1.3248593325150635,0.9435814304874135,0.28776995,0.6634770857074854
0.029500000000000002,1.7782437500000001,1.0,2670.936149265052,0.2825042607203668,1.3244551507162738,0.9450365857257947,0.2877392375,0.6643139514466838
0.03,1.7775,1.0,2678.3497564875515,0.2865288433466099,1.3240511891684243,0.9464276461684085,0.287708,0.665149320148374
0.0305,1.77674375,1.0,2685.171028723519,0.2905308542439969,1.3236471046709652,0.947758315770612,0.2876762375,0.6659839019072107
0.031,1.775975,1.0,2691.427014736671,0.29451041786965715,1.323242628595824,0.9490320414505972,0.28764395,0.6668182495486675
0.0315,1.7751937500000001,1.0,2697.145089795519,0.2984676586807203,1.322837492314927,0.950252026447468,0.2876111375,0.6676529131243922
0.032,1.7744,1.0,2702.3529251834684,0.3024027011343157,1.3224314272002011,0.9514212505593642,0.2875778,0.6684884399031933
0.0325,1.77359375,1.0,2707.0784593090934,0.30631566968757296,1.3220241646235729,0.95254248846628,0.2875439375,0.66932537435743
0.033,1.772775,1.0,2711.349870415879,0.31020668879762153,1.3216154359569694,0.9536183263393777,0.28750955,0.6701642581447975
0.0335,1.7719437500000002,1.0,2715.1955508926626,0.31407588292159083,1.3212049725723172,0.9546511769153662,0.2874746375,0.6710056300855134
0.034,1.7711000000000001,1.0,2718.6355054704936,0.3179233667973391,1.3207925839652832,0.9556432993717183,0.2874392,0.6718498663038162
0.0345,1.7702437500000001,1.0,2721.7035317553054,0.32174927643941786,1.3203779554290658,0.9565967970587277,0.2874032375,0.6726975946272051
0.035,1.7693750000000001,1.0,2724.416652784575,0.32555372986640296,1.3199609263295888,0.9575136495503362,0.28736675,0.6735491250711462
0.035500000000000004,1.76849375,1.0,2726.7918180922243,0.32933684488205445,1.3195413376794383,0.9583957102726881,0.2873297375,0.6744047624809797
0.036000000000000004,1.7676,1.0,2728.8460732343983,0.3330987392901325,1.3191190304912006,0.9592447158776266,0.2872922,0.6752648098799623
0.0365,1.76669375,1.0,2730.5965491933553,0.33683953089439717,1.3186938457774622,0.9600622949269386,0.2872541375,0.6761295684425102
0.037,1.765775,1.0,2732.0604523412335,0.34055933749860867,1.3182656245508086,0.9608499758367703,0.28721555,0.6769993374658282
0.0375,1.76484375,1.0,2733.2550549642733,0.344258276906527,1.3178342078238265,0.9616091941527929,0.2871764375,0.6778744143399256
0.038,1.7639,1.0,2734.197686347574,0.3479364669219123,1.3173994366091022,0.9623412992192751,0.28713679999999997,0.6787550945160221
0.0385,1.76294375,1.0,2734.9057244206315,0.3515940253485248,1.3169611519192213,0.963047560298663,0.28709663750000003,0.679641671473343
0.039,1.761975,1.0,2735.388085832737,0.35523105997970705,1.316519271964633,0.9637291773879308,0.28705595,0.680534280851335
0.0395,1.7609937500000001,1.0,2735.6609532367306,0.3588476909746936,1.3160736492744298,0.9643872772859419,0.2870147375,0.681433189522783
0.04,1.76,1.0,2735.7476098611596,0.36244404647994344,1.3156240721695678,0.9650229178748164,0.286973,0.6823387916680468
0.0405,1.7589937500000001,1.0,2735.6567565581054,0.366020236321588,1.315170461571237,0.9656371053795233,0.2869307375,0.6832512122224919
0.041,1.757975,1.0,2735.397111457123,0.3695763703257587,1.3147127384006274,0.966230789608913,0.28688795,0.6841705748991653
0.0415,1.75694375,1.0,2734.9774072087016,0.37311255831858714,1.314250823578929,0.9668048677026642,0.2868446375,0.6850970021682553
0.042,1.7559,1.0,2734.406388366867,0.37662891012620475,1.313784638027332,0.9673601875920336,0.28680079999999997,0.6860306152361488
0.0425,1.75484375,1.0,2733.692808909712,0.380125535574743,1.3133141026670263,0.9678975511989908,0.2867564375,0.6869715340240947
0.043000000000000003,1.753775,1.0,2732.8454298989977,0.3836025444903334,1.3128391384192022,0.9684177173959762,0.28671155,0.6879198771464645
0.043500000000000004,1.75269375,1.0,2731.873017278608,0.3870600466991074,1.3123596662050496,0.9689214047464366,0.28666613750000003,0.6888757618886161
0.044,1.7516,1.0,2730.7843398109203,0.39049815202719634,1.3118756069457584,0.9694092940444136,0.2866202,0.6898393041843585
0.0445,1.75049375,1.0,2729.5881671527527,0.3939169703007319,1.3113868815625191,0.9698820306697703,0.2865737375,0.6908106185930156
0.045,1.7493750000000001,1.0,2728.2932680693984,0.39731661134584556,1.3108934109765213,0.970340226774132,0.28652675,0.6917898182760963
0.0455,1.74824375,1.0,2726.9084087869783,0.4006971849886687,1.3103951161089553,0.9707844633112472,0.2864792375,0.6927770149735591
0.046,1.7471,1.0,2725.438551637273,0.404058787822975,1.3098919524458996,0.9712152926750287,0.2864312,0.6937722506673096
0.0465,1.7459437500000001,1.0,2723.891752495976,0.407401538899078,1.3093838473152393,0.9716332406821454,0.28638263750000004,0.6947756218763417
0.047,1.744775,1.0,2722.2742698642696,0.41072554822961166,1.3088707443535776,0.9720388070819617,0.28633355,0.6957871915894991
0.0475,1.74359375,1.0,2720.5904450094795,0.41403091761253835,1.3083526046128866,0.9724324673254667,0.28628393750000003,0.6968069873356149
0.048,1.7424,1.0,2718.844616474354,0.4173177488458204,1.3078293891451374,0.9728146738294716,0.2862338,0.6978350356458278
0.0485,1.74119375,1.0,2717.041119569111,0.4205861437274203,1.3073010590023022,0.9731858573027505,0.2861831375,0.6988713620410192
0.049,1.739975,1.0,2715.1842858962596,0.4238362040553004,1.3067675752363521,0.9735464279840174,0.28613195,0.6999159910191615
0.0495,1.73874375,1.0,2713.2784429093945,0.4270680316274231,1.3062288988992592,0.973896776798355,0.2860802375,0.7009689460425615
0.05,1.7375,1.0,2711.327913505613,0.4302817282417507,1.305684991042995,0.9742372764381613,0.286028,0.7020302495250128
0.0505,1.73624375,1.0,2709.3370156513083,0.43347739569624566,1.3051358127195312,0.9745682823741739,0.2859752375,0.7030999228188495
0.051000000000000004,1.734975,1.0,2707.310062042117,0.4366551357888704,1.3045813249808393,0.9748901338016848,0.28592195,0.7041779862019015
0.051500000000000004,1.73369375,1.0,2705.2513597957823,0.4398150503175873,1.3040214888788912,0.9752031545266356,0.2858681375,0.7052644588643566
0.052000000000000005,1.7324,1.0,2703.1652101793356,0.44295724108035867,1.3034562654656585,0.9755076537959099,0.2858138,0.7063593588955224
0.0525,1.73109375,1.0,2701.0537300173028,0.4460817941965954,1.3028856356974985,0.9758039266806648,0.28575893750000003,0.7074626648218183
0.053,1.729775,1.0,2698.9183868077735,0.4491888072110553,1.302309586440124,0.976092256818729,0.28570355000000003,0.7085743429413305
0.0535,1.72844375,1.0,2696.7651542974,0.4522784101149732,1.3017280633337183,0.9763729161892545,0.2856476375,0.7096944381278179
0.054,1.7271,1.0,2694.5956445440306,0.45535069596051,1.3011410518359041,0.9766461636321024,0.2855912,0.7108229174080527
0.0545,1.7257437500000001,1.0,2692.4114672201613,0.4584057577998266,1.3005485374043038,0.9769122468750417,0.2855342375,0.7119597470157328
0.055,1.724375,1.0,2690.2142295649273,0.4614436886850842,1.2999505054965395,0.9771714031015233,0.28547675,0.7131048923863854
0.0555,1.72299375,1.0,2688.0055363407228,0.4644645816684437,1.2993469415702337,0.9774238594848644,0.2854187375,0.7142583181522548
0.056,1.7216,1.0,2685.7869897940773,0.467468529802066,1.2987378310830089,0.9776698336910952,0.2853602,0.7154199881371801
0.0565,1.72019375,1.0,2683.5601896218204,0.47045562613811226,1.2981231594924874,0.9779095343525446,0.28530113749999997,0.7165898653514571
0.057,1.718775,1.0,2681.3267329414343,0.4734259637287434,1.2975029122562918,0.9781431615140942,0.28524155,0.7177679119866873
0.0575,1.71734375,1.0,2679.088214266427,0.4763796356261204,1.296877074832044,0.9783709070538877,0.2851814375,0.7189540894106154
0.058,1.7159,1.0,2676.846225486069,0.47931673488240434,1.2962456326773668,0.9785929550801458,0.2851208,0.7201483581619472
0.0585,1.71444375,1.0,2674.6023558502725,0.48223735454975614,1.2956085712498824,0.9788094823056297,0.2850596375,0.7213506779451633
0.059000000000000004,1.7129750000000001,1.0,2672.3581919587036,0.4851415876803368,1.2949658760072134,0.9790206584011749,0.28499795,0.7225610076253102
0.059500000000000004,1.71149375,1.0,2670.1153177548795,0.4880295273263074,1.294317532406982,0.9792266463296224,0.2849357375,0.7237793052227841
0.06,1.71,1.0,2667.875314524786,0.49090126653982885,1.2936635259068106,0.979427602661376,0.284873,0.7250055279080996
0.0605,1.7084937500000001,1.0,2665.639760900355,0.49375689837306214,1.2930038419643215,0.9796236778727359,0.2848097375,0.726239631996642
0.061,1.7069750000000001,1.0,2663.4102328673625,0.4965965158781684,1.2923384660371373,0.9798150166280672,0.28474595,0.7274815729434105
0.0615,1.7054437500000001,1.0,2661.1853965829932,0.49942017832526114,1.2916674103452088,0.9800017568202997,0.2846816375,0.7287312555565038
0.062,1.7039,1.0,2658.9665437172075,0.5022279978658848,1.290990662949638,0.9801840339630192,0.2846168,0.7299886290692927
0.0625,1.70234375,1.0,2656.7560533958185,0.5050200882709891,1.2903082018727345,0.9803619780252717,0.2845514375,0.7312536604764657
0.063,1.7007750000000001,1.0,2654.5541566446987,0.507796533045141,1.28962002489959,0.9805357128258435,0.28448555,0.732526279263906
0.0635,1.69919375,1.0,2652.3610841239024,0.5105574156929075,1.2889261298152948,0.9807053575941924,0.28441913750000003,0.7338064142536844
0.064,1.6976,1.0,2650.1770661307773,0.5133028197188556,1.2882265144049398,0.9808710271727088,0.2843522,0.7350939936032495
0.0645,1.69599375,1.0,2648.00233260405,0.5160328286275524,1.2875211764536163,0.98103283220862,0.2842847375,0.7363889448046188
0.065,1.694375,1.0,2645.83711312738,0.5187475259235648,1.286810113746415,0.9811908793361437,0.28421675,0.7376911946835731
0.0655,1.69274375,1.0,2643.681636933179,0.5214469951114598,1.2860933240684265,0.9813452713494467,0.2841482375,0.7390006693988467
0.066,1.6911,1.0,2641.5361329064813,0.5241313196958045,1.2853708052047417,0.9814961073669427,0.2840792,0.7403172944413182
0.0665,1.6894437500000001,1.0,2639.4008295894314,0.5268005831811658,1.2846425549404519,0.981643482987414,0.2840096375,0.741640994633201
0.067,1.687775,1.0,2637.275955184789,0.529454869072111,1.2839085710606477,0.9817874904384233,0.28393955,0.7429716941272358
0.0675,1.68609375,1.0,2635.1617375609935,0.5320942608732068,1.2831688513504198,0.9819282187174465,0.2838689375,0.7443093164058796
0.068,1.6844000000000001,1.0,2633.0584042559135,0.5347188420890203,1.2824233935948595,0.9820657537261317,0.2837978,0.7456537842804946
0.0685,1.68269375,1.0,2630.9661824817126,0.5373286962241186,1.2816721955790573,0.9822001783980624,0.2837261375,0.7470050198905398
0.069,1.680975,1.0,2628.8852991293666,0.5399239067830686,1.2809152550881044,0.9823315728203863,0.28365395,0.748362944702759
0.0695,1.67924375,1.0,2626.8159807733227,0.5425045572704374,1.2801525699070915,0.982460014349639,0.28358123749999997,0.7497274795103707
0.07,1.6775,1.0,2624.758453676528,0.545070731190792,1.2793841378211095,0.9825855777220794,0.283508,0.7510985444322554
0.07050000000000001,1.67574375,1.0,2622.7129437951116,0.5476225120486994,1.2786099566152491,0.9827083351588342,0.2834342375,0.7524760589121461
0.07100000000000001,1.673975,1.0,2620.679676783631,0.5501599833487265,1.2778300240746014,0.9828283564661227,0.28335995,0.7538599417178138
0.07150000000000001,1.67219375,1.0,2618.6566930921617,0.5526832070631201,1.2770443582602042,0.9829457087550304,0.2832851375,0.755250075115407
0.07200000000000001,1.6704,1.0,2616.6421351697672,0.5551922512606533,1.2762529763146437,0.983060457266241,0.2832098,0.7566463427209851
0.0725,1.66859375,1.0,2614.6408960982862,0.5576872444948038,1.275455832713253,0.9831726658666732,0.2831339375,0.7580487379599756
0.073,1.6667750000000001,1.0,2612.6527260917405,0.5601682609056939,1.2746529296429379,0.9832823952513914,0.28305755,0.7594571691280338
0.0735,1.66494375,1.0,2610.6773758100394,0.5626353746334458,1.2738442692906042,0.9833897041560292,0.2829806375,0.7608715439307878
0.074,1.6631,1.0,2608.714596353942,0.5650886598181815,1.2730298538431584,0.9834946494313405,0.2829032,0.7622917694846415
0.0745,1.6612437500000001,1.0,2606.7641392594796,0.567528190600023,1.2722096854875062,0.9835972861144373,0.2828252375,0.7637177523175795
0.075,1.659375,1.0,2604.8257564929995,0.5699540411190925,1.2713837664105534,0.9836976674968866,0.28274675,0.7651493983699688
0.0755,1.65749375,1.0,2602.8992004453853,0.5723662855155122,1.2705520987992063,0.9837958451898176,0.2826677375,0.7665866129953589
