Time [s],Phi [rad],STIM [ ],Fsee [N],Gamma [ ],Lcerel [ ],q [ ],Lmtc [m],fisomrel [ ]
0.0,1.8,1.0,17.968228719823397,1.0000804538050951e-05,1.379339626283854,0.005000026656036221,0.288653,0.5411398212079911
0.0005,1.79999375,1.0,18.277461911157665,0.005619154016727614,1.3793023080605569,0.01294051458730711,0.2886527375,0.5412300991707093
0.001,1.799975,1.0,21.61902334621248,0.011196844314319793,1.378938236564945,0.035608575470215856,0.28865195,0.5421103726691641
0.0015,1.79994375,1.0,31.06978069128209,0.01674324818024819,1.3780461573237157,0.07060170176898513,0.2886506375,0.5442637210866468
0.002,1.7999,1.0,53.58268411124109,0.02225854110579866,1.3763681124664022,0.114717832125485,0.2886488,0.548300522699227
0.0025,1.79984375,1.0,97.11884868440167,0.027742897598166075,1.3739351715464327,0.16457467007939333,0.28864643749999996,0.5541214524251912
0.003,1.7997750000000001,1.0,160.95788334637953,0.03319649118817776,1.3712143543669963,0.2172802250551139,0.28864354999999997,0.5605864257394582
0.0035,1.79969375,1.0,237.68290883667635,0.03861949442988069,1.368584747253632,0.27061266151412716,0.2886401375,0.5667898089667607
0.004,1.7996,1.0,321.46627004398863,0.04401207891132472,1.3661561056735585,0.3229155825356319,0.2886362,0.572479930733335
0.0045000000000000005,1.7994937500000001,1.0,409.26721380294555,0.04937441525974693,1.3639228267716985,0.37303430032293317,0.2886317375,0.5776791331457154
0.005,1.799375,1.0,499.41293028843074,0.05470667313265639,1.361858354541705,0.42024726785193317,0.28862675,0.5824570511746486
0.0055,1.79924375,1.0,590.7898290143124,0.0600090212653411,1.359938846528508,0.4641735206467499,0.2886212375,0.5868750853307625
0.006,1.7991000000000001,1.0,682.5175030954333,0.06528162741392952,1.3581464257489184,0.5046798000734465,0.2886152,0.5909793932502374
0.006500000000000001,1.79894375,1.0,773.8807211529316,0.07052465841108205,1.3564672627792373,0.5418006126567174,0.2886086375,0.5948057734906829
0.007,1.798775,1.0,864.2852299784377,0.07573828014955544,1.3548904043850203,0.57567664827866,0.28860155,0.5983826558527958
0.0075,1.79859375,1.0,953.2427309188721,0.08092265759195011,1.3534067866431299,0.6065097957540113,0.2885939375,0.6017335559776062
0.008,1.7984,1.0,1040.3427313984414,0.08607795430097614,1.352008877837813,0.6345320830240186,0.2885858,0.6048780290923585
0.0085,1.79819375,1.0,1125.3122839944178,0.09120433450018121,1.3506892690115966,0.6599843515410178,0.2885771375,0.6078349381381124
0.009000000000000001,1.797975,1.0,1207.9002017403816,0.09630196018909981,1.349442034761464,0.683104105307028,0.28856795,0.6106194653755351
0.0095,1.79774375,1.0,1287.8942859873523,0.10137099177328729,1.3482620962759384,0.7041173845906843,0.2885582375,0.6132446182955644
0.01,1.7975,1.0,1365.1678689932526,0.10641158965829908,1.3471443747435434,0.7232341509472584,0.288548,0.6157231603441145
0.0105,1.79724375,1.0,1439.6556529691165,0.11142391388860699,1.346083994525917,0.7406466192945906,0.2885372375,0.6180671834597735
0.011,1.796975,1.0,1511.316326988202,0.11640812331052826,1.3450766255577757,0.7565291037664701,0.28852595000000003,0.6202873804006972
0.0115,1.79669375,1.0,1580.1165245440438,0.12136437511868399,1.34411853667383,0.7710385809789981,0.2885141375,0.6223929614714985
0.012,1.7964,1.0,1646.0558957391013,0.12629282601440509,1.3432061780088373,0.784315547140535,0.28850180000000003,0.6243926000528262
0.0125,1.79609375,1.0,1709.1714130132511,0.13119363245160925,1.342336064218833,0.7964852947328912,0.2884889375,0.6262947038748696
0.013000000000000001,1.7957750000000001,1.0,1769.501390678951,0.1360669495106727,1.341505131046729,0.8076594761823606,0.28847555,0.628106650091698
0.0135,1.79544375,1.0,1827.0849008264001,0.1409129307832363,1.3407106687092516,0.8179374582195551,0.2884616375,0.6298349497056588
0.014,1.7951000000000001,1.0,1881.9849446432574,0.14573172955111197,1.3399500099913215,0.8274075280364124,0.2884472,0.6314859397541468
0.0145,1.79474375,1.0,1934.2825013172753,0.1505234988382424,1.3392205651634517,0.8361481518960024,0.2884322375,0.633065714828407
0.015,1.794375,1.0,1984.0583724167204,0.15528839097550723,1.3385199866198418,0.8442291615279028,0.28841675,0.6345797788868053
0.0155,1.79399375,1.0,2031.3743365329665,0.16002655556972128,1.3378463317240943,0.8517128095117728,0.2884007375,0.6360327045298892
0.016,1.7936,1.0,2076.3081562480907,0.16473814222769928,1.337197657839812,0.8586545308622042,0.2883842,0.6374290164137282
0.0165,1.7931937500000001,1.0,2118.9500827760176,0.16942330034556385,1.3365720443500426,0.865103757727522,0.2883671375,0.6387731472003602
0.017,1.792775,1.0,2159.3871590927924,0.17408217811371,1.335967738979386,0.8711046723353815,0.28834955,0.6400691274396657
0.0175,1.7923437500000001,1.0,2197.720173982894,0.17871492482398005,1.3353829667085981,0.8766967732508472,0.2883314375,0.6413210001330975
0.018000000000000002,1.7919,1.0,2234.0155086056047,0.18332168551894257,1.3348164043281394,0.8819155496778058,0.2883128,0.6425318092881884
0.0185,1.79144375,1.0,2268.347769956068,0.18790260524116603,1.334266728628471,0.8867928286254325,0.2882936375,0.6437045731250641
0.019,1.790975,1.0,2300.799110426273,0.19245782903321904,1.3337326164000536,0.8913571990990812,0.28827395,0.6448422855573173
0.0195,1.79049375,1.0,2331.4522160075835,0.1969875010851575,1.333212807083974,0.8956343981634529,0.2882537375,0.645947784423528
0.02,1.79,1.0,2360.3929561935033,0.20149176579025097,1.3327060690514034,0.8996476270016744,0.288233,0.6470238253072793
0.0205,1.78949375,1.0,2387.702367301671,0.20597076663446828,1.332211271436247,0.9034178507750759,0.2882117375,0.6480729309015056
0.021,1.788975,1.0,2413.4418567660896,0.21042464379416134,1.331727519682209,0.9069640737981594,0.28818995000000003,0.6490971067777095
0.021500000000000002,1.78844375,1.0,2437.676732254991,0.21485353744568209,1.3312539192329926,0.9103035041311768,0.2881676375,0.6500983450024936
0.022,1.7879,1.0,2460.4758794978893,0.2192575877653824,1.3307895755323027,0.913451748117003,0.2881448,0.6510786247422162
0.0225,1.78734375,1.0,2481.910391863389,0.2236369347453253,1.3303336041851173,0.9164229835497255,0.28812143749999997,0.652039891409663
0.023,1.786775,1.0,2502.0395824092316,0.22799171588779832,1.3298852608296636,0.91923013418986,0.28809755,0.6529837840795434
0.0235,1.78619375,1.0,2520.947863810682,0.2323220727946643,1.3294435871735126,0.921884936391035,0.28807313749999996,0.6539123816015567
0.024,1.7856,1.0,2538.6833903443057,0.236628140486881,1.3290079910312933,0.9243981628688126,0.2880482,0.6548269829003586
0.0245,1.78499375,1.0,2555.296141325686,0.24091005398540624,1.3285778802176342,0.9267796563494445,0.2880227375,0.6557288795653253
0.025,1.784375,1.0,2570.837771082533,0.24516794831119781,1.3281526625471647,0.9290384226076326,0.28799675,0.6566193560688989
0.025500000000000002,1.78374375,1.0,2585.3614667029788,0.24940195848521352,1.3277317458345135,0.9311827130660245,0.2879702375,0.6574996899625698
0.026000000000000002,1.7831000000000001,1.0,2598.91969715065,0.2536122189789726,1.3273145576090168,0.9332201012019259,0.2879432,0.658371110896727
0.0265,1.78244375,1.0,2611.5582134568367,0.2577988622288113,1.3269005994521494,0.9351575555484284,0.2879156375,0.6592346877481676
0.027,1.781775,1.0,2623.339184273332,0.26196202470822133,1.3264892305895255,0.937001465757398,0.28788755,0.6600917803222566
0.0275,1.7810937500000001,1.0,2634.2992449299604,0.266101836032814,1.3260800566384054,0.9387577515063961,0.2878589375,0.6609432291539996
0.028,1.7804,1.0,2644.475808708367,0.2702184258182008,1.3256726832160504,0.9404318713127648,0.2878298,0.6617898705575833
0.0285,1.77969375,1.0,2653.907000012231,0.27431192367999324,1.3252667159397213,0.9420288645100697,0.2878001375,0.6626325366766219
0.029,1.778975,1.0,2662.6315909862838,0.27838245923380267,1.3248617604266788,0.9435533888975981,0.28776995,0.6634720555244871
0.029500000000000002,1.7782437500000001,1.0,2670.68894158305,0.2824301620952405,1.324457422294184,0.9450097545560417,0.2877392375,0.6643092510147115
0.03,1.7775,1.0,2678.1088915341925,0.2864551575584716,1.3240533993966008,0.9464019650845539,0.287708,0.6651447523581222
0.0305,1.77674375,1.0,2684.935893811549,0.2904575786265998,1.3236492595754548,0.9477337188666933,0.2876762375,0.6659794540059308
0.031,1.775975,1.0,2691.2030764240644,0.2944375526309016,1.3232446784997631,0.9490084613307195,0.28764395,0.6668140236657678
0.0315,1.7751937500000001,1.0,2696.935929829968,0.2983952031964381,1.322839404906355,0.9502294022951827,0.2876111375,0.6676489752541792
0.032,1.7744,1.0,2702.160230176386,0.3023306539482707,1.3224331875320583,0.9513995276020429,0.2875778,0.668484820082642
0.0325,1.77359375,1.0,2706.9020124086232,0.3062440285114606,1.322025775113702,0.952521617488481,0.2875439375,0.66932206684445
0.033,1.772775,1.0,2711.187544778901,0.3101354505110692,1.3216169163881142,0.9535982632403625,0.28750955,0.670161221597579
0.0335,1.7719437500000002,1.0,2715.0433047556776,0.31400504357215775,1.3212063600921238,0.954631882306427,0.2874746375,0.6710027877435234
0.034,1.7711000000000001,1.0,2718.495956331707,0.3178529313197875,1.3207938549625589,0.9556247320318566,0.2874392,0.6718472660021071
0.0345,1.7702437500000001,1.0,2721.5615923546,0.32167923202761733,1.320379247467995,0.9565789315149458,0.2874032375,0.6726949546933714
0.035,1.7693750000000001,1.0,2724.2697753905486,0.32548407274352037,1.3199622626525385,0.9574964520496326,0.28736675,0.6735463982087628
0.035500000000000004,1.76849375,1.0,2726.6451089705324,0.32926757569384574,1.3195426718899124,0.9583791429299796,0.2873297375,0.6744020434995402
0.036000000000000004,1.7676,1.0,2728.7034271083367,0.33302985802411733,1.3191203272628758,0.9592287441190479,0.2872922,0.6752621706876119
0.0365,1.76669375,1.0,2730.460645917763,0.3367710368798591,1.318695080854188,0.9600468872526268,0.2872541375,0.676127058161169
0.037,1.765775,1.0,2731.9327543727086,0.3404912294065951,1.3182667847466085,0.9608351036031373,0.28721555,0.6769969825480101
0.0375,1.76484375,1.0,2733.135805553093,0.3441905527498492,1.3178352910228963,0.9615948313725443,0.2871764375,0.6778722186874707
0.038,1.7639,1.0,2734.085908375073,0.34786912405514553,1.3174004517658109,0.9623274223776046,0.28713679999999997,0.678753039600954
0.0385,1.76294375,1.0,2734.7992198070456,0.35152706046800786,1.3169621190581111,0.9630341481841969,0.28709663750000003,0.6796397164610708
0.039,1.761975,1.0,2735.2919375700644,0.35516447913396026,1.3165201449825568,0.963716205741652,0.28705595,0.680532518559379
0.0395,1.7609937500000001,1.0,2735.5727233377415,0.3587814915096555,1.31607445035376,0.9643747277429275,0.2870147375,0.6814315747243893
0.04,1.76,1.0,2735.6603800747653,0.36237821839114015,1.315624864155805,0.9650107754086754,0.286973,0.68233719747012
0.0405,1.7589937500000001,1.0,2735.5687586233685,0.3659547744392861,1.315171260545054,0.9656253526320789,0.2869307375,0.683249606270541
0.041,1.757975,1.0,2735.3072165318085,0.3695112704345692,1.3147135546369744,0.9662194098726818,0.28688795,0.6841689366318882
0.0415,1.75694375,1.0,2734.885125990586,0.3730478171574654,1.3142516615470339,0.9667938448701227,0.2868446375,0.6850953227516852
0.042,1.7559,1.0,2734.3118710086874,0.37656452538845037,1.3137854963907,0.9673495061091352,0.28680079999999997,0.6860288974963072
0.0425,1.75484375,1.0,2733.596844749783,0.38006150590800014,1.3133149742834402,0.9678871960225263,0.2867564375,0.6869697923780842
0.043000000000000003,1.753775,1.0,2732.749447027191,0.38353886949659055,1.3128400103407225,0.9684076739544097,0.28671155,0.6879181375319409
0.043500000000000004,1.75269375,1.0,2731.779081960239,0.3869967269346974,1.3123605196780141,0.9689116589038899,0.28666613750000003,0.6888740616915847
0.044,1.7516,1.0,2730.6951557886396,0.39043518900279656,1.3118764174107829,0.9693998320674999,0.2866202,0.6898376921652268
0.0445,1.75049375,1.0,2729.4997015284225,0.39385435441376226,1.3113876856751436,0.9698728426258005,0.2865737375,0.6908090217151721
0.045,1.7493750000000001,1.0,2728.208847464092,0.3972543462185562,1.3108941785035422,0.970331300061957,0.28652675,0.6917882964687745
0.0455,1.74824375,1.0,2726.830866829429,0.40063527415578026,1.3103958212759068,0.9707757862565752,0.2864792375,0.6927756190511969
0.046,1.7471,1.0,2725.3704781958563,0.40399724200674475,1.309892571672493,0.9712068553116172,0.2864312,0.6937710268565332
0.0465,1.7459437500000001,1.0,2723.8323990637846,0.40734035355275994,1.3093843873735567,0.9716250336649234,0.28638263750000004,0.6947745562802584
0.047,1.744775,1.0,2722.2213451765283,0.41066471257513615,1.308871226059354,0.9720308217307634,0.28633355,0.6957862427059676
0.0475,1.74359375,1.0,2720.542029873697,0.4139704228551837,1.3083530454101406,0.9724246954281364,0.28628393750000003,0.6968061204920017
0.048,1.7424,1.0,2718.799163483512,0.4172575881742128,1.3078298031061726,0.9728071076054854,0.2862338,0.6978342229579562
0.0485,1.74119375,1.0,2716.9974527563036,0.4205263123135339,1.3073014568277057,0.9731784893697428,0.2861831375,0.698870582371077
0.049,1.739975,1.0,2715.1416003360137,0.42377669905445714,1.3067679642549956,0.9735392513269611,0.28613195,0.6999152299325437
0.0495,1.73874375,1.0,2713.2363042728143,0.42700885217829293,1.3062292830682984,0.973889784741163,0.2860802375,0.7009681957636351
0.05,1.7375,1.0,2711.286257574816,0.4302228754663515,1.30568537094787,0.9742304626175005,0.286028,0.702029508891783
0.0505,1.73624375,1.0,2709.2961477992476,0.43341887269994317,1.3051361855739663,0.9745616407153042,0.2859752375,0.7030991972365115
0.051000000000000004,1.734975,1.0,2707.2699820306702,0.43659692528376914,1.3045816907843115,0.97488365639957,0.28592195,0.7041772756344709
0.051500000000000004,1.73369375,1.0,2705.214826431527,0.4397571639322301,1.3040218224394553,0.9751968353912293,0.2858681375,0.7052638121192357
0.052000000000000005,1.7324,1.0,2703.132837727745,0.4428996849197578,1.30345656114976,0.9755014878255613,0.2858138,0.7063587866554911
0.0525,1.73109375,1.0,2701.0261491232727,0.4460245842819593,1.3028858877147176,0.9757979100199772,0.28575893750000003,0.7074621780078683
0.053,1.729775,1.0,2698.896890926408,0.4491319580544419,1.3023097829338206,0.9760863852197248,0.28570355000000003,0.7085739641023797
0.0535,1.72844375,1.0,2696.74719045505,0.45222190227281267,1.301728227606561,0.9763671842841246,0.2856476375,0.7096941220197812
0.054,1.7271,1.0,2694.5791719496965,0.4552945129726788,1.3011412025324312,0.9766405663311193,0.2855912,0.7108226279889072
0.0545,1.7257437500000001,1.0,2692.394956494489,0.4583498861896474,1.3005486885109232,0.976906779343003,0.2855342375,0.7119594573799874
0.055,1.724375,1.0,2690.1966619467876,0.4613881179593256,1.2999506663415294,0.9771660607359695,0.28547675,0.7131045846979351
0.0555,1.72299375,1.0,2687.9864028747206,0.4644093043173206,1.2993471168237423,0.9774186378959308,0.2854187375,0.7142579835756149
0.056,1.7216,1.0,2685.766290502919,0.46741354129923945,1.2987380207570536,0.9776647286828617,0.2853602,0.7154196267670863
0.0565,1.72019375,1.0,2683.538432666606,0.4704009249406894,1.2981233589409558,0.9779045419057638,0.28530113749999997,0.7165894861408229
0.057,1.718775,1.0,2681.3049337735097,0.4733715512772776,1.2975031121749412,0.9781382777701866,0.28524155,0.7177675326729094
0.0575,1.71734375,1.0,2679.067894774116,0.4763255163446111,1.2968772612585018,0.978366128300101,0.2851814375,0.7189537364402145
0.058,1.7159,1.0,2676.826095797157,0.47926288405250483,1.296245817439746,0.9785882766531256,0.2851208,0.7201480090862777
0.0585,1.71444375,1.0,2674.581909406092,0.4821837632163331,1.2956087589983447,0.9788049007005533,0.2850596375,0.7213503239906204
0.059000000000000004,1.7129750000000001,1.0,2672.339882016033,0.48508828146453137,1.294966044207903,0.9790161716723914,0.28499795,0.7225606912128235
0.059500000000000004,1.71149375,1.0,2670.1006008475724,0.4879765254896107,1.2943176676576822,0.9792222525471656,0.2849357375,0.7237790513537696
0.06,1.71,1.0,2667.8646521352675,0.4908485819840822,1.2936636239369435,0.9794232999240992,0.284873,0.7250053443119306
0.0605,1.7084937500000001,1.0,2665.632621130343,0.49370453764045713,1.2930039076349482,0.9796194643202778,0.2848097375,0.7262395092814118
0.061,1.7069750000000001,1.0,2663.405092103399,0.49654447915124655,1.2923385133409582,0.9798108904517531,0.28474595,0.727481484749995
0.0615,1.7054437500000001,1.0,2661.1826483479886,0.49936849320896154,1.2916674356442341,0.979997717499572,0.2846816375,0.7287312084971829
0.062,1.7039,1.0,2658.9658721854034,0.5021766665061133,1.2909906691340378,0.9801800793616465,0.2846168,0.7299886175922352
0.0625,1.70234375,1.0,2656.7553449688066,0.5049690857352129,1.2903082083996305,0.9803581048913181,0.2845514375,0.731253648392209
0.063,1.7007750000000001,1.0,2654.5516470893444,0.5077458375887716,1.2896200480302733,0.9805319181234142,0.28448555,0.7325262365399943
0.0635,1.69919375,1.0,2652.355357982293,0.5105070087593003,1.288926182615228,0.9807016384885401,0.28441913750000003,0.7338063169623465
0.064,1.6976,1.0,2650.1670561334945,0.5132526859393103,1.2882266067437558,0.9808673810163002,0.2843522,0.7350938238679221
0.0645,1.69599375,1.0,2647.987319087581,0.5159829558213127,1.287521315005118,0.9810292565280975,0.2842847375,0.7363886907453054
0.065,1.694375,1.0,2645.8167234555153,0.5186979050978185,1.286810301988576,0.9811873718201183,0.28421675,0.7376908503610391
0.0655,1.69274375,1.0,2643.6558449236877,0.5213976204613391,1.286093562283391,0.9813418298370652,0.2841482375,0.7390002347576516
0.066,1.6911,1.0,2641.505258263214,0.5240821886043854,1.2853710904788245,0.9814927298371773,0.2840792,0.7403167752516792
0.0665,1.6894437500000001,1.0,2639.3655373404235,0.5267516962194685,1.2846428811641377,0.9816401675490211,0.2840096375,0.7416404024316919
0.067,1.687775,1.0,2637.237255126841,0.5294062299990997,1.2839089289285923,0.9817842353205306,0.28393955,0.7429710461563123
0.0675,1.68609375,1.0,2635.120983711558,0.5320458766357901,1.2831692283614493,0.9819250222607213,0.2838689375,0.7443086355522366
0.068,1.6844000000000001,1.0,2633.017294312541,0.5346707228220507,1.2824237740519704,0.9820626143744933,0.2837978,0.74565309901225
0.0685,1.68269375,1.0,2630.9278861348353,0.537280807215101,1.2816725501381878,0.9821970910809512,0.2837261375,0.7470043829676343
0.069,1.680975,1.0,2628.8505555798192,0.5398762597267677,1.2809155768815395,0.9823285366558582,0.28365395,0.7483623681929589
0.0695,1.67924375,1.0,2626.784735186639,0.542457173972568,1.2801528594163973,0.9824570294625011,0.28358123749999997,0.749726962247501
0.07,1.6775,1.0,2624.7304162284345,0.5450236269793598,1.2793843977067885,0.9825826439261872,0.283508,0.7510980813712215
0.07050000000000001,1.67574375,1.0,2622.6875900374603,0.547575695774001,1.2786101917167398,0.9827054519739806,0.2834342375,0.752475641172071
0.07100000000000001,1.673975,1.0,2620.656248005133,0.5501134573833495,1.2778302414102787,0.9828255231338858,0.28335995,0.7538595566259767
0.07150000000000001,1.67219375,1.0,2618.6363815823975,0.5526369888342629,1.277044546751432,0.9829429246294386,0.2832851375,0.7552497420768292
0.07200000000000001,1.6704,1.0,2616.6279822796164,0.5551463671535993,1.2762531077042272,0.9830577214699526,0.2832098,0.756646111236469
0.0725,1.66859375,1.0,2614.631041666646,0.5576416693682164,1.275455924232691,0.9831699765366402,0.2831339375,0.7580485771846747
0.073,1.6667750000000001,1.0,2612.645551372982,0.560122972504972,1.2746529963008508,0.9832797506648288,0.28305755,0.7594570523691481
0.0735,1.66494375,1.0,2610.6715030878695,0.5625903535907242,1.2738443238727337,0.9833871027224707,0.2829806375,0.7608714486055017
0.074,1.6631,1.0,2608.7088885601256,0.5650438896523307,1.2730299069123665,0.9834920896851336,0.2829032,0.7622916770772464
0.0745,1.6612437500000001,1.0,2606.7576995984755,0.5674836577166492,1.2722097453837768,0.9835947667076572,0.2828252375,0.7637176483357762
0.075,1.659375,1.0,2604.817928071826,0.5699097348105377,1.2713838392509913,0.9836951871926387,0.28274675,0.7651492723003575
0.0755,1.65749375,1.0,2602.889565908731,0.572322197960854,1.2705521884780373,0.9837934028559088,0.2826677375,0.7665864582581141
