Time [s],Phi [rad],STIM [ ],Fsee [N],Gamma [ ],Lcerel [ ],q [ ],Lmtc [m],fisomrel [ ]
0.0,1.8,1.0,18.005033832479146,0.00019728567747019044,1.3793355051125191,0.005010131838234337,0.288653,0.541149791329815
0.0005,1.79999375,1.0,18.375562750705168,0.005805388369671189,1.379291425763436,0.013468629751211932,0.2886527375,0.5412564232855224
0.001,1.799975,1.0,21.85627989830169,0.011382034039805956,1.3789140707804919,0.036591188068290134,0.28865195,0.5421687722084069
0.0015,1.79994375,1.0,31.60705535202746,0.01692739913786493,1.37800057996104,0.07194240846096371,0.2886506375,0.5443736018785632
0.002,1.7999,1.0,54.71716330099629,0.02244165912200299,1.376294899004214,0.1163028730374416,0.2886488,0.5484762403807664
0.0025,1.79984375,1.0,99.00612316263611,0.02792498846720298,1.3738446658274537,0.16629731470189058,0.28864643749999996,0.5543372634960444
0.003,1.7997750000000001,1.0,163.40075028308544,0.03337756067138316,1.3711232597874639,0.21905628414366865,0.28864354999999997,0.5608020600916028
0.0035,1.79969375,1.0,240.4359944044671,0.03879954825635043,1.3685001890149207,0.2723783856800243,0.2886401375,0.5669885545152034
0.004,1.7996,1.0,324.3911137653499,0.04419112277813743,1.3660788130870392,0.3246247462840248,0.2886362,0.5726604037269919
0.0045000000000000005,1.7994937500000001,1.0,412.2931345392682,0.049552454832331595,1.3638519276386507,0.37465637056834794,0.2886317375,0.5778436694950195
0.005,1.799375,1.0,502.49831182303194,0.054883714045944186,1.3617928913551158,0.4217645826561368,0.28862675,0.582608111495234
0.0055,1.79924375,1.0,593.9007039363348,0.06018506911601092,1.3598781473461272,0.4655781549268141,0.2886212375,0.587014410276528
0.006,1.7991000000000001,1.0,685.6296216158045,0.06545668777497146,1.3580899200327263,0.5059705553970731,0.2886152,0.5911084476114659
0.006500000000000001,1.79894375,1.0,776.9719145097636,0.07069873680841286,1.3564145466520958,0.5429807483454294,0.2886086375,0.5949256088481538
0.007,1.798775,1.0,867.3378057748874,0.07591138212816011,1.3548411389498065,0.5767520911972379,0.28860155,0.5984941521326662
0.0075,1.79859375,1.0,956.2382046885901,0.08109478853768433,1.3533607492877993,0.6074879457373928,0.2885939375,0.6018373114246336
0.008,1.7984,1.0,1043.2945390548446,0.08624912029071125,1.3519654488726345,0.6354206750891226,0.2885858,0.6049755191322861
0.0085,1.79819375,1.0,1128.1852416529798,0.0913745402170585,1.35064862438418,0.6607916296718672,0.2885771375,0.6079258361526858
0.009000000000000001,1.797975,1.0,1210.6676284048428,0.09647121047789282,1.3494042428000859,0.6838379370925728,0.28856795,0.6107036833969983
0.0095,1.79774375,1.0,1290.5803335621717,0.1015392927421136,1.3482265712253618,0.7047847912591081,0.2885582375,0.6133235175147578
0.01,1.7975,1.0,1367.7807133404003,0.1065789469032211,1.3471108086938142,0.7238417455873729,0.288548,0.6157974696681325
0.0105,1.79724375,1.0,1442.1820605208395,0.11159033232760562,1.3460523884143942,0.7412005699799264,0.2885372375,0.6181369402828228
0.011,1.796975,1.0,1513.7523475807038,0.11657360824123418,1.345046880436283,0.7570349246967246,0.28852595000000003,0.6203528389706296
0.0115,1.79669375,1.0,1582.4651091763533,0.12152893202749047,1.3440904895876868,0.7715011857281565,0.2885141375,0.6224545120386032
0.012,1.7964,1.0,1648.3153837712389,0.12645646002589367,1.3431797401563401,0.7847393543180913,0.28850180000000003,0.6244504653897541
0.0125,1.79609375,1.0,1711.3310357028586,0.1313563481211275,1.3423112651527234,0.7968742876198883,0.2884889375,0.6263488448646107
0.013000000000000001,1.7957750000000001,1.0,1771.5697586621748,0.13622875231427728,1.341481787713239,0.8080171120754341,0.28847555,0.6281574893500331
0.0135,1.79544375,1.0,1829.0779531862931,0.1410738265207275,1.3406885322409243,0.8182667840366834,0.2884616375,0.629883048467872
0.014,1.7951000000000001,1.0,1883.902805994213,0.1458917232715879,1.3399290212733557,0.8277113200860994,0.2884472,0.631531442908605
0.0145,1.79474375,1.0,1936.1155469510693,0.1506825950979682,1.3392007773481083,0.8364289166700916,0.2884322375,0.6331085224695124
0.015,1.794375,1.0,1985.790548026949,0.15544659352563756,1.3385015234053144,0.8444891505775304,0.28841675,0.6346196385595708
0.0155,1.79399375,1.0,2033.0308614361056,0.16018387078136836,1.337828881465986,0.8519538870827813,0.2884007375,0.6360703024471964
0.016,1.7936,1.0,2077.905262734898,0.1648945758122717,1.3371810163633369,0.8588783913941117,0.2883842,0.6374648029470253
0.0165,1.7931937500000001,1.0,2120.4865079754936,0.16957885697594796,1.3365561968875472,0.8653119696232131,0.2883671375,0.6388071630631076
0.017,1.792775,1.0,2160.85983157991,0.17423686262999744,1.3359526918287976,0.8712986434307357,0.28834955,0.640101367515896
0.0175,1.7923437500000001,1.0,2199.1104667653926,0.17886874010232218,1.335368885537333,0.8768778060373117,0.2883314375,0.6413511180275744
0.018000000000000002,1.7919,1.0,2235.335730677119,0.18347463752836962,1.3348031417753243,0.8820847295378644,0.2883128,0.6425601283717222
0.0185,1.79144375,1.0,2269.610891970205,0.18805469993176754,1.3342541359702393,0.8869511293648921,0.2882936375,0.6437314176874642
0.019,1.790975,1.0,2302.0085951979804,0.19260907132023902,1.3337206437202327,0.8915055202532333,0.28827395,0.6448677677134997
0.0195,1.79049375,1.0,2332.608075239959,0.1971378957015071,1.3332014406234598,0.8957735584956522,0.2882537375,0.6459719386685301
0.02,1.79,1.0,2361.4904792438156,0.2016413164602328,1.3326953425424892,0.8997783753809877,0.288233,0.6470465849825757
0.0205,1.78949375,1.0,2388.7355386379418,0.2061194766767064,1.3322012316917815,0.9035408664384763,0.2882117375,0.6480942017297937
0.021,1.788975,1.0,2414.4248657166063,0.2105725196646628,1.3317180184000807,0.9070799306898085,0.28818995000000003,0.6491172074895526
0.021500000000000002,1.78844375,1.0,2438.6181724753114,0.21500058469676825,1.3312448650317115,0.910412733850046,0.2881676375,0.6501174725450359
0.022,1.7879,1.0,2461.3786039936713,0.21940381104568896,1.3307809339509986,0.9135548443508585,0.2881448,0.6510968550207433
0.0225,1.78734375,1.0,2482.772454544361,0.2237823379840913,1.330325387522267,0.9165204040521759,0.28812143749999997,0.6520572013975261
0.023,1.786775,1.0,2502.8688992578686,0.22813630478464153,1.3298773881098416,0.919322278722653,0.28809755,0.6530003469828729
0.0235,1.78619375,1.0,2521.7256611871026,0.2324658476194719,1.3294362312293286,0.9219722141411871,0.28807313749999996,0.653927836586149
0.024,1.7856,1.0,2539.4198939136836,0.2367711079379803,1.3290010499605927,0.9244809009244271,0.2880482,0.6548415469541697
0.0245,1.78499375,1.0,2555.9997417824397,0.2410522201980704,1.3285712708032913,0.9268581567369283,0.2880227375,0.6557427296004791
0.025,1.784375,1.0,2571.513170724562,0.2453093184317955,1.328146337229415,0.929112967492572,0.28799675,0.656632593631757
0.025500000000000002,1.78374375,1.0,2586.0096234017465,0.2495425366712089,1.3277256927109546,0.9312535666731858,0.2879702375,0.6575123416362403
0.026000000000000002,1.7831000000000001,1.0,2599.5398931939144,0.253752008948364,1.3273087807198998,0.9332875085530128,0.2879432,0.6583831698458309
0.0265,1.78244375,1.0,2612.1560050534254,0.25793786929531415,1.3268950447282413,0.9352217334036498,0.2879156375,0.6592462682784476
0.027,1.781775,1.0,2623.900269323164,0.2621002479785971,1.3264840286460133,0.937062639561514,0.28788755,0.6601026117317257
0.0275,1.7810937500000001,1.0,2634.830545922186,0.26623928197022406,1.3260751410721385,0.9388161025099567,0.2878589375,0.6609534514502071
0.028,1.7804,1.0,2644.9855824695924,0.27035510143082603,1.3256679758916463,0.9404875651974576,0.2878298,0.6617996475721878
0.0285,1.77969375,1.0,2654.399778109976,0.27444783467536593,1.3252621736402228,0.9420820587841712,0.2878001375,0.6626419591799667
0.029,1.778975,1.0,2663.1081469953056,0.2785176100188069,1.3248573748535544,0.9436042336234793,0.28776995,0.6634811415920194
0.029500000000000002,1.7782437500000001,1.0,2671.1462638638222,0.28256455577611206,1.3244532200673271,0.9450583930009766,0.2877392375,0.6643179463901231
0.03,1.7775,1.0,2678.5502124837267,0.28658880026224426,1.3240493498172272,0.9464485234811705,0.287708,0.6651531214382408
0.0305,1.77674375,1.0,2685.3565369620364,0.2905904717921667,1.3236454046389408,0.947778322239909,0.2876762375,0.6659874108931643
0.031,1.775975,1.0,2691.588532060008,0.29456969315096077,1.3232411501389265,0.949051235874984,0.28764395,0.666821297375204
0.0315,1.7751937500000001,1.0,2697.2900193046876,0.29852659695324085,1.3228361671003308,0.950270447363664,0.2876111375,0.6676556416197936
0.032,1.7744,1.0,2702.494559890773,0.3024613101465107,1.3224301333608863,0.9514389279871651,0.2875778,0.6684911004492381
0.0325,1.77359375,1.0,2707.224419163172,0.3063739545749006,1.3220228324386225,0.9525594557200314,0.2875439375,0.669328110294027
0.033,1.772775,1.0,2711.502077176058,0.310264652082541,1.3216140478515688,0.9536346197838761,0.28750955,0.6701671053078089
0.0335,1.7719437500000002,1.0,2715.350208199301,0.31413352451356236,1.3212035631177543,0.9546668357409344,0.2874746375,0.6710085173484018
0.034,1.7711000000000001,1.0,2718.7916612639015,0.31798069371209503,1.3207911617552084,0.955658359209592,0.2874392,0.6718527759558155
0.0345,1.7702437500000001,1.0,2721.8494417464362,0.3218062815222694,1.3203766272819601,0.9566112983422745,0.2874032375,0.6727003083272831
0.035,1.7693750000000001,1.0,2724.546693992697,0.32561040978821587,1.319959743216039,0.95752762519039,0.28736675,0.673551539289306
0.035500000000000004,1.76849375,1.0,2726.9066849804462,0.32939320035406494,1.3195402930754743,0.9584091860672458,0.2873297375,0.6744068912667093
0.036000000000000004,1.7676,1.0,2728.9431004393437,0.3331547690220871,1.319118148452747,0.9592577187101647,0.2872922,0.6752666050002887
0.0365,1.76669375,1.0,2730.683215008783,0.3368952417371356,1.3186930581823884,0.9600748425377963,0.2872541375,0.6761311692166991
0.037,1.765775,1.0,2732.1455686684913,0.3406147372982216,1.3182648512442052,0.9608620838331636,0.28721555,0.6770009070870662
0.0375,1.76484375,1.0,2733.3436332548745,0.3443133709619617,1.3178334032404149,0.9616208799613378,0.2871764375,0.6778760452315556
0.038,1.7639,1.0,2734.290932414969,0.3479912579849725,1.3173985897732345,0.9623525819805812,0.28713679999999997,0.6787568087052359
0.0385,1.76294375,1.0,2735.0010351475903,0.35164851362387056,1.316960286444881,0.9630584607691045,0.28709663750000003,0.6796434209718717
0.039,1.761975,1.0,2735.487549686747,0.3552852531352725,1.316518368857572,0.9637397126527077,0.28705595,0.6805361038767286
0.0395,1.7609937500000001,1.0,2735.76411772925,0.35890159177579495,1.3160727126135243,0.9643974645789188,0.2870147375,0.6814350776183944
0.04,1.76,1.0,2735.8444090046237,0.36249764480205443,1.315623193314955,0.9650327788786432,0.286973,0.6823405607196129
0.0405,1.7589937500000001,1.0,2735.7421161882576,0.3660735274706677,1.3151696865640814,0.9656466576522464,0.2869307375,0.683252769997126
0.041,1.757975,1.0,2735.460372987115,0.36962934334364683,1.314712164000713,0.9662400530771091,0.28688795,0.6841717277741977
0.0415,1.75694375,1.0,2735.0231062822813,0.37316522051230605,1.3142504086095144,0.9668138526723011,0.2868446375,0.6850978338289326
0.042,1.7559,1.0,2734.4405549307357,0.3766812703613754,1.3137843277458936,0.967368902882073,0.28680079999999997,0.6860312361640868
0.0425,1.75484375,1.0,2733.720283457532,0.3801776011555464,1.3133138531259838,0.9679060057312354,0.2867564375,0.6869720326509867
0.043000000000000003,1.753775,1.0,2732.8698632313653,0.38365432115951037,1.3128389164659178,0.9684259202014055,0.28671155,0.6879203199758627
0.043500000000000004,1.75269375,1.0,2731.896870622607,0.387111538637959,1.3123594494818283,0.9689293649704782,0.28666613750000003,0.688876193620565
0.044,1.7516,1.0,2730.8088852629126,0.3905493618555835,1.3118753838898485,0.9694170209513102,0.2866202,0.6898397478429836
0.0445,1.75049375,1.0,2729.613488409953,0.3939678990770755,1.3113866514061108,0.96988953364618,0.2865737375,0.6908110756571724
0.045,1.7493750000000001,1.0,2728.318261413976,0.3973672585671264,1.3108931837467486,0.9703475153320819,0.28652675,0.6917902688131711
0.0455,1.74824375,1.0,2726.9307842887,0.4007475485904277,1.3103949126278942,0.9707915470905457,0.2864792375,0.6927774177765368
0.046,1.7471,1.0,2725.4586343854257,0.40410887741167084,1.3098917697656811,0.9712221806944447,0.2864312,0.6937726117075704
0.0465,1.7459437500000001,1.0,2723.9093851702933,0.40745135329554727,1.3093836868762418,0.9716399403631487,0.28638263750000004,0.6947759384402536
0.047,1.744775,1.0,2722.284037943654,0.41077506947046694,1.3088706554477503,0.9720453267451581,0.28633355,0.6957873667196337
0.0475,1.74359375,1.0,2720.5953828919696,0.41408014991070263,1.3083525596559875,0.9724388123247136,0.28628393750000003,0.6968070757449001
0.048,1.7424,1.0,2718.8483671852473,0.4173666988168382,1.307829354985864,0.972820849149248,0.2862338,0.6978351027072289
0.0485,1.74119375,1.0,2717.0465609792723,0.4206348170192746,1.3073010094286952,0.9731918680238706,0.2861831375,0.6988714591967633
0.049,1.739975,1.0,2715.1935315358364,0.4238846053484129,1.3067674909757978,0.973552279284636,0.28613195,0.6999161558686665
0.0495,1.73874375,1.0,2713.292842876487,0.42711616463465407,1.3062287676184878,0.9739024739547528,0.2860802375,0.7009692024325962
0.05,1.7375,1.0,2711.3480554587904,0.43032959570839935,1.3056848073480816,0.9742428248253475,0.286028,0.7020306076421119
0.0505,1.73624375,1.0,2709.3627258748556,0.43352499940004957,1.305135578155895,0.97457368746634,0.2859752375,0.7031003792840167
0.051000000000000004,1.734975,1.0,2707.3404065734912,0.43670247654000593,1.3045810480332445,0.9748954011725386,0.28592195,0.7041785241676353
0.051500000000000004,1.73369375,1.0,2705.284645604225,0.43986212795866936,1.304021184971446,0.9752082898496409,0.2858681375,0.7052650481140237
0.052000000000000005,1.7324,1.0,2703.1989863842355,0.443004054486441,1.303455956961816,0.975512662844456,0.2858138,0.7063599559451162
0.0525,1.73109375,1.0,2701.0869674886276,0.4461283569537217,1.3028853319956706,0.9758088157233143,0.28575893750000003,0.7074632514728074
0.053,1.729775,1.0,2698.9521224623663,0.44923513619091276,1.3023092780643257,0.9760970310023227,0.28570355000000003,0.7085749374879662
0.0535,1.72844375,1.0,2696.7934108021786,0.4523244701557055,1.3017278049393068,0.9763775790907996,0.2856476375,0.709694935352384
0.054,1.7271,1.0,2694.6186549055815,0.4553964824434578,1.3011408413305765,0.9766507183302143,0.2855912,0.7108233216923232
0.0545,1.7257437500000001,1.0,2692.4310999128697,0.45845127521643786,1.3005483577259584,0.9769166963102707,0.2855342375,0.7119600914165476
0.055,1.724375,1.0,2690.232102002281,0.4614889412434303,1.2999503418612357,0.9771757501856119,0.28547675,0.7131052054123974
0.0555,1.72299375,1.0,2688.0230152541158,0.4645095732932198,1.299346781472191,0.97742810710406,0.2854187375,0.7142586237954092
0.056,1.7216,1.0,2685.8051916212103,0.46751326413459093,1.298737664294608,0.9776739847092486,0.2853602,0.7154203059049811
0.0565,1.72019375,1.0,2683.5799809038635,0.4705001065363284,1.2981229780642691,0.9779135916140149,0.28530113749999997,0.7165902103000361
0.057,1.718775,1.0,2681.348730727081,0.47347019326721684,1.2975027105169574,0.9781471278464784,0.28524155,0.7177682947546666
0.0575,1.71734375,1.0,2679.1127865213866,0.47642361709604086,1.296876849388456,0.9783747852705831,0.2851814375,0.7189545162537757
0.058,1.7159,1.0,2676.8734915075156,0.47936047079158517,1.2962453824145477,0.9785967479827673,0.2851208,0.7201488309887067
0.0585,1.71444375,1.0,2674.632186683998,0.48228084712263436,1.2956082973310155,0.9788131926862894,0.2850596375,0.7213511943528634
0.059000000000000004,1.7129750000000001,1.0,2672.3902108177717,0.4851848388579731,1.2949655818736425,0.9790242890446367,0.28499795,0.7225615609373198
0.059500000000000004,1.71149375,1.0,2670.1489004390514,0.488072538766386,1.2943172237782115,0.9792302000153421,0.2849357375,0.7237798845264228
0.06,1.71,1.0,2667.909589838452,0.4909440396166578,1.2936632107805057,0.9794310821654372,0.284873,0.7250061180933809
0.0605,1.7084937500000001,1.0,2665.67361106836,0.493799434177573,1.293003530616308,0.9796270859696887,0.2848097375,0.7262402137958492
0.061,1.7069750000000001,1.0,2663.4422939469923,0.49663881521791636,1.2923381710214012,0.9798183560926816,0.28474595,0.7274821229714986
0.0615,1.7054437500000001,1.0,2661.212676156149,0.4994622390169798,1.2916671592223365,0.9800050308905367,0.2846816375,0.7287317226759318
0.062,1.7039,1.0,2658.9901394597937,0.5022698341746951,1.290990445647686,0.9801872450699558,0.2846168,0.7299890323397995
0.0625,1.70234375,1.0,2656.7764135293587,0.5050616977488906,1.2903080142906627,0.9803651275388017,0.2845514375,0.7312540077761875
0.063,1.7007750000000001,1.0,2654.5716993473043,0.5078379136785413,1.2896198632080242,0.9805388021111818,0.28448555,0.7325265779188945
0.0635,1.69919375,1.0,2652.3761975823027,0.5105985659026213,1.2889259904565291,0.9807083880117453,0.28441913750000003,0.7338066710418165
0.064,1.6976,1.0,2650.1901085923314,0.5133437383601056,1.288226394092935,0.9808740000779832,0.2843522,0.7350942147582401
0.0645,1.69599375,1.0,2648.0136324284013,0.5160735149899686,1.2875210721739998,0.9810357489521747,0.2842847375,0.7363891360201327
0.065,1.694375,1.0,2645.8469688375867,0.518787979731185,1.2868100227564818,0.9811937412635702,0.28421675,0.7376913611174312
0.0655,1.69274375,1.0,2643.6903172667608,0.5214872165227292,1.2860932438971386,0.9813480798013863,0.2841482375,0.7390008156773353
0.066,1.6911,1.0,2641.5438768660533,0.524171309303576,1.2853707336527285,0.9814988636791282,0.2840792,0.7403174246635954
0.0665,1.6894437500000001,1.0,2639.4078464927843,0.5268403420127,1.284642490080009,0.9816461884907395,0.2840096375,0.7416411123758033
0.067,1.687775,1.0,2637.282424714669,0.5294943985890758,1.2839085112357387,0.9817901464590388,0.28393955,0.7429718024486813
0.0675,1.68609375,1.0,2635.1678098144043,0.5321335629716778,1.283168795176675,0.9819308265768731,0.2838689375,0.7443094178513721
0.068,1.6844000000000001,1.0,2633.0641997929442,0.5347579190994808,1.2824233399595764,0.9820683147413969,0.2837978,0.7456538808867269
0.0685,1.68269375,1.0,2630.9717923738326,0.5373675509114593,1.2816721436412004,0.9822026938818547,0.2837261375,0.7470051131905961
0.069,1.680975,1.0,2628.89078500739,0.5399625423465879,1.280915204278305,0.9823340440812253,0.28365395,0.7483630357311166
0.0695,1.67924375,1.0,2626.821374874409,0.5425429773438414,1.2801525199276484,0.9824624426920613,0.28358123749999997,0.7497275688079992
0.07,1.6775,1.0,2624.7637588910193,0.5451089398421941,1.2793840886459886,0.9825879644468385,0.283508,0.7510986320518188
0.07050000000000001,1.67574375,1.0,2622.7181337126503,0.5476605137806208,1.2786099084900833,0.9827106815631121,0.2834342375,0.7524761444233018
0.07100000000000001,1.673975,1.0,2620.68574391551,0.5501977385509013,1.27782996779337,0.9828306606758941,0.28335995,0.7538600414411193
0.07150000000000001,1.67219375,1.0,2618.6658657194957,0.5527207390991927,1.2770442731382736,0.9829479722351102,0.2832851375,0.7552502255143038
0.07200000000000001,1.6704,1.0,2616.658025200131,0.5552296069027062,1.2762528287985917,0.9830626822344964,0.2832098,0.7566466026172703
0.0725,1.66859375,1.0,2614.6620881120734,0.5577244168755388,1.2754556359007427,0.9831748533796529,0.2831339375,0.7580490837070072
0.073,1.6667750000000001,1.0,2612.6779204669747,0.5602052439317879,1.2746526955711452,0.983284546338734,0.28305755,0.7594575791310709
0.0735,1.66494375,1.0,2610.7053885306223,0.5626721629855508,1.2738440089362173,0.9833918198205067,0.2829806375,0.7608719986280005
0.074,1.6631,1.0,2608.7443588204005,0.5651252489509246,1.2730295771223774,0.9834967306489186,0.2829032,0.7622922513277288
0.0745,1.6612437500000001,1.0,2606.7946981028736,0.5675645767420069,1.272209401256044,0.9835993338343539,0.2828252375,0.7637182457519962
0.075,1.659375,1.0,2604.856273391333,0.5699902212728948,1.2713834824636356,0.9836996826417423,0.28274675,0.7651498898147626
0.0755,1.65749375,1.0,2602.9289519432828,0.5724022574576854,1.2705518218715706,0.9837978286556791,0.2826677375,0.766587090822621
