Time [s],Phi [rad],STIM [ ],Fsee [N],Gamma [ ],Lcerel [ ],q [ ],Lmtc [m],fisomrel [ ]
0.0,1.8,1.0,18.037557551444507,0.00026923123396639816,1.3793318668451136,0.005018822385110099,0.288653,0.5411585930988554
0.0005,1.79999375,1.0,18.43080690103637,0.005876930368497414,1.379285310329135,0.013675843705145432,0.2886527375,0.5412712160986346
0.001,1.799975,1.0,21.96487932202487,0.011453174744592788,1.3789030531475628,0.03697220974645099,0.28865195,0.5421953964140791
0.0015,1.79994375,1.0,31.832993305580867,0.0169981407995659,1.3779815292801874,0.07245996245838383,0.2886506375,0.5444195265402133
0.002,1.7999,1.0,55.175495332535704,0.02251200397886956,1.376265536087725,0.11691324132405034,0.2886488,0.5485467039305388
0.0025,1.79984375,1.0,99.7529187336961,0.02799493874508311,1.373809091112524,0.16695970401969804,0.28864643749999996,0.5544220771735611
0.003,1.7997750000000001,1.0,164.357351866455,0.033447118583497484,1.371087773773786,0.21973857614869546,0.28864354999999997,0.5608860464145897
0.0035,1.79969375,1.0,241.5085366684721,0.03886871600354713,1.3684673780855996,0.27305625673614903,0.2886401375,0.5670656609908284
0.004,1.7996,1.0,325.52735369733307,0.044259902548947495,1.3660488805760207,0.3252805815132763,0.2886362,0.5727302838936292
0.0045000000000000005,1.7994937500000001,1.0,413.466517253231,0.04962084880310377,1.3638245046147481,0.3752785621396074,0.2886317375,0.5779073017915597
0.005,1.799375,1.0,503.692947950931,0.05495172438087865,1.3617675985017286,0.42234644371547886,0.28862675,0.5826664689869009
0.0055,1.79924375,1.0,595.1042038337915,0.06025269796647196,1.3598547073969607,0.4661167033979333,0.2886212375,0.5870682065186474
0.006,1.7991000000000001,1.0,686.8331707686466,0.06552393728137877,1.3580681019813838,0.5064653729544225,0.2886152,0.5911582727788562
0.006500000000000001,1.79894375,1.0,778.166838013916,0.07076560909185484,1.3563941969554343,0.543433119287218,0.2886086375,0.5949718634454437
0.007,1.798775,1.0,868.5192171849382,0.07597787932231252,1.3548220954578614,0.577164290176094,0.28860155,0.5985372467311617
0.0075,1.79859375,1.0,957.3989674319755,0.08116091271869984,1.3533429289448842,0.6078628264960203,0.2885939375,0.6018774699127887
0.008,1.7984,1.0,1044.4313760235725,0.08631487356764483,1.3519487393578526,0.6357612867663583,0.2885858,0.6050130257156197
0.0085,1.79819375,1.0,1129.2953445693192,0.09143992470484492,1.3506329332758582,0.6611010432400527,0.2885771375,0.6079609250713252
0.009000000000000001,1.797975,1.0,1211.7464116537064,0.09653622815345474,1.3493895226447359,0.684119132773905,0.28856795,0.6107364842668482
0.0095,1.79774375,1.0,1291.6234961462856,0.10160394568953873,1.3482127845634426,0.7050405669600267,0.2885582375,0.6133541347786144
0.01,1.7975,1.0,1368.7898762217048,0.10664323732235301,1.347097853010498,0.7240746426076496,0.288548,0.615826149347904
0.0105,1.79724375,1.0,1443.1564082692682,0.11165426228381733,1.34604020643151,0.7414129212857895,0.2885372375,0.6181638250409374
0.011,1.796975,1.0,1514.6814068922088,0.11663717917130784,1.3450355424276759,0.7572288924894018,0.28852595000000003,0.6203777884618606
0.0115,1.79669375,1.0,1583.3613668796067,0.12159214647958878,1.3440797918553289,0.7716785846757418,0.2885141375,0.6224779873622244
0.012,1.7964,1.0,1649.1820813085842,0.12651932014754186,1.3431696038971541,0.7849018588615904,0.28850180000000003,0.6244726497483111
0.0125,1.79609375,1.0,1712.1663346709975,0.13141885592465938,1.3423016775655718,0.7970234164836915,0.2884889375,0.6263697753054698
0.013000000000000001,1.7957750000000001,1.0,1772.3555267836907,0.13629090879961897,1.3414729232079092,0.8081542889278617,0.28847555,0.6281767943745068
0.0135,1.79544375,1.0,1829.826313210493,0.1411356342236992,1.3406802234575685,0.818393143875,0.2884616375,0.6299011012273634
0.014,1.7951000000000001,1.0,1884.6272596993304,0.1459531847188228,1.3399210957669088,0.8278278693886066,0.2884472,0.6315486245300512
0.0145,1.79474375,1.0,1936.8150025275004,0.15074371206379042,1.3391932291609496,0.8365366082304991,0.2884322375,0.6331248510566566
0.015,1.794375,1.0,1986.467248076461,0.1555073680374028,1.3384943126647109,0.8445888205407672,0.28841675,0.6346352050180005
0.0155,1.79399375,1.0,2033.6617757594825,0.1602443033614243,1.3378222371222863,0.8520463660291963,0.2884007375,0.6360846176839725
0.016,1.7936,1.0,2078.504034811262,0.16495466928677668,1.3371747789465884,0.8589642994798494,0.2883842,0.6374782156961711
0.0165,1.7931937500000001,1.0,2121.063640387794,0.16963861383818715,1.3365502455368994,0.8653918715047855,0.2883671375,0.6388199369548876
0.017,1.792775,1.0,2161.415326623707,0.17429628462828867,1.3359470173450063,0.8713730755264413,0.28834955,0.6401135253092922
0.0175,1.7923437500000001,1.0,2199.6448061095866,0.17892782926971426,1.3353634748226972,0.8769472476468222,0.2883314375,0.64136269054479
0.018000000000000002,1.7919,1.0,2235.8328464524075,0.18353339413188144,1.3347981489151994,0.8821496537837779,0.2883128,0.6425707891675891
0.0185,1.79144375,1.0,2270.081779933929,0.1881131266942396,1.3342494423630582,0.8870118918924095,0.2882936375,0.6437414230866858
0.019,1.790975,1.0,2302.4628923146106,0.19266717080328968,1.3337161474494024,0.8915624448632993,0.28827395,0.6448773371541094
0.0195,1.79049375,1.0,2333.047855156914,0.19719566977292893,1.3331971166659753,0.8958269549730044,0.2882537375,0.6459811270582922
0.02,1.79,1.0,2361.9141510099807,0.20169876691705466,1.332691202504521,0.8998285317893358,0.288233,0.647055369183979
0.0205,1.78949375,1.0,2389.1385733457655,0.2061766046418299,1.3321973158289326,0.903588049029348,0.2882117375,0.6481024979465957
0.021,1.788975,1.0,2414.8028766194434,0.21062932595668543,1.331714365247102,0.9071243798008116,0.28818995000000003,0.6491249358696181
0.021500000000000002,1.78844375,1.0,2438.980245432937,0.2150570722810832,1.33124138329886,0.9104546411476729,0.2881676375,0.6501248277750563
0.022,1.7879,1.0,2461.7298190565984,0.2194599823024371,1.3307775722753394,0.9135943916391331,0.2881448,0.6511039466825019
0.0225,1.78734375,1.0,2483.1137946820313,0.22383819470816108,1.3303221344676726,0.9165577642363633,0.28812143749999997,0.6520640544665843
0.023,1.786775,1.0,2503.1971724332216,0.22819184818566898,1.3298742721669916,0.9193576166539407,0.28809755,0.6530069023032448
0.0235,1.78619375,1.0,2522.0425812962308,0.2325210803801625,1.329433234313045,0.922005672263915,0.28807313749999996,0.65393413306775
0.024,1.7856006278852827,1.0,2539.74389525244,0.23682602903842026,1.3289982803370273,0.9245126303179306,0.2880482263711819,0.654847358211986
0.0245,1.7850045898459173,1.0,2556.771811868086,0.24110683274744082,1.328568914666525,0.9268883118373515,0.2880231927735285,0.6557476668203504
0.025,1.7844085518065518,1.0,2573.2790409858735,0.2453636250239003,1.3281449556839855,0.9291417543340081,0.2879981591758752,0.6566354848825102
0.025500000000000002,1.783812513767186,1.0,2589.279477066317,0.24959653938447468,1.327726221771856,0.9312812370116091,0.2879731255782218,0.6575112358518631
0.026000000000000002,1.7832164757278206,1.0,2604.787441332958,0.25380570934584,1.327312531312584,0.9333143546543431,0.2879480919805685,0.6583753407071069
0.0265,1.7826204376884551,1.0,2619.8176610977985,0.25799126842467235,1.3269037026886168,0.9352480834213073,0.2879230583829151,0.6592282180117106
0.027,1.7820243996490894,1.0,2634.385029435316,0.26215334978381594,1.3264995563214448,0.9370888396771431,0.2878980247852617,0.6600702797254455
0.0275,1.781428361609724,1.0,2648.5033706251274,0.26629208352041805,1.326099925859066,0.9388425329093928,0.2878729911876084,0.660901908018851
0.028,1.7808323235703585,1.0,2662.1908674093675,0.270407605625886,1.325704607886012,0.9405146088766168,0.2878479575899551,0.6617235599547806
0.0285,1.7802362855309928,1.0,2675.4607834169765,0.27450004407974504,1.3253134474104091,0.9421100985572591,0.2878229239923017,0.6625355897128666
0.029,1.7796402474916273,1.0,2688.3266678285113,0.27856952686152026,1.3249262894403835,0.9436336518006965,0.2877978903946483,0.6633383495870668
0.029500000000000002,1.7790442094522618,1.0,2700.8023413551923,0.28261618195073707,1.3245429789840615,0.9450895711252458,0.287772856796995,0.6641321900259918
0.03,1.7784481714128961,1.0,2712.9018827509844,0.2866401373269205,1.3241633610495696,0.9464818421164807,0.28774782319934167,0.6649174596717041
0.0305,1.7778521333735307,1.0,2724.639615857556,0.29064152096959595,1.323787280645034,0.9478141608047762,0.2877227896016883,0.6656945053969836
0.031,1.7772560953341652,1.0,2736.0243963148655,0.29462045182540475,1.323414634535456,0.9490899620071634,0.2876977560040349,0.666463565587683
0.0315,1.7766600572947995,1.0,2747.0696132264957,0.2985770554087952,1.323045279993892,0.9503124349412979,0.2876727224063816,0.6672249587808287
0.032,1.776064019255434,1.0,2757.8019665204997,0.3025114791688847,1.322678955742893,0.9514845385987355,0.2876476888087282,0.6679792459205232
0.0325,1.7754679812160685,1.0,2768.2306230993922,0.30642384298390657,1.3223155613705992,0.952609039220592,0.2876226552110749,0.6687266546503683
0.033,1.7748719431767028,1.0,2778.3648921901686,0.31031426673209406,1.3219549964651518,0.9536885151932322,0.2875976216134215,0.6694674115150641
0.0335,1.7742759051373374,1.0,2788.2142189338724,0.31418287029168046,1.321597160614691,0.9547253720718583,0.2875725880157682,0.6702017419788541
0.034,1.7736798670979719,1.0,2797.7881781976103,0.31802977354089895,1.3212419534073578,0.955721856232548,0.2875475544181148,0.6709298704433193
0.0345,1.7730838290586062,1.0,2807.0964686111415,0.32185509635798293,1.3208892744312928,0.9566800672924676,0.2875225208204615,0.671652020264536
0.035,1.7724877910192407,1.0,2816.1489068261185,0.32565895862116556,1.3205390232746366,0.957601969422379,0.2874974872228081,0.6723684137695854
0.035500000000000004,1.7718917529798752,1.0,2824.955421999801,0.3294414802086802,1.3201910995255297,0.9584894016618394,0.2874724536251547,0.6730792722724246
0.036000000000000004,1.7712957149405095,1.0,2833.526050501481,0.33320278099876005,1.3198454027721132,0.9593440873353938,0.2874474200275014,0.6737848160891095
0.0365,1.770699676901144,1.0,2841.8709308426623,0.3369429808696383,1.3195018326025276,0.9601676426574345,0.2874223864298481,0.6744852645523802
0.037,1.7701036388617786,1.0,2850.0002988313045,0.3406621996995484,1.3191602886049134,0.9609615846039803,0.2873973528321947,0.6751808360256006
0.0375,1.7695076008224129,1.0,2857.924482948889,0.3443605573667236,1.3188206703674117,0.9617273381213337,0.2873723192345413,0.675871747916053
0.038,1.7689115627830474,1.0,2865.6531843645507,0.34803817205931414,1.31848288382618,0.9624662429922851,0.287347285636888,0.6765582037938775
0.0385,1.768315524743682,1.0,2873.1872879513567,0.35169514373577115,1.3181469137363158,0.9631795633826064,0.28732225203923467,0.677240246428754
0.039,1.7677194867043162,1.0,2880.5452181541414,0.3553316155918238,1.3178125899359698,0.9638684836913878,0.2872972184415813,0.6779182323921911
0.0395,1.7671234486649507,1.0,2887.7323264126812,0.3589476984049289,1.3174798588300187,0.9645341240132023,0.2872721848439279,0.678592280731095
0.04,1.766527410625585,1.0,2894.7540116314926,0.36254350295254323,1.3171486668233388,0.9651775403917285,0.28724715124627453,0.6792625099878153
0.0405,1.7659313725862196,1.0,2901.615718319411,0.3661191400121236,1.316818960320807,0.9657997291633379,0.2872221176486212,0.6799290382054942
0.041,1.765335334546854,1.0,2908.3229347922693,0.36967472036112686,1.3164906857272998,0.9664016309621084,0.2871970840509679,0.6805919829332385
0.0415,1.7647392965074884,1.0,2914.881191439678,0.37321035477700976,1.3161637894476934,0.966984134415923,0.2871720504533145,0.6812514612311051
0.042,1.764143258468123,1.0,2921.296059055418,0.3767261540372292,1.315838217886865,0.9675480795604512,0.28714701685566113,0.6819075896749016
0.0425,1.7635472204287574,1.0,2927.5731472314574,0.38022222891924196,1.3155139174496908,0.9680942609952271,0.2871219832580078,0.6825604843608091
0.043000000000000003,1.7629511823893917,1.0,2933.718102815444,0.3836986902005048,1.3151908345410475,0.9686234308037538,0.2870969496603545,0.6832102609098152
0.043500000000000004,1.7623551443500263,1.0,2939.7366084322316,0.38715564865847457,1.3148689155658115,0.9691363012574916,0.2870719160627011,0.6838570344719702
0.044,1.7617591063106608,1.0,2945.634381069017,0.39059321507060807,1.3145481069288598,0.9696335473217391,0.2870468824650477,0.6845009197304546
0.0445,1.761163068271295,1.0,2951.4171707241007,0.39401150021436215,1.3142283550350684,0.9701158089797601,0.2870218488673944,0.6851420309054688
0.045,1.7605670302319296,1.0,2957.089379957354,0.3974106090682427,1.313909618333302,0.9705836934738763,0.286996815269741,0.6857804576461755
0.0455,1.7599709921925641,1.0,2962.6519733239606,0.40079063541877696,1.3135918854885436,0.9710377779428894,0.2869717816720877,0.6864162288129471
0.046,1.7593749541531984,1.0,2968.1160971021636,0.4041517175696839,1.3132750565171427,0.9714786101493309,0.2869467480744343,0.6870495502684344
0.0465,1.758778916113833,1.0,2973.4845723106505,0.40749395738412586,1.31295910435676,0.9719067109104785,0.286921714476781,0.6876804815057862
0.047,1.7581828780744675,1.0,2978.760236414327,0.4108174567252654,1.312644001945056,0.9723225754333853,0.2868966808791276,0.6883090817850122
0.0475,1.7575868400351018,1.0,2983.9459428067867,0.41412231745626477,1.3123297222196908,0.9727266748154333,0.2868716472814743,0.6889354101344731
0.048,1.7569908019957363,1.0,2989.044560307915,0.41740864144028655,1.312016238118325,0.9731194574433945,0.2868466136838209,0.6895595253523239
0.0485,1.7563947639563708,1.0,2994.058972679144,0.42067653054049314,1.3117035225786189,0.9735013502987547,0.28682158008616754,0.6901814860079096
0.049,1.7557987259170051,1.0,2998.992078153668,0.42392608662004694,1.3113915485382328,0.9738727601763865,0.2867965464885142,0.6908013504431167
0.0495,1.7552026878776397,1.0,3003.8467889833846,0.42715741154211034,1.3110802889348276,0.9742340748230689,0.2867715128908609,0.6914191767736739
0.05,1.7546066498382742,1.0,3008.6260310024786,0.4303706071698458,1.3107697167060632,0.9745856640018115,0.2867464792932075,0.692035022890412
0.0505,1.7540106117989085,1.0,3013.332743206599,0.4335657753664157,1.3104598047896003,0.9749278804874424,0.28672144569555413,0.6926489464604696
0.051000000000000004,1.753414573759543,1.0,3017.9698773487135,0.43674301799498255,1.3101505261230992,0.9752610609984786,0.2866964120979008,0.6932610049284591
0.051500000000000004,1.7528185357201775,1.0,3022.5403975507197,0.4399024369187087,1.3098418536442205,0.97558552706989,0.2866713785002475,0.6938712555175812
0.052000000000000005,1.7522224976808118,1.0,3027.0472799319555,0.4430441340007566,1.309533760290624,0.9759015858709917,0.2866463449025941,0.6944797552306967
0.0525,1.7516264596414464,1.0,3031.4935122533516,0.44616821110428856,1.309226218999971,0.9762095309723717,0.28662131130494073,0.6950865608513455
0.053,1.7510304216020809,1.0,3035.878933080314,0.4492747440363548,1.308919229949512,0.9765096420813217,0.2865962777072874,0.6956916752787006
0.0535,1.7504343835627152,1.0,3040.207480672529,0.45236384966579163,1.3086127580242903,0.9768021887867406,0.286571244109634,0.6962951708693904
0.054,1.7498383455233497,1.0,3044.4833288825835,0.45543564526490854,1.3083067661976842,0.9770874289384529,0.2865462105119807,0.6968971234589494
0.0545,1.7492423074839842,1.0,3048.7078292043684,0.4584902233592161,1.3080012418349414,0.9773656083892158,0.2865211769143273,0.6974975606764476
0.055,1.7486462694446185,1.0,3052.882338684707,0.4615276764742246,1.30769617230131,0.9776369626083212,0.28649614331667395,0.6980965100482224
0.0555,1.748050231405253,1.0,3057.008219793964,0.4645480971354446,1.3073915449620377,0.9779017172063533,0.2864711097190206,0.6986939989982512
0.056,1.7474541933658876,1.0,3061.0868403000904,0.46755157786838647,1.3070873471823725,0.9781600884292356,0.2864460761213673,0.6992900548485108
0.0565,1.7468581553265219,1.0,3065.119573147006,0.4705382111985607,1.3067835663275618,0.9784122836236003,0.2864210425237139,0.699884704819332
0.057,1.7462621172871564,1.0,3069.1077963357257,0.4735080896514777,1.306480189762854,0.978658501675366,0.28639600892606054,0.7004779760297355
0.0575,1.745666079247791,1.0,3073.052892809714,0.476461305752648,1.3061772048534963,0.9788989334232712,0.2863709753284072,0.7010698954977683
0.058,1.7450700412084252,1.0,3076.956250342641,0.47939795202758184,1.3058745989647371,0.9791337620489841,0.28634594173075384,0.7016604901408203
0.0585,1.7444740031690598,1.0,3080.81926143137,0.48231812100178983,1.3055723594618238,0.9793631634452932,0.2863209081331005,0.7022497867759374
0.059000000000000004,1.7438779651296943,1.0,3084.6433231908236,0.4852219052007824,1.3052704737100045,0.9795873065637711,0.28629587453544714,0.7028378121201195
0.059500000000000004,1.7432819270903286,1.0,3088.429837253502,0.48810939715006985,1.304968929074527,0.9798063537432133,0.2862708409377938,0.7034245927906126
0.06,1.742685889050963,1.0,3092.180209672048,0.49098068937516276,1.304667712920639,0.9800204610200549,0.28624580734014043,0.7040101553051885
0.0605,1.7420898510115976,1.0,3095.895850825532,0.4938358744015715,1.3043668126135883,0.9802297784218861,0.2862207737424871,0.7045945260824134
0.061,1.741493812972232,1.0,3099.5781753288516,0.49667504475480656,1.3040662155186231,0.9804344502451114,0.28619574014483373,0.7051777314419077
0.0615,1.7408977749328665,1.0,3103.2286019467238,0.49949829296037834,1.3037659090009908,0.9806346153177248,0.2861707065471804,0.7057597976045975
0.062,1.740301736893501,1.0,3106.846719412048,0.5023056766511558,1.3034658960520125,0.9808304054325601,0.28614567294952703,0.7063407204507308
0.0625,1.7397056988541353,1.0,3110.4337970132337,0.5050972948665794,1.3031661653512188,0.9810219498543193,0.2861206393518737,0.7069205235530532
0.063,1.7391096608147698,1.0,3113.9928933978,0.5078732796670834,1.3028666903814583,0.9812093746882776,0.28609560575422033,0.7074992597493044
0.0635,1.7385136227754043,1.0,3117.524593592844,0.5106337135286779,1.30256746572868,0.9813927988415019,0.28607057215656695,0.7080769409519261
0.064,1.7379175847360386,1.0,3121.029484491084,0.5133786789273729,1.302268485978832,0.9815723369043146,0.2860455385589136,0.7086535790308184
0.0645,1.7373215466966732,1.0,3124.5081548206435,0.5161082583391783,1.3019697457178632,0.9817480993386071,0.2860205049612603,0.7092291858134218
0.065,1.7367255086573077,1.0,3127.961195116578,0.5188225342401042,1.3016712395317216,0.981920192656616,0.2859954713636069,0.7098037730848044
0.0655,1.736129470617942,1.0,3131.389197692273,0.5215215891061605,1.301372962006356,0.9820887195907131,0.28597043776595354,0.7103773525877406
0.066,1.7355334325785765,1.0,3134.79275661171,0.5242055054133575,1.301074907727715,0.9822537792547151,0.2859454041683002,0.710949936022793
0.0665,1.734937394539211,1.0,3138.1724676620247,0.526874365637705,1.3007770712817466,0.9824154672972052,0.28592037057064684,0.7115215350483901
0.067,1.7343413564998453,1.0,3141.5289283275283,0.5295282522552129,1.3004794472543997,0.9825738760473046,0.2858953369729935,0.7120921612809006
0.0675,1.7337453184604799,1.0,3144.8627377633893,0.5321672477418915,1.3001820302316227,0.9827290946533236,0.28587030337534014,0.7126618262947103
0.068,1.7331492804211144,1.0,3148.174496771061,0.5347914345737507,1.299884814799364,0.9828812092146847,0.2858452697776868,0.7132305416222933
0.0685,1.7325532423817487,1.0,3151.4648077729116,0.5374008952268005,1.2995877955435722,0.9830303029074893,0.28582023618003344,0.7137983187542819
0.069,1.7319572043423832,1.0,3154.7342747894063,0.5399957121770507,1.2992909670501955,0.9831764561040744,0.2857952025823801,0.714365169139537
0.0695,1.7313611663030177,1.0,3157.98350341483,0.5425759679005117,1.2989943239051829,0.9833197464868905,0.28577016898472674,0.7149311041852124
0.07,1.730765128263652,1.0,3161.213100795521,0.5451417448731932,1.2986978606944823,0.9834602491570004,0.28574513538707336,0.7154961352568228
0.07050000000000001,1.7301690902242866,1.0,3164.423675607561,0.5476931255711054,1.2984015720040427,0.983598036737495,0.28572010178942003,0.7160602736783039
