Time [s],Phi [rad],STIM [ ],Fsee [N],Gamma [ ],Lcerel [ ],q [ ],Lmtc [m],fisomrel [ ]
0.0,1.8,1.0,17.96815112471961,1.221817130739905e-05,1.379339634976851,0.0050000397238932825,0.288653,0.5411398001773899
0.0005,1.79999375,1.0,18.278138529916074,0.0056213589458237925,1.3793022329035547,0.01294667175804631,0.2886527375,0.5412302809769693
0.001,1.799975,1.0,21.621356780531876,0.011199036875506956,1.3789379982489425,0.0356201313736869,0.28865195,0.5421109486067746
0.0015,1.79994375,1.0,31.07562218749211,0.016745428442901736,1.3780456596760495,0.07061752046224722,0.2886506375,0.5442649209186879
0.002,1.7999,1.0,53.59552838015229,0.02226070913890066,1.3763672792486559,0.11473656701066141,0.2886488,0.5483025226752689
0.0025,1.79984375,1.0,97.14062105837687,0.027745053470317985,1.3739341224460089,0.16459505271073066,0.28864643749999996,0.5541239543065474
0.003,1.7997750000000001,1.0,160.98631949669732,0.033198634967591234,1.3712132900208966,0.21730125356914778,0.28864354999999997,0.560588945509763
0.0035,1.79969375,1.0,237.71509775745642,0.03862162618438527,1.3685837557824079,0.27063357745031796,0.2886401375,0.5667921395833365
0.004,1.7996,1.0,321.50055170041196,0.04401419870837125,1.3661551977069177,0.3229358354663373,0.2886362,0.5724820509955613
0.0045000000000000005,1.7994937500000001,1.0,409.30273735423305,0.04937652316641222,1.3639219929160928,0.3730535260891933,0.2886317375,0.5776810684693218
0.005,1.799375,1.0,499.4491936284554,0.05470876921565253,1.361857583962286,0.4202652552834205,0.28862675,0.582458829492912
0.0055,1.79924375,1.0,590.8264335656164,0.0600111055909337,1.3599381313750651,0.46419017430914256,0.2886212375,0.5868767269841402
0.006,1.7991000000000001,1.0,682.5541688658767,0.06528370004808955,1.3581457592714623,0.504695104663858,0.2886152,0.5909809155480478
0.006500000000000001,1.79894375,1.0,773.8993051169375,0.0705267191620523,1.356466945540573,0.5418147992354312,0.2886086375,0.5948064946969842
0.007,1.798775,1.0,864.3275399418067,0.07574032966160067,1.3548897209516715,0.575689337324093,0.28860155,0.5983842026876427
0.0075,1.79859375,1.0,953.2923421956556,0.08092469573406386,1.3534060235801566,0.6065212609621069,0.2885939375,0.6017352758203501
0.008,1.7984,1.0,1040.3933993947287,0.08607998131217293,1.3520081318570956,0.6345424832388555,0.2885858,0.6048797037834108
0.0085,1.79819375,1.0,1125.3528788054105,0.09120634997524868,1.3506886943430134,0.6599938711372788,0.2885771375,0.6078362234055884
0.009000000000000001,1.797975,1.0,1207.9172095645893,0.09630396377371546,1.3494418023705839,0.6831129259771863,0.28856795,0.6106199832780543
0.0095,1.79774375,1.0,1287.906269879632,0.1013729839463816,1.348261937697493,0.7041254378542854,0.2885582375,0.6132449705076134
0.01,1.7975,1.0,1365.1931481442164,0.10641357100018259,1.3471440498397202,0.7232413924568297,0.288548,0.6157238796584115
0.0105,1.79724375,1.0,1439.6896558353374,0.11142588439827514,1.3460835689558959,0.7406531623235069,0.2885372375,0.6180681227638701
0.011,1.796975,1.0,1511.3397455339475,0.11641008247364557,1.3450763394906642,0.7565351322616719,0.28852595000000003,0.6202880099608542
0.0115,1.79669375,1.0,1580.1300483182981,0.12136632284288053,1.3441183751116128,0.7710441422970103,0.2885141375,0.6223933160412735
0.012,1.7964,1.0,1646.0841708286573,0.12629476358755393,1.3432058470551584,0.7843205643457902,0.28850180000000003,0.624393324448824
0.0125,1.79609375,1.0,1709.2009319572826,0.1311955594617656,1.3423357251455976,0.7964898884797488,0.2884889375,0.6262954441614728
0.013000000000000001,1.7957750000000001,1.0,1769.5148407219144,0.1360688652196153,1.341504979207227,0.8076637664459922,0.28847555,0.6281069807929572
0.0135,1.79544375,1.0,1827.0876761731772,0.14091483525343715,1.34071063787559,0.8179414510794697,0.2884616375,0.6298350167041091
0.014,1.7951000000000001,1.0,1881.9927742468033,0.14573362351837518,1.3399499242838613,0.8274111893701411,0.2884472,0.6314861255720567
0.0145,1.79474375,1.0,1934.3029961801303,0.15052538309998378,1.3392203438686092,0.8361514858593195,0.2884322375,0.63306619357673
0.015,1.794375,1.0,1984.07415144361,0.1552902644301594,1.33851981839524,0.8442322613280718,0.28841675,0.6345801420715999
0.0155,1.79399375,1.0,2031.3802299081474,0.16002841794079842,1.3378462696291598,0.8517157145023805,0.2884007375,0.6360328383216234
0.016,1.7936,1.0,2076.3110022181345,0.16473999398341468,1.3371976281797777,0.8586572368745209,0.2883842,0.6374290801974885
0.0165,1.7931937500000001,1.0,2118.9519809085277,0.1694251413813575,1.3365720247682051,0.8651062759514218,0.2883671375,0.6387731892328785
0.017,1.792775,1.0,2159.405853415836,0.17408401031445514,1.3359675479364763,0.871106968599325,0.28834955,0.6400695367779066
0.0175,1.7923437500000001,1.0,2197.7387981420634,0.17871674669211646,1.3353827780498557,0.8766989135761881,0.2883314375,0.6413214036593151
0.018000000000000002,1.7919,1.0,2234.026342952905,0.18332349642375023,1.334816295473608,0.8819175679258433,0.2883128,0.6425320417261786
0.0185,1.79144375,1.0,2268.3525895509392,0.18790440541876527,1.3342666805729975,0.8867947307160167,0.2882936375,0.6437046755698651
0.019,1.790975,1.0,2300.800441694239,0.1924596184756564,1.333732603220113,0.8913589883259775,0.28827395,0.6448423136094596
0.0195,1.79049375,1.0,2331.4617977180856,0.1969892813749042,1.3332127128480011,0.8956360569418361,0.2882537375,0.6459479846826388
0.02,1.79,1.0,2360.4143530100087,0.20149353762995642,1.3327058599083708,0.8996491581095578,0.288233,0.6470242690772691
0.0205,1.78949375,1.0,2387.7223434754555,0.2059725283600627,1.3322110772990825,0.9034192922387164,0.2882117375,0.648073342218696
0.021,1.788975,1.0,2413.454453306027,0.21042639468447266,1.3317273979179978,0.9069654447655117,0.28818995000000003,0.6490973643831452
0.021500000000000002,1.78844375,1.0,2437.6834454902196,0.21485527772243596,1.3312538546629775,0.9103048071209836,0.2881676375,0.6500984814123691
0.022,1.7879,1.0,2460.480899193583,0.21925931761422363,1.3307895274754873,0.9134529800735076,0.2881448,0.6510787261241832
0.0225,1.78734375,1.0,2481.9178976918447,0.22363865464763827,1.3303335326379184,0.9164241420287487,0.28812143749999997,0.6520400421395194
0.023,1.786775,1.0,2502.065034251691,0.2279934290631103,1.3298850191954585,0.9192311979326574,0.28809755,0.6529842924439158
0.0235,1.78619375,1.0,2520.975053904534,0.23232377688151948,1.3294433300066648,0.9218859395096534,0.28807313749999996,0.6539129219200248
0.024,1.7856,1.0,2538.702817486188,0.23662983412374566,1.329007807930094,0.9243991252531711,0.2880482,0.6548273670951352
0.0245,1.78499375,1.0,2555.305124746638,0.24091173681066863,1.3285777958243035,0.926780585189978,0.2880227375,0.6557290564134004
0.025,1.784375,1.0,2570.8405470346534,0.2451696209631682,1.3281526365478504,0.9290393137529771,0.28799675,0.6566194104805305
0.025500000000000002,1.78374375,1.0,2585.3597330318594,0.24940362029904803,1.3277317620262539,0.9311835660788079,0.2879702375,0.6574996561197924
0.026000000000000002,1.7831000000000001,1.0,2598.921071351671,0.2536138716208007,1.3273145448080976,0.9332209078087944,0.2879432,0.6583711376182011
0.0265,1.78244375,1.0,2611.576230494887,0.2578005092228759,1.3269004320272024,0.9351583002690067,0.2879156375,0.6592350367998355
0.027,1.781775,1.0,2623.363993284283,0.2619636635881771,1.3264890005679473,0.9370021654167877,0.28788755,0.660092259273415
0.0275,1.7810937500000001,1.0,2634.32403028397,0.26610346519960754,1.3260798273147114,0.9387584177162107,0.2878589375,0.660943706053597
0.028,1.7804,1.0,2644.4968236727336,0.2702200445400707,1.3256724891518739,0.9404325109530054,0.2878298,0.6617902736276231
0.0285,1.77969375,1.0,2653.9235950861143,0.27431353209246984,1.3252665629638136,0.9420294801642237,0.2878001375,0.6626328540105468
0.029,1.778975,1.0,2662.6462374281737,0.2783840583397083,1.3248616256349097,0.9435539792455432,0.28776995,0.6634723347890426
0.029500000000000002,1.7782437500000001,1.0,2670.6986064163743,0.28243174985341085,1.3244573334825829,0.9450103241857516,0.2877392375,0.6643094347875383
0.03,1.7775,1.0,2678.1257886092885,0.2864567398254743,1.3240532443421946,0.9464025023282678,0.287708,0.6651450728038837
0.0305,1.77674375,1.0,2684.959762934018,0.29045915532929995,1.3236490408215038,0.9477342257697691,0.2876762375,0.6659799055335478
0.031,1.775975,1.0,2691.227787302238,0.29443912098069125,1.3232444522952185,0.949008945774434,0.28764395,0.6668144899884063
0.0315,1.7751937500000001,1.0,2696.9574479315506,0.2983967613954515,1.3228392081380473,0.9502298695619898,0.2876111375,0.6676493803851995
0.032,1.7744,1.0,2702.1766285954145,0.3023322011893843,1.3224330377246987,0.9513999805808984,0.2875778,0.6684851281365531
0.0325,1.77359375,1.0,2706.913481497404,0.30624556497829303,1.322025670429881,0.9525220568624705,0.2875439375,0.6693222818373269
0.033,1.772775,1.0,2711.1963997684416,0.31013697737798107,1.321616835628303,0.9535986876581642,0.28750955,0.6701613872462922
0.0335,1.7719437500000002,1.0,2715.0536686311284,0.31400655988780757,1.3212062656380337,0.9546322880199868,0.2874746375,0.6710029812336382
0.034,1.7711000586377526,1.0,2718.5161802142834,0.31785443434398536,1.32079369724534,0.9556251137144867,0.2874392024627856,0.6718475886724016
0.0345,1.7702512693994177,1.0,2721.943188035774,0.3216807319183616,1.3203791698320393,0.9565793087012735,0.2874035533147755,0.6726951133218537
0.035,1.769402480161083,1.0,2725.5708153557653,0.3254855705443926,1.3199628371525118,0.9574968869127647,0.2873679041667655,0.673545225897051
0.035500000000000004,1.7685536909227482,1.0,2729.3825434898627,0.32926906815553436,1.319544852961137,0.9583797333143754,0.2873322550187554,0.6743975986799913
0.036000000000000004,1.7677049016844135,1.0,2733.3618258120773,0.33303134268524315,1.319125371012295,0.959229613648046,0.28729660587074535,0.6752519055365596
0.0365,1.7668561124460787,1.0,2737.492082386659,0.33677251206697506,1.3187045450603658,0.9600481833344461,0.28726095672273533,0.6761078219319683
0.037,1.766007323207744,1.0,2741.756695124459,0.3404926942341864,1.318282528859729,0.9608369956150452,0.28722530757472525,0.676965024944693
0.0375,1.7651585339694091,1.0,2746.1390034635033,0.3441920071203331,1.3178594761647648,0.9615975090066621,0.2871896584267152,0.6778231932788945
0.038,1.7643097447310745,1.0,2750.622300573385,0.34787056865887156,1.317435540729853,0.9623310941334466,0.28715400927870516,0.6786820072753375
0.0385,1.7634609554927398,1.0,2755.189830083861,0.35152849678325776,1.3170108763093733,0.9630390399945206,0.2871183601306951,0.6795411489208011
0.039,1.762612166254405,1.0,2759.8429370857893,0.3551658871711181,1.316585472556336,0.9637225401392816,0.287082710982685,0.6804006331832955
0.0395,1.7617633770160703,1.0,2764.558792198117,0.3587828725917299,1.3161595375297523,0.9643827460420932,0.28704706183467493,0.6812600345311643
0.04,1.7609145877777355,1.0,2769.314461968005,0.36237958638461415,1.315733279540495,0.9650207428707851,0.28701141268666486,0.6821189291792208
0.0405,1.7600657985394008,1.0,2774.105968268014,0.36595613740006405,1.315306735287897,0.9656375343540259,0.28697576353865484,0.6829772406954336
0.041,1.759217009301066,1.0,2778.9293194980237,0.36951263448837296,1.3148799414712924,0.9662340679709196,0.28694011439064476,0.6838348930453938
0.0415,1.7583682200627313,1.0,2783.7805103679334,0.37304918649983426,1.3144529347900136,0.9668112386917342,0.2869044652426347,0.6846918105929447
0.042,1.7575194308243964,1.0,2788.655521709295,0.37656590228474124,1.314025751943394,0.9673698924326952,0.28686881609462467,0.6855479181007207
0.0425,1.7566706415860618,1.0,2793.5503203167104,0.3800628906933873,1.3135984296307668,0.9679108292494142,0.2868331669466146,0.6864031407306028
0.043000000000000003,1.7558218523477271,1.0,2798.4608588198157,0.3835402605760657,1.3131710045514655,0.9684348062911929,0.2867975177986045,0.687257404044088
0.043500000000000004,1.7549730631093923,1.0,2803.383075584766,0.38699812078306994,1.3127435134048229,0.968942540536346,0.2867618686505945,0.6881106340025746
0.044,1.7541242738710576,1.0,2808.3128946450156,0.3904365801646931,1.3123159928901724,0.9694347113268101,0.2867262195025844,0.6889627569675567
0.0445,1.7532754846327228,1.0,2813.2462256631547,0.3938557475712288,1.3118884797068473,0.9699119627186217,0.28669057035457435,0.6898136997007382
0.045,1.7524266953943881,1.0,2818.17896392158,0.39725573185297025,1.3114610105541806,0.9703749056633265,0.28665492120656433,0.690663389364058
0.0455,1.7515779061560532,1.0,2823.1069903433217,0.40063664186021086,1.3110336221315058,0.9708241200340229,0.28661927205855425,0.6915117535196291
0.046,1.7507291169177186,1.0,2828.0261715431034,0.4039985864432439,1.3106063511381558,0.9712601565085032,0.2865836229105442,0.692358720129594
0.0465,1.749880327679384,1.0,2832.9323599077265,0.4073416744523627,1.310179234273464,0.9716835383208626,0.2865479737625341,0.6932042175558915
0.047,1.749031538441049,1.0,2837.8213937066516,0.4106660147378607,1.3097523082367635,0.9720947628919268,0.286512324614524,0.6940481745599396
0.0475,1.7481827492027144,1.0,2842.6934974116793,0.41397170442238757,1.3093255705357953,0.9724942990446076,0.286476675466514,0.6948905976170431
0.048,1.7473339599643796,1.0,2847.547164841745,0.41725885778348903,1.3088990340904136,0.9728825962472879,0.28644102631850393,0.6957314628125302
0.0485,1.746485170726045,1.0,2852.3814452082643,0.42052757732791735,1.3084727068403756,0.9732600806311804,0.28640537717049386,0.6965707561689147
0.049,1.74563638148771,1.0,2857.1957016931015,0.42377796400575896,1.3080465939116885,0.9736271577781689,0.28636972802248384,0.6974084693220894
0.0495,1.7447875922493754,1.0,2861.9892958334694,0.4270101187671002,1.3076207004303595,0.9739842142663064,0.28633407887447376,0.698244593962803
0.05,1.7439388030110408,1.0,2866.761587546942,0.43022414256202757,1.307195031522395,0.9743316187329507,0.2862984297264637,0.6990791218365904
0.0505,1.743090013772706,1.0,2871.5119351564877,0.43342013634062737,1.3067695923138023,0.974669722869183,0.28626278057845367,0.6999120447436975
0.051000000000000004,1.7422412245343712,1.0,2876.239695416015,0.436598201052986,1.3063443879305883,0.9749988623505219,0.2862271314304436,0.7007433545390092
0.051500000000000004,1.7413924352960364,1.0,2880.944223537339,0.43975843764919004,1.30591942349876,0.9753193577085524,0.2861914822824335,0.701573043131972
0.052000000000000005,1.7405436460577017,1.0,2885.62487321686,0.44290094707932576,1.305494704144324,0.9756315151477051,0.2861558331344235,0.702401102486518
0.0525,1.7396948568193669,1.0,2890.2809966627888,0.4460258302934795,1.3050702349932874,0.9759356273110918,0.2861201839864134,0.7032275246209834
0.053,1.7388460675810322,1.0,2894.913646973571,0.44913314993903164,1.3046460061465217,0.9762319691254836,0.28608453483840335,0.704052330800298
0.0535,1.7379972783426973,1.0,2899.5211558115757,0.45222304521175627,1.3042220317406603,0.9765208128900582,0.2860488856903933,0.704875495547145
0.054,1.7371484891043627,1.0,2904.10292239318,0.4552956283319581,1.303798316463647,0.9768024157978394,0.2860132365423832,0.7056970118426459
0.0545,1.736299699866028,1.0,2908.659163790741,0.45835099152853415,1.3033748577911117,0.9770770216440303,0.2859775873943732,0.7065168866716287
0.055,1.7354509106276932,1.0,2913.190098415652,0.4613892270303818,1.302951653198685,0.9773448639286368,0.2859419382463631,0.7073351269903819
0.0555,1.7346021213893585,1.0,2917.6959460046246,0.46441042706639823,1.3025287001619967,0.9776061663770169,0.28590628909835303,0.7081517397266985
0.056,1.7337533321510237,1.0,2922.176927605372,0.46741468386548063,1.3021059961566774,0.977861143429951,0.285870639950343,0.7089667317799158
0.0565,1.732904542912689,1.0,2926.6332655621904,0.47040208965652625,1.3016835386583576,0.9781100007052499,0.28583499080233293,0.7097801100209542
0.057,1.7320557536743542,1.0,2931.0651835027734,0.47337273666843227,1.3012613251426675,0.978352935432777,0.28579934165432286,0.7105918812923597
0.0575,1.7312069644360195,1.0,2935.472906324143,0.476326717130096,1.300839353085237,0.978590136864618,0.28576369250631284,0.7114020524083424
0.058,1.7303581751976846,1.0,2939.8566601786933,0.4792641232704146,1.3004176199616966,0.9788217866620061,0.28572804335830276,0.7122106301548139
0.0585,1.72950938595935,1.0,2944.2166724614603,0.4821850473182853,1.2999961232476769,0.979048059260497,0.2856923942102927,0.7130176212894281
0.059000000000000004,1.7286605967210154,1.0,2948.553171796548,0.4850895815026054,1.2995748604188078,0.9792691222147781,0.28565674506228267,0.7138230325416194
0.059500000000000004,1.7278118074826805,1.0,2952.8663880235235,0.48797781805227197,1.2991538289507198,0.9794851365244014,0.2856210959142726,0.7146268706126386
0.06,1.7269630182443458,1.0,2957.1565521850453,0.4908498491961823,1.298733026319043,0.9796962569416362,0.2855854467662625,0.715429142175593
0.0605,1.726114229006011,1.0,2961.423896513713,0.4937057671632337,1.298312449999408,0.9799026322625527,0.28554979761825244,0.7162298538754804
0.061,1.7252654397676763,1.0,2965.6686544192257,0.4965456641823233,1.2978920974674448,0.9801044056023758,0.28551414847024237,0.7170290123292294
0.0615,1.7244166505293415,1.0,2969.8910604760285,0.49936963248234834,1.297471966198784,0.9803017146560707,0.28547849932223235,0.7178266241257321
0.062,1.7235678612910068,1.0,2974.0913504105124,0.5021777642922061,1.2970520536690555,0.9804946919450609,0.2854428501742223,0.7186226958258819
0.0625,1.7227190720526722,1.0,2978.269590296696,0.5049701284393991,1.2966323588400777,0.9806834633779202,0.2854072010262122,0.7194172311510568
0.063,1.7218702828143373,1.0,2982.426182550134,0.5077468010483497,1.2962128777546205,0.9808681506354447,0.2853715518782022,0.72021023932502
0.0635,1.7210214935760026,1.0,2986.561958468161,0.5105079236265878,1.2957936027423238,0.9810488755153445,0.2853359027301921,0.7210017365328965
0.064,1.7201727043376678,1.0,2990.6771949931326,0.513253578256129,1.2953745309704088,0.9812257512929649,0.28530025358218203,0.7217917297640658
0.0645,1.7193239150993331,1.0,2994.772170242873,0.5159838470189886,1.2949556596060963,0.9813988871666248,0.285264604434172,0.7225802259768261
0.065,1.7184751258609983,1.0,2998.8471634976568,0.5186988119971818,1.2945369858166076,0.9815683884341211,0.28522895528616193,0.7233672320984296
0.0655,1.7176263366226636,1.0,3002.902455188188,0.5213985552727242,1.2941185067691634,0.9817343566603615,0.28519330613815186,0.7241527550251199
0.066,1.716777547384329,1.0,3006.9383268830766,0.5240831589276309,1.293700219630985,0.9818968898366286,0.28515765699014184,0.7249368016221657
0.0665,1.715928758145994,1.0,3010.9550612765943,0.5267527050439175,1.2932821215692933,0.9820560825319562,0.28512200784213176,0.7257193787238975
0.067,1.7150799689076595,1.0,3014.9529421768098,0.5294072757035992,1.2928642097513097,0.9822120260370519,0.2850863586941217,0.7265004931337402
0.0675,1.7142311796693246,1.0,3018.932254493978,0.5320469529886915,1.2924464813442547,0.9823648085011952,0.2850507095461116,0.7272801516242491
0.068,1.71338239043099,1.0,3022.8932842286185,0.5346718189812097,1.2920289335153494,0.9825145150624892,0.2850150603981016,0.7280583609371416
0.0685,1.712533601192655,1.0,3026.8363184601226,0.5372819557631692,1.2916115634318153,0.9826612279718401,0.2849794112500915,0.7288351277833303
0.069,1.7116848119543204,1.0,3030.76164533581,0.5398774454165853,1.2911943682608729,0.9828050267110052,0.28494376210208144,0.7296104588429565
0.0695,1.7108360227159856,1.0,3034.6695540595415,0.5424583700234733,1.2907773451697435,0.9829459881050311,0.28490811295407137,0.7303843607654203
0.07,1.709987233477651,1.0,3038.5603348810328,0.5450248116658487,1.2903604913256483,0.9830841864293879,0.28487246380606135,0.7311568401694135
0.07050000000000001,1.7091384442393163,1.0,3042.4342790848214,0.5475768524257268,1.289943803895808,0.9832196935120799,0.2848368146580513,0.7319279036429505
0.07100000000000001,1.7082896550009814,1.0,3046.2916789800393,0.550114574385123,1.289527280047444,0.9833525788310054,0.2848011655100412,0.7326975577433958
