Time [s],Phi [rad],STIM [ ],Fsee [N],Gamma [ ],Lcerel [ ],q [ ],Lmtc [m],fisomrel [ ]
0.0,1.8,1.0,17.967527018250326,1.0004553419514813e-05,1.3793397048963227,0.00500002667595086,0.288653,0.5411396310241416
0.0005,1.79999375,1.0,18.276826362239603,0.005619157744581076,1.379302378656898,0.012940526411900213,0.2886527375,0.5412299283967447
0.001,1.799975,1.0,21.61842883221804,0.011196848021262737,1.378938297285315,0.03560859961842809,0.28865195,0.542110225926359
0.0015,1.79994375,1.0,31.069196559259602,0.016743251866398367,1.378046207089556,0.0706017364048623,0.2886506375,0.5442636011007669
0.002,1.7999,1.0,53.582100336843936,0.022258544771272207,1.3763681503386755,0.11471787357044501,0.2886488,0.5483004317941458
0.0025,1.79984375,1.0,97.11829076074821,0.02774290124307935,1.373935198431493,0.16457471434016593,0.28864643749999996,0.5541213883099492
0.003,1.7997750000000001,1.0,160.95738158033203,0.033196494812645895,1.3712143731486082,0.2172802693961584,0.28864354999999997,0.5605863812751464
0.0035,1.79969375,1.0,237.68247107184183,0.03861949803401823,1.368584760737965,0.27061270443854546,0.2886401375,0.5667897772695696
0.004,1.7996,1.0,321.4658907172089,0.04401208249524578,1.366156115720487,0.32291562320670714,0.2886362,0.5724799072719561
0.0045000000000000005,1.7994937500000001,1.0,409.26688446838557,0.04937441882356544,1.3639228345024426,0.3730343382755879,0.2886317375,0.57767911520315
0.005,1.799375,1.0,499.4126464891416,0.054706676676489915,1.3618583605724206,0.42024730282986994,0.28862675,0.5824570372571429
0.0055,1.79924375,1.0,590.7895798403538,0.06000902478928824,1.359938851396766,0.464173552675786,0.2886212375,0.5868750741555382
0.006,1.7991000000000001,1.0,682.5172896115275,0.0652816309181068,1.3581464296294896,0.5046798291627068,0.2886152,0.590979384386636
0.006500000000000001,1.79894375,1.0,773.8805422038979,0.0705246618956035,1.356467265834016,0.5418006389381659,0.2886086375,0.5948057665459853
0.007,1.798775,1.0,864.2850605279249,0.0757382836145388,1.35489040712219,0.5756766721811618,0.28860155,0.5983826496576727
0.0075,1.79859375,1.0,953.242570490387,0.08092266103751103,1.3534067891106865,0.6065098174502744,0.2885939375,0.6017335504160548
0.008,1.7984,1.0,1040.344097029715,0.08607795779528121,1.3520088577314986,0.6345320896784713,0.2885858,0.6048780742301199
0.0085,1.79819375,1.0,1125.3142019202014,0.09120433799539408,1.3506892418608074,0.6599843528704551,0.2885771375,0.607834998861901
0.009000000000000001,1.797975,1.0,1207.8998677414543,0.09630196357132173,1.3494420393251627,0.6831041229751297,0.28856795,0.6106194552049472
0.0095,1.79774375,1.0,1287.891788000421,0.10137099504835792,1.348262129330975,0.7041174158197786,0.2885582375,0.6132445448783652
0.01,1.7975,1.0,1365.166597578844,0.10641159295179645,1.3471443910846546,0.7232341717508822,0.288548,0.6157231241660217
0.0105,1.79724375,1.0,1439.659139230563,0.11142391723214713,1.3460839508926479,0.740646608994151,0.2885372375,0.6180672797657376
0.011,1.796975,1.0,1511.322043926697,0.11640812665445191,1.3450765557228301,0.7565290808627619,0.28852595000000003,0.6202875340895042
0.0115,1.79669375,1.0,1580.1206913745064,0.12136437839661007,1.3441184868945781,0.771038567608786,0.2885141375,0.6223930707187055
0.012,1.7964,1.0,1646.0565824096502,0.12629282909337905,1.3432061699714766,0.7843155518064383,0.28850180000000003,0.624392617645121
0.0125,1.79609375,1.0,1709.1736192884343,0.13119363561700803,1.3423360388760612,0.7964852918154762,0.2884889375,0.6262947592048722
0.013000000000000001,1.7957750000000001,1.0,1769.5065234719007,0.13606695282142647,1.3415050731018108,0.8076594602450942,0.28847555,0.628106776293772
0.0135,1.79544375,1.0,1827.0915910350052,0.14091293415494638,1.3407105943821367,0.817937436447525,0.2884616375,0.629835111211005
0.014,1.7951000000000001,1.0,1881.9927590284442,0.1457317330658797,1.3399499244504505,0.8274075030182353,0.2884472,0.6314861252108834
0.0145,1.79474375,1.0,1934.2784818773684,0.1505235019812994,1.339220608563798,0.8361481731119281,0.2884322375,0.6330656209362451
0.015,1.794375,1.0,1984.05001418085,0.15528839392099328,1.3385200757295939,0.8442291971005135,0.28841675,0.6345795865051979
0.0155,1.79399375,1.0,2031.3703922733953,0.1600265586250652,1.337846373282425,0.8517128280276408,0.2884007375,0.6360326149869653
0.016,1.7936,1.0,2076.3109695422204,0.16473814543250453,1.3371976285203184,0.8586545262582373,0.2883842,0.6374290794651574
0.0165,1.7931937500000001,1.0,2118.957411787011,0.16942330368230057,1.336571968741301,0.8651037392226095,0.2883671375,0.6387733094949132
0.017,1.792775,1.0,2159.3905467357713,0.17408218150410348,1.3359677043599822,0.871104666516254,0.28834955,0.6400692016169757
0.0175,1.7923437500000001,1.0,2197.7175857639354,0.17871492791110766,1.3353829929267649,0.8766967843880222,0.2883314375,0.6413209440544821
0.018000000000000002,1.7919,1.0,2234.010174227001,0.1833216883950702,1.3348164579236461,0.8819155675488323,0.2883128,0.6425316948452274
0.0185,1.79144375,1.0,2268.342461051184,0.1879026080359339,1.334266781562842,0.886792845521906,0.2882936375,0.6437044602793983
0.019,1.790975,1.0,2300.796114908189,0.19245783191364152,1.3337326460565686,0.8913572095123241,0.28827395,0.6448422224364831
0.0195,1.79049375,1.0,2331.4512724961264,0.1969875040104533,1.3332128163634047,0.8956344032014565,0.2882537375,0.6459477647039793
0.02,1.79,1.0,2360.3966551999742,0.20149176937975352,1.3327060328954228,0.8996476216415162,0.288233,0.6470239020248402
0.0205,1.78949375,1.0,2387.703392510232,0.20597077006877615,1.3322112614728037,0.9034178513905574,0.2882117375,0.6480729520109965
0.021,1.788975,1.0,2413.437024829878,0.21042464669879665,1.3317275663901118,0.906964086462673,0.28818995000000003,0.6490970079620344
0.021500000000000002,1.78844375,1.0,2437.6670934817157,0.21485353989109054,1.3312540119419112,0.9103035258583053,0.2881676375,0.650098149146646
0.022,1.7879,1.0,2460.466803510378,0.21925759026693326,1.330789662422766,0.9134517679564703,0.2881448,0.6510784414356905
0.0225,1.78734375,1.0,2481.898758196887,0.22363693592741607,1.3303337150799852,0.9164230066729705,0.28812143749999997,0.6520396577852524
0.023,1.786775,1.0,2502.045138055759,0.22799171929699685,1.3298852080854702,0.9192301261078556,0.28809755,0.6529838950459377
0.0235,1.78619375,1.0,2520.9598843796207,0.23232207684980313,1.3294434734815006,0.921884917368317,0.28807313749999996,0.6539126204733541
0.024,1.7856,1.0,2538.6946105181037,0.23662814418230999,1.3290078852808462,0.9243981456054823,0.2880482,0.654827204792811
0.0245,1.78499375,1.0,2555.3028178275686,0.2409100568909924,1.3285778174962768,0.926779646782213,0.2880227375,0.6557290109993095
0.025,1.784375,1.0,2570.839736359148,0.24516795057232546,1.3281526441405618,0.9290384206251279,0.28799675,0.6566193945904268
0.025500000000000002,1.78374375,1.0,2585.3621742350106,0.24940196082278418,1.3277317392264711,0.9311827131474224,0.2879702375,0.6574997037742103
0.026000000000000002,1.7831000000000001,1.0,2598.9181425640604,0.2536122195457361,1.327314572090263,0.9332201038555367,0.2879432,0.6583710806676275
0.0265,1.78244375,1.0,2611.569225004894,0.25779886518530265,1.3269004971262797,0.935157540590965,0.2879156375,0.6592349010796914
0.027,1.781775,1.0,2623.3553630009046,0.2619620286287211,1.3264890805851774,0.9370014441884709,0.28788755,0.6600920926614972
0.0275,1.7810937500000001,1.0,2634.3151452652737,0.2661018399266629,1.326079909522221,0.9387577308925372,0.2878589375,0.6609435350955999
0.028,1.7804,1.0,2644.487961225715,0.27021842912979976,1.3256725709926744,0.9404318561079501,0.2878298,0.6617901036448388
0.0285,1.77969375,1.0,2653.913930670775,0.27431192628880324,1.3252666520518017,0.942028856344825,0.2878001375,0.6626326692060336
0.029,1.778975,1.0,2662.633837177885,0.278382461454345,1.3248617397548672,0.9435533868398039,0.28776995,0.6634720983528091
0.029500000000000002,1.7782437500000001,1.0,2670.686781634862,0.28243016338232474,1.3244574421422934,0.9450097577488334,0.2877392375,0.6643092099441337
0.03,1.7775,1.0,2678.1042772221795,0.28645515692711737,1.3240534417394818,0.9464019705300005,0.287708,0.6651446648494779
0.0305,1.77674375,1.0,2684.936304420385,0.29045757955058793,1.323649255812329,0.9477337186884665,0.2876762375,0.6659794617733599
0.031,1.775975,1.0,2691.2078641233575,0.29443755485305184,1.3232446346728566,0.9490084564581613,0.28764395,0.6668141140153427
0.0315,1.7751937500000001,1.0,2696.944270878208,0.2983952064348245,1.322839328633086,0.9502293937901842,0.2876111375,0.6676491322950839
0.032,1.7744,1.0,2702.171124734155,0.3023306578962212,1.322433088005039,0.9513995166467455,0.2875778,0.6684850247434144
0.0325,1.77359375,1.0,2706.9142844743715,0.3062440328375574,1.322025663100737,0.9525216053742183,0.2875439375,0.6693222968894472
0.033,1.772775,1.0,2711.1998422289917,0.31013545485914856,1.3216168042322016,0.9535982513577144,0.28750955,0.6701614516437044
0.0335,1.7719437500000002,1.0,2715.054099471352,0.31400504756131,1.3212062617114544,0.954631872136278,0.2874746375,0.6710029892772726
0.034,1.7711000000000001,1.0,2718.503544395851,0.31785293454435704,1.320793785850517,0.9556247251373567,0.2874392,0.6718474073969791
0.0345,1.7702437500000001,1.0,2721.5744610801194,0.32167923901304263,1.3203791303258103,0.9565789204392587,0.2874032375,0.6726951940423388
0.035,1.7693750000000001,1.0,2724.2886648912363,0.3254840817940093,1.3199620907896732,0.957496435794541,0.28736675,0.6735467489078474
0.035500000000000004,1.76849375,1.0,2726.665200541378,0.32926758340242657,1.3195424891698802,0.9583791254971521,0.2873297375,0.6744024158645314
0.036000000000000004,1.7676,1.0,2728.7217893706584,0.3330298624383404,1.3191201603327707,0.9592287278655309,0.2872922,0.6752625104247025
0.0365,1.76669375,1.0,2730.476238935784,0.3367710375017965,1.3186949391446838,0.9600468729974817,0.2872541375,0.6761273461848414
0.037,1.765775,1.0,2731.946432628368,0.3404912271928409,1.3182666604719586,0.9608350907261658,0.28721555,0.6769972347960045
0.0375,1.76484375,1.0,2733.164879950516,0.34419053742706096,1.3178350269241499,0.961594802251315,0.2871764375,0.6778727540182554
0.038,1.7639004412415074,1.0,2734.1561868881163,0.3478690999463205,1.3174000127711056,0.9623273751851528,0.2871368185321433,0.6787539282299171
0.0385,1.762953762542109,1.0,2735.3242249160253,0.3515270385277436,1.316961873607742,0.963034120589243,0.28709705802676855,0.6796402126245848
0.039,1.7620070838427104,1.0,2736.815995506675,0.3551644650880163,1.3165207979509217,0.9637162635483076,0.28705729752139386,0.6805312004608157
0.0395,1.7610604051433119,1.0,2738.610988771849,0.35878149154382466,1.3160769743175074,0.9643749578162627,0.28701753701601906,0.6814264869460771
0.04,1.7601137264439133,1.0,2740.688720190067,0.3623782298118547,1.315630591224361,0.9650112907366799,0.2869777765106444,0.6823256692709192
0.0405,1.7591670477445147,1.0,2743.0287195141373,0.36595479180879237,1.3151818371883452,0.9656262877741273,0.2869380160052696,0.6832283466408783
0.041,1.7582203690451161,1.0,2745.6105204681053,0.36951128945132367,1.3147309007263228,0.9662209166909034,0.2868982554998949,0.6841341203061146
0.0415,1.7572736903457176,1.0,2748.4136512305317,0.37304783465613467,1.3142779703551557,0.9667960914003009,0.28685849499452015,0.6850425935887878
0.042,1.756327011646319,1.0,2751.4176257074278,0.37656453933991135,1.3138232345917065,0.9673526755245212,0.2868187344891454,0.6859533719081594
0.0425,1.7553803329469204,1.0,2754.6019355916856,0.38006151541933975,1.3133668819528375,0.9678914856826563,0.28677897398377067,0.6868660628034324
0.043000000000000003,1.7544336542475218,1.0,2757.946043211245,0.38353887481110577,1.3129091009554115,0.9684132945317463,0.2867392134783959,0.6877802759543243
0.043500000000000004,1.7534869755481233,1.0,2761.4293751650725,0.38699672943189556,1.3124500801162906,0.9689188335817471,0.2866994529730212,0.6886956231993737
0.044,1.752540296848725,1.0,2765.0337598283036,0.39043518883971556,1.3119899858887982,0.9694087937057501,0.28665969246764644,0.6896117624525111
0.0445,1.7515936181493263,1.0,2768.7599404757657,0.39385435016896453,1.3115288136630254,0.9698838146592792,0.2866199319622717,0.6905286934238137
0.045,1.7506469394499278,1.0,2772.5772886599493,0.3972543438122611,1.311066841843378,0.9703445298670054,0.28658017145689696,0.6914458542907745
0.0455,1.7497002607505292,1.0,2776.4796037890496,0.40063527350587047,1.310604127962751,0.9707915198294094,0.2865404109515222,0.6923631240194486
0.046,1.7487535820511306,1.0,2780.460671179618,0.4039972429860581,1.31014072955404,0.971225335828788,0.2865006504461475,0.6932803822439026
0.0465,1.747806903351732,1.0,2784.5142611467204,0.40734035598908913,1.30967670415014,0.9716465016816145,0.28646088994077273,0.6941975092688351
0.047,1.7468602246523335,1.0,2788.6341281674545,0.4106647162512289,1.3092121092839466,0.9720555153697584,0.286421129435398,0.6951143860719792
0.0475,1.745913545952935,1.0,2792.814010117957,0.4139704275087428,1.3087470024883547,0.972452850560008,0.28638136893002325,0.6960308943063006
0.048,1.7449668672535363,1.0,2797.0476275833935,0.417257593497896,1.30828144129626,0.9728389580205219,0.2863416084246485,0.696946916301979
0.0485,1.7440201885541378,1.0,2801.3286832420413,0.4205263179549539,1.3078154832405575,0.9732142669420977,0.28630184791927377,0.6978623350681825
0.049,1.7430735098547392,1.0,2805.650861322094,0.42377670461618167,1.3073491858541424,0.973579186171473,0.286262087413899,0.6987770342946296
0.0495,1.7421268311553408,1.0,2810.0078271321186,0.42700885721784476,1.3068826066699102,0.9739341053632732,0.28622232690852434,0.6996908983529375
0.05,1.7411801524559423,1.0,2814.3932266649026,0.43022287949620835,1.3064158032207562,0.974279396056662,0.28618256640314954,0.700603812297764
0.0505,1.7402334737565437,1.0,2818.8006862751567,0.43341887518753786,1.3059488330395754,0.9746154126822513,0.28614280589777485,0.7015156618677361
0.051000000000000004,1.7392867950571451,1.0,2823.228582540711,0.4365969360670987,1.3054817110265402,0.9749424893885054,0.2861030453924001,0.7024264165443157
0.051500000000000004,1.7383401163577465,1.0,2827.671248342987,0.4397571732927748,1.30501448814855,0.9752609497222401,0.28606328488702537,0.7033359758274174
0.052000000000000005,1.737393437658348,1.0,2832.123859487919,0.4428996925397888,1.3045472076915046,0.9755711016436188,0.28602352438165063,0.70424425474269
0.0525,1.7364467589589494,1.0,2836.5846982804105,0.4460245899619236,1.3040798851067892,0.975873236696388,0.2859837638762759,0.7051512228107204
0.053,1.7355000802595508,1.0,2841.0520415884366,0.4491319617129624,1.3036125358457877,0.97616763364404,0.28594400337090115,0.7060568497362572
0.0535,1.7345534015601523,1.0,2845.52416083056,0.452221903946688,1.3031451753598848,0.9764545591403057,0.2859042428655264,0.706961105408242
0.054,1.7336067228607537,1.0,2849.9993219698704,0.45529451281688343,1.302677819100465,0.9767342683589506,0.28586448236015166,0.7078639598998282
0.0545,1.732660044161355,1.0,2854.47578551252,0.45834988447733166,1.3022104825189131,0.9770070055856716,0.2858247218547769,0.7087653834683856
0.055,1.7317133654619568,1.0,2858.9518065122197,0.46138811508181565,1.3017431810666131,0.9772730047746733,0.2857849613494022,0.7096653465554883
0.0555,1.7307666867625582,1.0,2863.4256345790895,0.4644093007841184,1.3012759301949497,0.9775324900723132,0.28574520084402744,0.7105638197868871
0.056,1.7298200080631596,1.0,2867.895513894678,0.46741353773802286,1.3008087453553077,0.9777856763100184,0.2857054403386527,0.7114607739724671
0.0565,1.728873329363761,1.0,2872.3596832320004,0.47040092209731205,1.300341641999071,0.9780327694685174,0.28566567983327795,0.7123561801061923
0.057,1.7279266506643625,1.0,2876.8163759805075,0.4733715500157689,1.2998746355776245,0.9782739671152787,0.2856259193279032,0.7132500093660297
0.0575,1.726979971964964,1.0,2881.2642446962745,0.4763255132777717,1.299407737786631,0.9785094582208076,0.28558615882252847,0.7141422402853698
0.058,1.7260332932655653,1.0,2885.704385920283,0.47926288546413237,1.2989409386810165,0.9787394213950675,0.2855463983171537,0.7150328927950025
0.0585,1.7250866145661667,1.0,2890.1327424963306,0.48218379715199455,1.2984742738716206,0.9789640355532292,0.285506637811779,0.715921899989824
0.059000000000000004,1.7241399358667682,1.0,2894.54905879533,0.4850883364714119,1.2980077453062553,0.9791834670752836,0.28546687730640424,0.7168092593669709
0.059500000000000004,1.7231932571673696,1.0,2898.953078636861,0.48797659155243794,1.2975413549327317,0.9793978758433228,0.2854271168010295,0.71769496844641
0.06,1.7222465784679712,1.0,2903.344545295124,0.4908486505251263,1.2970751046988616,0.9796074155462152,0.2853873562956548,0.7185790247709198
0.0605,1.7212998997685727,1.0,2907.723201504716,0.49370460151953044,1.296608996552456,0.9798122339677102,0.28534759579028,0.719461425906075
0.061,1.720353221069174,1.0,2912.0887894673338,0.49654453266570414,1.2961430324413268,0.9800124732590033,0.28530783528490533,0.7203421694402272
0.0615,1.7194065423697755,1.0,2916.4410508571054,0.49936853209370086,1.295677214313285,0.9802082701967049,0.2852680747795306,0.7212212529844888
0.062,1.718459863670377,1.0,2920.7797268275294,0.5021766879335742,1.2952115441161425,0.9803997564271026,0.28522831427415585,0.7220986741727132
0.0625,1.7175131849709784,1.0,2925.1045580176196,0.5049690883153778,1.2947460237977104,0.9805870586975469,0.2851885537687811,0.722974430661478
0.063,1.7165665062715798,1.0,2929.4152845581634,0.5077458213691652,1.2942806553058004,0.9807702990757221,0.28514879326340636,0.723848520130066
0.0635,1.7156198275721812,1.0,2933.7116460783755,0.51050697522499,1.2938154405882238,0.9809495951575323,0.2851090327580316,0.7247209402804462
0.064,1.7146731488727827,1.0,2937.993381712698,0.5132526380129058,1.293350381592792,0.9811250602642658,0.2850692722526569,0.7255916888372554
0.0645,1.713726470173384,1.0,2942.2602301070424,0.515982897862966,1.2928854802673169,0.9812968036296695,0.28502951174728214,0.7264607635477779
0.065,1.7127797914739857,1.0,2946.5119294259316,0.5186978429052246,1.2924207385596094,0.9814649305775202,0.2849897512419074,0.7273281621819279
0.0655,1.7118331127745872,1.0,2950.748217359111,0.5213975612697348,1.291956158417481,0.9816295426902362,0.28494999073653265,0.728193882532228
0.066,1.7108864340751886,1.0,2954.969098974321,0.524082119614536,1.2914917394488534,0.981790736397245,0.2849102302311579,0.7290579267636536
0.0665,1.70993975537579,1.0,2959.174987880425,0.526751581421932,1.2910274776978137,0.9819486043984273,0.28487046972578317,0.7299203036506651
0.067,1.7089930766763914,1.0,2963.365257687234,0.5294060963386737,1.2905633782936636,0.9821032423330692,0.28483070922040843,0.7307810050847364
0.0675,1.7080463979769929,1.0,2967.5400139899416,0.5320457429965217,1.2900994399716605,0.9822547375321687,0.2847909487150337,0.73164003484735
0.068,1.7070997192775943,1.0,2971.6993629654844,0.5346706000272362,1.2896356614670617,0.9824031743501037,0.28475118820965895,0.7324973967045205
0.0685,1.7061530405781957,1.0,2975.843411368347,0.5372807460625776,1.2891720415151235,0.9825486342869173,0.2847114277042842,0.7333530944068102
0.069,1.7052063618787971,1.0,2979.972266525689,0.539876259734306,1.2887085788511037,0.982691196104766,0.28467166719890946,0.7342071316893369
0.0695,1.7042596831793986,1.0,2984.08603633326,0.5424572196741819,1.2882452722102589,0.9828309359388487,0.2846319066935347,0.7350595122717913
0.07,1.70331300448,1.0,2988.184829250833,0.5450237045139656,1.287782120327846,0.9829679274031121,0.28459214618816,0.7359102398584478
0.07050000000000001,1.7023663257806017,1.0,2992.2687542979197,0.5475757928854175,1.287319121939122,0.9831022416910108,0.2845523856827853,0.7367593181381757
0.07100000000000001,1.701419647081203,1.0,2996.337921049135,0.5501135634202977,1.2868562757793445,0.9832339476715894,0.2845126251774105,0.7376067507844537
0.07150000000000001,1.7004729683818045,1.0,3000.392439630704,0.5526370947503668,1.2863935805837698,0.9833631119811319,0.2844728646720358,0.7384525414553818
