Time [s],Phi [rad],STIM [ ],Fsee [N],Gamma [ ],Lcerel [ ],q [ ],Lmtc [m],fisomrel [ ]
0.0,1.8,1.0,17.967855866010176,1.0084997629270235e-05,1.3793396680549226,0.005000027104949809,0.288653,0.5411397201530012
0.0005,1.79999375,1.0,18.277151893817614,0.005619237737562344,1.3793023424969186,0.012940749078829635,0.2886527375,0.5412300158684638
0.001,1.799975,1.0,21.618796389408608,0.011196927565546718,1.3789382597449586,0.035609016642469966,0.28865195,0.5421103166500709
0.0015,1.79994375,1.0,31.06968926274821,0.01674333096450173,1.3780461651130502,0.07060230653727924,0.2886506375,0.5442637023064936
0.002,1.7999,1.0,53.58285249740025,0.022258623425697788,1.3763681015424147,0.1147185486211281,0.2886488,0.5483005489201487
0.0025,1.79984375,1.0,97.11936174258453,0.02774297945631578,1.3739351468234047,0.16457544916349118,0.28864643749999996,0.5541215113844349
0.003,1.7997750000000001,1.0,160.95867311910303,0.03319657258716793,1.371214324805062,0.21728102813593833,0.28864354999999997,0.5605864957255167
0.0035,1.79969375,1.0,237.68387151796856,0.03861957537228673,1.3685847176005053,0.27061345967838724,0.2886401375,0.5667898786714152
0.004,1.7996,1.0,321.46734114075133,0.04401215939970777,1.3661560773042978,0.3229163549318054,0.2886362,0.5724799969806413
0.0045000000000000005,1.7994937500000001,1.0,409.2683573099419,0.049374495296654164,1.3639227999292318,0.3730350332021866,0.2886317375,0.5776791954453709
0.005,1.799375,1.0,499.4141252375038,0.05470675272062338,1.361858329149137,0.4202479532483264,0.28862675,0.5824571097748559
0.0055,1.79924375,1.0,590.7910548760156,0.060009100406876834,1.359938822578144,0.464174155034637,0.2886212375,0.5868751403095007
0.006,1.7991000000000001,1.0,682.518750052486,0.06528170611154155,1.3581464030825587,0.504680382889736,0.2886152,0.5909794450224024
0.006500000000000001,1.79894375,1.0,773.8819796700737,0.0705247366672626,1.3564672412955252,0.5418011453698214,0.2886086375,0.5948058223314981
0.007,1.798775,1.0,864.2864757257222,0.07573835796678573,1.3548903842622104,0.57567713373933,0.28860155,0.5983827013973873
0.0075,1.79859375,1.0,953.2439576718149,0.08092273497269643,1.353406767774403,0.606510237273092,0.2885939375,0.6017335985052588
0.008,1.7984,1.0,1040.3450273411731,0.08607803129667026,1.352008844034445,0.6345324748061424,0.2885858,0.6048781049793805
0.0085,1.79819375,1.0,1125.3149632269783,0.09120441107940797,1.3506892310835041,0.6599847039099888,0.2885771375,0.6078350229657545
0.009000000000000001,1.797975,1.0,1207.9012761772105,0.0963020362721498,1.3494420200805652,0.6831044369818754,0.28856795,0.6106194980931564
0.0095,1.79774375,1.0,1287.8938471440697,0.10137106736528018,1.3482621020830043,0.7041176965576447,0.2885582375,0.6132446053977266
0.01,1.7975,1.0,1365.1683821419904,0.10641166484918362,1.3471443681481976,0.723234428741282,0.288548,0.6157231749457546
0.0105,1.79724375,1.0,1439.6595842071702,0.11142398870766404,1.3460839453234237,0.7406468512523114,0.2885372375,0.6180672920579512
0.011,1.796975,1.0,1511.322178400389,0.11640819772658799,1.3450765540801757,0.7565293037418149,0.28852595000000003,0.620287537704565
0.0115,1.79669375,1.0,1580.1213754627488,0.12136444908372833,1.3441184787220892,0.7710387683841414,0.2885141375,0.622393088654321
0.012,1.7964,1.0,1646.058289233806,0.12629289944595803,1.3432061499934003,0.7843157304771551,0.28850180000000003,0.6243926613734301
0.0125,1.79609375,1.0,1709.174832247396,0.13119370554133442,1.3423360249432001,0.7964854578209958,0.2884889375,0.6262947896240072
0.013000000000000001,1.7957750000000001,1.0,1769.5071551630876,0.13606702229799972,1.341505065970554,0.8076596151837767,0.28847555,0.6281067918254066
0.0135,1.79544375,1.0,1827.091648955706,0.14091300321055295,1.3407105937386479,0.8179375814140238,0.2884616375,0.6298351126092412
0.014,1.7951000000000001,1.0,1881.9923515754197,0.1457318017735932,1.339949928910667,0.8274076386632072,0.2884472,0.6314861155409196
0.0145,1.79474375,1.0,1934.2811309065191,0.15052357034245592,1.339220579960608,0.8361482867113399,0.2884322375,0.6330656828162906
0.015,1.794375,1.0,1984.0553339411554,0.15528846195893797,1.338520019013953,0.8442292922943448,0.28841675,0.6345797089502325
0.0155,1.79399375,1.0,2031.3747181299987,0.1600266262189876,1.3378463277034343,0.8517129191648508,0.2884007375,0.6360327131929329
0.016,1.7936,1.0,2076.3126364859227,0.16473821257580748,1.3371976111478305,0.8586546192062227,0.2883842,0.6374291168246061
0.0165,1.7931937500000001,1.0,2118.9568568798545,0.16942337048260014,1.3365719744659201,0.8651038325595916,0.2883671375,0.6387732972069898
0.017,1.792775,1.0,2159.3907418182553,0.17408224778955547,1.3359677023663732,0.8711047510366826,0.28834955,0.6400692058885844
0.0175,1.7923437500000001,1.0,2197.720968575498,0.17871499397167612,1.335382958659529,0.8766968542348517,0.2883314375,0.6413210173494283
0.018000000000000002,1.7919,1.0,2234.0148912953655,0.18332175418590715,1.3348164105303684,0.8819156290253531,0.2883128,0.6425317960445148
0.0185,1.79144375,1.0,2268.3470328909543,0.18790267349105552,1.3342667359776437,0.8867929031523355,0.2882936375,0.6437045574580749
0.019,1.790975,1.0,2300.7994538450967,0.19245789694592835,1.333732613000107,0.8913572662683413,0.28827395,0.6448422927937525
0.0195,1.79049375,1.0,2331.452974244772,0.19698756853873298,1.3332127996267158,0.8956344600611342,0.2882537375,0.6459478002708106
0.02,1.79,1.0,2360.3965916461443,0.20149183318384495,1.33270603351663,0.8996476787080782,0.288233,0.6470239007067315
0.0205,1.78949375,1.0,2387.706561801682,0.2059708336733096,1.3322112306722,0.9034178979858418,0.2882117375,0.6480730172680558
0.021,1.788975,1.0,2413.4455341328858,0.21042471032079998,1.3317274841349807,0.906964119041176,0.28818995000000003,0.6490971819817479
0.021500000000000002,1.78844375,1.0,2437.680089023135,0.2148536034399892,1.331253886946526,0.9103035471461011,0.2881676375,0.6500984132105172
0.022,1.7879,1.0,2460.48041109292,0.21925765334455027,1.3307895321483907,0.9134517861906891,0.2881448,0.6510787162660996
0.0225,1.78734375,1.0,2481.9149911718705,0.22363699938665457,1.3303335603434898,0.9164230188090013,0.28812143749999997,0.6520399837716645
0.023,1.786775,1.0,2502.052025481214,0.22799178093671807,1.329885142697716,0.9192301533180535,0.28809755,0.6529840326125878
0.0235,1.78619375,1.0,2520.9623830448245,0.23232213775821436,1.3294434498488534,0.9218849504885457,0.28807313749999996,0.6539126701265497
0.024,1.7856,1.0,2538.6961601453877,0.236628205037897,1.3290078706755848,0.9243981787109302,0.2880482,0.654827235438513
0.0245,1.78499375,1.0,2555.305312914375,0.24091011796251946,1.328577794056593,0.9267796768534468,0.2880227375,0.6557290601176757
0.025,1.784375,1.0,2570.843502146183,0.2451680117188353,1.3281526088705606,0.9290384472487334,0.28799675,0.656619468403842
0.025500000000000002,1.78374375,1.0,2585.3659463925537,0.24940202149359797,1.3277317039961707,0.9311827382477633,0.2879702375,0.6574997774099693
0.026000000000000002,1.7831000000000001,1.0,2598.922488958101,0.2536122808236744,1.327314531602853,0.9332201271979871,0.2879432,0.6583711651836894
0.0265,1.78244375,1.0,2611.5650440105474,0.25779892439317953,1.3269005359785466,0.9351575745294758,0.2879156375,0.6592348200795247
0.027,1.781775,1.0,2623.3485471302906,0.2619620869245636,1.3264891437798454,0.9370014801762245,0.28788755,0.6600919610774982
0.0275,1.7810937500000001,1.0,2634.3099082982612,0.2661018980899141,1.32607995797666,0.9387577632588658,0.2878589375,0.6609434343301648
0.028,1.7804,1.0,2644.4868191879277,0.2702184875613186,1.325672581538901,0.9404318817892539,0.2878298,0.661790081740395
0.0285,1.77969375,1.0,2653.9176857973384,0.27431198501086496,1.3252666174364789,0.9420288746419003,0.2878001375,0.6626327410122171
0.029,1.778975,1.0,2662.6415645764146,0.27838252011064063,1.3248616686393044,0.943553399198964,0.28776995,0.6634722456916032
0.029500000000000002,1.7782437500000001,1.0,2670.6981020488124,0.2824302225327333,1.3244573381172882,0.9450097651618681,0.2877392375,0.6643094251972058
0.03,1.7775,1.0,2678.121721672236,0.2864552211897918,1.3240532816620119,0.9464019717646461,0.287708,0.665144995676278
0.0305,1.77674375,1.0,2684.9492340831266,0.29045764343752867,1.32364913731541,0.9477337248928424,0.2876762375,0.6659797063615781
0.031,1.775975,1.0,2691.211658367023,0.2944376152646262,1.3232445999401345,0.9490084717940793,0.28764395,0.6668141856171632
0.0315,1.7751937500000001,1.0,2696.9361687992364,0.2983952622634976,1.3228394027211403,0.9502294206668462,0.2876111375,0.6676489797533718
0.032,1.774402601324386,1.0,2702.2788002241136,0.30233070954002467,1.322433279140157,0.9513995557254826,0.2875779092556242,0.6684846317057578
0.0325,1.7736106656352464,1.0,2707.689993061045,0.30624408245471413,1.3220262226748896,0.9525216868413545,0.28754464795668033,0.6693211476713726
0.033,1.7728187299461065,1.0,2713.189810126741,0.3101355052763075,1.321618407569881,0.9535984532158972,0.28751138665773646,0.6701581629853762
0.0335,1.7720267942569667,1.0,2718.764608538593,0.3140051000803618,1.3212099603837308,0.9546323101108273,0.2874781253587926,0.6709954124690117
0.034,1.771234858567827,1.0,2724.4006914451065,0.3178529889424341,1.320801007675039,0.9556255495515629,0.2874448640598487,0.6718326322534427
0.0345,1.7704429228786873,1.0,2730.0843064300784,0.32167929393808126,1.3203916760024053,0.9565803131110657,0.2874116027609049,0.6726695597843424
0.035,1.7696509871895476,1.0,2735.807764979205,0.32548413203052373,1.3199820363536496,0.9574985962935357,0.287378341461961,0.6735060472288636
0.035500000000000004,1.7688590515004077,1.0,2741.5518686545324,0.3292676316730137,1.3195722638169696,0.9583822807951063,0.28734508016301713,0.674341735328116
0.036000000000000004,1.768067115811268,1.0,2747.3083120779975,0.3330299121990773,1.3191624340574033,0.9592331167510819,0.28731181886407325,0.6751764690260003
0.0365,1.7672751801221283,1.0,2753.07167149029,0.33677109039302383,1.3187525963430988,0.9600527418508848,0.2872785575651294,0.676010147718538
0.037,1.7664832444329885,1.0,2758.836500335851,0.3404912830391628,1.318342799942205,0.9608426929159836,0.2872452962661855,0.6768426713168278
0.0375,1.7656913087438488,1.0,2764.597329281485,0.34419060692180364,1.31793309412287,0.961604413245109,0.2872120349672417,0.6776739402469971
0.038,1.764899373054709,1.0,2770.3486662880055,0.3478691788252556,1.3175235281532423,0.962339259346724,0.2871787736682978,0.678503855449991
0.0385,1.7641074373655692,1.0,2776.084996736419,0.35152711553382815,1.3171141513014704,0.9630485071160112,0.28714551236935393,0.6793323183812123
0.039,1.7633155016764295,1.0,2781.8007836074657,0.35516453383183066,1.3167050128357025,0.96373335750776,0.28711225107041005,0.6801592310100049
0.0395,1.7625235659872898,1.0,2787.4924176362247,0.3587815456855078,1.3162961444853765,0.9643949392352598,0.2870789897714662,0.6809845311979779
0.04,1.76173163029815,1.0,2793.156822159333,0.3623782659232868,1.315887573068798,0.9650343163841313,0.2870457284725223,0.6818081670303087
0.0405,1.7609396946090101,1.0,2798.78749468331,0.3659548193134146,1.3154793560521434,0.9656524971868999,0.2870124671735784,0.6826300252070311
0.041,1.7601477589198704,1.0,2804.3834835873754,0.36951131569204565,1.3150715009000622,0.9662504262699031,0.28697920587463455,0.6834500934967542
0.0415,1.7593558232307307,1.0,2809.9438347859027,0.3730478648953344,1.3146640150772044,0.9668289959400435,0.28694594457569067,0.6842683597432808
0.042,1.758563887541591,1.0,2815.4675917894247,0.37656457675943544,1.3142569060482197,0.9673890496252718,0.2869126832767468,0.6850848118654351
0.0425,1.7577719518524513,1.0,2820.9537957659127,0.3800615611205032,1.3138501812777579,0.9679313850548511,0.2868794219778029,0.685899437856883
0.043000000000000003,1.7569800161633113,1.0,2826.401485604084,0.3835389278146922,1.3134438482304687,0.9684567572015372,0.28684616067885904,0.6867122257859533
0.043500000000000004,1.7561880804741716,1.0,2831.8096979774523,0.38699678667815685,1.3130379143710018,0.9689658810057357,0.2868128993799152,0.6875231637954506
0.044,1.755396144785032,1.0,2837.177467409742,0.3904352475470517,1.312632387164007,0.9694594338998213,0.28677963808097134,0.6883322401024693
0.0445,1.7546042090958922,1.0,2842.50382634157,0.3938544202575313,1.3122272740741345,0.9699380581491267,0.28674637678202747,0.6891394429981992
0.045,1.7538122734067525,1.0,2847.7878051987364,0.3972544146457501,1.3118225825660335,0.9704023630246008,0.2867131154830836,0.6899447608477336
0.0455,1.7530203377176126,1.0,2853.0296459506144,0.400635323249154,1.3114183093156215,0.9708529235745852,0.2866798541841397,0.690748203517219
0.046,1.7522284020284729,1.0,2858.229261045302,0.40399725914474843,1.311014453948414,0.9712902890575126,0.28664659288519584,0.6915497749845976
0.0465,1.7514364663393331,1.0,2863.385306871204,0.4073403540380604,1.3106110272485954,0.9717149846749367,0.286613331586252,0.6923494571159833
0.047,1.7506445306501934,1.0,2868.498303983771,0.41066470894620616,1.3102080234432465,0.9721275043824472,0.28658007028730814,0.693147264641053
0.0475,1.7498525949610535,1.0,2873.5687764610925,0.41397042488630204,1.309805436759449,0.9725283180732769,0.28654680898836427,0.6939432122266808
0.048,1.7490606592719138,1.0,2878.597251850037,0.4172576028754644,1.309403261424284,0.972917872975788,0.2865135476894204,0.6947373144770923
0.0485,1.748268723582774,1.0,2883.584261113201,0.42052634393080934,1.3090014916648331,0.9732965949572556,0.2864802863904765,0.695529585934018
0.049,1.7474767878936344,1.0,2888.5303385766924,0.4237767490694534,1.3086001217081775,0.9736648897410486,0.28644702509153264,0.6963200410768432
0.0495,1.7466848522044947,1.0,2893.43602187849,0.42700891930851265,1.3081991457813988,0.9740231440436989,0.28641376379258876,0.6971086943227554
0.05,1.7458929165153547,1.0,2898.3018519177053,0.43022295566510355,1.307798558111578,0.9743717266378168,0.2863805024936449,0.6978955600268926
0.0505,1.745100980826215,1.0,2903.1283728046915,0.4334189591563423,1.3073983529257966,0.9747109893463175,0.286347241194701,0.6986806524824852
0.051000000000000004,1.7443090451370753,1.0,2907.916131811307,0.43659703079934525,1.306998524451136,0.9750412679729739,0.28631397989575713,0.699463985920999
0.051500000000000004,1.7435171094479356,1.0,2912.6656793228412,0.4397572716112287,1.3065990669146772,0.9753628831739041,0.2862807185968133,0.7002455745122746
0.052000000000000005,1.7427251737587959,1.0,2917.3775687894877,0.44289978260910884,1.306199974543502,0.9756761412742353,0.28624745729786943,0.7010254323646643
0.0525,1.741933238069656,1.0,2922.0523566800503,0.44602466481010206,1.3058012415646916,0.9759813350338417,0.28621419599892556,0.7018035735251695
0.053,1.7411413023805162,1.0,2926.69060243496,0.4491320192313246,1.3054028622053273,0.9762787443657487,0.2861809346999817,0.7025800119795723
0.0535,1.7403493666913765,1.0,2931.292868420852,0.45222194688989287,1.3050048306924904,0.9765686370105154,0.2861476734010378,0.7033547616525678
0.054,1.7395574310022368,1.0,2935.859122146204,0.4552945133015569,1.3046071464920619,0.9768512659742308,0.28611441210209393,0.7041278262307511
0.0545,1.738765495313097,1.0,2940.390651309035,0.45834983337590546,1.3042097975169298,0.9771268776676706,0.2860811508031501,0.7048992318071066
0.055,1.7379735596239572,1.0,2944.8888597137643,0.46138803975496945,1.3038127707078873,0.9773957096601078,0.28604788950420623,0.7056690062334079
0.0555,1.7371816239348175,1.0,2949.3543123455233,0.46440922308846583,1.3034160603866805,0.9776579859586552,0.28601462820526236,0.7064371629445991
0.056,1.7363896882456777,1.0,2953.7875768307786,0.46741347402611155,1.3030196608750553,0.9779139212791831,0.2859813669063185,0.7072037153162197
0.0565,1.735597752556538,1.0,2958.1892233977082,0.47040088321762363,1.3026235664947576,0.978163721507884,0.2859481056073746,0.7079686766645186
0.057,1.7348058168673983,1.0,2962.559824837839,0.47337154131271897,1.3022277715675334,0.9784075841362772,0.2859148443084307,0.7087320602465652
0.0575,1.7340138811782584,1.0,2966.8999564675796,0.4763255389611145,1.3018322704151288,0.9786456986713794,0.28588158300948685,0.7094938792603589
0.058,1.7332219454891187,1.0,2971.2101960911164,0.47926296681252734,1.3014370573592897,0.97887824702265,0.285848321710543,0.7102541468449372
0.0585,1.732430009799979,1.0,2975.4911239636854,0.4821839155166744,1.301042126721762,0.979105403867201,0.2858150604115991,0.7110128760804801
0.059000000000000004,1.7316380741108393,1.0,2979.743322755726,0.4850884757232725,1.3006474728242918,0.9793273369946551,0.2857817991126552,0.7117700799884142
0.059500000000000004,1.7308461384216995,1.0,2983.9673775176148,0.48797673808203884,1.300253089988625,0.97954420763294,0.28574853781371135,0.7125257715315134
0.06,1.7300542027325596,1.0,2988.1638756452894,0.49084879324269015,1.2998589725365075,0.9797561707562097,0.28571527651476747,0.7132799636139988
0.0605,1.72926226704342,1.0,2992.3334068463028,0.4937047318549436,1.2994651147896856,0.9799633753760085,0.28568201521582365,0.714032669081634
0.061,1.7284703313542802,1.0,2996.4765631069804,0.4965446445685161,1.2990715110699047,0.9801659648167104,0.28564875391687977,0.7147839007218235
0.0615,1.7276783956651405,1.0,3000.59393865984,0.4993686220331246,1.2986781556989113,0.9803640769761971,0.2856154926179359,0.7155336712637018
0.062,1.7268864599760008,1.0,3004.6861299522448,0.502176754898486,1.2982850429984512,0.9805578445726733,0.285582231318992,0.7162819933782275
0.0625,1.7260945242868608,1.0,3008.7537356153534,0.5049691338143174,1.2978921672902701,0.9807473953784539,0.28554897002004814,0.7170288796782709
0.063,1.7253025885977211,1.0,3012.7973564338276,0.5077458494303356,1.2974995228961144,0.9809328524415056,0.28551570872110427,0.7177743427187
0.0635,1.7245106529085814,1.0,3016.8175953165232,0.5105069923962577,1.2971071041377298,0.9811143342954692,0.28548244742216045,0.7185183949964675
0.064,1.7237187172194417,1.0,3020.8150572676564,0.5132526533618008,1.2967149053368623,0.9812919551588449,0.28544918612321657,0.7192610489506914
0.0645,1.722926781530302,1.0,3024.789463226662,0.5159828820894248,1.29632292846661,0.9814658226268352,0.2854159248242727,0.7200023025031006
0.065,1.722134845841162,1.0,3028.7419425259336,0.5186977971236587,1.2959311633447934,0.9816360446702328,0.2853826635253288,0.7207421765350677
0.0655,1.7213429101520223,1.0,3032.6733697166865,0.5213975044489242,1.2955396020155145,0.9818027246263745,0.28534940222638494,0.7214806876291813
0.066,1.7205509744628826,1.0,3036.584082166292,0.5240820846825371,1.295148241175265,0.9819659606761544,0.28531614092744106,0.7222178435304452
0.0665,1.719759038773743,1.0,3040.4744185000973,0.5267516184418134,1.2947570775205373,0.9821258475732906,0.2852828796284972,0.7229536519501021
0.067,1.718967103084603,1.0,3044.3447185869018,0.5294061863440689,1.2943661077478228,0.9822824767883369,0.2852496183295533,0.7236881205656798
0.0675,1.7181751673954633,1.0,3048.1953235246306,0.5320458690066198,1.293975328553614,0.9824359366456675,0.28521635703060944,0.7244212570210291
0.068,1.7173832317063236,1.0,3052.026575626222,0.5346707470467817,1.2935847366344029,0.9825863124538179,0.28518309573166556,0.7251530689263658
0.0685,1.7165912960171839,1.0,3055.8388184059654,0.537280901081871,1.2931943286866812,0.9827336866295558,0.28514983443272174,0.7258835638583112
0.069,1.7157993603280441,1.0,3059.632396565485,0.5398764117292033,1.2928041014069411,0.9828781388160197,0.28511657313377786,0.726612749359929
0.0695,1.7150074246389042,1.0,3063.407655980945,0.5424573596060946,1.2924140514916749,0.9830197459952488,0.285083311834834,0.7273406329407657
0.07,1.7142154889497645,1.0,3067.164943689518,0.5450238253298609,1.292024175637374,0.9831585825954077,0.2850500505358901,0.7280672220768882
0.07050000000000001,1.7134235532606248,1.0,3070.9046078767274,0.5475758895178182,1.291634470540531,0.9832947205929892,0.28501678923694623,0.728792524210919
0.07100000000000001,1.712631617571485,1.0,3074.626997863677,0.5501136327872824,1.2912449328976376,0.9834282296102639,0.28498352793800236,0.7295165467520744
