Time [s],Phi [rad],STIM [ ],Fsee [N],Gamma [ ],Lcerel [ ],q [ ],Lmtc [m],fisomrel [ ]
0.0,1.8,1.0,17.965729984402383,1.0060895488314914e-05,1.3793399062271794,0.005000026976074048,0.288653,0.5411391439526618
0.0005,1.79999375,1.0,18.27521447375525,0.005619213770616108,1.379302557709878,0.012940686458624208,0.2886527375,0.541229495263854
0.001,1.799975,1.0,21.616956852554008,0.011196903733035474,1.378938447628767,0.03560890502554606,0.28865195,0.5421098625915186
0.0015,1.79994375,1.0,31.067825065653466,0.01674330726567277,1.3780463239374654,0.07060215852657309,0.2886506375,0.5442633193793655
0.002,1.7999,1.0,53.58087739068801,0.022258599859799832,1.3763682296777857,0.11471837460322194,0.2886488,0.5483002413558978
0.0025,1.79984375,1.0,97.11732221888147,0.02774295602260426,1.3739352451034856,0.16457525732200795,0.28864643749999996,0.554121277007003
0.003,1.7997750000000001,1.0,160.95669722785902,0.033196549284900824,1.3712143987646623,0.2172808262044104,0.28864354999999997,0.5605863206307088
0.0035,1.79969375,1.0,237.6820295903299,0.03861955220072633,1.3685847743367945,0.27061325525143215,0.2886401375,0.5667897453032343
0.004,1.7996,1.0,321.46564288373224,0.04401213635812121,1.3661561222846592,0.3229161542773672,0.2886362,0.5724798919434365
0.0045000000000000005,1.7994937500000001,1.0,409.2667907478379,0.04937447238431385,1.3639228367024234,0.3730348407353911,0.2886317375,0.5776791100971341
0.005,1.799375,1.0,499.4126848591709,0.05470672993681861,1.3618583597570602,0.42024777157072396,0.28862675,0.5824570391388075
0.0055,1.79924375,1.0,590.78971399382,0.060009077750846795,1.359938848775731,0.46417398575109936,0.2886212375,0.5868750801721988
0.006,1.7991000000000001,1.0,682.5175162721524,0.06528168358258427,1.3581464255094007,0.5046802262740503,0.2886152,0.5909793937973192
0.006500000000000001,1.79894375,1.0,773.8601743512751,0.07052471395944318,1.3564676135290723,0.541801224480808,0.2886086375,0.5948049760997702
0.007,1.798775,1.0,864.2894430567358,0.07573833573895071,1.3548903363303657,0.5756769612921413,0.28860155,0.5983828098830355
0.0075,1.79859375,1.0,953.2566708964903,0.0809227130507554,1.3534065722325974,0.6065099885047667,0.2885939375,0.6017340392308862
0.008,1.7984,1.0,1040.357097509417,0.08607800973976086,1.3520086663249047,0.6345322529887029,0.2885858,0.6048785039290878
0.0085,1.79819375,1.0,1125.3168243161974,0.09120438943161668,1.3506892047373429,0.6599845827868509,0.2885771375,0.6078350818899554
0.009000000000000001,1.797975,1.0,1207.8799280275455,0.09630201415479248,1.3494423117788101,0.6831045016660612,0.28856795,0.6106188480187527
0.0095,1.79774375,1.0,1287.8731701854645,0.10137104540051782,1.3482623756953853,0.7041177545633599,0.2885582375,0.6132439976881578
0.01,1.7975,1.0,1365.161466805621,0.10641164332509137,1.3471444570290327,0.723234394394375,0.288548,0.6157229781697005
0.0105,1.79724375,1.0,1439.6547355252308,0.11142396737602976,1.3460840060084485,0.740646808389992,0.2885372375,0.6180671581158936
0.011,1.796975,1.0,1511.3120960531896,0.11640817638456542,1.3450766772406133,0.7565292955298885,0.28852595000000003,0.6202872666600051
0.0115,1.79669375,1.0,1580.1095174716502,0.12136442784696877,1.344118620384324,0.7710387719771923,0.2885141375,0.6223927777576195
0.012,1.7964,1.0,1646.0548718917532,0.12629287867184055,1.3432061899927978,0.7843156927312575,0.28850180000000003,0.6243925738221543
0.0125,1.79609375,1.0,1709.1699821744385,0.13119368481182175,1.3423360806544256,0.7964854303826703,0.2884889375,0.6262946679916028
0.013000000000000001,1.7957750000000001,1.0,1769.4885217949904,0.136067001183248,1.3415052763259823,0.8076596523778082,0.28847555,0.6281063336782988
0.0135,1.79544375,1.0,1827.0732628607993,0.14091298231925425,1.3407107980054558,0.8179376168018485,0.2884616375,0.6298346687579257
0.014,1.7951000000000001,1.0,1881.9820698485503,0.1457317812155991,1.3399500414605654,0.8274076405097683,0.2884472,0.6314858715272955
0.0145,1.79474375,1.0,1934.281453838969,0.15052355042018153,1.3392205764737102,0.8361482493769526,0.2884322375,0.6330656903598334
0.015,1.794375,1.0,1984.0490887872231,0.15528844163831693,1.3385200855955148,0.8442292809147925,0.28841675,0.6345795652053741
0.0155,1.79399375,1.0,2031.3633650817706,0.1600266055723514,1.3378464473238878,0.851712926212664,0.2884007375,0.6360324554548071
0.016,1.7936,1.0,2076.3039606557227,0.16473819215501945,1.3371977015653318,0.8586546179516903,0.2883842,0.6374289223821985
0.0165,1.7931937500000001,1.0,2118.945576720885,0.16942334975305867,1.3365720908362106,0.86510383965996,0.2883671375,0.6387730474175433
0.017,1.792775,1.0,2159.3985091921913,0.17408222864081319,1.335967622989208,0.8711047031276686,0.28834955,0.6400693759661399
0.0175,1.7923437500000001,1.0,2197.7301443367624,0.17871497486565677,1.33538286571095,0.8766968049239308,0.2883314375,0.6413212161591544
0.018000000000000002,1.7919,1.0,2234.016890971714,0.18332173444098862,1.3348163904392571,0.8819156012157876,0.2883128,0.6425318389452389
0.0185,1.79144375,1.0,2268.3437599242525,0.187902653380208,1.334266768611949,0.8867928903456082,0.2882936375,0.6437044878881563
0.019,1.790975,1.0,2300.79017740607,0.1924578761177691,1.333732704839653,0.8913572687152512,0.28827395,0.6448420973227329
0.0195,1.79049375,1.0,2331.4541184334407,0.1969875492518212,1.3332127883736298,0.895634439082078,0.2882537375,0.6459478241845364
0.02,1.79,1.0,2360.405921157993,0.20149181527371696,1.332705942325336,0.8996476411348799,0.288233,0.6470240942009253
0.0205,1.78949375,1.0,2387.711613491405,0.20597081549570295,1.3322111815776438,0.903417871413463,0.2882117375,0.6480731212843933
0.021,1.788975,1.0,2413.4417190515096,0.21042469123002577,1.331727521013426,0.9069641119669088,0.28818995000000003,0.6490971039613742
0.021500000000000002,1.78844375,1.0,2437.6708806597553,0.214853583788932,1.3312539755155548,0.9103035512655037,0.2881676375,0.6500982261005748
0.022,1.7879,1.0,2460.4687748072465,0.21925763282670882,1.3307896435502167,0.91345179459331,0.2881448,0.6510784812497469
0.0225,1.78734375,1.0,2481.9113073694552,0.22363698000740448,1.3303335954583073,0.9164230126600122,0.28812143749999997,0.6520399097946026
0.023,1.786775,1.0,2502.0611905225214,0.22799176399484614,1.3298850556869006,0.919230125352507,0.28809755,0.6529842156710793
0.0235,1.78619375,1.0,2520.972021051367,0.23232212100949845,1.3294433586916492,0.9218849228915945,0.28807313749999996,0.6539128616516753
0.024,1.7856,1.0,2538.6995285635508,0.23662818727182622,1.3290078389282063,0.924398162427422,0.2880482,0.6548273020529065
0.0245,1.78499375,1.0,2555.301396125941,0.24091009900229415,1.3285778308522245,0.9267796727872017,0.2880227375,0.6557289830116293
0.025,1.784375,1.0,2570.8370907225285,0.24516799242136691,1.3281526689193568,0.929038447333024,0.28799675,0.6566193427331091
0.025500000000000002,1.78374375,1.0,2585.355383117156,0.24940200038757393,1.3277318026526042,0.9311827440900532,0.2879702375,0.6574995712055949
0.026000000000000002,1.7831000000000001,1.0,2598.92123391733,0.25361226169892853,1.327314543293771,0.9332201197577572,0.2879432,0.6583711407793054
0.0265,1.78244375,1.0,2611.578304996395,0.2577989086411888,1.3269004127497477,0.9351575474704276,0.2879156375,0.6592350769899382
0.027,1.781775,1.0,2623.3659166621196,0.26196207189114185,1.3264889827350201,0.9370014483848593,0.28788755,0.6600922964051394
0.0275,1.7810937500000001,1.0,2634.32428434199,0.2661018821255747,1.3260798249640737,0.9387577362376962,0.2878589375,0.6609437109419612
0.028,1.7804,1.0,2644.494441368306,0.2702184700212743,1.3256725111513938,0.9404318641535718,0.2878298,0.6617902279347745
0.0285,1.77969375,1.0,2653.91816583007,0.2743119662550278,1.3252666130114665,0.9420288665685994,0.2878001375,0.6626327501914824
0.029,1.778975,1.0,2662.6379114918527,0.27838250150362215,1.3248617022587772,0.9435533968320395,0.28776995,0.6634721760380409
0.029500000000000002,1.7782467692637962,1.0,2670.8442468201265,0.28243020084051573,1.3244573587290407,0.9450097600389368,0.2877393643090794,0.6643093825464752
0.03,1.777517957278236,1.0,2678.965248021409,0.28645520026364824,1.3240536514768257,0.9464020138889254,0.2877087542056859,0.6651442313920152
0.0305,1.7767891452926756,1.0,2687.0238092808117,0.2904576248646668,1.3236506291797403,0.9477339136539447,0.28767814410229237,0.6659766270138974
0.031,1.7760603333071152,1.0,2695.0148070756845,0.2944375993201453,1.323248335626585,0.9490089438934532,0.28764753399889886,0.6668064844216923
0.0315,1.775331521321555,1.0,2702.9330928696963,0.29839524830665737,1.3228468146061607,0.9502303420600785,0.2876169238955053,0.6676337190645896
0.032,1.7746027093359946,1.0,2710.7734938422595,0.3023306965007769,1.3224461099072686,0.9514011190774169,0.28758631379211175,0.6684582468293037
0.0325,1.7738738973504344,1.0,2718.5308136592853,0.3062440685790776,1.3220462653187095,0.9525240779675966,0.28755570368871824,0.6692799840378552
0.033,1.773145085364874,1.0,2726.199833286945,0.31013548921813333,1.3216473246292846,0.9536018307342334,0.2875250935853247,0.6700988474452284
0.0335,1.7724162733793138,1.0,2733.7767821712787,0.31400507984603665,1.3212493182735727,0.9546368112614009,0.2874944834819312,0.6709147815968265
0.034,1.7716874613937534,1.0,2741.2603841004147,0.3178529609228877,1.3208522539451546,0.955631289089618,0.2874638733785376,0.6717277778645219
0.0345,1.7709586494081933,1.0,2748.6445537164186,0.3216792661317917,1.3204561829096104,0.9565873932845743,0.2874332632751441,0.6725377386320227
0.035,1.7702298374226328,1.0,2755.9298041039774,0.3254841131622105,1.3200610965255277,0.9575071044885239,0.28740265317175057,0.6733446890652961
0.035500000000000004,1.7695010254370727,1.0,2763.1166598886584,0.3292676197036057,1.3196669861514945,0.9583922769104308,0.28737204306835706,0.6741486542245544
0.036000000000000004,1.7687722134515123,1.0,2770.205657048459,0.3330299034454391,1.3192738431460986,0.9592446478548489,0.2873414329649635,0.6749496590647972
0.0365,1.768043401465952,1.0,2777.197342728297,0.33677108207717227,1.3188816588679277,0.960065846428999,0.28731082286157,0.6757477284363476
0.037,1.7673145894803917,1.0,2784.092275055033,0.3404912732882671,1.31849042467557,0.9608574015073555,0.28728021275817645,0.6765428870853798
0.0375,1.7665857774948315,1.0,2790.8910229548806,0.34419059476818525,1.318100131927613,0.9616207490246241,0.28724960265478294,0.6773351596544488
0.038,1.765856965509271,1.0,2797.5941659720033,0.34786916420638836,1.3177107719826449,0.9623572386605522,0.2872189925513894,0.6781245706830097
0.0385,1.7651281535237109,1.0,2804.2022940891343,0.35152709929233816,1.317322336199253,0.9630681399734197,0.2871883824479958,0.6789111446079346
0.039,1.7643993415381505,1.0,2810.7160075497195,0.3551645177154964,1.3169348159360255,0.9637546480331862,0.2871577723446023,0.6796949057640231
0.0395,1.7636705295525903,1.0,2817.1368508961614,0.35878150465608416,1.316548194193015,0.9644178816462373,0.2871271622412088,0.6804758952587412
0.04,1.7629417175670299,1.0,2823.466681491281,0.36237821895079986,1.3161624513006238,0.9650589092106027,0.28709655213781526,0.6812541593991731
0.0405,1.7622129055814697,1.0,2829.707256555455,0.3659547720790072,1.31577756861795,0.9656787297239687,0.2870659420344217,0.6820297422121679
0.041,1.7614840935959093,1.0,2835.8603664181387,0.3695112727151385,1.3153935273355482,0.9662782857500548,0.2870353319310282,0.6828026878662017
0.0415,1.7607552816103489,1.0,2841.9278153466025,0.37304782953362614,1.3150103086439728,0.9668584676938894,0.28700472182763465,0.6835730403317251
0.042,1.7600264696247887,1.0,2847.9114211994956,0.3765645512089024,1.3146278937337785,0.9674201172286523,0.28697411172424114,0.6843408433821625
0.0425,1.7592976576392283,1.0,2853.813015087016,0.3800615464153997,1.31424626379552,0.9679640304635025,0.2869435016208476,0.6851061405948868
0.043000000000000003,1.7585688456536681,1.0,2859.6344410402335,0.38353892382755017,1.3138654000197516,0.9684909608744162,0.286912891517454,0.6858689753521725
0.043500000000000004,1.7578400336681077,1.0,2865.3775556874493,0.3869967921197863,1.313485283597028,0.9690016220179882,0.2868822814140605,0.6866293908421266
0.044,1.7571112216825475,1.0,2871.044227938402,0.39043525996654027,1.313105895717904,0.9694966900462936,0.286851671310667,0.687387430059595
0.0445,1.7563824096969871,1.0,2876.636338676651,0.39385443604224457,1.312727217572934,0.9699768060392316,0.28682106120727346,0.6881431358070496
0.045,1.755653597711427,1.0,2882.155780459943,0.3972544290213314,1.3123492303526727,0.9704425781692776,0.2867904511038799,0.6888965506954496
0.0455,1.7549247857258665,1.0,2887.604457227879,0.4006353475782331,1.3119719152476743,0.9708945837122116,0.2867598410004864,0.6896477171450827
0.046,1.7541959737403063,1.0,2892.98428401743,0.4039973003873821,1.3115952534484936,0.9713333709161783,0.28672923089709285,0.6903966773863809
0.0465,1.753467161754746,1.0,2898.297186687238,0.4073403961232105,1.3112192261456854,0.9717594607403353,0.28669862079369934,0.6911434734607166
0.047,1.7527383497691857,1.0,2903.5451016484785,0.4106647434601508,1.3108438145298038,0.9721733484733487,0.2866680106903058,0.6918881472211764
0.0475,1.7520095377836253,1.0,2908.7261606506313,0.4139703917375411,1.3104690333825721,0.9725755000124011,0.2866374005869122,0.6926306738217198
0.048,1.7512807257980652,1.0,2913.846747542405,0.4172575120118885,1.3100948248589606,0.9729663692202796,0.2866067904835187,0.6933711721801358
0.0485,1.7505519138125047,1.0,2918.909212492258,0.4205262186036608,1.309721166792759,0.9733463834575732,0.2865761803801252,0.6941096901802677
0.049,1.7498231018269446,1.0,2923.914796621534,0.4237766091878262,1.3093480468527077,0.9737159484866226,0.28654557027673166,0.694846256085507
0.0495,1.7490942898413842,1.0,2928.864747817261,0.4270087814393531,1.3089754527075468,0.9740754510815657,0.2865149601733381,0.6955808980362453
0.05,1.748365477855824,1.0,2933.760320586478,0.4302228330332097,1.3086033720260162,0.9744252600888098,0.2864843500699446,0.6963136440502942
0.0505,1.7476366658702636,1.0,2938.602775914061,0.4334188616443642,1.308231792476856,0.9747657274190632,0.28645373996655105,0.6970445220232919
0.051000000000000004,1.7469078538847032,1.0,2943.393381124407,0.43659696494778505,1.3078607017288064,0.9750971889759137,0.28642312986315754,0.6977735597291036
0.051500000000000004,1.746179041899143,1.0,2948.13340974559,0.4397572406184404,1.3074900874506075,0.9754199655255429,0.286392519759764,0.6985007848202098
0.052000000000000005,1.7454502299135826,1.0,2952.824141377857,0.4428997863312985,1.3071199373109992,0.9757343635117972,0.2863619096563705,0.6992262248280865
0.0525,1.7447214179280224,1.0,2957.4668615648693,0.4460246997613277,1.3067502389787216,0.9760406758204924,0.2863312995529769,0.6999499071635753
0.053,1.743992605942462,1.0,2962.0628616684294,0.4491320785834963,1.3063809801225148,0.9763391824965363,0.2863006894495834,0.7006718591172423
0.0535,1.7432637939569018,1.0,2966.6134387466705,0.4522220204727725,1.3060121484111191,0.976630151417157,0.28627007934618987,0.7013921078597296
0.054,1.7425349819713414,1.0,2971.1198954357956,0.4552946231041246,1.305643731513274,0.9769138389242814,0.2862394692427963,0.7021106804420971
0.0545,1.7418061699857812,1.0,2975.5835398347062,0.45834998415252093,1.3052757170977203,0.9771904904188672,0.2862088591394028,0.7028276037961501
0.055,1.7410773580002208,1.0,2980.0056853933124,0.46138820129292973,1.3049080928331975,0.9774603409197816,0.2861782490360093,0.7035429047347647
0.0555,1.7403485460146606,1.0,2984.38765080428,0.4644093722003192,1.304540846388446,0.9777236155896182,0.28614763893261574,0.7042566099521969
0.056,1.7396197340291002,1.0,2988.730759898049,0.46741359454965775,1.3041739654322058,0.9779805302296686,0.2861170288292222,0.7049687460243855
0.0565,1.73889092204354,1.0,2993.03634154136,0.4704009660159135,1.3038074376332167,0.9782312917461002,0.2860864187258287,0.7056793394092447
0.057,1.7381621100579796,1.0,2997.305729538428,0.47337158427405496,1.3034412506602193,0.9784760985892329,0.2860558086224351,0.7063884164469449
0.0575,1.7374332980724194,1.0,3001.540262536903,0.47632554699905016,1.3030753921819531,0.9787151411676767,0.2860251985190416,0.7070960033601892
0.058,1.736704486086859,1.0,3005.73840522371,0.47926289232279895,1.3027098748021881,0.9789485985145486,0.28599458841564807,0.7078020781162104
0.0585,1.7359756741012988,1.0,3009.903913485363,0.48218378002225937,1.3023446652960466,0.979176650406261,0.28596397831225456,0.7085067071652473
0.059000000000000004,1.7352468621157384,1.0,3014.0377873696743,0.48508830516475027,1.3019797543742762,0.9793994653082351,0.285933368208861,0.7092099105486347
0.059500000000000004,1.7345180501301782,1.0,3018.140658403904,0.4879765545834644,1.301615135963846,0.9796172045896937,0.2859027581054675,0.7099117020328787
0.06,1.7337892381446178,1.0,3022.213160602976,0.49084861511159444,1.3012508039917248,0.9798300233688914,0.28587214800207394,0.7106120953263375
0.0605,1.7330604261590574,1.0,3026.2559304309148,0.4937045735823334,1.3008867523848817,0.980038070803645,0.2858415378986804,0.7113111040793332
0.061,1.7323316141734972,1.0,3030.2696067624793,0.4965445168288739,1.3005229750702856,0.9802414903662054,0.2858109277952869,0.7120087418842619
0.0615,1.7316028021879368,1.0,3034.254830845508,0.49936853168440887,1.3001594659749054,0.9804404201034209,0.2857803176918933,0.7127050222757003
0.062,1.7308739902023766,1.0,3038.2122462650536,0.502176704982131,1.2997962190257102,0.9806349928830916,0.2857497075884998,0.7133999587305115
0.0625,1.7301451782168162,1.0,3042.142498907193,0.5049691235552332,1.2994332281496686,0.980825336627342,0.28571909748510627,0.7140935646679483
0.063,1.729416366231256,1.0,3046.046236924344,0.5077458742369081,1.2990704872737497,0.9810115745337913,0.28568848738171276,0.7147858534497509
0.0635,1.7286875542456956,1.0,3049.9241107009198,0.5105070438603486,1.2987079903249223,0.9811938252852422,0.2856578772783192,0.715476838380249
0.064,1.7279587422601355,1.0,3053.776772820592,0.5132527192587475,1.2983457312301556,0.9813722032485678,0.2856272671749257,0.7161665327064533
0.0645,1.727229930274575,1.0,3057.6048780332703,0.5159829872652976,1.2979837039164182,0.9815468186634271,0.28559665707153215,0.716854949618152
0.065,1.7265011182890149,1.0,3061.409083223897,0.5186979347131916,1.2976219023106794,0.9817177778213984,0.2855660469681386,0.7175421022479986
0.0655,1.7257723063034545,1.0,3065.19004738158,0.5213976484356223,1.2972603203399078,0.981885183236086,0.2855354368647451,0.7182280036716053
0.066,1.7250434943178943,1.0,3068.9484315694003,0.5240822152657827,1.2968989519310723,0.9820491338047139,0.2855048267613516,0.7189126669076238
0.0665,1.7243146823323339,1.0,3072.68489889532,0.5267517220368655,1.2965377910111422,0.9822097249616928,0.285474216657958,0.7195961049178321
0.067,1.7235858703467737,1.0,3076.4001144841086,0.5294062555820633,1.296176831507086,0.9823670488246107,0.28544360655456447,0.7202783306072167
0.0675,1.7228570583612133,1.0,3080.0947454496104,0.5320459027345691,1.295816067345873,0.9825211943330745,0.28541299645117096,0.7209593568240497
0.068,1.722128246375653,1.0,3083.7694608678553,0.5346707503275757,1.2954554924544717,0.9826722473807993,0.28538238634777746,0.721639196359967
0.0685,1.7213994343900927,1.0,3087.4232311712813,0.5372808193056003,1.2950951152938903,0.9828202874769635,0.2853517762443839,0.7223178345972117
0.069,1.7206706224045325,1.0,3091.0582758073083,0.5398762718056979,1.294734916555831,0.9829653989962831,0.28532116614099035,0.7229953091926891
0.0695,1.719941810418972,1.0,3094.674943851331,0.5424571867135316,1.29437489294577,0.9831076590373161,0.28529055603759684,0.7236716275611177
0.07,1.7192129984334117,1.0,3098.2735390266166,0.5450236409579505,1.2940150415655653,0.9832471420425971,0.2852599459342033,0.7243467963431087
0.07050000000000001,1.7184841864478515,1.0,3101.854366045582,0.5475757114678032,1.2936553595170757,0.9833839200064373,0.2852293358308098,0.7250208221520952
0.07100000000000001,1.717755374462291,1.0,3105.41773059812,0.5501134751719385,1.29329584390216,0.9835180625720195,0.2851987257274162,0.7256937115743616
