Time [s],Phi [rad],STIM [ ],Fsee [N],Gamma [ ],Lcerel [ ],q [ ],Lmtc [m],fisomrel [ ]
0.0,1.8,1.0,18.050500021533818,0.00029677306682247194,1.3793304199475032,0.005022852598690038,0.288653,0.5411620934389378
0.0005,1.79999375,1.0,18.452524374893592,0.005904317713453792,1.379282908751489,0.013755808813053563,0.2886527375,0.5412770252838317
0.001,1.799975,1.0,22.007130545845506,0.011480408468201121,1.3788987740364804,0.037118604624271,0.28865195,0.542205736714452
0.0015,1.79994375,1.0,31.920489931816725,0.01702522176352489,1.3779741698900456,0.07265848262157873,0.2886506375,0.5444372668875348
0.002,1.7999,1.0,55.35235312561363,0.022538933040015894,1.376254238366395,0.11714714453141248,0.2886488,0.5485738141304977
0.0025,1.79984375,1.0,100.0401205191105,0.028021716755503683,1.373795445298541,0.16721339898125043,0.28864643749999996,0.5544546080167903
0.003,1.7997750000000001,1.0,164.72447808339356,0.03347374639044617,1.371074182320689,0.2199997968193753,0.28864354999999997,0.5609182117826281
0.0035,1.79969375,1.0,241.91975693718123,0.038895194449542925,1.3684548174708533,0.27331571526035303,0.2886401375,0.5670951769213016
0.004,1.7996,1.0,325.9627990272024,0.04428623247179239,1.36603742328065,0.3255315558607508,0.2886362,0.5727570304785148
0.0045000000000000005,1.7994937500000001,1.0,413.91608711021206,0.0496470310359344,1.3638140080694627,0.37551662691974735,0.2886317375,0.5779316566722988
0.005,1.799375,1.0,504.1505670124928,0.054977759752154014,1.3617579177308738,0.42256905368598496,0.28862675,0.5826888040785151
0.0055,1.79924375,1.0,595.5651994161858,0.0602785872998411,1.359845735101825,0.4663227266032978,0.2886212375,0.5870887976053165
0.006,1.7991000000000001,1.0,687.2940881093995,0.06554968139613745,1.3580597514915407,0.5066546573612978,0.2886152,0.591177341714975
0.006500000000000001,1.79894375,1.0,778.6242299922698,0.0707912087986006,1.3563864116481499,0.5436061623152204,0.2886086375,0.5949895586497305
0.007,1.798775,1.0,868.9710436974931,0.07600333544218171,1.3548148157675994,0.5773219666783438,0.28860155,0.5985537197442745
0.0075,1.79859375,1.0,957.8426613072544,0.08118622604953427,1.3533361200908158,0.6080062281745553,0.2885939375,0.6018928132626549
0.008,1.7984,1.0,1044.8654378188455,0.08634004489583744,1.3519423618078907,0.6358915830987387,0.2885858,0.6050273404498844
0.0085,1.79819375,1.0,1129.7189976715272,0.09146495486569103,1.350626947047574,0.6612194068990872,0.2885771375,0.6079743112375566
0.009000000000000001,1.797975,1.0,1212.15832650203,0.09656111791424647,1.349383903735059,0.6842267008347324,0.28856795,0.6107490044988872
0.0095,1.79774375,1.0,1292.0228689407568,0.10162869576979475,1.3482075078401645,0.7051384038552878,0.2885582375,0.6133658529456052
0.01,1.7975,1.0,1369.1794705827638,0.10666784865239812,1.34709285265653,0.7241637076759467,0.288548,0.6158372182230624
0.0105,1.79724375,1.0,1443.53402924027,0.11167873558064684,1.3460354862535286,0.7414941211181391,0.2885372375,0.6181742418790944
0.011,1.796975,1.0,1515.0411824013058,0.11666151505882826,1.3450311527509256,0.7573030661338327,0.28852595000000003,0.6203874478041056
0.0115,1.79669375,1.0,1583.706446826152,0.12161634577568278,1.3440756737882427,0.7717464341009711,0.2885141375,0.6224870239386697
0.012,1.7964,1.0,1649.5216122495883,0.1265433839264852,1.343165633718224,0.7849639830369912,0.28850180000000003,0.6244813387588319
0.0125,1.79609375,1.0,1712.4966295354964,0.13144278484509006,1.3422978870762365,0.797080413761596,0.2884889375,0.6263780500738011
0.013000000000000001,1.7957750000000001,1.0,1772.676814950532,0.1363147037816902,1.34146929921778,0.8082066736603098,0.28847555,0.6281846865169589
0.0135,1.79544375,1.0,1830.1259829219794,0.1411592950993628,1.3406768968044829,0.8184414266047797,0.2884616375,0.6299083290295527
0.014,1.7951000000000001,1.0,1884.9111980114094,0.14597671284845032,1.339917989903993,0.8278724292154426,0.2884472,0.6315553575881023
0.0145,1.79474375,1.0,1937.0862062391343,0.15076710843162103,1.3391903028280199,0.8365777939041218,0.2884322375,0.6331311813374878
0.015,1.794375,1.0,1986.7256158778168,0.1555306332515433,1.3384915598882736,0.8446269536565132,0.28841675,0.6346411475905718
0.0155,1.79399375,1.0,2033.9104772096744,0.16026743773674273,1.3378196182576232,0.8520817212901551,0.2884007375,0.6360902599498526
0.016,1.7936,1.0,2078.7400377278927,0.1649776734520513,1.337172320747887,0.8589971432952492,0.2883842,0.6374835016628956
0.0165,1.7931937500000001,1.0,2121.294846553415,0.16966148941980447,1.3365478615816149,0.8654224084131552,0.2883671375,0.6388250537781959
0.017,1.792775,1.0,2161.643203950031,0.17431903256012918,1.3359446897472305,0.8714015075151236,0.28834955,0.6401185122150417
0.0175,1.7923437500000001,1.0,2199.8641209476314,0.17895044979315247,1.3353612542331565,0.876973774026277,0.2883314375,0.641367439920804
0.018000000000000002,1.7919,1.0,2236.046419848432,0.1835558880390013,1.3347960040278166,0.8821744314966601,0.2883128,0.6425753688998923
0.0185,1.79144375,1.0,2270.274819600222,0.18813549282501477,1.3342475183679998,0.8870351061253459,0.2882936375,0.6437455244414338
0.019,1.790975,1.0,2302.6441112049292,0.19268941103526666,1.3337143540130036,0.8915842054728109,0.28827395,0.6448811540997567
0.0195,1.79049375,1.0,2333.227242585692,0.1972177861147307,1.3331953530289342,0.8958473584035015,0.2882537375,0.6459848747446553
0.02,1.79,1.0,2362.0920710590435,0.20172076017407797,1.3326894640151683,0.8998476866644578,0.288233,0.6470590578230231
0.0205,1.78949375,1.0,2389.311521959151,0.20619847532397953,1.3321956355710827,0.9036060618803519,0.2882117375,0.6481060577408304
0.021,1.788975,1.0,2414.9631636426425,0.2106510736751064,1.3317128162960548,0.9071413551662316,0.28818995000000003,0.6491282127070785
0.021500000000000002,1.78844375,1.0,2439.116434509822,0.2150786954246435,1.331240073756804,0.9104706803714698,0.2881676375,0.6501275941887343
0.022,1.7879,1.0,2461.8550735593753,0.21948148347800392,1.3307763734525007,0.9136095406853352,0.2881448,0.6511064756556499
0.0225,1.78734375,1.0,2483.240776888044,0.22385957653738284,1.3303209243534027,0.9165720661627347,0.28812143749999997,0.6520666037446226
0.023,1.786775,1.0,2503.3284892628053,0.2282131116976955,1.329873025775311,0.9193711284872904,0.28809755,0.6530095244446459
0.0235,1.78619375,1.0,2522.1755428926654,0.23254222605385716,1.3294319770340275,0.9220184551987656,0.28807313749999996,0.6539367745773341
0.024,1.7856,1.0,2539.8414578738693,0.23684705670078307,1.328997077445353,0.9245247471960434,0.2880482,0.6548498821186748
0.0245,1.78499375,1.0,2556.3877535194206,0.24112774073338847,1.3285676263250892,0.9268997827571497,0.2880227375,0.6557503664894662
0.025,1.784375,1.0,2571.8665949622364,0.24538441163061964,1.3281430276377812,0.9291525259544946,0.28799675,0.6566395198109386
0.025500000000000002,1.78374375,1.0,2586.3464733403753,0.24961720912223145,1.327722547175097,0.9312911705895628,0.2879702375,0.6575189160493184
0.026000000000000002,1.7831000000000001,1.0,2599.869226618046,0.2538262650400324,1.327305713385043,0.9333232744058836,0.2879432,0.6583895726578702
0.0265,1.78244375,1.0,2612.4774856480235,0.2580117111131674,1.3268920577694983,0.9352557811985788,0.2879156375,0.6592524954311958
0.027,1.781775,1.0,2624.214905232613,0.2621736790707815,1.3264811118303423,0.9370950785142514,0.28788755,0.6601086850064526
0.0275,1.7810937500000001,1.0,2635.1260749061403,0.26631230064201955,1.326072407069455,0.93884704961948,0.2878589375,0.6609591369513128
0.028,1.7804,1.0,2645.256434583684,0.2704277075560266,1.3256654749887153,0.940517119982647,0.2878298,0.6618048418379286
0.0285,1.77969375,1.0,2654.637207173237,0.27452002677789317,1.32525998523179,0.9421103168886394,0.2878001375,0.6626464987468617
0.029,1.778975,1.0,2663.3225105934107,0.2785893938575773,1.324855402270603,0.9436312616350097,0.28776995,0.6634852283660866
0.029500000000000002,1.7782437500000001,1.0,2671.3536669998343,0.282635939008162,1.3244513144072658,0.9450842460234536,0.2877392375,0.6643218896026708
0.03,1.7775,1.0,2678.7588310463716,0.2866597877310912,1.3240474356407506,0.9464732612980093,0.287708,0.6651570773426455
0.0305,1.77674375,1.0,2685.5665654097215,0.2906610655278089,1.3236434799700294,0.9478020089177561,0.2876762375,0.6659913835232436
0.031,1.775975,1.0,2691.8058045738103,0.2946398978997591,1.3232391613940746,0.94907392524072,0.28764395,0.6668253971341053
0.0315,1.7751937500000001,1.0,2697.505820427743,0.2985964103483857,1.3228341939118586,0.9502922038156432,0.2876111375,0.6676597042132668
0.032,1.7744,1.0,2702.6961896776247,0.3025307283751326,1.3224282915223533,0.9514598155392754,0.2875778,0.6684948878379349
0.0325,1.77359375,1.0,2707.4067630714576,0.30644297748144395,1.322021168224531,0.9525795269065751,0.2875439375,0.6693315281100392
0.033,1.772775,1.0,2711.65696148576,0.31033328186839015,1.3216126353672661,0.9536539275593165,0.28750955,0.6701700024621235
0.0335,1.7719437500000002,1.0,2715.460369372978,0.31420176288845525,1.321202559198919,0.9546854388926332,0.2874746375,0.6710105738650032
0.034,1.7711000000000001,1.0,2718.9058368597334,0.31804854947564043,1.320790121911327,0.9556762472439098,0.2874392,0.6718549033294515
0.0345,1.7702437500000001,1.0,2721.9959701637354,0.3218737607464702,1.3203752935414492,0.9566284809430596,0.2874032375,0.6727030334446118
0.035,1.7693750000000001,1.0,2724.73345384555,0.3256775158174691,1.319958044126245,0.9575441306623204,0.28736675,0.6735550063740683
0.035500000000000004,1.76849375,1.0,2727.1210486571104,0.32945993380516175,1.3195383437026733,0.9584250599146267,0.2873297375,0.6744108638512507
0.036000000000000004,1.7676,1.0,2729.161589409544,0.3332211338260727,1.3191161623076935,0.959273014636609,0.2872922,0.6752706471747763
0.0365,1.7666997376473863,1.0,2731.155557948172,0.33696123499672637,1.3186914699782644,0.9600896319454455,0.2872543889811902,0.6761343972037406
0.037,1.765799472482271,1.0,2733.429847105197,0.34068035643364747,1.318264236751345,0.9608764481492411,0.28721657784425536,0.6770021543529456
0.0375,1.7648992073171557,1.0,2735.98824612451,0.34437861725336055,1.3178344326638947,0.9616349060821505,0.28717876670732057,0.6778739585880746
0.038,1.7639989421520403,1.0,2738.816290997039,0.34805613013268744,1.317402192569273,0.9623663763167816,0.28714095557038566,0.6787495157915121
0.0385,1.7630986769869252,1.0,2741.8491961925406,0.35171301984962683,1.3169681077842619,0.963072193354745,0.28710314443345086,0.6796276104836242
0.039,1.76219841182181,1.0,2745.071525820612,0.35534939970732504,1.3165323212763682,0.9637535688198915,0.287065333296516,0.6805079387353126
0.0395,1.7612981466566946,1.0,2748.4682405161443,0.3589653828277069,1.3160949722704125,0.9644116435306982,0.28702752215958116,0.6813902056931351
0.04,1.7603978814915793,1.0,2752.0242801585596,0.3625610823326973,1.3156561999912149,0.9650474927537788,0.2869897110226463,0.6822741180073539
0.0405,1.759497616326464,1.0,2755.724559263366,0.36613661134422104,1.3152161436635958,0.965662130669697,0.28695189988571146,0.6831593838451891
0.041,1.7585973511613486,1.0,2759.553962803681,0.36969208298420303,1.3147749425123758,0.9662565144896379,0.28691408874877666,0.6840457129028397
0.0415,1.7576970859962335,1.0,2763.4973424613468,0.3732276103745681,1.314332735762375,0.9668315482535769,0.2868762776118418,0.6849328164162656
0.042,1.7567968208311182,1.0,2767.53951330824,0.376743306637241,1.313889662638414,0.9673880863376253,0.28683846647490696,0.6858204071707354
0.0425,1.755896555666003,1.0,2771.671674820314,0.3802392797854007,1.3134458044203425,0.9679269310836887,0.2868006553379721,0.6867083153421059
0.043000000000000003,1.7549962905008876,1.0,2775.8779940947184,0.38371564682532966,1.313001305570777,0.9684488483462558,0.28676284420103726,0.6875962458896336
0.043500000000000004,1.7540960253357722,1.0,2780.150297392956,0.3871725168666614,1.312556241161528,0.9689545564544533,0.28672503306410246,0.6884840437212271
0.044,1.753195760170657,1.0,2784.4821365432445,0.3906099973384023,1.3121106705255936,0.9694447345220041,0.28668722192716756,0.6893715859185726
0.0445,1.7522954950055416,1.0,2788.867044698216,0.39402819566955877,1.311664652995973,0.9699200263956761,0.28664941079023276,0.6902587502324609
0.045,1.7513952298404265,1.0,2793.298535707468,0.3974272192891373,1.3112182479056642,0.9703810428352213,0.2866115996532979,0.6911454150845935
0.0455,1.7504949646753112,1.0,2797.7701035689697,0.40080717562614426,1.3107715145876662,0.970828363538116,0.28657378851636306,0.6920314595691581
0.046,1.7495946995101959,1.0,2802.2752219581794,0.40416817210958605,1.3103245123749772,0.9712625390215492,0.2865359773794282,0.6929167634541857
0.0465,1.7486944343450805,1.0,2806.8073438352935,0.40751031616846906,1.309877300600596,0.9716840923730037,0.28649816624249336,0.6938012071826782
0.047,1.7477941691799652,1.0,2811.3649385573417,0.4108337038182199,1.3094298934807813,0.9720935161169846,0.28646035510555856,0.6946847609071185
0.0475,1.74689390401485,1.0,2815.9387478796334,0.4141384528450911,1.308982374342565,0.9724912865326701,0.2864225439686237,0.695567258755201
0.048,1.7459936388497348,1.0,2820.522872564558,0.4174246732027755,1.3085347962082419,0.972877853693603,0.28638473283168886,0.6964485954360289
0.0485,1.7450933736846195,1.0,2825.115266160818,0.42069246553615397,1.308087177505556,0.9732536425694648,0.286346921694754,0.6973287342367985
0.049,1.7441931085195042,1.0,2829.7138755238343,0.4239419304901076,1.307639536662251,0.9736190580287877,0.28630911055781916,0.6982076386550876
0.0495,1.7432928433543888,1.0,2834.3166408030656,0.4271731687095174,1.3071918921060708,0.9739744859739854,0.28627129942088436,0.6990852723988908
0.05,1.7423925781892735,1.0,2838.9214954363274,0.43038628083926433,1.3067442622647591,0.9743202944023638,0.28623348828394946,0.6999615993866348
0.0505,1.7414923130241582,1.0,2843.526366152675,0.43358136752422943,1.3062966655660597,0.974656834398561,0.28619567714701466,0.7008365837471727
0.051000000000000004,1.7405920478590429,1.0,2848.129172981443,0.43675852940929377,1.3058491204377163,0.9749844410634255,0.2861578660100798,0.7017101898197555
0.051500000000000004,1.7396917826939278,1.0,2852.727829270188,0.4399178671393383,1.305401645307473,0.9753034343839323,0.28612005487314496,0.7025823821539809
0.052000000000000005,1.7387915175288124,1.0,2857.3202417090884,0.443059481359244,1.3049542586030733,0.9756141200483711,0.2860822437362101,0.7034531255097254
0.0525,1.7378912523636971,1.0,2861.9043103635727,0.4461834727138919,1.3045069787522612,0.975916790210694,0.28604443259927526,0.704322384857047
0.053,1.7369909871985818,1.0,2866.4779287141846,0.44928994184816307,1.3040598241827803,0.9762117242076138,0.28600662146234046,0.7051901253760737
0.0535,1.7360907220334665,1.0,2871.0405259346426,0.4523789768753655,1.3036127996539892,0.976499187126383,0.2859688103254056,0.706056338923044
0.054,1.7351904568683512,1.0,2875.5912116378154,0.45545067812077583,1.3031659127410422,0.976779434055499,0.28593099918847076,0.7069210119639375
0.0545,1.734290191703236,1.0,2880.127003957746,0.4585051630442602,1.3027191895031536,0.977052711970195,0.2858931880515359,0.7077840953652863
0.055,1.7333899265381207,1.0,2884.647630010635,0.4615425242222168,1.302272631966613,0.9773192535362171,0.28585537691460106,0.7086455866198234
0.0555,1.7324896613730054,1.0,2889.1528163752296,0.4645628542310438,1.3018262421577094,0.9775792816827268,0.2858175657776662,0.7095054832428438
0.056,1.73158939620789,1.0,2893.642289100385,0.46756624564713944,1.3013800221027316,0.977833010090425,0.28577975464073135,0.7103637827721844
0.0565,1.7306891310427748,1.0,2898.1157737127114,0.4705527910469019,1.3009339738279688,0.9780806436513327,0.28574194350379656,0.7112204827681996
0.057,1.7297888658776595,1.0,2902.5729952237725,0.47352258300672934,1.3004880993597103,0.978322378902093,0.2857041323668617,0.71207558081374
0.0575,1.7288886007125441,1.0,2907.0136781385922,0.4764757141030199,1.3000424007242453,0.978558404432523,0.28566632122992686,0.7129290745141308
0.058,1.727988335547429,1.0,2911.437546463104,0.4794122769121719,1.2995968799478623,0.9787889012710151,0.285628510092992,0.7137809614971498
0.0585,1.7270880703823137,1.0,2915.844323711924,0.48233236401058355,1.2991515390568509,0.9790140432482788,0.28559069895605715,0.714631239413002
0.059000000000000004,1.7261878052171984,1.0,2920.2337329167963,0.4852360679746529,1.2987063800775,0.9792339973407964,0.28555288781912236,0.7154799059342988
0.059500000000000004,1.725287540052083,1.0,2924.6054966342776,0.4881234813807782,1.2982614050360988,0.979448923995281,0.28551507668218745,0.7163269587560339
0.06,1.7243872748869677,1.0,2928.9593369546005,0.4909946968053577,1.2978166159589362,0.9796589774353262,0.28547726554525266,0.7171723955955598
0.0605,1.7234870097218526,1.0,2933.2949755090985,0.4938498068247896,1.2973720148723014,0.9798643059513551,0.2854394544083178,0.7180162141925631
0.061,1.7225867445567373,1.0,2937.6121334793906,0.49668890401547194,1.2969276038024835,0.9800650521749011,0.28540164327138295,0.7188584123090414
0.0615,1.721686479391622,1.0,2941.911013859867,0.49951204835986374,1.2964833805534741,0.9802613506037102,0.2853638321344481,0.7196989957129587
0.062,1.7207862142265067,1.0,2946.1917899214386,0.502319336351668,1.2960393431977992,0.9804533335301928,0.28532602099751325,0.7205379696397183
0.0625,1.7198859490613914,1.0,2950.453999515574,0.5051109030792257,1.2955954953708553,0.9806411314827563,0.28528820986057846,0.7213753288152381
0.063,1.718985683896276,1.0,2954.697803541439,0.5078868314945381,1.2951518352564264,0.9808248659722988,0.2852503987236436,0.7222110782677402
0.0635,1.7180854187311607,1.0,2958.9233637314896,0.5106472045496067,1.294708361038297,0.9810046540691363,0.28521258758670875,0.7230452230042117
0.064,1.7171851535660454,1.0,2963.130842644017,0.513392105196433,1.2942650709002508,0.9811806085981437,0.2851747764497739,0.7238777680104285
0.0645,1.7162848884009303,1.0,2967.3204036555608,0.5161216163870185,1.2938219630260723,0.9813528383239395,0.28513696531283905,0.7247087182509738
0.065,1.715384623235815,1.0,2971.492210953705,0.5188358210733646,1.2933790355995458,0.9815214481266937,0.28509915417590426,0.7255380786692616
0.0655,1.7144843580706997,1.0,2975.646429529401,0.5215348022074727,1.292936286804455,0.9816865391690949,0.28506134303896935,0.7263658541875577
0.066,1.7135840929055843,1.0,2979.7832251704162,0.5242186427413444,1.2924937148245845,0.9818482090549838,0.28502353190203455,0.7271920497069981
0.0665,1.712683827740469,1.0,2983.902764453431,0.5268874256269812,1.292051317843718,0.9820065519801253,0.2849857207650997,0.7280166701076134
0.067,1.7117835625753537,1.0,2988.0052147373963,0.5295412338163844,1.2916090940456404,0.9821616588755611,0.28494790962816485,0.7288397202483445
0.0675,1.7108832974102386,1.0,2992.0907441565587,0.5321801502615556,1.291167041614135,0.9823136175439566,0.28491009849123,0.7296612049670682
0.068,1.7099830322451233,1.0,2996.159521613182,0.5348042579144962,1.2907251587329867,0.9824625127893355,0.28487228735429515,0.7304811290806114
0.0685,1.709082767080008,1.0,3000.211716771056,0.5374136397272077,1.2902834435859791,0.9826084265405601,0.28483447621736036,0.7312994973847757
0.069,1.7081825019148926,1.0,3004.247500048334,0.5400083786516915,1.2898418943568968,0.9827514379689065,0.2847966650804255,0.7321163146543543
0.0695,1.7072822367497773,1.0,3008.2670426112572,0.5425885576399492,1.2894005092295235,0.9828916236000504,0.28475885394349065,0.732931585643152
0.07,1.706381971584662,1.0,3012.270516367099,0.5451542596439821,1.2889592863876438,0.9830290574207697,0.2847210428065558,0.7337453150840041
0.07050000000000001,1.7054817064195467,1.0,3016.2580939577983,0.5477055676157918,1.288518224015042,0.9831638109806433,0.28468323166962095,0.7345575076887949
0.07100000000000001,1.7045814412544316,1.0,3020.229948753638,0.5502425645073797,1.2880773202955016,0.9832959534890179,0.28464542053268616,0.7353681681484789
0.07150000000000001,1.7036811760893162,1.0,3024.18625484609,0.5527653332707474,1.2876365734128072,0.9834255519074877,0.28460760939575125,0.7361773011330955
