Time [s],Phi [rad],STIM [ ],Fsee [N],Gamma [ ],Lcerel [ ],q [ ],Lmtc [m],fisomrel [ ]
0.0,1.8,1.0,18.346817305427702,0.0006276743934067956,1.3792974340526165,0.0051016055783939815,0.288653,0.5412418894167763
0.0005,1.79999375,1.0,18.84709934525765,0.006233362945278743,1.3792395191403102,0.014743894181268688,0.2886527375,0.5413819742417931
0.001,1.799975,1.0,22.64727429172329,0.011807608016467205,1.3788344373207473,0.038899588594625924,0.28865195,0.5423611897317373
0.0015,1.79994375,1.0,33.11598888025345,0.017350585980897816,1.3778746083948508,0.07505906742161375,0.2886506375,0.5446772331965504
0.002,1.7999,1.0,57.64194999142706,0.02286247222137276,1.3761095760494153,0.11996615146388406,0.2886488,0.5489208762880392
0.0025,1.79984375,1.0,103.65484049235275,0.028343441137323427,1.3736253454254939,0.1702648377290527,0.28864643749999996,0.5548600167591851
0.003,1.7997750000000001,1.0,169.2697757639715,0.03379366615320489,1.3709071481733852,0.22313789641510248,0.28864354999999997,0.561313416562138
0.0035,1.79969375,1.0,246.96959440836048,0.03921331971590056,1.3683014333929697,0.2764299032874712,0.2886401375,0.5674555298491196
0.004,1.7996,1.0,331.2868791038008,0.04460257330727555,1.3658979518274423,0.32854193201356013,0.2886362,0.5730825537260291
0.0045000000000000005,1.7994937500000001,1.0,419.3989757600628,0.04996159744705783,1.3636864495305614,0.37837075511098855,0.2886317375,0.578227571517393
0.005,1.799375,1.0,509.7170562973999,0.055290561677554986,1.3616405105223284,0.42523700665327785,0.28862675,0.5829596337664212
0.0055,1.79924375,1.0,601.1717624732745,0.060589634686954046,1.3597368919959325,0.4687911861973213,0.2886212375,0.5873385476310804
0.006,1.7991000000000001,1.0,692.8870952536024,0.06585898403964449,1.357958644639147,0.508922244442052,0.2886152,0.5914081910972734
0.006500000000000001,1.79894375,1.0,784.1749508000672,0.07109877652010349,1.356292114000955,0.5456788910113202,0.2886086375,0.5952038568263092
0.007,1.798775,1.0,874.449119102385,0.07630917792536278,1.3547267048172147,0.5792105177078318,0.28860155,0.5987530768160736
0.0075,1.79859375,1.0,963.2189430796399,0.08149035295865861,1.3532537415343975,0.6097237487118385,0.2885939375,0.602078425038103
0.008,1.7984,1.0,1050.1253036115713,0.08664246597617237,1.3518651850861045,0.6374521074429933,0.2885858,0.6052005469525554
0.0085,1.79819375,1.0,1134.843866658964,0.09176567956863561,1.3505546212501147,0.6626370888995199,0.2885771375,0.6081360252557035
0.009000000000000001,1.797975,1.0,1217.1378157565573,0.09686015579034755,1.3493160541535587,0.6855151287483222,0.28856795,0.6109001731842731
0.0095,1.79774375,1.0,1296.8487208182053,0.10192605632811855,1.3481438105000345,0.7063103268697317,0.2885582375,0.6135072934008803
0.01,1.7975,1.0,1373.8430579512324,0.10696354117034826,1.3470330517231044,0.7252308877039833,0.288548,0.6159695823078737
0.0105,1.79724375,1.0,1448.0340580361656,0.11197276948719498,1.3459792843417724,0.7424672268574536,0.2885372375,0.6182982614998566
0.011,1.796975,1.0,1519.3818277198948,0.11695389978600344,1.3449782328861413,0.7581917035495279,0.28852595000000003,0.6205038865904187
0.0115,1.79669375,1.0,1587.8846821575266,0.12190709055998251,1.3440258477026126,0.7725592698858517,0.2885141375,0.6225963523995498
0.012,1.7964,1.0,1653.5292262409687,0.1268324976548729,1.3431188030115966,0.7857087911693579,0.28850180000000003,0.624583823405259
0.0125,1.79609375,1.0,1716.339291954648,0.13173027674862287,1.3422538152217593,0.7977640580170963,0.2884889375,0.6264742537185899
0.013000000000000001,1.7957750000000001,1.0,1776.3584467681653,0.13660058277173753,1.3414277954397449,0.8088352741595918,0.28847555,0.6282750653735834
0.0135,1.79544375,1.0,1833.6621225107306,0.14144357113618497,1.3406376624372558,0.8190203813725091,0.2884616375,0.6299935680142927
0.014,1.7951000000000001,1.0,1888.3008250378289,0.1462593943909205,1.339880930474559,0.8284066067349324,0.2884472,0.6316356922823598
0.0145,1.79474375,1.0,1940.3310453531785,0.1510482041899213,1.339155306352155,0.8370715147285341,0.2884322375,0.6332068819297699
0.015,1.794375,1.0,1989.8301298482086,0.15581015218716437,1.3384584968705444,0.8450840543902051,0.28841675,0.6347125188014403
0.0155,1.79399375,1.0,2036.8781804086832,0.16054538907439744,1.3377883802309283,0.8525056243305553,0.2884007375,0.6361575579750186
0.016,1.7936,1.0,2081.5769173986914,0.16525406607564394,1.3371427828144904,0.859390892881766,0.2883842,0.6375470152936906
0.0165,1.7931937500000001,1.0,2123.999036801001,0.1699363313265048,1.336519988450343,0.8657887469722904,0.2883671375,0.6388848768283836
0.017,1.792775,1.0,2164.2186018774987,0.17459233225330134,1.3359183924923115,0.8717428704263644,0.28834955,0.6401748519942008
0.0175,1.7923437500000001,1.0,2202.320535522678,0.17922221628235496,1.3353363902942217,0.877292326161072,0.2883314375,0.6414206165320199
0.018000000000000002,1.7919,1.0,2238.3899699782555,0.1838261297952087,1.3347724748111258,0.8824721245896081,0.2883128,0.6426256062143946
0.0185,1.79144375,1.0,2272.5209607211123,0.18840422012518832,1.334225137453867,0.8873136712165577,0.2882936375,0.6437932318046675
0.019,1.790975,1.0,2304.7881362538806,0.19295663154397782,1.333693140980187,0.8918452485744739,0.28827395,0.6449262999450798
0.0195,1.79049375,1.0,2335.2624071223395,0.19748350708323448,1.3331753491732652,0.8960923308165699,0.2882537375,0.6460273810691097
0.02,1.79,1.0,2364.020435083716,0.20198498977461563,1.3326706258162808,0.9000778783261938,0.288233,0.6470990265274366
0.0205,1.78949375,1.0,2391.1437192564667,0.20646122258566257,1.3321778388500067,0.9038226205575356,0.2882117375,0.6481437607683003
0.021,1.788975,1.0,2416.699453567151,0.2109123460603164,1.331696040763061,0.9073453412170994,0.28818995000000003,0.6491637007082585
0.021500000000000002,1.78844375,1.0,2440.781614738088,0.21533850468630103,1.331224064976177,0.9106630081146816,0.2881676375,0.6501614119281162
0.022,1.7879,1.0,2463.4460059387206,0.21973983659185847,1.3307611491392741,0.9137910930031811,0.2881448,0.6511385912629684
0.0225,1.78734375,1.0,2484.7513891578233,0.22411647990523087,1.3303065309022712,0.9167436511759322,0.28812143749999997,0.6520969248829941
0.023,1.786775,1.0,2504.7592430935847,0.22846857275466026,1.3298594479150867,0.9195334707437165,0.28809755,0.6530380887154152
0.0235,1.78619375,1.0,2523.533533929771,0.23279625326838865,1.3294191378276399,0.9221722044165171,0.28807313749999996,0.6539637488293827
0.024,1.7856,1.0,2541.1338157745513,0.23709965805622724,1.3289849012490569,0.9246704966498274,0.2880482,0.6548754296879729
0.0245,1.78499375,1.0,2557.6228971836836,0.24137892502275338,1.328556026831213,0.9270380735765459,0.2880227375,0.6557746722987474
0.025,1.784375,1.0,2573.0591774609757,0.24563419073274145,1.3281318615444426,0.9292838454644581,0.28799675,0.656662887242917
0.025500000000000002,1.78374375,1.0,2587.487347872933,0.24986558802805478,1.327711895104737,0.9314159997680315,0.2879702375,0.6575411792310644
0.026000000000000002,1.7831000000000001,1.0,2600.953377520187,0.25407324975055656,1.3272956172280885,0.933442049148151,0.2879432,0.6584106471405757
0.0265,1.78244375,1.0,2613.504404851147,0.25825730874211006,1.3268825176304881,0.9353688961916137,0.2879156375,0.6592723841439847
0.027,1.781775,1.0,2625.1886349493197,0.26241789784457864,1.326472086027928,0.9372028911343318,0.28788755,0.6601274778207054
0.0275,1.7810937500000001,1.0,2636.0503344295826,0.26655514845676836,1.3260638575336332,0.9389498896595806,0.2878589375,0.6609769158491281
0.028,1.7804,1.0,2646.1307935345153,0.27066919193100003,1.3256574025015109,0.9406152973527688,0.2878298,0.6618216077677581
0.0285,1.77969375,1.0,2655.482386071789,0.27476016228082123,1.3252521959238812,0.9422040927472346,0.2878001375,0.6626626563988942
0.029,1.778975,1.0,2664.1369875477517,0.2788281866744397,1.3248479081427293,0.9437209030735598,0.28776995,0.6635007543855003
0.029500000000000002,1.7782437500000001,1.0,2672.1270028713807,0.28287339228006325,1.3244442095000415,0.9451700105325089,0.2877392375,0.6643365909499146
0.03,1.7775,1.0,2679.4853195829796,0.28689590626589956,1.3240407703378032,0.9465553824352368,0.287708,0.6651708519097037
0.0305,1.77674375,1.0,2686.2452634924866,0.2908958558001566,1.323637260998,0.9478806983527602,0.2876762375,0.666004219686583
0.031,1.775975,1.0,2692.4405567270614,0.294873368051042,1.3232333518226178,0.9491493746039339,0.28764395,0.666837373308405
0.0315,1.7751937500000001,1.0,2698.1046312297995,0.2988285697580506,1.322828719068362,0.9503645869738333,0.2876111375,0.6676709762266599
0.032,1.7744,1.0,2703.26460991595,0.302761584124963,1.3224230995130402,0.9515292963671743,0.2875778,0.6685055640956767
0.0325,1.77359375,1.0,2707.955025716957,0.3066725410862221,1.322016164685457,0.9526462543222819,0.2875439375,0.6693418038305763
0.033,1.772775,1.0,2712.197519181908,0.3105615620960246,1.3216077060086258,0.9537180372638757,0.28750955,0.6701801129970324
0.0335,1.7719437500000002,1.0,2716.0139193323994,0.3144287686085672,1.32119751490556,0.9547470489777766,0.2874746375,0.6710209069467239
0.034,1.7711000000000001,1.0,2719.426225085978,0.3182742820780467,1.3207853827992722,0.9557355342333018,0.2874392,0.6718645987956774
0.0345,1.7702437500000001,1.0,2722.456587643911,0.32209822395865967,1.3203711011127761,0.9566855911775527,0.2874032375,0.6727115993998323
0.035,1.7693750000000001,1.0,2725.127293843808,0.325900715704603,1.3199544612690846,0.9575991826252338,0.28736675,0.6735623173278376
0.035500000000000004,1.76849375,1.0,2727.460750476736,0.32968187877007327,1.3195352546912111,0.9584781463539594,0.2873297375,0.6744171588310677
0.036000000000000004,1.7676,1.0,2729.464682356802,0.3334418228021061,1.3191134072130255,0.9593242156383995,0.2872922,0.6752762542630542
0.0365,1.76669375,1.0,2731.179146948791,0.3371806841669694,1.3186885515298024,0.9601389923107067,0.2872541375,0.6761403288387644
0.037,1.765775,1.0,2732.619182564649,0.3408985793170701,1.3182605485440997,0.9609239981768558,0.28721555,0.677009640434977
0.0375,1.76484375,1.0,2733.7976259854163,0.34459562288590745,1.3178292796917201,0.961680664283926,0.2871764375,0.6778844036053646
0.038,1.7639,1.0,2734.7273641839397,0.34827192950698066,1.3173946264084657,0.9624103358291939,0.28713679999999997,0.6787648313999697
0.0385,1.76294375,1.0,2735.4213282263386,0.35192761381378906,1.3169564701301388,0.9631142782490663,0.28709663750000003,0.6796511353400587
0.039,1.761975,1.0,2735.8924874844633,0.3555627904398319,1.3165146922925421,0.9637936828124225,0.28705595,0.6805435253920835
0.0395,1.7609937500000001,1.0,2736.1538441612083,0.3591775740186085,1.3160691743314776,0.9644496717636278,0.2870147375,0.6814422099407462
0.04,1.76,1.0,2736.2184281262207,0.36277207918361803,1.3156197976827477,0.9650833030558977,0.286973,0.6823473957611652
0.0405,1.7589937500000001,1.0,2736.099292064238,0.36634642056835987,1.3151664437821549,0.9656955747116568,0.2869307375,0.6832592879901461
0.041,1.757975,1.0,2735.8095069345377,0.36990071280633324,1.3147089940655015,0.9662874288429043,0.28688795,0.6841780900965566
0.0415,1.75694375,1.0,2735.3606477671856,0.37343506744027566,1.3142473436789799,0.9668597560001552,0.2868446375,0.6851039763734219
0.042,1.7559,1.0,2734.761996297956,0.37694959274527134,1.3137814086918282,0.9674133991484809,0.28680079999999997,0.6860370776765685
0.0425,1.75484375,1.0,2734.028609275601,0.38044441210303737,1.3133110528038834,0.96794915370754,0.2867564375,0.6869776281598284
0.043000000000000003,1.753775,1.0,2733.16750898559,0.3839196328479904,1.3128362127206665,0.9684677757605995,0.28671155,0.687925714319483
0.043500000000000004,1.75269375,1.0,2732.1857226234474,0.387375362314547,1.3123568251476985,0.9689699812776282,0.28666613750000003,0.6888814215039865
0.044,1.7516,1.0,2731.0902807088887,0.3908117078371238,1.3118728267905,0.9694564486397648,0.2866202,0.6898448338957359
0.0445,1.75049375,1.0,2729.8882155908177,0.3942287767501375,1.311384154354592,0.96992782098077,0.2865737375,0.690816034492588
0.045,1.7493750000000001,1.0,2728.586560039504,0.3976266763880047,1.3108907445454958,0.9703847083604,0.28652675,0.6917951050891176
0.0455,1.74824375,1.0,2727.192345928406,0.401005514085142,1.3103925340687317,0.9708276897832936,0.2864792375,0.6927821262576251
0.046,1.7471,1.0,2725.7126030047853,0.4043653971759661,1.309889459629821,0.9712573150757484,0.2864312,0.6937771773288826
0.0465,1.7459437500000001,1.0,2724.1543577488446,0.40770643299489345,1.3093814579342844,0.9716741066316578,0.28638263750000004,0.6947803363726295
0.047,1.744775,1.0,2722.5246323217934,0.41102872887634084,1.308868465687643,0.9720785610378949,0.28633355,0.6957916801778101
0.0475,1.74359375,1.0,2720.821595228337,0.41433237457551625,1.3083505001519034,0.9724711540773775,0.28628393750000003,0.6968111258165531
0.048,1.7424,1.0,2719.054359996384,0.41761748701832485,1.3078274789604254,0.9728523349450905,0.2862338,0.6978387857043012
0.0485,1.74119375,1.0,2717.2359401364597,0.4208841868274371,1.3072992841333537,0.973222529221912,0.2861831375,0.6988748404691593
0.049,1.739975,1.0,2715.369410666735,0.42413257302311,1.3067658881207065,0.9735821458169175,0.28613195,0.6999192917267671
0.0495,1.73874375,1.0,2713.45784381719,0.4273627446256006,1.306227263372502,0.9739315744149406,0.2860802375,0.7009721402021309
0.05,1.7375,1.0,2711.504308766746,0.43057480065516596,1.3056833823387581,0.9742711865512172,0.286028,0.7020333857204611
0.0505,1.73624375,1.0,2709.511871397078,0.433768840132063,1.305134217469493,0.9746013366166181,0.2859752375,0.7031030271979595
0.051000000000000004,1.734975,1.0,2707.4835940637954,0.436944962076549,1.304579741214725,0.9749223627985377,0.28592195,0.7041810626325609
0.051500000000000004,1.73369375,1.0,2705.422535384017,0.44010326550888074,1.304019926024472,0.9752345879620896,0.2858681375,0.7052674890946256
0.052000000000000005,1.7324,1.0,2703.3317500407734,0.44324384944931544,1.303454744348752,0.9755383204758893,0.2858138,0.7063623027175814
0.0525,1.73109375,1.0,2701.214288604602,0.4463668129181101,1.3028841686375834,0.9758338549863589,0.28575893750000003,0.7074654986885203
0.053,1.729775,1.0,2699.0731973716743,0.44947225493552173,1.302308171340984,0.9761214731441857,0.28570355000000003,0.7085770712387442
0.0535,1.72844375,1.0,2696.9115182186497,0.4525602745218074,1.3017267249089723,0.9764014442862721,0.2856476375,0.7096970136342644
0.054,1.7271,1.0,2694.73228847482,0.45563097069722414,1.301139801791566,0.9766740260762643,0.2855912,0.7108253181662509
0.0545,1.7257437500000001,1.0,2692.538540810559,0.45868444248202905,1.3005473744387834,0.9769394651065052,0.2855342375,0.7119619761414341
0.055,1.724375,1.0,2690.333303142856,0.46172078889647905,1.2999494153006426,0.9771979974640348,0.28547675,0.7131069778724575
0.0555,1.72299375,1.0,2688.115370078252,0.4647400973419844,1.29934593555716,0.9774498504555572,0.2854187375,0.7142602387289817
0.056,1.7216,1.0,2685.8849179253193,0.4677424640847016,1.2987369337469843,0.9776952419803336,0.2853602,0.715421697753348
0.0565,1.72019375,1.0,2683.65017773322,0.47072800256965575,1.2981223345698825,0.9779343781845571,0.28530113749999997,0.7165914337710557
0.057,1.718775,1.0,2681.412090237124,0.4736968033688035,1.2975021294583056,0.9781674584578863,0.28524155,0.7177693972186658
0.0575,1.71734375,1.0,2679.171594624492,0.4766489570541016,1.296876309844704,0.9783946740628038,0.2851814375,0.7189555377965284
0.058,1.7159,1.0,2676.9296285291207,0.47958455419750673,1.296244867161529,0.9786162085289866,0.2851208,0.7201498044657144
0.0585,1.71444375,1.0,2674.6871280258383,0.4825036853709756,1.2956077928412308,0.9788322380254939,0.2850596375,0.7213521454449489
0.059000000000000004,1.7129750000000001,1.0,2672.445027626928,0.4854064411464649,1.2949650783162605,0.9790429317121921,0.28499795,0.7225625082075329
0.059500000000000004,1.71149375,1.0,2670.204260280828,0.4882929120959314,1.2943167150190689,0.9792484520717182,0.2849357375,0.723780839478266
0.06,1.71,1.0,2667.965757371484,0.4911631887913317,1.2936626943821063,0.9794489552232136,0.284873,0.7250070852303623
0.0605,1.7084937500000001,1.0,2665.7304487203014,0.49401736180462263,1.293003007837824,0.9796445912189536,0.2848097375,0.7262411906823598
0.061,1.7069750000000001,1.0,2663.499262589016,0.4968555217077608,1.2923376468186727,0.9798355043249356,0.28474595,0.7274831002950286
0.0615,1.7054437500000001,1.0,2661.2731256843813,0.499677759072703,1.2916666027571029,0.9800218332864045,0.2846816375,0.7287327577682727
0.062,1.7039,1.0,2659.0529631650693,0.5024841644714059,1.2909898670855653,0.9802037115792351,0.2846168,0.7299901060380263
0.0625,1.70234375,1.0,2656.839698648741,0.5052748284758262,1.290307431236511,0.9803812676480246,0.2845514375,0.7312550872731455
0.063,1.7007750000000001,1.0,2654.6342542226234,0.5080498416579206,1.2896192866423906,0.980554625131689,0.28448555,0.7325276428722985
0.0635,1.69919375,1.0,2652.431679800632,0.5108092698047295,1.2889254788673346,0.9807239040141905,0.28441913750000003,0.7338076137158209
0.064,1.6976,1.0,2650.237546456104,0.5135532250666275,1.2882259564982446,0.9808892183613365,0.2843522,0.735095019134796
0.0645,1.69599375,1.0,2648.054589427365,0.5162818019977417,1.287520694207144,0.9810506780733917,0.2842847375,0.7363898290900575
0.065,1.694375,1.0,2645.882869564584,0.5189950831044706,1.2868096913150568,0.9812083894240917,0.28421675,0.7376919673716895
0.0655,1.69274375,1.0,2643.7224476574584,0.5216931508932131,1.2860929471430065,0.9813624548644319,0.2841482375,0.7390013571270055
0.066,1.6911,1.0,2641.5733844367232,0.5243760878703676,1.2853704610120165,0.9815129731860531,0.2840792,0.7403179208602972
0.0665,1.6894437500000001,1.0,2639.4357405757632,0.527043976542333,1.284642232243111,0.9816600396765056,0.2840096375,0.7416415804325855
0.067,1.687775,1.0,2637.3095766916235,0.5296968994155079,1.2839082601573133,0.9818037462668558,0.28393955,0.7429722570613754
0.0675,1.68609375,1.0,2635.1949533470306,0.5323349389962909,1.283168544075647,0.981944181672061,0.2838689375,0.7443098713204028
0.068,1.6844000000000001,1.0,2633.091931051585,0.5349581777910806,1.282423083319136,0.9820814315245138,0.2837978,0.7456543431393892
0.0685,1.68269375,1.0,2631.000570263125,0.5375666983062758,1.2816718772088036,0.9822155785011363,0.2837261375,0.7470055918037903
0.069,1.680975,1.0,2628.9209313895517,0.540160583048275,1.280914925065674,0.9823467024443748,0.28365395,0.7483635359545497
0.0695,1.67924375,1.0,2626.8530747900536,0.542739914523477,1.2801522262107703,0.9824748804774288,0.28358123749999997,0.7497280935878489
0.07,1.6775,1.0,2624.797060776919,0.5453047752382804,1.2793837799651167,0.9826001871140251,0.283508,0.7510991820548575
0.07050000000000001,1.67574375,1.0,2622.7529496167817,0.5478552476990838,1.2786095856497364,0.9827226943630332,0.2834342375,0.7524767180614866
0.07100000000000001,1.673975,1.0,2620.720801532355,0.550391414412286,1.277829642585653,0.9828424718281923,0.28335995,0.7538606176681387
0.07150000000000001,1.67219375,1.0,2618.7006767037974,0.5529133578842855,1.2770439500938906,0.982959586803213,0.2832851375,0.7552507962894575
0.07200000000000001,1.6704,1.0,2616.6930911137056,0.5554211374494035,1.2762525032636602,0.9830741027879558,0.2832098,0.7566471761497493
0.0725,1.66859375,1.0,2614.697622463126,0.5579148446498081,1.2754553058911942,0.9831860835077968,0.2831339375,0.7580496634451169
0.073,1.6667750000000001,1.0,2612.71359871863,0.560394580521768,1.2746523640993943,0.9832955912663608,0.28305755,0.7594581597404775
0.0735,1.66494375,1.0,2610.740919206771,0.5628604194565264,1.2738436787108443,0.9834026845666259,0.2829806375,0.7608725753511222
0.074,1.6631,1.0,2608.77948345248,0.5653124358453268,1.273029250548127,0.9835074200346116,0.2829032,0.7622928199780868
0.0745,1.6612437500000001,1.0,2606.829191177626,0.5677507040794124,1.2722090804338264,0.9836098524902607,0.2828252375,0.7637188027084523
0.075,1.659375,1.0,2604.889942298991,0.5701752985500266,1.271383169190526,0.9837100350151977,0.28274675,0.7651504320156453
0.0755,1.65749375,1.0,2602.9616369265104,0.5725862936484126,1.270551517640809,0.9838080190175145,0.2826677375,0.7665876157597417
