Time [s],Phi [rad],STIM [ ],Fsee [N],Gamma [ ],Lcerel [ ],q [ ],Lmtc [m],fisomrel [ ]
0.0,1.8,1.0,17.967488708957788,1.1119861918396852e-05,1.3793397091882027,0.005000032927674854,0.288653,0.5411396206409752
0.0005,1.79999375,1.0,18.27716728154254,0.005620266797081724,1.3793023407876615,0.012943623105309995,0.2886527375,0.5412300200031912
0.001,1.799975,1.0,21.619603010780896,0.011197950852855671,1.3789381773620168,0.035614411851071934,0.28865195,0.542110515744747
0.0015,1.79994375,1.0,31.072135102987087,0.01674434851197857,1.3780459567414813,0.070609692827026,0.2886506375,0.5442642046920217
0.002,1.7999,1.0,53.58856102443196,0.02225963526553682,1.376367731214066,0.11472729686505086,0.2886488,0.5483014378213537
0.0025,1.79984375,1.0,97.12924218932915,0.027743985620534067,1.3739346707214062,0.1645849664861796,0.28864643749999996,0.5541226467872243
0.003,1.7997750000000001,1.0,160.97168492275668,0.033197573107600346,1.3712138377714762,0.2172908464566798,0.28864354999999997,0.5605876487467225
0.0035,1.79969375,1.0,237.69866206827123,0.03862057028058985,1.3685842620200352,0.2706232249068813,0.2886401375,0.5667909495891136
0.004,1.7996,1.0,321.48313433535924,0.04401314872736154,1.3661556590084034,0.3229258102148327,0.2886362,0.5724809737758987
0.0045000000000000005,1.7994937500000001,1.0,409.2847527252134,0.04937547907496415,1.363922415070481,0.37304400864757514,0.2886317375,0.5776800886775146
0.005,1.799375,1.0,499.43088682799413,0.05470773098072695,1.361857972969941,0.4202563503429697,0.28862675,0.5824579317540992
0.0055,1.79924375,1.0,590.8079917825721,0.06001007317969438,1.359938491674613,0.46418192932284913,0.2886212375,0.5868758999075403
0.006,1.7991000000000001,1.0,682.5357323302252,0.06528267342786466,1.3581460943920172,0.5046875272432044,0.2886152,0.5909801501012256
0.006500000000000001,1.79894375,1.0,773.8989106825496,0.07052569855859556,1.3564669522737491,0.5418076772608282,0.2886086375,0.5948064793898746
0.007,1.798775,1.0,864.3032898530128,0.07573931446075145,1.3548901126616022,0.5756830854810421,0.28860155,0.5983833161193728
0.0075,1.79859375,1.0,953.2599064172011,0.0809236860992133,1.3534065224673384,0.6065156559224375,0.2885939375,0.6017341513952253
0.008,1.7984,1.0,1040.3758368388692,0.08607897751738278,1.3520083904270956,0.6345372665999504,0.2885858,0.6048791233065224
0.0085,1.79819375,1.0,1125.337955429612,0.09120535183095523,1.3506889056002187,0.6599891141271489,0.2885771375,0.6078357509213039
0.009000000000000001,1.797975,1.0,1207.8952705025144,0.0963029709598449,1.3494421021410357,0.6831086586838347,0.28856795,0.6106193152144579
0.0095,1.79774375,1.0,1287.8651058057046,0.10137199595569464,1.348262482409651,0.7041216956463983,0.2885582375,0.6132437606692205
0.01,1.7975,1.0,1365.1760576260283,0.10641258937100842,1.347144269497666,0.723237835256175,0.288548,0.6157233933511855
0.0105,1.79724375,1.0,1439.696320909241,0.11142490904515878,1.3460834855383512,0.7406497770467498,0.2885372375,0.6180683068801844
0.011,1.796975,1.0,1511.3550398957736,0.11640911281751831,1.345076152664977,0.7565319913859498,0.28852595000000003,0.6202884211158721
0.0115,1.79669375,1.0,1580.1369206939996,0.12136535852745964,1.3441182930108138,0.771041314501592,0.2885141375,0.6223934962223334
0.012,1.7964,1.0,1646.0708555708634,0.1262938037957283,1.3432060029069564,0.7843180754937642,0.28850180000000003,0.6243929833183364
0.0125,1.79609375,1.0,1709.1852207804163,0.13119460483913428,1.3423359056137338,0.7964876180738228,0.2884889375,0.6262950501518646
0.013000000000000001,1.7957750000000001,1.0,1769.5079610487012,0.13606791624199155,1.341505056872792,0.8076616422023765,0.28847555,0.6281068116400227
0.0135,1.79544375,1.0,1827.0867630365594,0.14091389203807117,1.3407106480203899,0.8179394715848114,0.2884616375,0.6298349946604784
0.014,1.7951000000000001,1.0,1881.9873664573095,0.14573268540110965,1.339949983480697,0.8274093820958227,0.2884472,0.6314859972304652
0.0145,1.79474375,1.0,1934.292489294482,0.15052445004756593,1.339220457317361,0.8361498363362403,0.2884322375,0.633065948142221
0.015,1.794375,1.0,1984.0604970092031,0.1552893365058231,1.3385199639689305,0.8442307473869534,0.28841675,0.6345798277885013
0.0155,1.79399375,1.0,2031.367269066515,0.1600274952405261,1.3378464061898379,0.8517143101705911,0.2884007375,0.6360325440835812
0.016,1.7936,1.0,2076.2982156175067,0.16473907608647792,1.337197761438899,0.858655933160102,0.2883842,0.6374287936243475
0.0165,1.7931937500000001,1.0,2118.9470174558287,0.16942422904874305,1.3365720759730393,0.8651050407121793,0.2883671375,0.6387730793214244
0.017,1.792775,1.0,2159.404862689996,0.17408310329883842,1.3359675580609809,0.8711058070470058,0.28834955,0.6400695150846347
0.0175,1.7923437500000001,1.0,2197.7389622898186,0.17871584480980202,1.3353827763870776,0.8766978271533458,0.2883314375,0.6413214072158658
0.018000000000000002,1.7919,1.0,2234.025928698924,0.18332259955467176,1.3348162996356834,0.8819165548049628,0.2883128,0.6425320328388657
0.0185,1.79144375,1.0,2268.3509930816895,0.18790351350648565,1.3342666964911523,0.8867937862402036,0.2882936375,0.6437046416354971
0.019,1.790975,1.0,2300.79881324731,0.19245873160067622,1.3337326193422125,0.8913581039973405,0.28827395,0.6448422792952355
0.0195,1.79049375,1.0,2331.459781400176,0.19698839943593885,1.3332127326784402,0.8956352286216157,0.2882537375,0.6459479425413468
0.02,1.79,1.0,2360.412017216765,0.20149266060604828,1.332705882739519,0.8996483811385433,0.288233,0.6470242206330274
0.0205,1.78949375,1.0,2387.719811911869,0.20597165623427285,1.3322111019018759,0.9034185622886909,0.2882117375,0.6480732900929256
0.021,1.788975,1.0,2413.4519059502813,0.21042552744388074,1.3317274225419375,0.9069647578053919,0.28818995000000003,0.6490973122885295
0.021500000000000002,1.78844375,1.0,2437.681119390192,0.21485441535814018,1.3312538770361315,0.9103041593869606,0.2881676375,0.6500984341471029
0.022,1.7879,1.0,2460.4787835109373,0.21925846003717425,1.330789547730289,0.9134523685898561,0.2881448,0.6510786833941038
0.0225,1.78734375,1.0,2481.9165755776403,0.2236378019578707,1.3303335452405924,0.9164235630810295,0.28812143749999997,0.6520400155892266
0.023,1.786775,1.0,2502.0638443993557,0.22799258118395976,1.329885030491628,0.9192306503386735,0.28809755,0.6529842686783724
0.0235,1.78619375,1.0,2520.973564409375,0.23232293375350188,1.329443344094435,0.9218854217779012,0.28807313749999996,0.653912892321032
0.024,1.7856,1.0,2538.7008302234462,0.23662899570455742,1.329007826660053,0.9243986356187691,0.2880482,0.6548273277947341
0.0245,1.78499375,1.0,2555.3026791010075,0.2409109030751867,1.3285778187995207,0.9267801216466586,0.2880227375,0.6557290082683334
0.025,1.784375,1.0,2570.837923047119,0.2451687919034501,1.328152661123878,0.929038874081555,0.28799675,0.6566193590475677
0.025500000000000002,1.78374375,1.0,2585.3569906112107,0.24940279579544547,1.3277317876392905,0.9311831485366797,0.2879702375,0.6574996025853158
0.026000000000000002,1.7831000000000001,1.0,2598.9186891571935,0.25361305177180915,1.3273145669986517,0.9332205102651583,0.2879432,0.65837109129619
0.0265,1.78244375,1.0,2611.5741108842244,0.25779969401492414,1.3269004517238452,0.9351579215691556,0.2879156375,0.659234995735797
0.027,1.781775,1.0,2623.362057945612,0.26196285299804795,1.3264890185117777,0.9370018044643732,0.28788755,0.6600922219107657
0.0275,1.7810937500000001,1.0,2634.32222051529,0.2661026591944381,1.3260798440593558,0.938758073468375,0.2878589375,0.6609436712315888
0.028,1.7804,1.0,2644.495100621249,0.2702192430773519,1.3256725050634857,0.9404321824160006,0.2878298,0.6617902405793173
0.0285,1.77969375,1.0,2653.921939951459,0.274312735120047,1.3252665782210742,0.9420291663894601,0.2878001375,0.6626328223608222
0.029,1.778975,1.0,2662.6446516328338,0.27838326579578077,1.3248616402290276,0.9435536793260157,0.28776995,0.6634723045526334
0.029500000000000002,1.7782437500000001,1.0,2670.6871541114097,0.2824309643434805,1.3244574387195462,0.9450100507785866,0.2877392375,0.6643092170266323
0.03,1.7775,1.0,2678.1225404182705,0.28645595956702546,1.3240532741488733,0.9464022311546749,0.287708,0.6651450112034285
0.0305,1.7767439922020396,1.0,2684.977860573255,0.2904583780610906,1.323648984343826,0.9477339543970884,0.2876762476724857,0.66598002210845
0.031,1.7759839529033594,1.0,2691.6545984643562,0.294438345713215,1.3232445886562523,0.949008709440842,0.2876443260219411,0.6668142088789868
0.0315,1.7752239136046795,1.0,2698.34909281142,0.29839598841093784,1.322840106438,0.9502297377755538,0.28761240437139657,0.6676475308517247
0.032,1.7744638743059995,1.0,2705.0594304266638,0.30233143159375453,1.3224355554794236,0.9514000537247095,0.28758048272085196,0.6684799507738379
0.0325,1.7737038350073195,1.0,2711.7724045974796,0.3062448004986693,1.322031056471768,0.9525224756995488,0.2875485610703074,0.6693112202413167
0.033,1.7729437957086396,1.0,2718.4753329748332,0.31013621923404955,1.321626724733388,0.9535996288742924,0.28751663941976285,0.6701411031163058
0.0335,1.7721837564099596,1.0,2725.160921142271,0.31400580994644184,1.3212226260022177,0.954633955449696,0.2874847177692183,0.6709694660211714
0.034,1.7714237171112797,1.0,2731.8218395075282,0.3178536947823927,1.320818826016192,0.9556277354206492,0.28745279611867375,0.6717961762550777
0.0345,1.7706636778125997,1.0,2738.450723689584,0.32167999588844864,1.3204153905132454,0.9565830992700043,0.2874208744681292,0.6726211017928714
0.035,1.7699036385139195,1.0,2745.047255555478,0.3254848248655705,1.320012321054237,0.9575020299917948,0.2873889528175846,0.6734442422623724
0.035500000000000004,1.7691435992152396,1.0,2751.5956262457653,0.32926831941541124,1.3196097594387475,0.9583864051367771,0.28735703116704003,0.6742653114525063
0.036000000000000004,1.7683835599165596,1.0,2758.0935256027287,0.3330305968554547,1.319207724744278,0.9592379658558345,0.2873251095164955,0.6750842744374403
0.0365,1.7676235206178796,1.0,2764.539387145492,0.33677177334094693,1.3188062292580083,0.9600583438592482,0.2872931878659509,0.6759011102879154
0.037,1.7668634813191997,1.0,2770.9316399503277,0.34049196502713414,1.3184052852671182,0.9608490704415553,0.2872612662154064,0.6767157981950418
0.0375,1.7661034420205197,1.0,2777.2687087992244,0.3441912880692622,1.3180049050587872,0.9616115837886426,0.2872293445648618,0.6775283174698716
0.038,1.7653434027218398,1.0,2783.5490143316365,0.3478698586225772,1.317605100920195,0.9623472356755349,0.28719742291431727,0.6783386475429616
0.0385,1.7645833634231598,1.0,2789.7709732000762,0.3515277928423252,1.3172058851385215,0.9630572976118208,0.2871655012637727,0.6791467679639256
0.039,1.7638233241244796,1.0,2795.932998228362,0.3551652068837523,1.3168072700009463,0.9637429664857848,0.28713357961322816,0.6799526584009805
0.0395,1.7630632848257997,1.0,2802.033498573804,0.3587822169021045,1.3164092677946488,0.9644053697531162,0.2871016579626836,0.6807562986404789
0.04,1.7623032455271197,1.0,2808.070879892445,0.36237893905262786,1.3160118908068092,0.965045570211434,0.28706973631213906,0.6815576685864326
0.0405,1.7615432062284397,1.0,2814.0454985107563,0.36595547613834073,1.3156151338322977,0.9656645664489476,0.28703781466159445,0.6823567834694542
0.041,1.7607831669297598,1.0,2819.956512299109,0.3695119536856218,1.3152190024284423,0.9662633061266794,0.2870058930110499,0.6831536368240361
0.0415,1.7600231276310798,1.0,2825.8032722568028,0.37304849242158955,1.3148235004271034,0.9668426833182038,0.28697397136050534,0.6839482256977858
0.042,1.7592630883323999,1.0,2831.5865833394864,0.37656520042529673,1.3144286186922192,0.9674035398455599,0.2869420497099608,0.6847405731737981
0.0425,1.75850304903372,1.0,2837.3072572712435,0.38006218577579615,1.3140343480877272,0.9679466719539639,0.28691012805941624,0.6855307022357021
0.043000000000000003,1.7577430097350397,1.0,2842.966112419676,0.38353955655214045,1.3136406794775648,0.9684728332437578,0.2868782064088717,0.6863186357680213
0.043500000000000004,1.7569829704363598,1.0,2848.563973672937,0.38699742083338246,1.31324760372567,0.9689827373852407,0.2868462847583271,0.6871043965565231
0.044,1.7562229311376798,1.0,2854.101672319086,0.3904358866985748,1.3128551116959803,0.9694770606344791,0.2868143631077825,0.6878880072885704
0.0445,1.7554628918389998,1.0,2859.580045926524,0.39385506222677036,1.3124631942524336,0.9699564441665272,0.28678244145723797,0.6886694905534628
0.045,1.7547028525403199,1.0,2864.999938226808,0.39725505549702184,1.3120718422589674,0.9704214962409894,0.2867505198066934,0.6894488688427747
0.0455,1.75394281324164,1.0,2870.3621989994303,0.4006359745883819,1.3116810465795194,0.970872794213498,0.28671859815614886,0.690226164550687
0.046,1.75318277394296,1.0,2875.6676839577312,0.4039979275799034,1.3112907980780273,0.9713108864054644,0.2866866765056043,0.6910013999743139
0.0465,1.75242273464428,1.0,2880.9172546376763,0.4073410225506389,1.3109010876184286,0.9717362938433621,0.28665475485505976,0.6917745973140248
0.047,1.7516626953455998,1.0,2886.111778287441,0.41066536757964134,1.3105119060646613,0.9721495118778165,0.2866228332045152,0.6925457786737594
0.0475,1.7509026560469199,1.0,2891.2508506828976,0.41397101472235676,1.3101232555594262,0.9725510052978871,0.28659091155397065,0.6933149437538993
0.048,1.75014261674824,1.0,2896.337609088212,0.41725813099883624,1.3097351070044094,0.9729412289654485,0.2865589899034261,0.6940821539826756
0.0485,1.74938257744956,1.0,2901.373545212457,0.4205268336597438,1.3093474459265049,0.9733206105963965,0.28652706825288154,0.6948474416414163
0.049,1.74862253815088,1.0,2906.3596164005066,0.4237772203789996,1.3089602626240915,0.9736895555753392,0.28649514660233694,0.6956108294619019
0.0495,1.7478624988522,1.0,2911.296785317157,0.42700938883052375,1.308573547395548,0.9740484503158069,0.2864632249517924,0.6963723400756617
0.05,1.74710245955352,1.0,2916.1860198449317,0.43022343668823626,1.3081872905392535,0.9743976633198617,0.28643130330124783,0.6971319960142657
0.0505,1.74634242025484,1.0,2921.028292984677,0.4334194616260573,1.3078014823535866,0.9747375461693154,0.2863993816507033,0.6978898197096133
0.051000000000000004,1.74558238095616,1.0,2925.824582758009,0.43659756131790706,1.3074161131369264,0.9750684344535442,0.2863674600001587,0.6986458334942107
0.051500000000000004,1.74482234165748,1.0,2930.575872111783,0.43975783343770547,1.3070311731876518,0.9753906486384817,0.28633553834961417,0.6994000596014482
0.052000000000000005,1.7440623023588,1.0,2935.2831488247466,0.44290037565937274,1.3066466528041416,0.975704494881009,0.28630361669906956,0.700152520165868
0.0525,1.74330226306012,1.0,2939.9474054163493,0.4460252856568289,1.3062625422847745,0.976010265792622,0.286271695048525,0.7009032372234272
0.053,1.74254222376144,1.0,2944.5696390573376,0.4491326611039942,1.3058788319279295,0.976308241155947,0.28623977339798046,0.701652232711752
0.0535,1.7417821844627601,1.0,2949.1508514827665,0.4522225996747886,1.3054955120319855,0.9765986885973995,0.2862078517474359,0.7023995284703921
0.054,1.7410221451640802,1.0,2953.692048906872,0.4552951990431323,1.3051125728953215,0.9768818642190239,0.28617593009689135,0.7031451462410623
0.0545,1.7402621058654002,1.0,2958.194241940327,0.45835055688294535,1.304730004816316,0.9771580131923175,0.2861440084463468,0.7038891076678828
0.055,1.73950206656672,1.0,2962.6584455090792,0.46138877086814784,1.3043477980933482,0.9774273703166275,0.28611208679580225,0.7046314342976102
0.0555,1.73874202726804,1.0,2967.0856787758853,0.4644099386726599,1.303965943024797,0.9776901605445133,0.2860801651452577,0.7053721475798658
0.056,1.73798198796936,1.0,2971.4769650634908,0.46741415797040164,1.3035844299090409,0.9779465994762901,0.28604824349471314,0.7061112688673554
0.0565,1.7372219486706801,1.0,2975.8333317798965,0.47040152643529315,1.3032032490444592,0.9781968938257972,0.2860163218441686,0.7068488194160831
0.057,1.7364619093720002,1.0,2980.155810346088,0.4733721417412546,1.3028223907294305,0.9784412418592906,0.28598440019362403,0.7075848203855616
0.0575,1.7357018700733202,1.0,2984.4454361256103,0.476326101562206,1.3024418452623336,0.9786798338092179,0.2859524785430795,0.7083192928390135
0.058,1.7349418307746403,1.0,2988.7009195565265,0.4792634383050186,1.3020616231707207,0.9789128477832731,0.28592055689253487,0.7090522187738186
0.0585,1.7341817914759603,1.0,2992.925644610827,0.48218431984313903,1.3016816943899567,0.9791404641475685,0.2858886352419903,0.7097836583864947
0.059000000000000004,1.7334217521772801,1.0,2997.120418183723,0.48508884006449376,1.301302051299948,0.9793628510595505,0.28585671359144577,0.7105136284516693
0.059500000000000004,1.7326617128786002,1.0,3001.2857972882375,0.4879770856583139,1.3009226884727683,0.9795801696246308,0.2858247919409012,0.7112421414614836
0.06,1.7319016735799202,1.0,3005.4223412051647,0.4908491433138306,1.3005436004804916,0.9797925747084958,0.28579287029035666,0.7119692098540265
0.0605,1.7311416342812402,1.0,3009.530611450048,0.49370509972027504,1.3001647818951914,0.9800002152270886,0.2857609486398121,0.7126948460134318
0.061,1.7303815949825603,1.0,3013.611171740157,0.4965450415668784,1.2997862272889418,0.9802032344209651,0.2857290269892675,0.7134190622699712
0.0615,1.7296215556838803,1.0,3017.6645879626635,0.49936905554287175,1.2994079312338165,0.9804017701149716,0.28569710533872295,0.7141418709001475
0.062,1.7288615163852004,1.0,3021.691428142827,0.5021772283374862,1.2990298883018894,0.9805959549641372,0.2856651836881784,0.7148632841267843
0.0625,1.7281014770865202,1.0,3025.692262413579,0.5049696466399531,1.298652093065234,0.980785916686612,0.28563326203763384,0.7155833141191159
0.063,1.7273414377878402,1.0,3029.6676629850463,0.5077463971395034,1.2982745400959246,0.980971778284425,0.2856013403870893,0.7163019729928721
0.0635,1.7265813984891603,1.0,3033.6182041153434,0.5105075665253684,1.2978972239660345,0.9811536582527856,0.28556941873654473,0.7170192728103645
0.064,1.7258213591904803,1.0,3037.5444620816393,0.5132532414867792,1.2975201392476379,0.9813316707786003,0.2855374970860002,0.7177352255805682
0.0645,1.7250613198918003,1.0,3041.447015151982,0.5159835087129668,1.2971432805128085,0.9815059259288403,0.2855055754354556,0.7184498432592041
0.065,1.7243012805931204,1.0,3045.3264435577075,0.5186984548931626,1.29676664233362,0.9816765298293447,0.2854736537849111,0.7191631377488179
0.0655,1.7235412412944404,1.0,3049.183329466778,0.5213981667165974,1.2963902192821462,0.9818435848346143,0.2854417321343665,0.7198751208988563
0.066,1.7227812019957605,1.0,3053.0182569572166,0.5240827308725028,1.296014005930461,0.9820071896891089,0.28540981048382197,0.7205858045057429
0.0665,1.7220211626970805,1.0,3056.831811991894,0.5267522340501096,1.2956379968506384,0.9821674396805329,0.28537788883327736,0.7212952003129526
0.067,1.7212611233984003,1.0,3060.6245823936188,0.5294067629386491,1.2952621866147518,0.9823244267855591,0.2853459671827328,0.7220033200110826
0.0675,1.7205010840997204,1.0,3064.397157820462,0.5320464042273524,1.2948865697948753,0.9824782398084181,0.28531404553218825,0.7227101752379215
0.068,1.7197410448010404,1.0,3068.1501297426407,0.5346712446054507,1.2945111409630825,0.9826289645127458,0.2852821238816437,0.7234157775785184
0.0685,1.7189810055023604,1.0,3071.883414462995,0.5372813397126179,1.2941359004916817,0.9827766820628517,0.28525020223109915,0.7241201276847817
0.069,1.7182209662036805,1.0,3075.5975010062893,0.5398767805920124,1.293760843849915,0.9829214728916271,0.2852182805805546,0.7248232353972762
0.0695,1.7174609269050005,1.0,3079.2935126702787,0.5424576852192491,1.2933859610919411,0.9830634161353354,0.28518635893001,0.7255251206446365
0.07,1.7167008876063206,1.0,3082.97173275732,0.5450241304311781,1.2930112494817942,0.9832025861005644,0.28515443727946543,0.7262257897867275
0.07050000000000001,1.7159408483076404,1.0,3086.6324455298563,0.5475761930646501,1.2926367062835087,0.9833390546507197,0.2851225156289209,0.7269252491566948
0.07100000000000001,1.7151808090089604,1.0,3090.275936200715,0.550113949956515,1.292262328761119,0.9834728913029076,0.2850905939783763,0.7276235050609936
