Time [s],Phi [rad],STIM [ ],Fsee [N],Gamma [ ],Lcerel [ ],q [ ],Lmtc [m],fisomrel [ ]
0.0,1.8,1.0,17.967631679941267,1.157430174719661e-05,1.3793396931708504,0.0050000356627301155,0.288653,0.5411396593910878
0.0005,1.79999375,1.0,18.277450142574217,0.005620718687862584,1.3793023093677919,0.012944884721215178,0.2886527375,0.5412300960084819
0.001,1.799975,1.0,21.620216779625657,0.011198400208886563,1.378938114676779,0.035616779182455094,0.28865195,0.5421106672359959
0.0015,1.79994375,1.0,31.07346685020309,0.016744795347477578,1.3780458432877003,0.07061293304522127,0.2886506375,0.5442644782298838
0.002,1.7999,1.0,53.59133059136268,0.022260079594641637,1.376367551551506,0.11473113430731664,0.2886488,0.5483018690660859
0.0025,1.79984375,1.0,97.13383909489615,0.027744427457304183,1.3739344492218695,0.16458914161042984,0.28864643749999996,0.5541231750163811
0.003,1.7997750000000001,1.0,160.97763734839344,0.033198012466015496,1.3712136149779348,0.21729515417347267,0.28864354999999997,0.5605881761958342
0.0035,1.79969375,1.0,237.70537053245903,0.03862100717455143,1.3685840553897142,0.27062750982342687,0.2886401375,0.566791435307628
0.004,1.7996,1.0,321.4902592543314,0.044013583170693295,1.366155470302362,0.3229299595037682,0.2886362,0.5724814144376791
0.0045000000000000005,1.7994937500000001,1.0,409.2921213138376,0.04937591108141307,1.3639222421059907,0.3730479476434303,0.2886317375,0.5776804901165458
0.005,1.799375,1.0,499.4383970027044,0.054708160563964305,1.3618578133827293,0.42026003574559084,0.28862675,0.582458300044228
0.0055,1.79924375,1.0,590.8155641677059,0.060010500353304075,1.3599383437312453,0.46418534153192315,0.2886212375,0.5868762395153313
0.006,1.7991000000000001,1.0,682.543309196645,0.06528309820536603,1.3581459566669138,0.504690663115075,0.2886152,0.5909804646783836
0.006500000000000001,1.79894375,1.0,773.8863647093208,0.07052612065809187,1.356467166440169,0.5418107612921765,0.2886086375,0.59480599250675
0.007,1.798775,1.0,864.3151723998075,0.07573973454021109,1.3548899207229965,0.5756856536556908,0.28860155,0.5983837505396213
0.0075,1.79859375,1.0,953.281565593735,0.0809241039934283,1.3534061893316285,0.606517897922333,0.2885939375,0.6017349022388303
0.008,1.7984,1.0,1040.3817787086787,0.08607939288144015,1.3520083029458896,0.6345394369137816,0.2885858,0.6048793196975601
0.0085,1.79819375,1.0,1125.341263580981,0.09120576482272688,1.3506888587694863,0.6599911059474555,0.2885771375,0.6078358556599339
0.009000000000000001,1.797975,1.0,1207.9033310754655,0.09630338185107373,1.3494419920028482,0.6831104325833616,0.28856795,0.6106195606667135
0.0095,1.79774375,1.0,1287.8948820140092,0.10137240541266267,1.348262088388919,0.7041231556909794,0.2885582375,0.6132446358131022
0.01,1.7975,1.0,1365.181570981357,0.10641299567219353,1.3471441986364516,0.723239318021538,0.288548,0.6157235502329585
0.0105,1.79724375,1.0,1439.6725553150632,0.11142531208290551,1.3460837829804244,0.7406513070868518,0.2885372375,0.6180676503761432
0.011,1.796975,1.0,1511.3336863252005,0.11640951366218809,1.345076413506164,0.7565333776794974,0.28852595000000003,0.6202878470718207
0.0115,1.79669375,1.0,1580.1331709637127,0.12136575765232187,1.3441183378069241,0.7710424898815995,0.2885141375,0.622393397911351
0.012,1.7964,1.0,1646.071188917722,0.12629420073640207,1.3432059990052063,0.7843191314712954,0.28850180000000003,0.6243929918585406
0.0125,1.79609375,1.0,1709.1871506905236,0.131194999522804,1.3423358834455674,0.7964885789053097,0.2884889375,0.6262950985508383
0.013000000000000001,1.7957750000000001,1.0,1769.517376429095,0.1360683089471696,1.3415049505813226,0.8076624912402741,0.28847555,0.6281070431391851
0.0135,1.79544375,1.0,1827.10032801961,0.14091428259578961,1.3407104973158825,0.817940234349883,0.2884616375,0.6298353221261608
0.014,1.7951000000000001,1.0,1882.0000556891641,0.14573307386434242,1.3399498445770568,0.8274100878488929,0.2884472,0.6314862983802134
0.0145,1.79474375,1.0,1934.2958598020502,0.15052483553963905,1.3392204209240621,0.8361505215897841,0.2884322375,0.6330660268753256
0.015,1.794375,1.0,1984.0698816420002,0.15528972012342157,1.3385198639167186,0.8442313595804407,0.28841675,0.6345800437940252
0.0155,1.79399375,1.0,2031.384454068815,0.16002787723191766,1.337846225121786,0.8517148504546908,0.2884007375,0.636032934218621
0.016,1.7936,1.0,2076.31791792104,0.16473945648135513,1.3371975561060239,0.8586564258164383,0.2883842,0.6374292351917248
0.0165,1.7931937500000001,1.0,2118.959300780266,0.1694246071057797,1.3365719492537806,0.8651055203746874,0.2883671375,0.6387733513249698
0.017,1.792775,1.0,2159.3978669277935,0.17408347764222803,1.3359676295526985,0.8711063086784402,0.28834955,0.6400693619028722
0.0175,1.7923437500000001,1.0,2197.7316854431206,0.1787162171348644,1.3353828500998777,0.8766982963308492,0.2883314375,0.6413212495500096
0.018000000000000002,1.7919,1.0,2234.027172783997,0.18332297062371586,1.3348162871361648,0.8819169710337584,0.2883128,0.6425320595291876
0.0185,1.79144375,1.0,2268.35897522993,0.18790388314880935,1.3342666169024073,0.8867941584687439,0.2882936375,0.6437048113029951
0.019,1.790975,1.0,2300.809287975378,0.19245909975017195,1.3337325156394517,0.8913584464670884,0.28827395,0.6448425000158262
0.0195,1.79049375,1.0,2331.4618291821034,0.19698876474052668,1.3332127125385531,0.8956355687951136,0.2882537375,0.645947985340241
0.02,1.79,1.0,2360.4008721182,0.20149302224167512,1.3327059916771424,0.8996487295464661,0.288233,0.6470239894838306
0.0205,1.78949375,1.0,2387.709265465818,0.20597201600161064,1.332211204396789,0.903418889197227,0.2882117375,0.6480730729376111
0.021,1.788975,1.0,2413.448161772176,0.2104258861661485,1.331727458734949,0.9069650522302941,0.28818995000000003,0.6490972357182803
0.021500000000000002,1.78844375,1.0,2437.682606870876,0.21485477288110394,1.3312538627290782,0.9103044268496093,0.2881676375,0.6500984643720187
0.022,1.7879,1.0,2460.481218701411,0.21925881629229224,1.3307895244166323,0.9134526195195433,0.2881448,0.6510787325772265
0.0225,1.78734375,1.0,2481.915083174094,0.223638156490993,1.3303335594665047,0.9164238077152165,0.28812143749999997,0.6520399856192258
0.023,1.786775,1.0,2502.02602021256,0.22799293064844123,1.3298853895866836,0.919230947020423,0.28809755,0.652983513192736
0.0235,1.78619375,1.0,2520.945829798452,0.23232328069213704,1.329443606411476,0.9218856855823573,0.28807313749999996,0.6539123411817616
0.024,1.7856,1.0,2538.7047308261804,0.23662934161544977,1.3290077898968646,0.924398832293666,0.2880482,0.6548274049336116
0.0245,1.78499375,1.0,2555.334485664033,0.24091124841174882,1.3285775199988323,0.9267802620061009,0.2880227375,0.6557296344114061
0.025,1.7843767962167496,1.0,2570.954906609587,0.24516913607440352,1.3281523766733616,0.9290390090268711,0.2879968254411035,0.6566199543482916
0.025500000000000002,1.7837584973673029,1.0,2586.0538427328697,0.24940313959678326,1.3277319398764353,0.9311833501245824,0.2879708568894267,0.6574992843903973
0.026000000000000002,1.783140198517856,1.0,2600.736541210459,0.2536133938568521,1.3273157905175499,0.9332208784300238,0.28794488833774995,0.6583685372381103
0.0265,1.7825218996684093,1.0,2615.015587226529,0.25780003216779424,1.3269037754649646,0.9351586107842886,0.2879189197860732,0.6592280662842858
0.027,1.7819036008189626,1.0,2628.8886096626575,0.26196318766194676,1.3264958828605518,0.9370030221456604,0.2878929512343964,0.660077928810934
0.0275,1.7812853019695158,1.0,2642.3663195904196,0.2661029909843458,1.3260919811604632,0.9387600550378782,0.28786698268271965,0.6609184305575386
0.028,1.780667003120069,1.0,2655.459681828433,0.27021957278002734,1.3256919388208512,0.9404351882164883,0.2878410141310429,0.6617498755966674
0.0285,1.7800487042706223,1.0,2668.1798638779997,0.2743130636025076,1.3252956246620853,0.9420334789609535,0.2878150455793661,0.6625725656113002
0.029,1.7794304054211756,1.0,2680.533294232755,0.27838358171986444,1.32490295308956,0.9435596026960039,0.28778907702768936,0.6633867062298572
0.029500000000000002,1.7788121065717288,1.0,2692.540667084231,0.2824312770425102,1.3245137095603414,0.9450178793382304,0.2877631084760126,0.664192768837329
0.03,1.778193807722282,1.0,2704.2115785749406,0.2864562737886506,1.3241277835350567,0.9464123147523239,0.28773713992433586,0.6649910074638121
0.0305,1.7775755088728353,1.0,2715.5558043009187,0.2904586961764913,1.3237450644743332,0.9477466235526368,0.2877111713726591,0.6657816748358095
0.031,1.7769572100233886,1.0,2726.583291316586,0.294438668424238,1.3233654418387981,0.9490242539498711,0.2876852028209823,0.6665650223992311
0.0315,1.7763389111739418,1.0,2737.304150410727,0.29839631475009637,1.3229888050890788,0.95024841018726,0.28765923426930556,0.6673413003416107
0.032,1.775720612324495,1.0,2747.728648652795,0.3023317593722721,1.3226150436858022,0.9514220728261302,0.2876332657176288,0.6681107576135458
0.0325,1.7751023134750483,1.0,2757.8672022106443,0.3062451265089709,1.3222440470895955,0.9525480171101544,0.287607297165952,0.6688736419493576
0.033,1.7744840146256016,1.0,2767.730369439118,0.3101365403783984,1.3218757047610863,0.9536288296108881,0.28758132861427527,0.6696301998869707
0.0335,1.7738657157761548,1.0,2777.3288442392177,0.3140061251987603,1.3215099061609015,0.9546669233338251,0.2875553600625985,0.6703806767870164
0.034,1.773247416926708,1.0,2786.673449688607,0.31785400518826235,1.3211465407496683,0.9556645514437441,0.2875293915109217,0.6711253168511532
0.0345,1.7726291180772613,1.0,2795.77226022369,0.32168029851399943,1.3207855237796178,0.956623821026115,0.28750342295924497,0.6718643103744779
0.035,1.7720108192278146,1.0,2804.635778612704,0.3254851291203264,1.3204267496162239,0.9575467023428155,0.2874774544075682,0.6725978894463704
0.035500000000000004,1.7713925203783678,1.0,2813.2762510711773,0.32926862484084335,1.3200700979917868,0.9584350393977492,0.2874514858558914,0.6733263149602298
0.036000000000000004,1.770774221528921,1.0,2821.700666644876,0.3330309021119313,1.3197154966535976,0.9592905623137254,0.2874255173042147,0.6740497487230339
0.0365,1.7701559226794743,1.0,2829.9160913039495,0.33677207736997145,1.3193628733489466,0.9601148936253958,0.2873995487525379,0.6747683518058185
0.037,1.7695376238300276,1.0,2837.9296647161445,0.34049226705134494,1.319012155825125,0.9609095561889797,0.2873735802008611,0.6754822845529531
0.0375,1.7689193249805808,1.0,2845.74859713656,0.34419158759243285,1.3186632718294236,0.9616759804255769,0.2873476116491844,0.6761917065910935
0.038,1.768301026131134,1.0,2853.3801664117896,0.34787015542961636,1.3183161491091326,0.9624155109609874,0.28732164309750763,0.6768967768377947
0.0385,1.7676827272816873,1.0,2860.8317151012,0.35152808699927657,1.317970715411543,0.9631294127184008,0.2872956745458309,0.6775976535097945
0.039,1.7670644284322405,1.0,2868.110647712794,0.3551654987377946,1.3176268984839457,0.9638188765145295,0.28726970599415413,0.6782944941309608
0.0395,1.7664461295827938,1.0,2875.224428055752,0.3587825070815516,1.3172846260736313,0.9644850242045975,0.28724373744247733,0.6789874555399107
0.04,1.765827830733347,1.0,2882.18057670835,0.36237922846692877,1.3169438259278903,0.9651289134170189,0.2872177688908006,0.6796766938972933
0.0405,1.7652095318839003,1.0,2888.9820905165598,0.36595576705668287,1.3166044662421572,0.965751543253391,0.28719180033912384,0.6803622830214247
0.041,1.7645912330344535,1.0,2895.6400498362304,0.36951225192353376,1.316266444148061,0.9663538552021458,0.28716583178744703,0.6810444397510889
0.0415,1.7639729341850068,1.0,2902.1590907003792,0.37304879269190167,1.3159297141677675,0.9669367401061353,0.2871398632357703,0.6817232643682166
0.042,1.76335463533556,1.0,2908.543731870593,0.3765654985440519,1.3155942321603853,0.9675010401125884,0.28711389468409354,0.6823988540404874
0.0425,1.7627363364861133,1.0,2914.798524736446,0.38006247866224985,1.315259953985023,0.9680475518018306,0.28708792613241674,0.6830713055272999
0.043000000000000003,1.7621180376366665,1.0,2920.928052115952,0.3835398422287607,1.3149268355007886,0.9685770291167402,0.28706195758074,0.6837407151832247
0.043500000000000004,1.7614997387872198,1.0,2926.936927098668,0.3869976984258498,1.3145948325667902,0.9690901860753471,0.28703598902906324,0.6844071789613304
0.044,1.760881439937773,1.0,2932.8297919323413,0.39043615643578233,1.3142639010421366,0.9695876992846514,0.28701002047738644,0.6850707924163844
0.0445,1.7602631410883263,1.0,2938.611316953159,0.3938553254408238,1.3139339967859358,0.9700702102720654,0.2869840519257097,0.6857316507079338
0.045,1.7596448422388795,1.0,2944.286199558384,0.3972553146232393,1.3136050756572961,0.970538327649391,0.28695808337403295,0.6863898486032576
0.0455,1.7590265433894328,1.0,2949.859163222598,0.4006362331652943,1.313277093515326,0.9709926291228865,0.28693211482235614,0.6870454804801969
0.046,1.758408244539986,1.0,2955.331033304814,0.4039981708939893,1.3129500404904242,0.9714336632422388,0.2869061462706794,0.6876985719293427
0.0465,1.7577899456905393,1.0,2960.708528424736,0.40734124947134603,1.3126238553665661,0.9718619518758768,0.28688017771900265,0.6883492508155113
0.047,1.7571716468410925,1.0,2965.99828522351,0.41066559072342707,1.312298477910646,0.9722779912177021,0.2868542091673259,0.6889976425213451
0.0475,1.7565533479916458,1.0,2971.2027563920874,0.41397129538256744,1.3119738845949056,0.9726822531037264,0.2868282406156491,0.6896437988863665
0.048,1.755935049142199,1.0,2976.324408259483,0.4172584641811021,1.311650051891588,0.9730751866194836,0.28680227206397235,0.6902877715432736
0.0485,1.7553167502927522,1.0,2981.365720389558,0.4205271978513658,1.3113269562729355,0.9734572194078841,0.2867763035122956,0.6909296119190999
0.049,1.7546984514433055,1.0,2986.329185190731,0.4237775971256936,1.3110045742111902,0.9738287588902406,0.28675033496061886,0.6915693712363402
0.0495,1.7540801525938587,1.0,2991.217307537272,0.42700976273642033,1.3106828821785947,0.9741901934069737,0.28672436640894206,0.6922071005140351
0.05,1.753461853744412,1.0,2996.032604403595,0.43022379541588096,1.3103618566473918,0.9745418932839703,0.2866983978572653,0.692842850568826
0.0505,1.7528435548949652,1.0,3000.777604510029,0.43341979589641044,1.3100414740898234,0.9748842118300637,0.28667242930558856,0.6934766720159737
0.051000000000000004,1.7522252560455185,1.0,3005.454847981554,0.4365978649103436,1.309721710978132,0.9752174862706666,0.28664646075391176,0.6941086152703394
0.051500000000000004,1.7516069571960717,1.0,3010.0668860186,0.4397581031900154,1.3094025437845602,0.975542038622178,0.286620492202235,0.6947387305473319
0.052000000000000005,1.750988658346625,1.0,3014.6162805797453,0.4429006114677608,1.3090839489813502,0.9758581765114073,0.28659452365055826,0.6953670678638206
0.0525,1.7503703594971782,1.0,3019.105604077128,0.44602549047591455,1.3087659030407448,0.9761661939439304,0.28656855509888146,0.6959936770390096
0.053,1.7497520606477315,1.0,3023.5374390842435,0.4491328409468117,1.308448382434986,0.9764663720249743,0.2865425865472047,0.6966186076952827
0.0535,1.7491337617982847,1.0,3027.9143780553873,0.45222276361278724,1.3081313636363165,0.9767589796361499,0.28651661799552797,0.6972419092590053
0.054,1.748515462948838,1.0,3032.237654019893,0.45529534558646956,1.3078148349234804,0.977044273441133,0.28649064944385116,0.6978636077838984
0.0545,1.7478971640993912,1.0,3036.5075947407113,0.45835067062806784,1.3074987924240964,0.9773224993199093,0.2864646808921744,0.6984837138320232
0.055,1.7472788652499445,1.0,3040.7299518998157,0.46138887780615934,1.307183185580071,0.9775938952866915,0.28643871234049767,0.69910232939056
0.0555,1.7466605664004977,1.0,3044.905886571529,0.4644100582948821,1.306868003492098,0.97785868710429,0.28641274378882087,0.6997194784208345
0.056,1.746042267551051,1.0,3049.036564526272,0.46741430326837385,1.3065532352608717,0.978117091165929,0.2863867752371441,0.7003351847930249
0.0565,1.7454239687016042,1.0,3053.123156128881,0.4704017039007726,1.3062388699870853,0.9783693149607899,0.2863608066854674,0.7009494722864575
0.057,1.7448056698521577,1.0,3057.166836239992,0.47337235136621625,1.3059248967714325,0.9786155575127622,0.2863348381337906,0.7015623645898863
0.0575,1.744187371002711,1.0,3061.168784120044,0.4763263368388427,1.3056113047146076,0.9788560097941406,0.2863088695821139,0.7021738853017705
0.058,1.7435690721532642,1.0,3065.1301833357566,0.4792637514927898,1.3052980829173042,0.9790908551158958,0.2862829010304371,0.7027840579305449
0.0585,1.7429507733038174,1.0,3069.052221669573,0.48218468650219554,1.304985220480216,0.9793202694960198,0.28625693247876033,0.7033929058948791
0.059000000000000004,1.7423324744543707,1.0,3072.936091031128,0.4850892330411977,1.3046727065040369,0.9795444220073407,0.2862309639270836,0.7040004525239318
0.059500000000000004,1.741714175604924,1.0,3076.7829873721007,0.48797748228393434,1.3043605300894603,0.9797634751061054,0.2862049953754068,0.704606721057598
0.06,1.7410958767554772,1.0,3080.594110603085,0.49084952540454324,1.3040486803371807,0.9799775849425367,0.28617902682373003,0.705211734646744
0.0605,1.7404775779060304,1.0,3084.3706645134,0.4937054535771624,1.303737146347891,0.9801869016544836,0.2861530582720533,0.7058155163534432
0.061,1.7398592790565837,1.0,3088.1138566933287,0.4965453579759297,1.303425917222286,0.9803915696452127,0.2861270897203765,0.7064180891511942
0.0615,1.739240980207137,1.0,3091.824898459585,0.49936932977498294,1.3031149820610586,0.9805917278463058,0.28610112116869973,0.7070194759251407
0.062,1.7386226813576902,1.0,3095.5050047823997,0.5021774601484602,1.302804329964903,0.9807875099665784,0.286075152617023,0.7076196994722772
0.0625,1.7380043825082434,1.0,3099.155394216112,0.5049698402704992,1.3024939500345132,0.9809790447278528,0.28604918406534624,0.70821878250165
0.063,1.7373860836587967,1.0,3102.777288831877,0.507746561315238,1.3021838313705825,0.9811664560883815,0.28602321551366944,0.7088167476345516
0.0635,1.73676778480935,1.0,3106.3706362172566,0.5105076890614487,1.3018739739623528,0.9813498621748469,0.2859972469619927,0.7094135964418902
0.064,1.7361494859599031,1.0,3109.93672954053,0.5132533259804788,1.3015643663446215,0.981529378875635,0.28597127841031594,0.7100093525228538
0.0645,1.7355311871104564,1.0,3113.477242443304,0.51598357881934,1.3012549938440268,0.9817051180120228,0.2859453098586392,0.7106040455485823
0.065,1.7349128882610096,1.0,3116.9927223900327,0.5186985296446721,1.300945851402963,0.9818771861406163,0.2859193413069624,0.7111976866178116
0.0655,1.734294589411563,1.0,3120.483718544323,0.5213982605231154,1.3006369339638244,0.982045686036576,0.28589337275528565,0.7117902867883645
0.066,1.7336762905621161,1.0,3123.9507817427866,0.52408285352131,1.3003282364690054,0.9822107168550042,0.2858674042036089,0.7123818570772231
0.0665,1.7330579917126694,1.0,3127.394464470519,0.5267523907058957,1.3000197538609004,0.9823723742843294,0.2858414356519321,0.7129724084606018
0.067,1.7324396928632226,1.0,3130.8153208368203,0.5294069541435128,1.2997114810819037,0.9825307506921473,0.28581546710025535,0.7135619518740168
0.0675,1.7318213940137759,1.0,3134.2139065509996,0.5320466259008013,1.2994034130744097,0.9826859352639313,0.2857894985485786,0.7141504982123548
0.068,1.7312030951643291,1.0,3137.5907788994073,0.5346714880444011,1.2990955447808128,0.9828380141350146,0.2857635299969018,0.7147380583299389
0.0685,1.7305847963148824,1.0,3140.9464967228296,0.5372816226409525,1.2987878711435072,0.982987070516213,0.28573756144522505,0.715324643040596
0.069,1.7299664974654356,1.0,3144.2816203940606,0.5398771117570954,1.2984803871048873,0.983133184813434,0.2857115928935483,0.7159102631177188
0.0695,1.7293481986159889,1.0,3147.5967117964615,0.5424580374594699,1.2981730876073476,0.9832764347416038,0.2856856243418715,0.7164949292943272
0.07,1.7287298997665421,1.0,3150.8923343034085,0.545024481814716,1.2978659675932822,0.9834168954332146,0.28565965579019476,0.7170786522631306
0.07050000000000001,1.7281116009170954,1.0,3154.1690527572123,0.5475765268894738,1.2975590220050857,0.9835546395417865,0.285633687238518,0.7176614426765847
