Time [s],Phi [rad],STIM [ ],Fsee [N],Gamma [ ],Lcerel [ ],q [ ],Lmtc [m],fisomrel [ ]
0.0,1.8,1.0,19.482760631899296,0.0012568193962300134,1.3791733853409862,0.005404897929736829,0.288653,0.5415419127839796
0.0005,1.79999375,1.0,20.147969458557142,0.00685897894211711,1.3790995952386669,0.016760733925968697,0.2886527375,0.5417203344702773
0.001,1.799975,1.0,24.426219552321303,0.01242971479479781,1.3786602749551462,0.04239737180187498,0.28865195,0.5427818755449397
0.0015,1.79994375,1.0,36.03603336617703,0.017969203246646893,1.377638731032127,0.07970122200197215,0.2886506375,0.5452455000779493
0.002,1.7999,1.0,62.701565686407164,0.02347761952625565,1.3757997595219287,0.1253711024810034,0.2886488,0.5496637141047851
0.0025,1.79984375,1.0,111.16679764816521,0.028955137953152577,1.3732810883478686,0.17608586941726964,0.28864643749999996,0.5556799396742053
0.003,1.7997750000000001,1.0,178.4438269453141,0.03440193183276958,1.3705767097862243,0.2291040758730661,0.28864354999999997,0.5620947135332159
0.0035,1.79969375,1.0,257.0150740908265,0.03981817350480904,1.3680009046853823,0.2823362468394393,0.2886401375,0.5681611420623094
0.004,1.7996,1.0,341.78798121601585,0.045204034341715445,1.365626108430877,0.3342412267068181,0.2886362,0.573716673576826
0.0045000000000000005,1.7994937500000001,1.0,430.14746714775885,0.05055968476671293,1.36343878431399,0.38376726735860334,0.2886317375,0.5788018177817893
0.005,1.799375,1.0,520.5792349369941,0.05588529415683315,1.3614132393862952,0.4302768298988286,0.28862675,0.5834836428453587
0.0055,1.79924375,1.0,612.0747014641018,0.061181031259207846,1.3595266711279215,0.4734510909483686,0.2886212375,0.5878207039147813
0.006,1.7991000000000001,1.0,703.7347767334595,0.066447063320701,1.3577637036542314,0.5132010132745208,0.2886152,0.5918531005982377
0.006500000000000001,1.79894375,1.0,794.907741685048,0.07168355713741195,1.3561107232599938,0.5495889306842954,0.2886086375,0.5956159208521815
0.007,1.798775,1.0,885.0135528754491,0.07689067836982263,1.3545575592856252,0.5827725942241763,0.28860155,0.5991356414331008
0.0075,1.79859375,1.0,973.5816115241757,0.08206859171591521,1.353095604684768,0.6129628802016887,0.2885939375,0.6024346108172771
0.008,1.7984,1.0,1060.2422779888757,0.08721746123729693,1.3517172826864916,0.6403951878310651,0.2885858,0.6055323758279036
0.0085,1.79819375,1.0,1144.6839062581082,0.09233744948897106,1.3504162079607436,0.6653109309146877,0.2885771375,0.6084454119847351
0.009000000000000001,1.797975,1.0,1226.6866655274382,0.09742871845853132,1.3491863304736464,0.6879453982004884,0.28856795,0.6111891154666753
0.0095,1.79774375,1.0,1306.102453691167,0.10249143001373695,1.3480219993594644,0.7085210236943262,0.2885582375,0.613777703959952
0.01,1.7975,1.0,1382.7871914414814,0.10752574355956546,1.3469186448907975,0.7272441995456665,0.288548,0.616222748173255
0.0105,1.79724375,1.0,1456.6610870084241,0.11253181829345847,1.3458717830131257,0.7443033048235433,0.2885372375,0.618535426388142
0.011,1.796975,1.0,1527.6885510882353,0.11750981272868437,1.3448771700959108,0.7598687127678472,0.28852595000000003,0.6207262039114676
0.0115,1.79669375,1.0,1595.8711085599857,0.12245988525951022,1.3439307904326125,0.774093496070805,0.2885141375,0.6228048832665765
0.012,1.7964,1.0,1661.1996408221203,0.1273821916695887,1.3430293288784938,0.7871147706566193,0.28850180000000003,0.624779590335364
0.0125,1.79609375,1.0,1723.698315983481,0.13227688743348662,1.3421695513810725,0.7990547513737345,0.2884889375,0.6266581572311083
0.013000000000000001,1.7957750000000001,1.0,1783.415717767721,0.1371441274506552,1.3413483574655174,0.810022198266805,0.28847555,0.6284480193099278
0.0135,1.79544375,1.0,1840.4215264808277,0.14198406682567255,1.3405627702624696,0.8201138079871519,0.2884616375,0.6301562484411746
0.014,1.7951000000000001,1.0,1894.7711736597487,0.14679685832363248,1.3398102811665569,0.8294156524951586,0.2884472,0.6317888163695968
0.0145,1.79474375,1.0,1946.5212385078046,0.1515826534233662,1.3390886244935565,0.8380042907410917,0.2884322375,0.6333510992954969
0.015,1.794375,1.0,1995.7487964052373,0.15634160360370483,1.3383955345592453,0.8459477832465492,0.28841675,0.6348484125968196
0.0155,1.79399375,1.0,2042.535389391829,0.16107385940329844,1.3377288954543802,0.8533067372840291,0.2884007375,0.6362856925228455
0.016,1.7936,1.0,2086.9806886032443,0.16577957204917373,1.3370865737294342,0.8601351346645804,0.2883842,0.637667862918848
0.0165,1.7931937500000001,1.0,2129.158901191808,0.17045888971133272,1.3364668529238022,0.8664812440259987,0.2883671375,0.638998905878675
0.017,1.792775,1.0,2169.143516634614,0.17511195960155015,1.3358681479756613,0.8723882094354611,0.28834955,0.6402824846154314
0.0175,1.7923437500000001,1.0,2207.018703040436,0.1797389289316009,1.3352888738231887,0.8778946175416303,0.2883314375,0.6415222292422762
0.018000000000000002,1.7919,1.0,2242.871215428724,0.18433994410319615,1.3347275174269821,0.8830350513748192,0.2883128,0.6427215850675043
0.0185,1.79144375,1.0,2276.7934330664775,0.18891515197412023,1.3341825963545377,0.8878405465987845,0.2882936375,0.6438839039978959
0.019,1.790975,1.0,2308.866049469503,0.19346469754082507,1.3336528212258036,0.8923390395784134,0.28827395,0.6450121010461158
0.0195,1.79049375,1.0,2339.156924936784,0.19798872348683094,1.3331370938149927,0.8965557187964662,0.2882537375,0.646108663024556
0.02,1.79,1.0,2367.7395040647875,0.20248737249565807,1.3326343158963176,0.9005132910209339,0.288233,0.6471760583169285
0.0205,1.78949375,1.0,2394.692349609482,0.20696078725082678,1.3321433892439911,0.9042322593063509,0.2882117375,0.6482167378237074
0.021,1.788975,1.0,2420.0867716918247,0.21140910864830492,1.3316633308084156,0.9077311908579205,0.28818995000000003,0.6492328922100367
0.021500000000000002,1.78844375,1.0,2444.00914491258,0.21583248012880346,1.331193051551359,0.9110268838139073,0.2881676375,0.6502269215691927
0.022,1.7879,1.0,2466.5238049034588,0.22023104118346828,1.33073171031126,0.9141346274401057,0.2881448,0.6512006881205001
0.0225,1.78734375,1.0,2487.687136645288,0.22460492954599848,1.3302785709528555,0.9170683338634185,0.28812143749999997,0.6521558213308023
0.023,1.786775,1.0,2507.5581651703815,0.22895428295009307,1.3298328973408826,0.9198406629505997,0.28809755,0.6530939407899197
0.0235,1.78619375,1.0,2526.19833556878,0.23327923912945106,1.3293939533400783,0.9224631523488805,0.28807313749999996,0.6540166565784259
0.024,1.7856,1.0,2543.6713050099024,0.23757993581777148,1.3289610028151795,0.9249463324665848,0.2880482,0.6549255696008658
0.0245,1.78499375,1.0,2560.0303628594456,0.24185650721534682,1.3285334258620318,0.927299846937836,0.2880227375,0.6558220283525409
0.025,1.784375,1.0,2575.3480828689776,0.2461090935057824,1.3281104378786464,0.9295324970717029,0.28799675,0.6567077186067697
0.025500000000000002,1.78374375,1.0,2589.6672553369294,0.25033782711569175,1.3276915483628045,0.9316523953947333,0.2879702375,0.6575837025879713
0.026000000000000002,1.7831000000000001,1.0,2603.0318326532097,0.2545428404519323,1.3272762674935297,0.9336669869560819,0.2879432,0.6584510355086213
0.0265,1.78244375,1.0,2615.486898493144,0.25872426592136133,1.3268641054498458,0.9355831131489161,0.2879156375,0.6593107671188523
0.027,1.781775,1.0,2627.0785699806047,0.26288223593083626,1.3264545724107761,0.9374070687428523,0.28788755,0.6601639418115348
0.0275,1.7810937500000001,1.0,2637.8539051699236,0.2670168828872145,1.3260471785553443,0.9391446528337185,0.2878589375,0.661011598712052
0.028,1.7804,1.0,2647.850647926595,0.2711283351256303,1.3256415278992004,0.9408012265361183,0.2878298,0.6618545768733236
0.0285,1.77969375,1.0,2657.1215790820884,0.2752167284051754,1.3252370923837613,0.9423817246140844,0.2878001375,0.6626939851331528
0.029,1.778975,1.0,2665.702482273916,0.2792821915709411,1.3248335070009793,0.9438907297723679,0.28776995,0.6635305890607293
0.029500000000000002,1.7782437500000001,1.0,2673.624309077613,0.2833248512118007,1.3244304561457962,0.9453324895109507,0.2877392375,0.6643650482303272
0.03,1.7775,1.0,2680.918477737653,0.28734483391662746,1.3240276242131546,0.9467109394507938,0.287708,0.6651980189629423
0.0305,1.77674375,1.0,2687.616831029851,0.291342266274295,1.3236246955979964,0.9480297301854298,0.2876762375,0.666030154333878
0.031,1.775975,1.0,2693.7515963319674,0.2953172748736765,1.3232213546952638,0.9492922515039328,0.28764395,0.6668621041739747
0.0315,1.7751937500000001,1.0,2699.3553479026473,0.29926998630364543,1.3228172858998988,0.9505016542710764,0.2876111375,0.6676945150644866
0.032,1.7744,1.0,2704.4562496103554,0.3032005242886028,1.3224122167240866,0.9516608745912727,0.2875778,0.6685279416679228
0.0325,1.77359375,1.0,2709.081520158912,0.3071090128696604,1.3220058856929668,0.9527726484228484,0.2875439375,0.6693629131986224
0.033,1.772775,1.0,2713.269863055823,0.31099558403605726,1.3215979287326312,0.9538395166290464,0.28750955,0.6702001665653109
0.0335,1.7719437500000002,1.0,2717.0405138895817,0.3148603577398243,1.321188161294502,0.9548638673427011,0.2874746375,0.6710400671054113
0.034,1.7711000000000001,1.0,2720.412865513851,0.31870345393299276,1.320776398830002,0.9558479309228534,0.2874392,0.6718829781685443
0.0345,1.7702437500000001,1.0,2723.4064527350315,0.3225249925675937,1.3203624567905536,0.956793792235951,0.2874032375,0.6727292610941348
0.035,1.7693750000000001,1.0,2726.040937754029,0.32632509359565837,1.3199461506275794,0.9577034018442048,0.28736675,0.6735792751868441
0.035500000000000004,1.76849375,1.0,2728.3360963638365,0.3301038769692178,1.3195272957925022,0.9585785862097613,0.2873297375,0.6744333776898305
0.036000000000000004,1.7676,1.0,2730.311804902103,0.3338614626403031,1.319105707736744,0.9594210570114775,0.2872922,0.6752919237558408
0.0365,1.76669375,1.0,2731.988027958465,0.3375979705609454,1.3186812019117278,0.960232419660633,0.2872541375,0.6761552664161243
0.037,1.765775,1.0,2733.3848068373222,0.34131352068317594,1.318253593768876,0.9610141810926749,0.28721555,0.6770237565471788
0.0375,1.76484375,1.0,2734.5171282387223,0.345008224065046,1.3178227452606208,0.9617677595472734,0.2871764375,0.677897648581003
0.038,1.7639,1.0,2735.4076085827687,0.3486822090806309,1.3173884495403314,0.9624944853454619,0.28713679999999997,0.6787773344973996
0.0385,1.76294375,1.0,2736.068398492849,0.3523355897301156,1.3169505952227258,0.9631956160685143,0.28709663750000003,0.6796630108034433
0.039,1.761975,1.0,2736.511194970045,0.3559684792006168,1.3165090753667814,0.9638723359372623,0.28705595,0.680554863553779
0.0395,1.7609937500000001,1.0,2736.7477258588674,0.3595809906792514,1.3160637830314748,0.9645257606473,0.2870147375,0.6814530773464058
0.04,1.76,1.0,2736.789745279676,0.36317323735313634,1.3156146112757827,0.9651569420620243,0.286973,0.6823578352973105
0.0405,1.7589937500000001,1.0,2736.649029315611,0.36674533240938834,1.3151614531586824,0.9657668725363577,0.2869307375,0.6832693190143739
0.041,1.757975,1.0,2736.3373719523624,0.37029738903512427,1.3147042017391501,0.966356488903794,0.28688795,0.6841877085705494
0.0415,1.75694375,1.0,2735.8665812722234,0.37382952041746104,1.3142427500761629,0.9669266761562307,0.2868446375,0.6851131824763081
0.042,1.7559,1.0,2735.2484759009885,0.37734183974351543,1.3137769912286978,0.9674782708431913,0.28680079999999997,0.6860459176513574
0.0425,1.75484375,1.0,2734.4856316180817,0.38083444235032016,1.31330690225881,0.9680120682377849,0.2867564375,0.6869859215465195
0.043000000000000003,1.753775,1.0,2733.5952251134495,0.3843074568213538,1.312832327703966,0.9685288155927525,0.28671155,0.6879334653804798
0.043500000000000004,1.75269375,1.0,2732.590225428471,0.387761002779737,1.3123531503136352,0.9690292221359709,0.28666613750000003,0.6888887419934555
0.044,1.7516,1.0,2731.476484892707,0.39119518533479336,1.3118693174866618,0.9695139627521914,0.2866202,0.6898518138086854
0.0445,1.75049375,1.0,2730.2598578681323,0.3946101095958464,1.3113807766218901,0.9699836773108507,0.2865737375,0.6908227421886115
0.045,1.7493750000000001,1.0,2728.9461996249797,0.3980058806722198,1.310887475118164,0.9704389728221722,0.28652675,0.6918015874191739
0.0455,1.74824375,1.0,2727.5413652796974,0.401382603673237,1.3103893603743282,0.9708804254402426,0.2864792375,0.6927884086939268
0.046,1.7471,1.0,2726.051208794048,0.40474038370822174,1.3098863797892266,0.971308582325302,0.2864312,0.6937832640979822
0.0465,1.7459437500000001,1.0,2724.4815820357217,0.40807932588649753,1.3093784807617033,0.9717239633763999,0.28638263750000004,0.6947862105917743
0.047,1.744775,1.0,2722.8383338996027,0.4113995353173879,1.3088656106906025,0.9721270628445897,0.28633355,0.6957973039946467
0.0475,1.74359375,1.0,2721.1273094917315,0.4147011171102165,1.3083477169747686,0.9725183508359518,0.28628393750000003,0.6968165989682653
0.048,1.7424,1.0,2719.354349372934,0.41798417637430685,1.3078247470130457,0.9728982747129309,0.2862338,0.6978441489998546
0.0485,1.74119375,1.0,2717.525288865375,0.42124881821898263,1.3072966482042778,0.9732672604017496,0.2861831375,0.698880006385256
0.049,1.739975,1.0,2715.645957419116,0.42449514775356734,1.3067633679473094,0.973625713613004,0.28613195,0.6999242222118103
0.0495,1.73874375,1.0,2713.7221780410573,0.4277232700873846,1.3062248536409846,0.9739740209819465,0.2860802375,0.7009768463410636
0.05,1.7375,1.0,2711.753450545544,0.43093327513048535,1.3056811102838966,0.974312553227386,0.286028,0.702037815100779
0.0505,1.73624375,1.0,2709.745066083973,0.4341252740863808,1.3051320900596899,0.9746416629340175,0.2859752375,0.7031071671422363
0.051000000000000004,1.734975,1.0,2707.7053561411835,0.437299380483592,1.304577717343621,0.9749616849828879,0.28592195,0.7041849939341496
0.051500000000000004,1.73369375,1.0,2705.636538224412,0.4404556908246998,1.3040179722214544,0.9752729407890514,0.2858681375,0.7052712773161829
0.052000000000000005,1.7324,1.0,2703.540827025712,0.44359430161228514,1.3034528347789538,0.9755757373595015,0.2858138,0.7063659982927837
0.0525,1.73109375,1.0,2701.420434305925,0.44671530934892884,1.3028822851018829,0.9758703680616342,0.28575893750000003,0.7074691370263448
0.053,1.729775,1.0,2699.277568787044,0.4498188105372119,1.3023063032760058,0.9761571133443006,0.28570355000000003,0.7085806728303431
0.0535,1.72844375,1.0,2697.114436054192,0.45290490167971525,1.3017248693870862,0.9764362414147609,0.2856476375,0.7097005841624546
0.054,1.7271,1.0,2694.9332384658387,0.4559736792790197,1.3011379635208882,0.9767080088745868,0.2855912,0.7108288486176411
0.0545,1.7257437500000001,1.0,2692.7361750728364,0.4590252398377062,1.3005455657631757,0.9769726613173254,0.2855342375,0.7119654429212138
0.055,1.724375,1.0,2690.5254415464206,0.46205967985835567,1.2999476561997123,0.9772304338905319,0.28547675,0.7131103429218724
0.0555,1.72299375,1.0,2688.303230114994,0.46507709584354895,1.299344214916262,0.9774815518245662,0.2854187375,0.7142635235847155
0.056,1.7216,1.0,2686.071729509418,0.468077584295867,1.2987352219985888,0.9777262309303857,0.2853602,0.7154249589842279
0.0565,1.72019375,1.0,2683.833124917548,0.4710612417178907,1.2981206575324566,0.977964678068383,0.28530113749999997,0.7165946222972439
0.057,1.718775,1.0,2681.589597947563,0.474028164612201,1.2975005016036292,0.9781970915901839,0.28524155,0.7177724857958834
0.0575,1.71734375,1.0,2679.342152258077,0.4769784399929372,1.2968747450716347,0.9784236615298041,0.2851814375,0.7189585004421299
0.058,1.7159,1.0,2677.0913851146747,0.4799121540749372,1.2962433825107473,0.9786445703915179,0.2851208,0.7201526094342827
0.0585,1.71444375,1.0,2674.8418369719802,0.482829426853937,1.295606372279758,0.978859994243773,0.2850596375,0.7213548235574017
0.059000000000000004,1.7129750000000001,1.0,2672.594168865584,0.48573034651823943,1.2949637083033039,0.9790701013811973,0.28499795,0.7225650854080468
0.059500000000000004,1.71149375,1.0,2670.3490407194595,0.4886150012561474,1.2943153845060233,0.9792750534668845,0.2849357375,0.7237833368720397
0.06,1.71,1.0,2668.1071113471407,0.49148347925596364,1.2936613948125533,0.9794750058434288,0.284873,0.7250095191222758
0.0605,1.7084937500000001,1.0,2665.869038454365,0.49433586870599117,1.2930017331475312,0.9796701078270408,0.2848097375,0.7262435726165272
0.061,1.7069750000000001,1.0,2663.635478641951,0.49717225779453267,1.2923363934355951,0.9798605029857815,0.28474595,0.7274854370952453
0.0615,1.7054437500000001,1.0,2661.4070874100476,0.49999273470989114,1.2916653696013822,0.9800463294028928,0.2846816375,0.7287350515793658
0.062,1.7039,1.0,2659.1845191631965,0.5027973876403693,1.2909886555695302,0.9802277199261237,0.2846168,0.7299923543681037
0.0625,1.70234375,1.0,2656.968427215377,0.50558630477427,1.2903062452646765,0.9804048024039005,0.2845514375,0.7312572830367522
0.063,1.7007750000000001,1.0,2654.7594637970296,0.5083595742998962,1.2896181326114589,0.9805776999091246,0.28448555,0.7325297744344752
0.0635,1.69919375,1.0,2652.558280062288,0.5111172844055506,1.2889243115345144,0.9807465309513356,0.28441913750000003,0.7338097646821011
0.064,1.6976,1.0,2650.3655260965697,0.5138595232795362,1.288224775958481,0.9809114096779248,0.2843522,0.7350971891699087
0.0645,1.69599375,1.0,2648.181850926288,0.5165863791101557,1.287519519807996,0.981072446065039,0.2842847375,0.7363919825554188
0.065,1.694375,1.0,2646.0079025280133,0.5192979400857121,1.2868085370076972,0.9812297460987746,0.28421675,0.7376940787611748
0.0655,1.69274375,1.0,2643.8443278391755,0.521994294394508,1.286091821482222,0.9813834119472227,0.2841482375,0.739003410972527
0.066,1.6911,1.0,2641.690061856112,0.5246755281374802,1.285369382964118,0.981533542755932,0.2840792,0.7403198828656843
0.0665,1.6894437500000001,1.0,2639.549466375182,0.527341722697503,1.284641181041176,0.9816802313927354,0.2840096375,0.7416434886973358
0.067,1.687775,1.0,2637.420004952195,0.5299929619127238,1.2839072390238526,0.9818235706921113,0.28393955,0.7429741059625414
0.0675,1.686095121610795,1.0,2635.364400627651,0.532629329668428,1.2831675960088982,0.9819636510104875,0.2838689951076534,0.7443115834519816
0.068,1.6844134774002266,1.0,2633.816422575534,0.5352509096206105,1.28242246551959,0.9821005678806972,0.28379836605080955,0.7456554558987118
0.0685,1.6827318331896584,1.0,2632.8175638525595,0.5378577846203076,1.2816722568684709,0.9822344228317882,0.28372773699396564,0.7470049097915248
0.069,1.68105018897909,1.0,2632.3238965893233,0.5404500369872318,1.2809173737550728,0.9823653137606106,0.2836571079371218,0.748359148987732
0.0695,1.679368544768522,1.0,2632.292999587838,0.5430277488419841,1.280158207510722,0.9824933347920896,0.28358647888027794,0.7497174067741683
0.07,1.6776869005579538,1.0,2632.6855361082075,0.5455910019510426,1.27939512212979,0.9826185757309305,0.28351584982343403,0.7510789723535708
0.07050000000000001,1.6760052563473855,1.0,2633.4679625698204,0.5481398771359312,1.2786284288956167,0.9827411210260847,0.2834452207665902,0.7524432353672204
0.07100000000000001,1.6743236121368175,1.0,2634.6095338955365,0.5506744545742223,1.2778584138642979,0.9828610512496869,0.2833745917097463,0.7538096359847467
0.07150000000000001,1.6726419679262492,1.0,2636.077809419272,0.553194815023958,1.277085379246561,0.9829784452050853,0.2833039626529025,0.7551775912238183
0.07200000000000001,1.670960323715681,1.0,2637.8407647209574,0.5557010394846281,1.2763096236678917,0.9830933790932288,0.2832333335960586,0.7565465301929466
0.0725,1.6692786795051129,1.0,2639.877470279014,0.5581932061985564,1.27553134329885,0.9832059219929937,0.28316270453921477,0.7579160677931482
0.073,1.6675970352945446,1.0,2642.1670084972384,0.5606713934080664,1.2747507343099955,0.9833161408452911,0.28309207548237086,0.7592858226917036
0.0735,1.6659153910839763,1.0,2644.6884631500675,0.5631356793554814,1.2739679928718886,0.9834241005381978,0.283021446425527,0.7606554173525154
0.074,1.664233746873408,1.0,2647.4209096809027,0.5655861422831249,1.2731833151550889,0.9835298639882151,0.2829508173686831,0.762024478064016
0.0745,1.66255210266284,1.0,2650.348059284259,0.5680228582095767,1.2723968544098663,0.9836334902060264,0.28288018831183925,0.763392709526818
