Time [s],Phi [rad],STIM [ ],Fsee [N],Gamma [ ],Lcerel [ ],q [ ],Lmtc [m],fisomrel [ ]
0.0,1.8,1.0,17.967858043431622,1.0087443617979892e-05,1.3793396678109833,0.005000027118047417,0.288653,0.5411397207431533
0.0005,1.79999375,1.0,18.277154693708358,0.00561924016983099,1.3793023421859087,0.012940755865087757,0.2886527375,0.5412300166208028
0.001,1.799975,1.0,21.618800893387984,0.01119692998417226,1.378938259284948,0.03560902937397594,0.28865195,0.542110317761778
0.0015,1.79994375,1.0,31.06969762159061,0.016743333369560694,1.3780461644009108,0.07060232396076184,0.2886506375,0.5442637040234679
0.002,1.7999,1.0,53.58286861732114,0.022258625817266273,1.376368100496642,0.11471856925568755,0.2886488,0.5483005514303241
0.0025,1.79984375,1.0,97.11938767648627,0.027742981834469455,1.3739351455737148,0.16457547161581973,0.28864643749999996,0.5541215143646836
0.003,1.7997750000000001,1.0,160.95870625969096,0.03319657495198204,1.37121432356458,0.21728105130418202,0.28864354999999997,0.560586498662281
0.0035,1.79969375,1.0,237.68390861278283,0.038619577723836104,1.3685847164578884,0.27061348272653235,0.2886401375,0.566789881357328
0.004,1.7996,1.0,321.4673803672189,0.04401216173806681,1.3661560762653393,0.32291637725233113,0.2886362,0.5724799994067955
0.0045000000000000005,1.7994937500000001,1.0,409.26839775198306,0.049374497621896864,1.3639227989799037,0.37303505439286694,0.2886317375,0.577679197648701
0.005,1.799375,1.0,499.4141663528801,0.05470675503282331,1.3618583282754393,0.4202479730758656,0.28862675,0.5824571117911493
0.0055,1.79924375,1.0,590.7910962580321,0.06000910270610714,1.35993882176964,0.4641741733931385,0.2886212375,0.5868751421654443
0.006,1.7991000000000001,1.0,682.5187913874495,0.06528170839787499,1.3581464023311993,0.5046803997621914,0.2886152,0.5909794467385802
0.006500000000000001,1.79894375,1.0,773.8820206949154,0.07052473894077149,1.3564672405952045,0.5418011607976261,0.2886086375,0.5948058239235989
0.007,1.798775,1.0,864.2865161864281,0.07573836022754206,1.3548903836086406,0.575677147799592,0.28860155,0.5983827028766325
0.0075,1.79859375,1.0,953.2439973920178,0.08092273722077174,1.3534067671634655,0.6065102500615097,0.2885939375,0.6017335998822324
0.008,1.7984,1.0,1040.3450683367662,0.08607803353223242,1.3520088434308637,0.6345324864078702,0.2885858,0.6048781063343931
0.0085,1.79819375,1.0,1125.3150039470495,0.09120441330245757,1.350689230507058,0.6599847144435068,0.2885771375,0.6078350242549988
0.009000000000000001,1.797975,1.0,1207.9013124585717,0.09630203848259526,1.349442019584824,0.6831044465792434,0.28856795,0.6106194991979575
0.0095,1.79774375,1.0,1287.8938789748956,0.1013710695632038,1.3482621016617977,0.7041177053098227,0.2885582375,0.6132446063332515
0.01,1.7975,1.0,1365.168414242907,0.10641166703484149,1.3471443677356143,0.7232344367015325,0.288548,0.6157231758591856
0.0105,1.79724375,1.0,1439.6596217909519,0.11142399088115829,1.346083944853034,0.7406468584689717,0.2885372375,0.6180672930961804
0.011,1.796975,1.0,1511.3222168563304,0.1164081998879091,1.34507655361042,0.7565293103186755,0.28852595000000003,0.620287538738377
0.0115,1.79669375,1.0,1580.1214100053955,0.12136445123285747,1.3441184783094242,0.7710387744130086,0.2885141375,0.6223930895599692
0.012,1.7964,1.0,1646.058317767183,0.12629290158275577,1.3432061496594223,0.7843157360239719,0.28850180000000003,0.6243926621044459
0.0125,1.79609375,1.0,1709.1748617291066,0.13119370766631058,1.3423360246045535,0.7964854629016282,0.2884889375,0.6262947903633628
0.013000000000000001,1.7957750000000001,1.0,1769.5071856941954,0.13606702441129837,1.3415050656258836,0.8076596198448897,0.28847555,0.6281067925760873
0.0135,1.79544375,1.0,1827.0916809445764,0.14091300531212078,1.340710593383257,0.8179375856953838,0.2884616375,0.6298351133814697
0.014,1.7951000000000001,1.0,1881.9923857548483,0.1457318038631795,1.339949928536519,0.8274076425985865,0.2884472,0.6314861163520906
0.0145,1.79474375,1.0,1934.2811493215743,0.15052357242014291,1.3392205797617698,0.8361482904037512,0.2884322375,0.6330656832464566
0.015,1.794375,1.0,1984.0553425530122,0.15528846402474983,1.3385200189221393,0.8442292957446416,0.28841675,0.6345797091484516
0.0155,1.79399375,1.0,2031.3747325122404,0.16002662827349662,1.337846327551897,0.8517129223421795,0.2884007375,0.6360327135194398
0.016,1.7936,1.0,2076.312663336556,0.16473821461908777,1.3371976108679995,0.8586546221137414,0.2883842,0.6374291174263814
0.0165,1.7931937500000001,1.0,2118.9568935707666,0.16942337251422776,1.3365719740874038,0.8651038352295993,0.2883671375,0.638773298019477
0.017,1.792775,1.0,2159.390774488543,0.17408224981060524,1.335967702032505,0.8711047535334778,0.28834955,0.6400692066039477
0.0175,1.7923437500000001,1.0,2197.720986787305,0.17871499598068444,1.335382958475047,0.8766968566017224,0.2883314375,0.6413210177440208
0.018000000000000002,1.7919,1.0,2234.0149014409835,0.18332175618305105,1.3348164104284335,0.8819156312561304,0.2883128,0.6425317962621773
0.0185,1.79144375,1.0,2268.347041658375,0.18790267547672154,1.334266735890225,0.8867929052413871,0.2882936375,0.6437045576444345
0.019,1.790975,1.0,2300.7994682006697,0.19245789892071244,1.3337326128579825,0.8913572682105253,0.28827395,0.6448422930962499
0.0195,1.79049375,1.0,2331.4529944610467,0.19698757050262256,1.3332127994278888,0.8956344618677475,0.2882537375,0.6459478006933339
0.02,1.79,1.0,2360.396630581875,0.20149183513923585,1.3327060331360525,0.8996476803623489,0.288233,0.64702390151426
0.0205,1.78949375,1.0,2387.706595731503,0.2059708356173124,1.3322112303424547,0.903417899550014,0.2882117375,0.6480730179666854
0.021,1.788975,1.0,2413.4455536604246,0.2104247122520563,1.3317274839462179,0.9069641205413257,0.28818995000000003,0.6490971823810963
0.021500000000000002,1.78844375,1.0,2437.6800994264568,0.2148536053586717,1.3312538868464638,0.9103035485764915,0.2881676375,0.6500984134219073
0.022,1.7879,1.0,2460.4804326181857,0.2192576552523628,1.330789531942315,0.9134517875176129,0.2881448,0.6510787167008423
0.0225,1.78734375,1.0,2481.9150257185215,0.22363700127790198,1.3303335600141837,0.9164230200324675,0.28812143749999997,0.65203998446542
0.023,1.786775,1.0,2502.052154270941,0.22799178282619068,1.3298851414750148,0.919230154304677,0.28809755,0.6529840351849792
0.0235,1.78619375,1.0,2520.9625303650646,0.2323221396400906,1.3294434484554831,0.9218849513862898,0.28807313749999996,0.6539126730540799
0.024,1.7856,1.0,2538.6962762445355,0.2366282069083859,1.3290078695813488,0.9243981796098678,0.2880482,0.6548272377345097
0.0245,1.78499375,1.0,2555.3053744643994,0.24091011981986066,1.3285777934783716,0.926779677792025,0.2880227375,0.6557290613293514
0.025,1.784375,1.0,2570.8435126362647,0.24516801356329898,1.3281526087723117,0.9290384482193529,0.28799675,0.6566194686094584
0.025500000000000002,1.78374375,1.0,2585.365936460764,0.249402023327485,1.3277317040889294,0.9311827392017421,0.2879702375,0.657499777216092
0.026000000000000002,1.7831000000000001,1.0,2598.9070686750974,0.25361228263604907,1.3273146752456004,0.933220151655578,0.2879432,0.6583708653343978
0.0265,1.78244375,1.0,2611.5367127015843,0.25779892620061495,1.3269007992506072,0.9351576174228442,0.2879156375,0.6592342712031702
0.027,1.781775,1.0,2623.340363678215,0.26196208872706345,1.3264892196544187,0.9370014927848664,0.28788755,0.6600918030913545
0.0275,1.7810937500000001,1.0,2634.3347013721586,0.2661018998869026,1.326079728582003,0.9387577292770081,0.2878589375,0.6609439113771916
0.028,1.7804,1.0,2644.536998327109,0.2702184893516404,1.3256721181583289,0.940431814100921,0.2878298,0.6617910441781489
0.0285,1.7796953068291061,1.0,2654.0413576636383,0.27431198679278485,1.325266180508365,0.9420288124327614,0.28780020288682245,0.6626336473772314
0.029,1.7789890454770085,1.0,2663.326600222855,0.2783825218818441,1.32486170775708,0.9435534053688669,0.2877705399100344,0.6634721646465358
0.029500000000000002,1.778282784124911,1.0,2672.4912146670813,0.2824302242903261,1.3244584920294422,0.9450099240059956,0.28774087693324624,0.6643070374680498
0.03,1.7775765227728133,1.0,2681.551288552305,0.2864552209888976,1.3240563793332707,0.9464023863521659,0.28771121395645816,0.6651385937927659
0.0305,1.7768702614207157,1.0,2690.4820727764204,0.29045764261562657,1.3236555906677885,0.9477345684173183,0.2876815509796701,0.6659663859358577
0.031,1.776164000068618,1.0,2699.2778330423725,0.29443761584301087,1.3232561718593456,0.9490099505396553,0.28765188800288194,0.6667903295753865
0.0315,1.7754577387165205,1.0,2707.938086796962,0.29839526482151374,1.3228581206212149,0.9502317594367006,0.28762222502609386,0.6676104398881921
0.032,1.7747514773644228,1.0,2716.462365544586,0.3023307137015985,1.322461434666669,0.951402996209654,0.2875925620493057,0.6684267319920714
0.0325,1.7740452160123252,1.0,2724.8502147783506,0.30624408663372843,1.32206611170898,0.9525264548864554,0.28756289907251764,0.6692392209459783
0.033,1.7733389546602278,1.0,2733.1011939105156,0.3101355077683669,1.3216721494614212,0.9536047392285901,0.28753323609572956,0.6700479217502204
0.0335,1.7726326933081302,1.0,2741.214876203744,0.31400510125597714,1.3212795456372648,0.954640277982699,0.2875035731189415,0.6708528493466603
0.034,1.7719264319560326,1.0,2749.193522143594,0.31785297793698003,1.320888273736398,0.9556353324866494,0.2874739101421534,0.6716540681711558
0.0345,1.771220170603935,1.0,2757.0358177599605,0.3216792791431184,1.3204983398483485,0.9565920276199698,0.28744424716536526,0.6724515757476164
0.035,1.7705139092518374,1.0,2764.7437586547667,0.32548412472659305,1.3201097202448369,0.9575123419511893,0.2874145841885772,0.6732454304999116
0.035500000000000004,1.7698076478997398,1.0,2772.319805040033,0.32926763177969376,1.3197223872442907,0.9583981266733546,0.28738492121178905,0.6740356986441705
0.036000000000000004,1.7691013865476422,1.0,2779.7664450843927,0.33302991739471044,1.319336313165138,0.9592511163196432,0.28735525823500097,0.67482244609087
0.0365,1.7683951251955445,1.0,2787.086194131153,0.33677109866393273,1.3189514703258074,0.9600729374488295,0.2873255952582129,0.6756057384470842
0.037,1.7676888638434471,1.0,2794.2815939348957,0.3404912926796506,1.3185678310447264,0.960865116590289,0.2872959322814248,0.6763856410186819
0.0375,1.7669826024913495,1.0,2801.355211913709,0.3441906165341539,1.3181853676403235,0.9616290875192338,0.28726626930463667,0.6771622188124752
0.038,1.766276341139252,1.0,2808.3096404196776,0.3478691873197324,1.3178040524310262,0.9623661979254261,0.2872366063278486,0.6779355365383213
0.0385,1.7655700797871543,1.0,2815.1474960247897,0.3515271221286758,1.317423857735263,0.9630777155320518,0.28720694335106045,0.6787056586111719
0.039,1.7648638184350567,1.0,2821.8714188257027,0.35516453805327414,1.3170447558714617,0.9637648337155912,0.28717728037427237,0.6794726491530778
0.0395,1.764157557082959,1.0,2828.484071763733,0.35878155218581714,1.3166667191580508,0.9644286766723472,0.2871476173974843,0.680236571995141
0.04,1.7634512957308615,1.0,2834.9843885382247,0.36237823760698684,1.3162897533720876,0.9650702990103213,0.2871179544206962,0.6809974231882142
0.0405,1.7627450343787638,1.0,2841.3796409442225,0.3659547508647773,1.315913790048783,0.9656907044846236,0.2870882914439081,0.681755348396089
0.041,1.7620387730266662,1.0,2847.6746521196146,0.36951122664508657,1.3155387828843048,0.9662908383623656,0.28705862846712,0.6825104480098583
0.0415,1.7613325116745688,1.0,2853.871666376044,0.3730477715680196,1.3151647087593628,0.9668715905761908,0.28702896549033186,0.6832627753591393
0.042,1.7606262503224712,1.0,2859.972945213839,0.3765644922536814,1.3147915445546656,0.9674338023806388,0.2869993025135438,0.6840123835359948
0.0425,1.7599199889703736,1.0,2865.9807668491694,0.38006149532217676,1.3144192671509225,0.9679782695145215,0.2869696395367557,0.6847593253962909
0.043000000000000003,1.759213727618276,1.0,2871.897425753757,0.3835388873936107,1.3140478534288422,0.9685057451268659,0.2869399765599676,0.6855036535610218
0.043500000000000004,1.7585074662661784,1.0,2877.725232206272,0.38699677508808816,1.313677280269134,0.9690169424863075,0.2869103135831795,0.6862454204175992
0.044,1.7578012049140808,1.0,2883.4665118556077,0.390435265025714,1.313307524552507,0.9695125374919876,0.2868806506063914,0.6869846781211104
0.0445,1.7570949435619831,1.0,2889.1236052956424,0.39385446382659334,1.31293856315967,0.9699931710023244,0.28685098762960326,0.6877214785955398
0.045,1.7563886822098855,1.0,2894.698867652625,0.3972544781108309,1.3125703729713323,0.9704594509965483,0.2868213246528152,0.6884558735349562
0.0455,1.755682420857788,1.0,2900.1946681834606,0.4006354144985318,1.3122029308682024,0.9709119545825277,0.2867916616760271,0.6891879144046698
0.046,1.7549761595056905,1.0,2905.613389886498,0.40399737960980076,1.31183621373099,0.9713512298632142,0.286761998699239,0.689917652442348
0.0465,1.754269898153593,1.0,2910.957429124095,0.4073404800647429,1.3114701984404036,0.9717777976729295,0.2867323357224509,0.6906451386591059
0.047,1.7535636368014953,1.0,2916.2291952570336,0.4106648224834631,1.3111048618771526,0.9721921531937302,0.2867026727456628,0.6913704238405542
0.0475,1.7528573754493977,1.0,2921.4311102902466,0.4139705134860662,1.3107401809219459,0.9725947674611997,0.2866730097688747,0.6920935585478201
0.048,1.7521511140973,1.0,2926.565608531243,0.4172576596926573,1.3103761324554923,0.9729860887682014,0.2866433467920866,0.692814593118529
0.0485,1.7514448527452025,1.0,2931.635136259837,0.42052636772334123,1.3100126933585015,0.9733665439743997,0.2866136838152985,0.6935335776677543
0.049,1.7507385913931048,1.0,2936.642151409902,0.423776744198223,1.3096498405116817,0.9737365397286888,0.2865840208385104,0.6942505620889353
0.0495,1.7500323300410072,1.0,2941.5891232627005,0.42700889573740736,1.3092875507957424,0.9740964636110766,0.2865543578617223,0.6949655960547547
0.05,1.7493260686889096,1.0,2946.4733950956643,0.4302228704506707,1.3089258460331783,0.9744466814379943,0.2865246948849342,0.6956786404741232
0.0505,1.7486198073368122,1.0,2951.3024674644375,0.43341884052507273,1.3085646592047606,0.9747875506092701,0.2864950319081461,0.6963898312814092
0.051000000000000004,1.7479135459847146,1.0,2956.0777428585848,0.4365969034826838,1.3082039767899862,0.9751194071842003,0.286465368931358,0.6970991986314976
0.051500000000000004,1.747207284632617,1.0,2960.8004560124496,0.4397571547669713,1.3078437867911157,0.9754425719523444,0.2864357059545699,0.6978067695602874
0.052000000000000005,1.7465010232805194,1.0,2965.47184768694,0.44289968982140265,1.3074840772104086,0.9757573513896534,0.2864060429777818,0.6985125709887229
0.0525,1.7457947619284218,1.0,2970.0931645401038,0.4460246040894452,1.3071248360501257,0.9760640384217035,0.2863763800009937,0.6992166297231612
0.053,1.7450885005763241,1.0,2974.665659001408,0.4491319930145664,1.306766051312527,0.9763629131398525,0.2863467170242056,0.69991897245574
0.0535,1.7443822392242265,1.0,2979.190589148049,0.4522219520402337,1.3064077109998729,0.9766542434735965,0.28631705404741753,0.700619625764727
0.054,1.743675977872129,1.0,2983.6692185856455,0.45529457660991435,1.3060498031144232,0.9769382858221656,0.2862873910706294,0.7013186161148686
0.0545,1.7429697165200313,1.0,2988.102816331513,0.4583499621670759,1.3056923156584384,0.9772152856481473,0.2862577280938413,0.7020159698577222
0.055,1.742263455167934,1.0,2992.492656701027,0.4613882041551857,1.3053352366341784,0.9774854780357302,0.28622806511705323,0.7027117132319844
0.0555,1.7415571938158363,1.0,2996.84001919748,0.4644093980177112,1.3049785540439038,0.9777490882159473,0.28619840214026515,0.7034058723638063
0.056,1.7408509324637387,1.0,3001.146188405172,0.4674136391981197,1.3046222558898746,0.9780063320611344,0.286168739163477,0.704098473267104
0.0565,1.740144671111641,1.0,3005.412453885513,0.47040102313987864,1.3042663301743511,0.9782574165506425,0.28613907618668893,0.7047895418438545
0.057,1.7394384097595434,1.0,3009.640110076017,0.4733716452864555,1.3039107648995936,0.9785025402096996,0.2861094132099008,0.7054791038843877
0.0575,1.7387321484074458,1.0,3013.8304561934783,0.47632560108131755,1.303555548067862,0.9787418935231761,0.2860797502331127,0.7061671850676656
0.058,1.7380258870553482,1.0,3017.9847961390274,0.4792629859679323,1.3032006676814167,0.9789756593258783,0.28605008725632464,0.7068538109615532
0.0585,1.7373196257032506,1.0,3022.104438407427,0.48218389538976714,1.3028461117425179,0.9792040131708799,0.28602042427953656,0.7075390070230816
0.059000000000000004,1.736613364351153,1.0,3026.190695998921,0.4850884247902894,1.3024918682534257,0.9794271236772941,0.2859907613027484,0.7082227985986995
0.059500000000000004,1.7359071029990556,1.0,3030.243953746608,0.4879766496598428,1.302137933261631,0.979645151664262,0.28596109832596034,0.7089051954221628
0.06,1.735200841646958,1.0,3034.2642213492504,0.4908486451736443,1.3017843060647534,0.9798582518895087,0.2859314353491722,0.7095862009343599
0.0605,1.7344945802948604,1.0,3038.2546940091493,0.4937045552382361,1.3014309585233275,0.9800665771663164,0.2859017723723841,0.7102658713128445
0.061,1.7337883189427628,1.0,3042.215963417564,0.4965444649302583,1.3010778849922415,0.9802702709722828,0.28587210939559604,0.7109442192876231
0.0615,1.7330820575906651,1.0,3046.1486234802574,0.4993684593263512,1.3007250798263834,0.9804694713631986,0.28584244641880796,0.7116212575364009
0.062,1.7323757962385675,1.0,3050.0532702833407,0.502176623503155,1.3003725373806416,0.980664311219027,0.2858127834420198,0.7122969986846781
0.0625,1.73166953488647,1.0,3053.9305020604274,0.5049690425373099,1.3000202520099038,0.9808549184769351,0.28578312046523174,0.7129714553058477
0.063,1.7309632735343723,1.0,3057.780919159231,0.5077458015054562,1.2996682180690584,0.9810414163521493,0.2857534574884436,0.7136446399212859
0.0635,1.7302570121822747,1.0,3061.605124010857,0.5105069854842341,1.2993164299129936,0.9812239235473602,0.2857237945116555,0.7143165650004465
0.064,1.7295507508301773,1.0,3065.4037210978145,0.5132526795502839,1.298964881896597,0.9814025544513446,0.28569413153486745,0.7149872429609495
0.0645,1.7288444894780797,1.0,3069.177316923926,0.5159829687802456,1.2986135683747573,0.9815774193274406,0.28566446855807937,0.7156566861686676
0.065,1.728138228125982,1.0,3072.926519984687,0.5186979382507597,1.2982624837023622,0.9817486244924616,0.28563480558129123,0.7163249069378129
0.0655,1.7274319667738844,1.0,3076.6519407383444,0.5213976730384663,1.2979116222343,0.9819162724866014,0.28560514260450315,0.7169919175310198
0.066,1.7267257054217868,1.0,3080.3541915770843,0.5240822582200056,1.2975609783254587,0.9820804622348436,0.285575479627715,0.7176577301594258
0.0665,1.7260194440696892,1.0,3084.0338868003173,0.526751778872018,1.2972105463307266,0.9822412892003587,0.28554581665092693,0.7183223569827519
0.067,1.7253131827175916,1.0,3087.6916425869313,0.5294063200711434,1.2968603206049916,0.9823988455303434,0.28551615367413885,0.7189858101093802
0.0675,1.724606921365494,1.0,3091.328076969681,0.5320459668940225,1.2965102955031418,0.982553220194719,0.28548649069735077,0.7196481015964271
0.068,1.7239006600133964,1.0,3094.9438098094092,0.5346708044172951,1.2961604653800656,0.9827044991180935,0.28545682772056263,0.7203092434498182
0.0685,1.723194398661299,1.0,3098.5394627707083,0.5372809177176017,1.2958108245906508,0.9828527653053523,0.28542716474377455,0.7209692476243599
0.069,1.7224881373092014,1.0,3102.115659297347,0.5398763918715823,1.2954613674897855,0.9829980989612331,0.28539750176698647,0.7216281260238073
0.0695,1.7217818759571037,1.0,3105.6730245891354,0.5424573119558774,1.295112088432358,0.983140577604208,0.28536783879019834,0.7222858905009316
0.07,1.7210756146050061,1.0,3109.2117047799734,0.5450237427763507,1.294762985867996,0.9832802751381495,0.28533817581341026,0.722942545160024
0.07050000000000001,1.7203693532529085,1.0,3112.731784025081,0.547575755816661,1.294414058779172,0.9834172634681974,0.2853085128366222,0.7235980930904793
