Time [s],Phi [rad],STIM [ ],Fsee [N],Gamma [ ],Lcerel [ ],q [ ],Lmtc [m],fisomrel [ ]
0.0,1.8,1.0,17.973199724199567,8.005129166542744e-05,1.3793390694202219,0.005001680090389164,0.288653,0.5411411684036993
0.0005,1.79999375,1.0,18.30579118877416,0.005688811576040666,1.379299162509434,0.013136134122495445,0.2886527375,0.5412377082896749
0.001,1.799975,1.0,21.69949971317181,0.011266111149802055,1.3789300248454648,0.0359745395371919,0.28865195,0.5421302176996666
0.0015,1.79994375,1.0,31.26157544974056,0.016812126483579257,1.3780298423515902,0.07110206042936482,0.2886506375,0.5443030557768873
0.002,1.7999,1.0,53.99652181913229,0.02232703305625061,1.3763413165217502,0.11531004326139546,0.2886488,0.5483648388988388
0.0025,1.79984375,1.0,97.81455397265573,0.027811005362975056,1.373901706977115,0.16521872056430886,0.28864643749999996,0.5542012548456624
0.003,1.7997750000000001,1.0,161.8630254569899,0.033264216922267775,1.371180521504386,0.21794452575904466,0.28864354999999997,0.5606665193103701
0.0035,1.79969375,1.0,238.70556032228106,0.03868684027610926,1.3685532806652463,0.27127329471300676,0.2886401375,0.5668637733127686
0.004,1.7996,1.0,322.55423115459786,0.04407904700058136,1.3661273140565744,0.3235551954766474,0.2886362,0.5725471616763984
0.0045000000000000005,1.7994937500000001,1.0,410.39378168156253,0.049441007711095004,1.36389640008548,0.37364141913852394,0.2886317375,0.5777404655766206
0.005,1.799375,1.0,500.56242091995523,0.054772892053861384,1.3618339419866237,0.4208152441858107,0.28862675,0.5825133878393517
0.0055,1.79924375,1.0,591.9493756812864,0.06007486874948638,1.359916202892578,0.4646993610624763,0.2886212375,0.5869270628041731
0.006,1.7991000000000001,1.0,683.6782976173513,0.06534710554539544,1.3581253345488233,0.5051630322522334,0.2886152,0.5910275661807824
0.006500000000000001,1.79894375,1.0,775.0338675503771,0.07058976926481181,1.3564475851344133,0.5422424497258789,0.2886086375,0.5948505071806287
0.007,1.798775,1.0,865.4126855047094,0.07580302562186703,1.3548721982949234,0.5760794142192281,0.28860155,0.5984238612159711
0.0075,1.79859375,1.0,954.3610081433578,0.08098704007880367,1.3533895914209422,0.6068760195313846,0.2885939375,0.6017723108269757
0.008,1.7984,1.0,1041.4582502721348,0.08614197620681782,1.3519924583460716,0.6348646608790869,0.2885858,0.6049148892458196
0.0085,1.79819375,1.0,1126.385027074532,0.09126799703114785,1.3506740865180447,0.6602866013486322,0.2885771375,0.6078688936375476
0.009000000000000001,1.797975,1.0,1208.922956312386,0.09636526500457444,1.3494280629930535,0.6833789341659305,0.28856795,0.6106506020182483
0.0095,1.79774375,1.0,1288.8829199148513,0.1014339414848947,1.3482490165254568,0.7043673625054538,0.2885582375,0.6132736686513142
0.01,1.7975,1.0,1366.1303036990362,0.10647418651630448,1.3471320070390194,0.7234617187169301,0.288548,0.6157505411003259
0.0105,1.79724375,1.0,1440.569465034954,0.11148615893544168,1.3460725592656735,0.7408541940145822,0.2885372375,0.6180924225870756
0.011,1.796975,1.0,1512.2074036506622,0.11647001965553251,1.3450657422538013,0.7567185817709802,0.28852595000000003,0.6203113313865856
0.0115,1.79669375,1.0,1580.9910242244,0.12142592501074827,1.3441080908571663,0.7712117837600487,0.2885141375,0.622415885862998
0.012,1.7964,1.0,1646.9048560997207,0.12635403101372233,1.3431962423535595,0.7844741822502402,0.28850180000000003,0.6244143470484593
0.0125,1.79609375,1.0,1709.9750640226437,0.13125449367708816,1.3423268340207721,0.7966309333227667,0.2884889375,0.626314855578172
0.013000000000000001,1.7957750000000001,1.0,1770.2592211476456,0.13612746871239972,1.3414965766872948,0.8077934248476069,0.28847555,0.628125280965748
0.0135,1.79544375,1.0,1827.8122480813456,0.14097311070469445,1.3407025887977861,0.8180608130387034,0.2884616375,0.62985250633446
0.014,1.7951000000000001,1.0,1882.6871531276156,0.14579157249327052,1.339942323911814,0.8275213071000947,0.2884472,0.6315026033591689
0.0145,1.79474375,1.0,1934.9517656163289,0.15058300624455812,1.339213339337049,0.8362533110789037,0.2884322375,0.6330813469891841
0.015,1.794375,1.0,1984.6793202460358,0.15534756322247453,1.3385133670267733,0.8443265762429406,0.28841675,0.6345940699751182
0.0155,1.79399375,1.0,2031.9691115908013,0.16008539590219936,1.3378400653926972,0.8518031315799253,0.2884007375,0.6360462060441905
0.016,1.7936,1.0,2076.891705941198,0.16479665340039473,1.337191576646538,0.8587383674484709,0.2883842,0.6374420938731564
0.0165,1.7931937500000001,1.0,2119.5189422238877,0.1694814839501761,1.3365661761778986,0.8651817089927026,0.2883671375,0.6387857431536598
0.017,1.792775,1.0,2159.935136516987,0.1741400357846588,1.3359621393763823,0.8711772827705963,0.28834955,0.6400811253368759
0.0175,1.7923437500000001,1.0,2198.2287297458597,0.1787724563712535,1.3353778154347415,0.8767645630202048,0.2883314375,0.6413320182213662
0.018000000000000002,1.7919,1.0,2234.4934938351407,0.18337889350876865,1.3348116021802092,0.8819789119359126,0.2883128,0.6425420632829124
0.0185,1.79144375,1.0,2268.8104748247238,0.18795949304930906,1.3342621152988876,0.8868521010162895,0.2882936375,0.6437144077675803
0.019,1.790975,1.0,2301.2494980666606,0.19251439873602033,1.3337281576488493,0.8914127158718352,0.28827395,0.6448517754856657
0.0195,1.79049375,1.0,2331.8869081765047,0.19704375431204804,1.3332085320881661,0.8956864754653775,0.2882537375,0.6459568690805152
0.02,1.79,1.0,2360.8050229008095,0.20154770352053777,1.3327020414749104,0.899696557592661,0.288233,0.6470323711684534
0.0205,1.78949375,1.0,2388.076272120762,0.2060263880471951,1.332207637800876,0.9034639166021073,0.2882117375,0.6480806294220727
0.021,1.788975,1.0,2413.793559300777,0.2104799526917346,1.3317241200758347,0.9070074658559498,0.28818995000000003,0.649104298979315
0.021500000000000002,1.78844375,1.0,2438.019263889304,0.21490853716428515,1.3312506247690905,0.9103444017267451,0.2881676375,0.6501053048153291
0.022,1.7879,1.0,2460.813525967126,0.2193122803349591,1.3307863431320195,0.9134903308520504,0.2881448,0.6510854438690876
0.0225,1.78734375,1.0,2482.2395776347776,0.2236913210738689,1.3303304664159972,0.9164594291778085,0.28812143749999997,0.6520465017773909
0.023,1.786775,1.0,2502.3634838269254,0.228045798251127,1.3298821858724,0.9192645929210922,0.28809755,0.6529902533292328
0.0235,1.78619375,1.0,2521.24800489349,0.23237584954448443,1.3294407484835318,0.9219175816326932,0.28807313749999996,0.6539183457863851
0.024,1.7856,1.0,2538.9573024332917,0.23668161307285704,1.3290054094690942,0.9244291268450062,0.2880482,0.6548323996813574
0.0245,1.78499375,1.0,2555.556630030243,0.24096322688715402,1.3285754331578106,0.9268090360453188,0.2880227375,0.6557340074144042
0.025,1.784375,1.0,2571.091998060796,0.24522082460300687,1.3281502815386899,0.92906631537768,0.28799675,0.6566243390499955
0.025500000000000002,1.78374375,1.0,2585.610866910003,0.2494545398360471,1.3277294166007405,0.9312092165581269,0.2879702375,0.6575045583371757
0.026000000000000002,1.7831000000000001,1.0,2599.162025290321,0.25366450620190617,1.3273123003329714,0.9332453103166086,0.2879432,0.658375822865876
0.0265,1.78244375,1.0,2611.795474978343,0.25785085731621565,1.326898394724391,0.9351815517938319,0.2879156375,0.6592392842047711
0.027,1.781775,1.0,2623.5585606473696,0.26201372573520526,1.3264871966364478,0.9370243438061605,0.28788755,0.6600960154096731
0.0275,1.7810937500000001,1.0,2634.4939144669233,0.26615324311579047,1.3260782555094957,0.9387795910778512,0.2878589375,0.6609469747572834
0.028,1.7804,1.0,2644.656930408654,0.27026954427319677,1.325671010660198,0.9404527235958846,0.2878298,0.6617933444373889
0.0285,1.77969375,1.0,2654.0813094502223,0.2743627572564781,1.3252651091527567,0.9420487820379623,0.2878001375,0.6626358697954249
0.029,1.778975,1.0,2662.8013607916155,0.2784330101146885,1.3248601980513732,0.9435724254294668,0.28776995,0.6634752924809393
0.029500000000000002,1.7782437500000001,1.0,2670.8519485498687,0.28248043089688196,1.324455924420249,0.9450279649669705,0.2877392375,0.6643123504738575
0.03,1.7775,1.0,2678.268441215808,0.28650514765211244,1.3240519353235856,0.9464193944401845,0.287708,0.6651477781028021
0.0305,1.77674375,1.0,2685.0866638728858,0.2905072884294339,1.3236478778255845,0.9477504176314557,0.2876762375,0.6659823060554706
0.031,1.775975,1.0,2691.338343699178,0.2944869796654421,1.323243440269463,0.9490244777712021,0.28764395,0.6668165762843179
0.0315,1.7751937500000001,1.0,2697.0540752843517,0.29844434837985534,1.3228383245567332,0.9502447765861821,0.2876111375,0.6676511996090606
0.032,1.7744,1.0,2702.269233942912,0.30237952214391595,1.3224321917393216,0.9514142876392635,0.2875778,0.6684868677620452
0.0325,1.77359375,1.0,2707.0072858888802,0.306292623458576,1.3220248142409703,0.9525357916917988,0.2875439375,0.6693240402202443
0.033,1.772775,1.0,2711.291918012182,0.3101837748247873,1.3216159644854217,0.9536118805214135,0.28750955,0.6701631740692346
0.0335,1.7719437500000002,1.0,2715.1470162494375,0.3140530987435019,1.3212054148964183,0.9546449720376283,0.2874746375,0.6710047239834815
0.034,1.7711000000000001,1.0,2718.5966451026843,0.31790071771567174,1.3207929378977021,0.9556373240170317,0.2874392,0.6718491422033196
0.0345,1.7702437500000001,1.0,2721.6650283067056,0.3217267542422488,1.3203783059130159,0.95659104659868,0.2874032375,0.6726968785086289
0.035,1.7693750000000001,1.0,2724.3699360910396,0.32553132646915595,1.3199613513644712,0.9575081190404756,0.28736675,0.673548257758359
0.035500000000000004,1.76849375,1.0,2726.7355013566194,0.32931455880625865,1.3195418498340672,0.9583903898599017,0.2873297375,0.67440371876474
0.036000000000000004,1.7676,1.0,2728.787165474463,0.3330765752475878,1.3191195660075203,0.9592395898768363,0.2872922,0.6752637199973592
0.0365,1.76669375,1.0,2730.5400179743015,0.33681749210130185,1.318694359524355,0.9600573501004654,0.2872541375,0.6761285242581669
0.037,1.765775,1.0,2732.009219257216,0.3405374256755592,1.3182660900240946,0.9608452012317695,0.28721555,0.6769983926682874
0.0375,1.76484375,1.0,2733.2099923417636,0.3442364922785182,1.3178346171462634,0.9616045809511313,0.2871764375,0.6778735846412252
0.038,1.7639,1.0,2734.157615046698,0.3479148082183373,1.3173998005303855,0.962336840598868,0.28713679999999997,0.6787543578548199
0.0385,1.76294375,1.0,2734.867412610701,0.35157248980317485,1.3169614998159846,0.9630432513053694,0.28709663750000003,0.6796409682219438
0.039,1.761975,1.0,2735.3547507481844,0.3552096533411893,1.316519574642585,0.9637250096216868,0.28705595,0.6805336698599396
0.0395,1.7609937500000001,1.0,2735.6350291431786,0.358826415140539,1.3160738846497106,0.9643832426962452,0.2870147375,0.6814327150588055
0.04,1.76,1.0,2735.7210049718424,0.36242288842039405,1.3156243137222567,0.9650190146378526,0.286973,0.6823383054443701
0.0405,1.7589937500000001,1.0,2735.6238375864295,0.36599918761149847,1.3151707604562521,0.965633330735761,0.2869307375,0.6832506114586343
0.041,1.757975,1.0,2735.359040344645,0.36955543174165906,1.3147130840806365,0.9662271372849286,0.28688795,0.6841698810856321
0.0415,1.75694375,1.0,2734.9353422278737,0.3730917306755201,1.3142512055521103,0.9668013317657789,0.2868446375,0.6850962366359865
0.042,1.7559,1.0,2734.361483890577,0.37660819427772596,1.3137850458273743,0.9673567624283449,0.28680079999999997,0.6860297991553336
0.0425,1.75484375,1.0,2733.646215200344,0.3801049324129209,1.3133145258631291,0.9678942314930233,0.2867564375,0.686970688402942
0.043000000000000003,1.753775,1.0,2732.7982929167233,0.3835820549457493,1.3128395666160755,0.9684144981118249,0.28671155,0.6879190228299301
0.043500000000000004,1.75269375,1.0,2731.8264785089787,0.38703967174085546,1.3123600890429137,0.9689182811102719,0.28666613750000003,0.6888749195570888
0.044,1.7516,1.0,2730.739536111609,0.39047789266288363,1.3118760141003447,0.9694062615282428,0.2866202,0.689838494352301
0.0445,1.75049375,1.0,2729.5462306193153,0.39389682757647826,1.3113872627450691,0.9698790849763518,0.2865737375,0.690809861607568
0.045,1.7493750000000001,1.0,2728.252558447814,0.3972965816834902,1.3108937810948034,0.9703373650781928,0.28652675,0.6917890844278587
0.0455,1.74824375,1.0,2726.8601431565394,0.4006772548518283,1.310395555035663,0.9707816864504256,0.2864792375,0.6927761460908888
0.046,1.7471,1.0,2725.388757054012,0.4040389769595567,1.3098924053990308,0.9712125960831279,0.2864312,0.6937713554719475
0.0465,1.7459437500000001,1.0,2723.8426887484998,0.4073818504124399,1.3093842937470446,0.9716306202078683,0.28638263750000004,0.6947747410160793
0.047,1.744775,1.0,2722.226225276933,0.4107059776162426,1.3088711816418426,0.9720362590526092,0.28633355,0.695786330201441
0.0475,1.74359375,1.0,2720.5436515397737,0.4140114609767296,1.3083530306455629,0.97242998836827,0.28628393750000003,0.6968061495270936
0.048,1.7424,1.0,2718.7992497673395,0.4172984028996654,1.3078298023203434,0.97281226085187,0.2862338,0.6978342245006961
0.0485,1.74119375,1.0,2716.997299019957,0.4205669057908148,1.3073014582283222,0.9731835074741507,0.2861831375,0.6988705796261057
0.049,1.739975,1.0,2715.142074720098,0.4238170720559424,1.3067679599316375,0.9735441387189154,0.28613195,0.699915238390884
0.0495,1.73874375,1.0,2713.237848217655,0.42704900410081287,1.3062292689924275,0.9738945457407113,0.2860802375,0.70096822325371
0.05,1.7375,1.0,2711.28888638818,0.43026280433119096,1.30568534697283,0.9742351014469263,0.286028,0.7020295556316981
0.0505,1.73624375,1.0,2709.299451263286,0.43345857515284125,1.3051361554349834,0.9745661615098756,0.2859752375,0.7030992558876201
0.051000000000000004,1.734975,1.0,2707.2737996943324,0.4366364189715285,1.3045816559410255,0.9748880653139925,0.28592195,0.704177343317037
0.051500000000000004,1.73369375,1.0,2705.216183048607,0.43979643819301734,1.3040218100530945,0.9752011368428254,0.2858681375,0.7052638361353321
0.052000000000000005,1.7324,1.0,2703.1304937359178,0.4429387330654365,1.3034565825594249,0.9755056854845592,0.2858138,0.7063587452211575
0.0525,1.73109375,1.0,2701.017692217333,0.446063387185484,1.3028859649889721,0.9758020067790072,0.28575893750000003,0.7074620287394744
0.053,1.729775,1.0,2698.884927774599,0.44917052697733256,1.3023098922892442,0.9760903841639739,0.28570355000000003,0.7085737532655152
0.0535,1.72844375,1.0,2696.7339007335127,0.45226024684291877,1.3017283491366112,0.9763710884116908,0.2856476375,0.7096938881610182
0.054,1.7271,1.0,2694.56630896285,0.45533264118417915,1.301141320207442,0.9766443785634477,0.2855912,0.7108224019888996
0.0545,1.7257437500000001,1.0,2692.3838478172183,0.4583878044030504,1.3005487901781065,0.976910502534487,0.2855342375,0.711959262507897
0.055,1.724375,1.0,2690.1882100856087,0.46142583090146894,1.2999507437249744,0.977169697682796,0.28547675,0.7131044366672026
0.0555,1.72299375,1.0,2687.9810859452487,0.4644468150813714,1.2993471655244149,0.9774221913442298,0.2854187375,0.7142578906010797
0.056,1.7216,1.0,2685.7641629202076,0.46745085134469444,1.2987380402527975,0.9776682013362218,0.2853602,0.7154195896234629
0.0565,1.72019375,1.0,2683.5391258457266,0.47043803409337454,1.298123352586492,0.9779079364321709,0.28530113749999997,0.7165894982225454
0.057,1.718775,1.0,2681.307656837399,0.4734084577293483,1.2975030872018676,0.9781415968084335,0.28524155,0.7177675800553507
0.0575,1.71734375,1.0,2679.0714352654595,0.4763622166545523,1.2968772287752939,0.9783693744657138,0.2851814375,0.7189537979422891
0.058,1.7159,1.0,2676.8321377346333,0.47929940527092313,1.296245761983141,0.9785914536265111,0.2851208,0.7201481138616972
0.0585,1.71444375,1.0,2674.5914380692616,0.4822201179803973,1.2956086715017774,0.9788080111101667,0.2850596375,0.7213504889443695
0.059000000000000004,1.7129750000000001,1.0,2672.351007302851,0.48512444918491154,1.2949659420075736,0.9790192166869373,0.28499795,0.7225608834680635
0.059500000000000004,1.71149375,1.0,2670.1123975588835,0.4880124927705547,1.2943175592440144,0.9792252334280216,0.2849357375,0.723779254848999
0.06,1.71,1.0,2667.874667528993,0.49088433794014413,1.2936635318552918,0.9794262188661059,0.284873,0.7250055167674618
0.0605,1.7084937500000001,1.0,2665.639352698666,0.49374007438050543,1.2930038457189024,0.9796223232279535,0.2848097375,0.7262396249806558
0.061,1.7069750000000001,1.0,2663.4091876429716,0.4965797922100523,1.2923384756549856,0.9798136903887669,0.28474595,0.7274815550118603
0.0615,1.7054437500000001,1.0,2661.185191359822,0.4994035814841543,1.2916674122344012,0.9800004595389941,0.2846816375,0.7287312520423721
0.062,1.7039,1.0,2658.9669507639937,0.5022115315849478,1.290990659200985,0.9801827652179211,0.2846168,0.7299886360260721
0.0625,1.70234375,1.0,2656.756461923879,0.5050037312875052,1.290308198108875,0.9803607356953217,0.2845514375,0.7312536674450834
0.063,1.7007750000000001,1.0,2654.5536594236014,0.5077802689731286,1.2896200294824978,0.9805344953867636,0.28448555,0.7325262707989704
0.0635,1.69919375,1.0,2652.3591491613347,0.5105412324650697,1.2889261476573015,0.9807041637314279,0.28441913750000003,0.733806381377268
0.064,1.6976,1.0,2650.173502775045,0.5132867091444978,1.2882265472756629,0.9808698557495144,0.2843522,0.7350939331809633
0.0645,1.6959944268975642,1.0,2648.031665823862,0.5160167846583457,1.2875212114502415,0.9810316815484609,0.2842847659296977,0.7363888806319692
0.065,1.694386040586797,1.0,2646.344647736807,0.5187315479878715,1.2868104143748251,0.9811897620017926,0.2842172137046455,0.7376906447899908
0.0655,1.6927776542760298,1.0,2645.2087452822925,0.5214310844319222,1.2860945333769627,0.9813442185525935,0.28414966147959325,0.7389984629203381
0.066,1.6911692679652623,1.0,2644.5848067120487,0.524115478463969,1.2853739267234665,0.9814951674186467,0.284082109254541,0.7403116133495842
0.0665,1.6895608816544951,1.0,2644.433854914692,0.5267848145574829,1.284648952681149,0.9816427208056984,0.2840145570294888,0.741629380540577
0.067,1.687952495343728,1.0,2644.717051301136,0.5294391771859349,1.2839199695168226,0.9817869870846558,0.2839470048044366,0.7429510551963218
0.0675,1.6863441090329607,1.0,2645.395662535987,0.532078650822796,1.2831873354972998,0.9819280709598273,0.28387945257938435,0.7442759343556753
0.068,1.6847357227221935,1.0,2646.4455759429597,0.5347033159904984,1.2824512746144605,0.9820660669551282,0.2838119003543321,0.7456035633567175
0.0685,1.6831273364114263,1.0,2647.818168096931,0.5373132613306626,1.281712237639054,0.9822010777141353,0.2837443481292799,0.7469330840701441
0.069,1.6815189501006589,1.0,2649.48602627899,0.5399085696402424,1.280970479789866,0.9823331929427807,0.2836767959042277,0.7482639970875399
0.0695,1.6799105637898917,1.0,2651.429984636795,0.5424893213539861,1.2802261803917419,0.9824624957059016,0.28360924367917545,0.749595943313313
0.07,1.6783021774791245,1.0,2653.6308938577836,0.5450555969066422,1.2794795187695271,0.9825890663526791,0.2835416914541232,0.7509285669271477
0.07050000000000001,1.6766937911683573,1.0,2656.069611420706,0.5476074767329592,1.2787306742480673,0.9827129826284564,0.283474139229071,0.7522615154120466
0.07100000000000001,1.67508540485759,1.0,2658.7269925602404,0.5501450412676856,1.277979826152208,0.982834319781275,0.2834065870040188,0.7535944395803197
0.07150000000000001,1.6734770185468228,1.0,2661.5838819441974,0.5526683709455699,1.2772271538067943,0.9829531506634106,0.28333903477896655,0.7549269935975256
0.07200000000000001,1.6718686322360554,1.0,2664.62110606438,0.5551775462013604,1.276472836536672,0.9830695458281714,0.2832714825539143,0.756258835004358
0.0725,1.6702602459252884,1.0,2667.8194663397103,0.5576726474698057,1.2757170536666864,0.9831835736222111,0.2832039303288621,0.7575896247364846
0.073,1.668651859614521,1.0,2671.1695058627442,0.5601537503441978,1.2749598947246819,0.9832952959708161,0.28313637810380987,0.7589191846077548
0.0735,1.6670434733037538,1.0,2674.6494956819656,0.5626209394748503,1.2742015618209466,0.9834047784060367,0.28306882587875765,0.7602471412466634
0.074,1.6654350869929866,1.0,2678.2494878877274,0.5650742918927574,1.2734421485295584,0.9835120792308837,0.2830012736537054,0.7615733144373052
