Time [s],Phi [rad],STIM [ ],Fsee [N],Gamma [ ],Lcerel [ ],q [ ],Lmtc [m],fisomrel [ ]
0.0,1.8,1.0,18.344279747176643,0.0006254844714959402,1.3792977153968693,0.005100900748996487,0.288653,0.541241208847945
0.0005,1.79999375,1.0,18.843929865367247,0.0062311853070980356,1.3792398658543101,0.01473718897136432,0.2886527375,0.5413811356722094
0.001,1.799975,1.0,22.642470136860418,0.011805442593114618,1.3788349167443819,0.03888766662070182,0.28865195,0.5423600314262669
0.0015,1.79994375,1.0,33.10741280090546,0.01734843270385904,1.3778753161538901,0.07504308439103226,0.2886506375,0.5446755275561148
0.002,1.7999,1.0,57.62602737955971,0.02286033102251491,1.3761105720563207,0.11994743887903948,0.2886488,0.5489184872049337
0.0025,1.79984375,1.0,103.63028846335628,0.02834131194889227,1.3736264906897118,0.1702446169492198,0.28864643749999996,0.5548572878025853
0.003,1.7997750000000001,1.0,169.2391308015529,0.03379154890784178,1.3709082667775179,0.22311712678291448,0.28864354999999997,0.5613107705232706
0.0035,1.79969375,1.0,246.93570404707387,0.039211214346612656,1.3683024575268465,0.27640930947159553,0.2886401375,0.5674531242974662
0.004,1.7996,1.0,331.2512365665947,0.0446004797474475,1.3658988817901936,0.3285220372215155,0.2886362,0.5730803836246363
0.0045000000000000005,1.7994937500000001,1.0,419.3623080734052,0.04995951563039161,1.363687299819833,0.3783519019096416,0.2886317375,0.5782255993295882
0.005,1.799375,1.0,509.6799825654819,0.05528849153868104,1.3616412903470472,0.4252193876974022,0.28862675,0.5829578351917178
0.0055,1.79924375,1.0,601.1344215684763,0.06058757615937754,1.359737615231328,0.4687748889375317,0.2886212375,0.5873368883535617
0.006,1.7991000000000001,1.0,692.8498680452132,0.06585693705890001,1.35795931625733,0.508907275854462,0.2886152,0.5914066578590076
0.006500000000000001,1.79894375,1.0,784.1380691210696,0.07109674102140126,1.3562927394568434,0.5456652097104471,0.2886086375,0.5952024356197001
0.007,1.798775,1.0,874.412758791777,0.07630715384415515,1.3547272887356743,0.5791980526807995,0.28860155,0.5987517558234616
0.0075,1.79859375,1.0,963.1832529586775,0.08148834023082899,1.353254287640354,0.6097124130879671,0.2885939375,0.6020771947184506
0.008,1.7984,1.0,1050.0904195128815,0.08664046453823679,1.3518656962944438,0.6374418078933096,0.2885858,0.605199399780696
0.0085,1.79819375,1.0,1134.8098859091401,0.09176368935728615,1.3505551002721916,0.6626277320379726,0.2885771375,0.6081349543149033
0.009000000000000001,1.797975,1.0,1217.1048121906076,0.09685817674253383,1.3493165033965506,0.68550662474071,0.28856795,0.6108991723686468
0.0095,1.79774375,1.0,1296.816736496376,0.10192408838093794,1.3481442322766948,0.7063025916132561,0.2885582375,0.6135063569275216
0.01,1.7975,1.0,1373.8121259622917,0.10696158426195539,1.3470334480276986,0.7252238437055932,0.288548,0.6159687051977252
0.0105,1.79724375,1.0,1448.0042020858823,0.11197082355553173,1.3459796569317146,0.7424608035923342,0.2885372375,0.618297439379506
0.011,1.796975,1.0,1519.3530401484156,0.11695196476870337,1.3449785836065193,0.7581858375113478,0.28852595000000003,0.6205031149644125
0.0115,1.79669375,1.0,1587.8569630072482,0.12190516639690717,1.3440261780415037,0.772553904017326,0.2885141375,0.6225956276216698
0.012,1.7964,1.0,1653.5025749347535,0.12683058428577962,1.3431191142560994,0.7857038744589232,0.28850180000000003,0.6245831423217787
0.0125,1.79609375,1.0,1716.3136864641026,0.13172837411206895,1.3422541087301532,0.7977595450757113,0.2884889375,0.6264736130654608
0.013000000000000001,1.7957750000000001,1.0,1776.3339359238487,0.13659869080757528,1.3414280716131437,0.8088311242518375,0.28847555,0.6282744640131697
0.0135,1.79544375,1.0,1833.6386266983575,0.14144168978224023,1.3406379230043548,0.8190165588183813,0.2884616375,0.6299930019492324
0.014,1.7951000000000001,1.0,1888.278340213984,0.14625752359053049,1.3398811761957257,0.8284030794892401,0.2884472,0.6316351596550067
0.0145,1.79474375,1.0,1940.3095476557532,0.15104634388464974,1.3391555381143583,0.8370682543564603,0.2884322375,0.6332063806325258
0.015,1.794375,1.0,1989.809575666772,0.15580830231680165,1.338458715687355,0.84508103564519,0.28841675,0.6347120464772518
0.0155,1.79399375,1.0,2036.8585860767541,0.16054354957890474,1.3377885864060954,0.8525028245063776,0.2884007375,0.6361571138194254
0.016,1.7936,1.0,2081.558201353963,0.16525223689635257,1.3371429776222254,0.8593882920521014,0.2883842,0.637546596428634
0.0165,1.7931937500000001,1.0,2123.9811762219842,0.16993451240947563,1.3365201724879878,0.8657863271566337,0.2883671375,0.6388844818515782
0.017,1.792775,1.0,2164.201558603111,0.17459052354155769,1.3359185664688582,0.8717406155861234,0.28834955,0.6401744792777657
0.0175,1.7923437500000001,1.0,2202.3042560310646,0.17922041771588254,1.335336555030312,0.877290221970282,0.2883314375,0.6414202642232223
0.018000000000000002,1.7919,1.0,2238.3743929468355,0.1838243413158291,1.3347726311636705,0.8824701582192467,0.2883128,0.6426252723971717
0.0185,1.79144375,1.0,2272.5061539898034,0.1884024416704079,1.3342252849543121,0.8873118307967288,0.2882936375,0.643792917401814
0.019,1.790975,1.0,2304.7742691318267,0.19295486306779847,1.3336932781501003,0.8918435231943558,0.28827395,0.6449260080275503
0.0195,1.79049375,1.0,2335.2494773073586,0.19748174853333827,1.3331754762343169,0.8960907110599821,0.2882537375,0.646027111084299
0.02,1.79,1.0,2364.0082641353633,0.20198324109236496,1.3326707446902444,0.900076356095035,0.288233,0.6470987743215505
0.0205,1.78949375,1.0,2391.132210306605,0.2064594837446994,1.332177950618851,0.9038211883699607,0.2882117375,0.6481435239880748
0.021,1.788975,1.0,2416.6885402567377,0.21091061694775004,1.3316961461854988,0.9073439921604275,0.28818995000000003,0.6491634776967099
0.021500000000000002,1.78844375,1.0,2440.771256225753,0.21533678525765962,1.331224164544402,0.9106617359197929,0.2881676375,0.650161201600328
0.022,1.7879,1.0,2463.4361657524646,0.21973812680084273,1.3307612432891187,0.9137898919654222,0.2881448,0.6511383926589172
0.0225,1.78734375,1.0,2484.742035430893,0.22411477970371413,1.3303066200132065,0.9167425160955799,0.28812143749999997,0.6520967371666173
0.023,1.786775,1.0,2504.7503487756208,0.2284668820926883,1.3298595323102234,0.9195323968734415,0.28809755,0.6530379111737268
0.0235,1.78619375,1.0,2523.5250769749177,0.23279457209417997,1.3294192177737272,0.9221711874149529,0.28807313749999996,0.6539635808716382
0.024,1.7856,1.0,2541.1255107416705,0.23709798628454076,1.3289849794866213,0.9246695329855993,0.2880482,0.6548752655363117
0.0245,1.78499375,1.0,2557.6148009638378,0.24137726260985584,1.3285561028553956,0.9270371594662411,0.2880227375,0.6557745129989627
0.025,1.784375,1.0,2573.051663647643,0.24563253765847828,1.3281319318878189,0.929282976942585,0.28799675,0.6566627400368872
0.025500000000000002,1.78374375,1.0,2587.4806048052474,0.24986394425714398,1.3277119580562342,0.9314151734845405,0.2879702375,0.657541047662465
0.026000000000000002,1.7831000000000001,1.0,2600.9474059066683,0.2540716152325888,1.327295672832985,0.9334412623065,0.2879432,0.6584105310739912
0.0265,1.78244375,1.0,2613.4990157761163,0.2582556834115486,1.3268825676904152,0.9353681464935004,0.2879156375,0.6592722797835495
0.027,1.781775,1.0,2625.1834482228273,0.26241628162075925,1.326472134100868,0.9372021767303484,0.28788755,0.6601273777283956
0.0275,1.7810937500000001,1.0,2636.0458133911116,0.2665535414596131,1.3260638993502525,0.9389492077497931,0.2878589375,0.6609768288919273
0.028,1.7804,1.0,2646.1268788426914,0.27066759382593064,1.3256574386407884,0.9406146458760515,0.2878298,0.6618215327102077
0.0285,1.77969375,1.0,2655.478997785751,0.2747585730616111,1.3252522271484084,0.9422034699604308,0.2878001375,0.6626625916294648
0.029,1.778975,1.0,2664.134051640802,0.27882660632701667,1.324847935154404,0.9437203073523939,0.28776995,0.6635006984244902
0.029500000000000002,1.7782437500000001,1.0,2672.124451350408,0.2828718207825095,1.3244442329400667,0.945169440361394,0.2877392375,0.6643365424487618
0.03,1.7775,1.0,2679.4830905942613,0.2868943435884516,1.3240407907866887,0.9465548363980886,0.287708,0.6651708096503108
0.0305,1.77674375,1.0,2686.243301415022,0.2908943019052053,1.323637278975561,0.9478801751246975,0.2876762375,0.6660041825806597
0.031,1.775975,1.0,2692.4388122539626,0.29487182289313263,1.323233367787976,0.949148872943777,0.28764395,0.6668373403968211
0.0315,1.7751937500000001,1.0,2698.1030049932892,0.29882703325929816,1.3228287339359925,0.9503641057738806,0.2876111375,0.6676709456163398
0.032,1.7744,1.0,2703.262980543245,0.3027600563288122,1.3224231143951193,0.9515288346577723,0.2875778,0.6685055334941066
0.0325,1.77359375,1.0,2707.9532629130913,0.30667102187969386,1.3220161807722963,0.9526458111626892,0.2875439375,0.6693417707934433
0.033,1.772775,1.0,2712.1955088162904,0.3105600513869782,1.3216077243402877,0.9537176117660636,0.28750955,0.6701800753975176
0.0335,1.7719437500000002,1.0,2716.011563547429,0.31442726632570034,1.3211975363718567,0.9547466403019399,0.2874746375,0.6710208629740109
0.034,1.7711000000000001,1.0,2719.4234423869298,0.3182727881708953,1.3207854081397667,0.9557351415838065,0.2874392,0.6718645469534543
0.0345,1.7702437500000001,1.0,2722.4533129734145,0.3220967383975983,1.3203711309167814,0.9566852137992762,0.2874032375,0.6727115385047913
0.035,1.7693750000000001,1.0,2725.1234786405025,0.32589923848084423,1.3199544959756644,0.9575988198002467,0.28736675,0.6735622465081588
0.035500000000000004,1.76849375,1.0,2727.456362720675,0.3296804098956684,1.319535294589179,0.9584777973985235,0.2873297375,0.6744170775248937
0.036000000000000004,1.7676,1.0,2729.4617578305015,0.33344036210898825,1.3191134337960435,0.9593238779270601,0.2872922,0.6752762001623028
0.0365,1.76669375,1.0,2731.178115225245,0.3371792321394368,1.3186885609048973,0.9601386649997677,0.2872541375,0.676140309784329
0.037,1.765775,1.0,2732.619391084965,0.3408971356347862,1.318260546649811,0.9609236812705916,0.28721555,0.6770096442798581
0.0375,1.76484375,1.0,2733.798559041844,0.3445941872901161,1.3178292712172592,0.9616803576827626,0.2871764375,0.6778844207828632
0.038,1.7639,1.0,2734.728643210459,0.3482705018005063,1.317394614793716,0.9624100393364114,0.28713679999999997,0.6787648549105507
0.0385,1.76294375,1.0,2735.4227120138635,0.3519261938610365,1.3169564575656558,0.9631139915769945,0.28709663750000003,0.6796511607379803
0.039,1.761975,1.0,2735.8938723280826,0.35556137816678657,1.3165146797195528,0.9637934055881724,0.28705595,0.6805435507717759
0.0395,1.7609937500000001,1.0,2736.1552639450742,0.3591761694128361,1.3160691614418816,0.9644494035343888,0.2870147375,0.681442235922914
0.04,1.76,1.0,2736.2200543535837,0.3627706822942649,1.3156197829191163,0.9650830432938364,0.286973,0.682347425478603
0.0405,1.7589937500000001,1.0,2736.1014338385676,0.3663450315061527,1.3151664243377312,0.9656953228184427,0.2869307375,0.6832593270732434
0.041,1.757975,1.0,2735.812610898766,0.3698993317435793,1.3147089658842008,0.966287184153893,0.28688795,0.6841781466584724
0.0415,1.75694375,1.0,2735.3644622383426,0.37343369289238243,1.3142473090440536,0.9668595181404945,0.2868446375,0.6851040457862598
0.042,1.7559,1.0,2734.767296254505,0.376948227292594,1.3137813605636184,0.9674131676666015,0.28680079999999997,0.6860371739886624
0.0425,1.75484375,1.0,2734.0342155962453,0.380443055127528,1.3133110018867953,0.9679489291065649,0.2867564375,0.6869777299001676
0.043000000000000003,1.753775,1.0,2733.172457608451,0.38391828383819676,1.3128361677697644,0.9684675583839749,0.28671155,0.6879258040023208
0.043500000000000004,1.75269375,1.0,2732.189264556281,0.3873740208656125,1.3123567929687054,0.9689697713180196,0.28666613750000003,0.6888814856068408
0.044,1.7516,1.0,2731.0918819791386,0.3908103736507875,1.311872812239799,0.9694562461473363,0.2866202,0.6898448628368595
0.0445,1.75049375,1.0,2729.887557141293,0.3942274496347343,1.3113841603392244,0.9699276258708878,0.2865737375,0.690816022607896
0.045,1.7493750000000001,1.0,2728.5835375749084,0.39762535625846485,1.3108907720231626,0.970384520420803,0.28652675,0.6917950506085521
0.0455,1.74824375,1.0,2727.1870697187637,0.4010042009629917,1.310392582047793,0.9708275086807662,0.2864792375,0.6927820312809441
0.046,1.7471,1.0,2725.7053976506954,0.40436409118932704,1.3098895251692964,0.9712571403623305,0.2864312,0.6937770478008547
0.0465,1.7459437500000001,1.0,2724.145761914811,0.40770513437848316,1.3093815361438523,0.9716739377504228,0.28638263750000004,0.6947801820576218
0.047,1.744775,1.0,2722.515398442463,0.41102743797147234,1.308868549727641,0.9720783973283273,0.28633355,0.695791514633749
0.0475,1.74359375,1.0,2720.812571023544,0.4143310851085725,1.308350582309296,0.9724709939921594,0.28628393750000003,0.6968109642522897
0.048,1.7424,1.0,2719.0506753461605,0.41761620762554297,1.3078275125167855,0.9728521761488567,0.2862338,0.6978387198269396
0.0485,1.74119375,1.0,2717.2369366985868,0.4208829167770794,1.3072992750545622,0.9732223719532981,0.2861831375,0.6988748582619277
0.049,1.739975,1.0,2715.3744660225498,0.4241313116611142,1.3067658420500459,0.973581990296032,0.28613195,0.6999193818600966
0.0495,1.73874375,1.0,2713.466371466825,0.42736149137557955,1.3062271856306567,0.9739314208439267,0.2860802375,0.7009722920303807
0.05,1.7375,1.0,2711.5157581182575,0.43057355501840794,1.3056832779238141,0.9742710351147992,0.286028,0.7020335892785466
0.0505,1.73624375,1.0,2709.525727749286,0.4337676016875316,1.3051340910569387,0.9746011874826316,0.2859752375,0.7031032731978821
0.051000000000000004,1.734975,1.0,2707.4993785833453,0.436943730480883,1.30457959715745,0.9749222161184429,0.28592195,0.7041813424598387
0.051500000000000004,1.73369375,1.0,2705.439805077398,0.44010204049639423,1.3040197683527681,0.9752344438714693,0.2858681375,0.7052677948046213
0.052000000000000005,1.7324,1.0,2703.3500977213607,0.44324263083199783,1.3034545767703132,0.9755381790949263,0.2858138,0.7063626270317287
0.0525,1.73109375,1.0,2701.233342855248,0.4463656005856261,1.302883994537505,0.9758337164203007,0.28575893750000003,0.7074658349904485
0.053,1.729775,1.0,2699.0926225030153,0.4494710488552113,1.3023079937817637,0.9761213374837872,0.28570355000000003,0.7085774135702971
0.0535,1.72844375,1.0,2696.931014224119,0.4525590747386858,1.3017265466305088,0.9764013116082255,0.2856476375,0.709697356691414
0.054,1.7271,1.0,2694.751590981973,0.4556297773339819,1.3011396252111607,0.9766738964436098,0.2855912,0.7108256572949033
0.0545,1.7257437500000001,1.0,2692.557421029697,0.458683255739032,1.3005472016511395,0.9769393385690244,0.2855342375,0.7119623073331292
0.055,1.724375,1.0,2690.351567813117,0.46171960905176834,1.2999492480778647,0.9771978740586297,0.28547675,0.7131072977599604
0.0555,1.72299375,1.0,2688.1323396068638,0.4647389187455465,1.299345780127993,0.9774497299218458,0.2854187375,0.7142605354577909
0.056,1.7216,1.0,2685.9021991127665,0.46774128818108895,1.2987367753975338,0.9776951235108364,0.2853602,0.7154219994422304
0.0565,1.72019375,1.0,2683.6677929098632,0.47072683133936505,1.2981221730928663,0.9779342618835931,0.28530113749999997,0.7165917407856731
0.057,1.718775,1.0,2681.4300439443155,0.4736956384791361,1.2975019648093398,0.9781673444049005,0.28524155,0.7177697096128264
0.0575,1.71734375,1.0,2679.1898736444928,0.4766477998591633,1.2968761421423032,0.9783945623142313,0.2851814375,0.7189558553147417
0.058,1.7159,1.0,2676.9482019150123,0.4795834057382079,1.2962446966871062,0.9786160991199782,0.2851208,0.720150126545805
0.0585,1.71444375,1.0,2674.7059471313923,0.48250254637503115,1.2956076200390982,0.9788321309715163,0.2850596375,0.7213524712207274
0.059000000000000004,1.7129750000000001,1.0,2672.4640261367986,0.4854053120283942,1.2949649037936284,0.9790428270105066,0.28499795,0.7225628365115292
0.059500000000000004,1.71149375,1.0,2670.223354240354,0.48829179295705843,1.294316539546046,0.979248349702754,0.2849357375,0.7237811688445175
0.06,1.71,1.0,2667.984845216561,0.49116207941978496,1.2936625188917008,0.9794488551518373,0.284873,0.7250074138972624
0.0605,1.7084937500000001,1.0,2665.7494113070334,0.49401626167533513,1.2930028334259416,0.9796444933956476,0.2848097375,0.7262415165955673
0.061,1.7069750000000001,1.0,2663.5179632229556,0.4968544299824701,1.2923374747441179,0.9798354086868888,0.28474595,0.7274834211104344
0.0615,1.7054437500000001,1.0,2661.2914101497213,0.4996766745999511,1.2916664344415791,0.980021739758524,0.2846816375,0.7287330708550256
0.062,1.7039,1.0,2659.0706597531375,0.5024830857865394,1.2909897041136746,0.9802036200750845,0.2846168,0.7299904084816202
0.0625,1.70234375,1.0,2656.856618186584,0.5052737538009963,1.2903072753557536,0.9803811780706919,0.2845514375,0.7312553758785671
0.063,1.7007750000000001,1.0,2654.6501901005736,0.5080487689020828,1.2896191397631653,0.9805545373745934,0.28448555,0.7325279141672325
0.0635,1.69919375,1.0,2652.452278653139,0.5108082213485605,1.2889252889312595,0.9807238170249511,0.28441913750000003,0.7338079636989421
0.064,1.6976,1.0,2650.2612778437183,0.5135521750418276,1.28822573758747,0.980889130926909,0.2843522,0.735095421531119
0.0645,1.69599375,1.0,2648.079186385288,0.5162807378952096,1.2875204672184113,0.9810505903427363,0.2842847375,0.7363902453141151
0.065,1.694375,1.0,2645.907843664799,0.5189940113775025,1.2868094607513767,0.9812083020822389,0.28421675,0.7376923891055629
0.0655,1.69274375,1.0,2643.7473478993948,0.5216920771646397,1.2860927171672836,0.9813623684981052,0.2841482375,0.7390017767341859
0.066,1.6911,1.0,2641.597797181778,0.524375016932555,1.2853702354470493,0.9815128882883865,0.2840792,0.740318331380407
0.0665,1.6894437500000001,1.0,2639.4592894823613,0.5270429123571819,1.284642014571591,0.9816599566514741,0.2840096375,0.7416419755759762
0.067,1.687775,1.0,2637.331922651029,0.5296958451144541,1.2839080535218264,0.9818036654334356,0.28393955,0.7429726312035962
0.0675,1.68609375,1.0,2635.215794419816,0.5323338968803052,1.2831683512786725,0.9819441032681351,0.2838689375,0.744310219496551
0.068,1.6844000000000001,1.0,2633.1110024046843,0.5349571493306686,1.2824229068230464,0.9820813557105422,0.2837978,0.7456546610383319
0.0685,1.68269375,1.0,2631.017644107634,0.5375656841414782,1.2816717191358658,0.9822155053636005,0.2837261375,0.747005875762264
0.069,1.680975,1.0,2628.9358169193324,0.5401595829886673,1.280914787198048,0.9823466319990136,0.28365395,0.7483637829511334
0.0695,1.67924375,1.0,2626.8656181208526,0.5427389275481698,1.28015210999051,0.9824748126722764,0.28358123749999997,0.749728301236815
0.07,1.6775,1.0,2624.8071448863157,0.545303799495919,1.2793836864941694,0.9826001218322648,0.283508,0.7510993485998968
0.07050000000000001,1.67574375,1.0,2622.760494284934,0.5478542805078488,1.2786095156899435,0.982722631425675,0.2834342375,0.7524768423693085
0.07100000000000001,1.673975,1.0,2620.7257632833107,0.5503904522598926,1.2778295965587494,0.9828424109965878,0.28335995,0.7538606992219469
0.07150000000000001,1.67219375,1.0,2618.703048747953,0.552912396427984,1.2770439280815047,0.9829595277814159,0.2832851375,0.7552508351823025
0.07200000000000001,1.6704,1.0,2616.692447447352,0.5554201946880567,1.2762525092391266,0.9830740467994771,0.2832098,0.7566471656220863
0.0725,1.66859375,1.0,2614.6940560546127,0.5579139287160442,1.2754553390125325,0.9831860309394247,0.2831339375,0.7580496052598559
0.073,1.6667750000000001,1.0,2612.7070600481893,0.5603936649048791,1.2746524248472841,0.9832955405284612,0.28305755,0.7594580533338869
0.0735,1.66494375,1.0,2610.7297173941406,0.5628594593562627,1.2738437828212787,0.9834026337434899,0.2829806375,0.7608723935272077
0.074,1.6631,1.0,2608.7651137683833,0.5653114451223193,1.27302938415122,0.9835073693234418,0.2829032,0.762292587340579
0.0745,1.6612437500000001,1.0,2606.812986310869,0.5677496950648828,1.2722092311560285,0.9836098020524745,0.2828252375,0.7637185410505225
0.075,1.659375,1.0,2604.87307261525,0.5701742820457868,1.2713833261546252,0.9837099849792406,0.28274675,0.765150160348381
0.0755,1.65749375,1.0,2602.94511072349,0.5725852789268653,1.270551671465931,0.983807969481512,0.2826677375,0.76658735034117
