Time [s],Phi [rad],STIM [ ],Fsee [N],Gamma [ ],Lcerel [ ],q [ ],Lmtc [m],fisomrel [ ]
0.0,1.8,1.0,17.965195225720766,1.0029428043705312e-05,1.3793399661408627,0.005000026808258687,0.288653,0.5411389990058965
0.0005,1.79999375,1.0,18.274718563453174,0.0056191824796791605,1.3793026127985388,0.012940600177886317,0.2886527375,0.5412293620031943
0.001,1.799975,1.0,21.616466630389233,0.01119687261761579,1.3789384976996795,0.03560874456802694,0.28865195,0.5421097415851723
0.0015,1.79994375,1.0,31.067288451601392,0.01674327632478616,1.3780463696563756,0.07060194007662642,0.2886506375,0.5442632091506219
0.002,1.7999,1.0,53.580232640386626,0.02225856909246698,1.3763682715065784,0.11471811619958892,0.2886488,0.5483001409539239
0.0025,1.79984375,1.0,97.11655899342554,0.0277429254278519,1.3739352818818769,0.16457497555394585,0.28864643749999996,0.5541211892982185
0.003,1.7997750000000001,1.0,160.95587370812197,0.03319651886176078,1.37121442958997,0.21728053449512938,0.28864354999999997,0.5605862476536774
0.0035,1.79969375,1.0,237.6811968353283,0.03861952194823593,1.3685847999879444,0.27061296420134473,0.2886401375,0.5667896850058899
0.004,1.7996,1.0,321.4648223586978,0.04401210627532329,1.3661561440172854,0.3229158717699341,0.2886362,0.5724798411938552
0.0045000000000000005,1.7994937500000001,1.0,409.2659891859883,0.04937444247025689,1.3639228555181666,0.3730345720539202,0.2886317375,0.5776790664269886
0.005,1.799375,1.0,499.41190661168554,0.05470670019055948,1.3618583762947745,0.42024751978960195,0.28862675,0.5824570009735632
0.0055,1.79924375,1.0,590.7889569086276,0.06000904817143497,1.359938863567353,0.46417375236777925,0.2886212375,0.5868750462176098
0.006,1.7991000000000001,1.0,682.5167854397645,0.06528165416908727,1.3581464387939977,0.5046800115332981,0.2886152,0.5909793634540093
0.006500000000000001,1.79894375,1.0,773.8627917990887,0.07052468476798654,1.3564675688469499,0.5418009921195914,0.2886086375,0.5948050776796718
0.007,1.798775,1.0,864.2914221757896,0.07573830667216011,1.3548903043613367,0.5756767551124304,0.28860155,0.5983828822395337
0.0075,1.79859375,1.0,953.2565172727616,0.0809226840815345,1.3534065745954724,0.6065098203177304,0.2885939375,0.6017340339052768
0.008,1.7984,1.0,1040.358604879432,0.08607798094724613,1.3520086441319117,0.634532085614408,0.2885858,0.6048785537513175
0.0085,1.79819375,1.0,1125.3187678170602,0.0912043608350821,1.35068917722456,0.6599844270154113,0.2885771375,0.6078351434233457
0.009000000000000001,1.797975,1.0,1207.884139544428,0.0963019857912761,1.3494422542330058,0.6831043426973413,0.28856795,0.610618976264526
0.0095,1.79774375,1.0,1287.8739712235579,0.10137101704289729,1.3482623650954324,0.704117632984586,0.2885582375,0.6132440212313003
0.01,1.7975,1.0,1365.161795943843,0.10641161513525117,1.3471444527987086,0.7232342867657682,0.288548,0.615722987535348
0.0105,1.79724375,1.0,1439.6586461464653,0.11142393953021705,1.346083957063975,0.7406466885156028,0.2885372375,0.6180672661445812
0.011,1.796975,1.0,1511.3101516159868,0.11640814856070708,1.3450767009928417,0.7565292193369143,0.28852595000000003,0.6202872143874265
0.0115,1.79669375,1.0,1580.0952941352505,0.1213643996407914,1.3441187903050063,0.7710387683787774,0.2885141375,0.6223924048438111
0.012,1.7964,1.0,1646.0514078857116,0.12629285115064662,1.3432062305384316,0.7843156372471068,0.28850180000000003,0.6243924850752582
0.0125,1.79609375,1.0,1709.1750638999242,0.13119365785761838,1.342336022282284,0.7964853394820212,0.2884889375,0.6262947954334935
0.013000000000000001,1.7957750000000001,1.0,1769.4942834393703,0.13606697435865947,1.341505211281629,0.8076595651098708,0.28847555,0.6281064753427612
0.0135,1.79544375,1.0,1827.0691875649152,0.14091295525072253,1.3407108432815322,0.8179375774611031,0.2884616375,0.6298345703775101
0.014,1.7951000000000001,1.0,1881.9696664844703,0.14573175380644757,1.339950177235576,0.8274076376498242,0.2884472,0.631485577160397
0.0145,1.79474375,1.0,1934.2776704048972,0.15052352372878774,1.339220617325767,0.8361482156392227,0.2884322375,0.6330656019806299
0.015,1.794375,1.0,1984.048966873933,0.15528841544057245,1.338520086895272,0.8442292372061015,0.28841675,0.6345795623992905
0.0155,1.79399375,1.0,2031.357346854679,0.1600265793540525,1.3378465107345758,0.8517129059561195,0.2884007375,0.6360323188280361
0.016,1.7936,1.0,2076.2895115328224,0.16473816554213683,1.3371978521511776,0.8586546267093419,0.2883842,0.6374285985479355
0.0165,1.7931937500000001,1.0,2118.9345316724434,0.16942332334623708,1.3365722047813142,0.8651038382359393,0.2883671375,0.6387728028336896
0.017,1.792775,1.0,2159.3911922720267,0.17408220258745244,1.3359676977630444,0.8711046916475417,0.28834955,0.6400692157519123
0.0175,1.7923437500000001,1.0,2197.7257861154017,0.178714949170549,1.335382909858814,0.8766967864781293,0.2883314375,0.6413211217303403
0.018000000000000002,1.7919,1.0,2234.013965593245,0.1833217090002929,1.3348164198310686,0.8819155804614953,0.2883128,0.6425317761846481
0.0185,1.79144375,1.0,2268.3399658421827,0.1879026279814502,1.334266806442254,0.8867928732811599,0.2882936375,0.6437044072413798
0.019,1.790975,1.0,2300.788452627406,0.19245785109207195,1.3337327219155024,0.8913572479798818,0.28827395,0.6448420609785394
0.0195,1.79049375,1.0,2331.448846604917,0.1969875237390358,1.3332128402220422,0.8956344276874001,0.2882537375,0.6459477140024228
0.02,1.79,1.0,2360.4014678243966,0.20149178980752483,1.3327059858544135,0.8996476287249765,0.288233,0.6470240018387845
0.0205,1.78949375,1.0,2387.7101106434534,0.20597079036816607,1.3322111961829797,0.903417853563609,0.2882117375,0.6480730903401588
0.021,1.788975,1.0,2413.443005487191,0.21042466649158661,1.3317275085781053,0.9069640894608543,0.28818995000000003,0.6490971302696527
0.021500000000000002,1.78844375,1.0,2437.6724511399457,0.2148535592484135,1.3312539604101545,0.9103035294573999,0.2881676375,0.6500982580120784
0.022,1.7879,1.0,2460.4700867747006,0.21925760888317591,1.330789630989875,0.913451774794757,0.2881448,0.6510785077473926
0.0225,1.78734375,1.0,2481.9057772261253,0.2236369553355191,1.330333648172903,0.9164230064435837,0.28812143749999997,0.6520397987397348
0.023,1.786775,1.0,2502.0531979499588,0.22799173923447436,1.329885131566556,0.9192301241041082,0.28809755,0.6529840560309821
0.0235,1.78619375,1.0,2520.9645211610487,0.23232209655801594,1.3294434296263271,0.921884921229632,0.28807313749999996,0.6539127126149339
0.024,1.7856,1.0,2538.6940241146067,0.23662816328411823,1.3290078908077096,0.9243981578552963,0.2880482,0.6548271931959893
0.0245,1.78499375,1.0,2555.2979138208916,0.24091007539075554,1.328577863566196,0.9267796653833268,0.2880227375,0.6557289144587828
0.025,1.784375,1.0,2570.8341611718656,0.24516796885590222,1.3281526963572798,0.9290384394743875,0.28799675,0.6566192853107363
0.025500000000000002,1.78374375,1.0,2585.3540710263655,0.249401977705155,1.3277318149069801,0.9311827345513759,0.2879702375,0.657499545592401
0.026000000000000002,1.7831000000000001,1.0,2598.9145728314566,0.25361223811340317,1.3273146053429628,0.9332201183980828,0.2879432,0.6583710112537645
0.0265,1.78244375,1.0,2611.5693301336537,0.25779888476032453,1.3269004961493618,0.9351575496040525,0.2879156375,0.6592349031163939
0.027,1.781775,1.0,2623.3570219704798,0.261962048139539,1.326489065203731,0.9370014505517583,0.28788755,0.6600921246887559
0.0275,1.7810937500000001,1.0,2634.317213770649,0.2661018587446661,1.3260798903836248,0.9387577360894648,0.2878589375,0.6609435748960562
0.028,1.7804,1.0,2644.490281429756,0.2702184470693256,1.325672549566597,0.9404318603504442,0.2878298,0.6617901481466594
0.0285,1.77969375,1.0,2653.9173393369515,0.27431194360713723,1.325266620630202,0.9420288586864584,0.2878001375,0.6626327343871439
0.029,1.778975,1.0,2662.640172352158,0.2783824788517206,1.3248616814519931,0.9435533852784497,0.28776995,0.6634722191459941
0.029500000000000002,1.7782437500000001,1.0,2670.694731599637,0.2824301800784057,1.324457369088835,0.9450097538512937,0.2877392375,0.6643093611095392
0.03,1.7775,1.0,2678.1235631936843,0.28645517948328636,1.3240532647634817,0.9464019547943241,0.287708,0.6651450305999006
0.0305,1.77674375,1.0,2684.95703274764,0.2904576034763594,1.3236490658428628,0.947733701975024,0.2876762375,0.6659798538872521
0.031,1.775975,1.0,2691.22317589322,0.2944375770468702,1.3232444945081956,0.9490084458133059,0.28764395,0.6668144029660112
0.0315,1.7751937500000001,1.0,2696.95036126255,0.2983952251840641,1.322839272940697,0.9502293927519463,0.2876111375,0.6676492469614864
0.032,1.7744,1.0,2702.1672588654637,0.30233067287718646,1.322433123321584,0.9513995255240016,0.2875778,0.6684849521208169
0.0325,1.77359375,1.0,2706.9028101781,0.30624404511548264,1.3220257678320737,0.9525216215016395,0.2875439375,0.6693220817989903
0.033,1.772775,1.0,2711.184912735283,0.3101354658078928,1.321616940393063,0.953598270394737,0.28750955,0.6701611723603473
0.0335,1.7719437500000002,1.0,2715.036137560631,0.3140050539036671,1.3212064254124745,0.9546318926245938,0.2874746375,0.6710026539341214
0.034,1.7711000000000001,1.0,2718.493458376541,0.31785294307083733,1.32079387771394,0.955624737705968,0.2874392,0.6718472194555283
0.0345,1.7702437500000001,1.0,2721.57444041034,0.3216792520061398,1.3203791305139643,0.9565789238013075,0.2874032375,0.6726951936578962
0.035,1.7693750000000001,1.0,2724.296771964132,0.3254840994063109,1.3199620170290511,0.9574964322367884,0.28736675,0.6735468994218788
0.035500000000000004,1.76849375,1.0,2726.678251982028,0.3292676039680872,1.3195423704757057,0.9583791179267074,0.2873297375,0.6744026577511699
0.036000000000000004,1.7676,1.0,2728.736778233552,0.3330298843882049,1.3191200240704317,0.9592287188891497,0.2872922,0.6752627877464512
0.0365,1.76669375,1.0,2730.490336114144,0.33677105936340057,1.3186948110297338,0.9600468649415278,0.2872541375,0.6761276065775581
0.037,1.765775,1.0,2731.9569880620493,0.34049124759041055,1.3182665645701164,0.9608350856551024,0.28721555,0.6769974294538774
0.0375,1.76484375,1.0,2733.154863592235,0.34419056776597134,1.317835117908084,0.9615948176391897,0.2871764375,0.6778725695929666
0.038,1.7639,1.0,2734.1021499470166,0.3478691385868193,1.3174003042601408,0.9623274112183422,0.28713679999999997,0.6787533381874046
0.0385,1.76294375,1.0,2734.8131130603656,0.3515270766498725,1.3169619928962588,0.963034139538963,0.28709663750000003,0.679639971489898
0.039,1.761975,1.0,2735.30761669271,0.35516449738418177,1.3165200026164297,0.9637161961163307,0.28705595,0.6805328059429061
0.0395,1.7609937500000001,1.0,2735.595068894657,0.35878151501575734,1.3160742474670772,0.9643747137323134,0.2870147375,0.6814319836993649
0.04,1.76,1.0,2735.6841210506973,0.36237824362987997,1.315624648602884,0.96501076077646,0.286973,0.6823376313593943
0.0405,1.7589955007598177,1.0,2735.6705304584602,0.3659547973118303,1.315171127178533,0.9656253450118318,0.2869308110319123,0.6832498743399651
0.041,1.7579896165738602,1.0,2736.0167421519805,0.36951128864188,1.3147137136180704,0.9662194268560432,0.2868885638961021,0.6841686175405712
0.0415,1.7569837323879025,1.0,2736.7464823061987,0.37304783234735506,1.3142528186241367,0.9667939461494823,0.28684631676029193,0.6850930037843924
0.042,1.7559778482019448,1.0,2737.831655128566,0.37656453905238935,1.3137886985796077,0.9673497771421574,0.2868040696244817,0.6860224892975642
0.0425,1.754971964015987,1.0,2739.2444539996477,0.38006151931762033,1.313321607702661,0.9678877462349048,0.28676182248867144,0.6869565374573335
0.043000000000000003,1.7539660798300296,1.0,2740.957105592071,0.38353888370368555,1.3128518002114742,0.9684086352695536,0.28671957535286124,0.6878946144911986
0.043500000000000004,1.752960195644072,1.0,2742.941853842061,0.3869967427712225,1.312379530324225,0.9689131843870898,0.286677328217051,0.6888361895230122
0.044,1.7519543114581142,1.0,2745.1755915855942,0.39043520545317933,1.3119050101473384,0.9694020911056184,0.2866350810812408,0.6897808183832549
0.0445,1.7509484272721567,1.0,2747.6324831719667,0.3938543824899269,1.3114284764862976,0.9698760187505729,0.28659283394543056,0.690728010310662
0.045,1.749942543086199,1.0,2750.295407439623,0.3972543808808219,1.3109500870762112,0.9703355897925452,0.28655058680962037,0.6916774341431655
0.0455,1.7489366589002413,1.0,2753.1475281909816,0.40063530750071064,1.310469996987315,0.9707813947321631,0.2865083396738101,0.6926287658504355
0.046,1.7479307747142836,1.0,2756.171994180734,0.40399726922443957,1.3099883612898442,0.9712139942624871,0.28646609253799993,0.693581683242465
0.0465,1.7469248905283261,1.0,2759.351933534586,0.4073403729268551,1.309505335054034,0.9716339210635693,0.2864238454021897,0.6945358659856191
0.047,1.7459190063423684,1.0,2762.6804746765797,0.4106647178169515,1.3090209827666355,0.9720416738999633,0.2863815982663795,0.6954911741388481
0.0475,1.7449131221564107,1.0,2766.1292111501357,0.41397042148566054,1.3085355633113742,0.9724377434532528,0.28633935113056924,0.6964470860080771
0.048,1.7439072379704532,1.0,2769.6888477283246,0.4172575866350561,1.308049162558167,0.9728225824563415,0.28629710399475905,0.6974034229821813
0.0485,1.7429013537844955,1.0,2773.3513284679334,0.4205263149699974,1.3075618550423425,0.9731966210479595,0.2862548568589488,0.6983600297286772
0.049,1.7418954695985378,1.0,2777.1085813684585,0.4237767081953439,1.3070737152992298,0.9735602689759751,0.28621260972313856,0.6993167518250242
0.0495,1.7408895854125803,1.0,2780.952516935312,0.427008868015955,1.3065848178641573,0.9739139167522842,0.28617036258732836,0.70027343576276
0.05,1.7398837012266226,1.0,2784.8750268653066,0.43022289613669,1.3060952372724541,0.974257936732215,0.2861281154515182,0.7012299289512756
0.0505,1.738877817040665,1.0,2788.867982857042,0.43341889426240826,1.3056050480594488,0.9745926841240203,0.2860858683157079,0.7021860797212437
0.051000000000000004,1.7378719328547072,1.0,2792.923235542999,0.4365969640979691,1.3051143247604702,0.9749184979335737,0.2860436211798977,0.703141737327686
0.051500000000000004,1.7368660486687497,1.0,2797.032613545611,0.4397572073482319,1.304623141910847,0.9752357018489597,0.2860013740440875,0.7040967519526914
0.052000000000000005,1.735860164482792,1.0,2801.1900282625775,0.4428997216595534,1.3041315551532338,0.9755446034284687,0.2859591269082773,0.7050510113522817
0.0525,1.7348542802968343,1.0,2805.3919900016135,0.4460246029142712,1.3036395966744718,0.9758454949429765,0.28591687977246705,0.7060044493984824
0.053,1.7338483961108768,1.0,2809.6265810821424,0.44913196484650947,1.3031473740806552,0.9761386623902784,0.2858746326366568,0.706956854553582
0.0535,1.7328425119249191,1.0,2813.890999563363,0.45222190250155087,1.3026549130524139,0.9764243723303626,0.2858323855008466,0.7079081747615938
0.054,1.7318366277389614,1.0,2818.182435213036,0.45529451092467815,1.3021622392703782,0.9767028798489192,0.28579013836503636,0.7088583582879806
0.0545,1.7308307435530037,1.0,2822.498069379468,0.4583498851611741,1.3016693784151787,0.9769744291490376,0.28574789122922617,0.7098073537200247
0.055,1.7298248593670462,1.0,2826.8350748772523,0.46138812025632137,1.3011763561674459,0.9772392541076013,0.2857056440934159,0.710755109967155
0.0555,1.7288189751810885,1.0,2831.190615888432,0.4644093112554028,1.3006831982078098,0.9774975787987584,0.28566339695760573,0.711701576261234
0.056,1.7278130909951308,1.0,2835.561847877582,0.46741355320370115,1.3001899302169009,0.9777496179866818,0.2856211498217955,0.712646702156799
0.0565,1.7268072068091733,1.0,2839.9459175221837,0.4704009411464991,1.2996965778753498,0.9779955775896491,0.2855789026859853,0.713590437531264
0.057,1.7258013226232156,1.0,2844.3399626569867,0.4733715701290795,1.2992031668637867,0.978235655117342,0.28553665555017504,0.7145327325850799
0.0575,1.724795438437258,1.0,2848.741112233458,0.476325535196725,1.298709722862842,0.9784700400831103,0.2854944084143648,0.7154735378418501
0.058,1.7237895542513002,1.0,2853.146486293788,0.47926293139471837,1.298216271553146,0.9786989143928251,0.2854521612785546,0.7164128041484066
0.0585,1.7227836700653427,1.0,2857.554738726243,0.4821838441937682,1.2977228249099664,0.978922451136299,0.2854099141427444,0.7173505086977983
0.059000000000000004,1.721777785879385,1.0,2861.965421746964,0.48508836014552814,1.2972293868973848,0.9791408162426362,0.28536766700693417,0.7182866440197856
0.059500000000000004,1.7207719016934273,1.0,2866.3731181284443,0.4879765985074756,1.2967360055459545,0.9793541742560622,0.2853254198711239,0.7192211193004825
0.06,1.7197660175074698,1.0,2870.7771846829796,0.490848646578175,1.296242686425696,0.9795626784035011,0.28528317273531373,0.7201539245512971
0.0605,1.7187601333215121,1.0,2875.1769763179077,0.4937045916561908,1.2957494351066292,0.9797664760271426,0.28524092559950354,0.7210850498536663
0.061,1.7177542491355544,1.0,2879.571846044006,0.49654452104008745,1.2952562571587747,0.979965708856016,0.2851986784636933,0.7220144853590291
0.0615,1.7167483649495967,1.0,2883.961144984346,0.49936852202842924,1.2947631581521526,0.9801605132630264,0.28515643132788304,0.7229422212888045
0.062,1.7157424807636392,1.0,2888.344222383361,0.5021766819197807,1.2942701436567832,0.9803510205083388,0.28511418419207285,0.7238682479343629
0.0625,1.7147365965776815,1.0,2892.7204256169002,0.5049690880127062,1.2937772192426868,0.980537356969932,0.2850719370562626,0.7247925556569972
0.063,1.7137307123917238,1.0,2897.089100203592,0.5077458276057701,1.2932843904798836,0.9807196443620895,0.2850296899204524,0.7257151348878927
0.0635,1.7127248282057663,1.0,2901.449589815427,0.510506987997537,1.2927916629383938,0.9808979999425423,0.28498744278464216,0.7266359761280932
0.064,1.7117189440198086,1.0,2905.801236290864,0.5132526564865711,1.2922990421882379,0.9810725367089386,0.284945195648832,0.7275550699484654
0.0645,1.710713059833851,1.0,2910.1433796467268,0.515982920371437,1.2918065337994358,0.981243363585256,0.2849029485130217,0.7284724069896644
0.065,1.7097071756478932,1.0,2914.4753580926167,0.518697866950699,1.2913141433420081,0.981410585598749,0.28486070137721153,0.7293879779620918
0.0655,1.7087012914619357,1.0,2918.7965080444546,0.5213975835229214,1.2908218763859751,0.9815743040479715,0.2848184542414013,0.7303017736458566
0.066,1.707695407275978,1.0,2923.106164139796,0.524082157386669,1.2903297385013568,0.9817346166623886,0.28477620710559104,0.7312137848907327
0.0665,1.7066895230900203,1.0,2927.4036592532907,0.5267516758405059,1.2898377352581736,0.9818916177540576,0.28473395996978085,0.7321240026161125
0.067,1.7056836389040628,1.0,2931.6896454255407,0.5294061894613984,1.289345860641273,0.9820453953740338,0.28469171283397066,0.7330324391892888
0.0675,1.7046777547181051,1.0,2935.9631896301253,0.5320458167060265,1.288854122545914,0.9821960396840842,0.2846494656981604,0.7339390812762439
0.068,1.7036718705321474,1.0,2940.2236869376784,0.5346706561915935,1.2883625259720033,0.9823436363078877,0.28460721856235016,0.7348439209663449
0.0685,1.7026659863461897,1.0,2944.471128701183,0.5372807865074568,1.2878710706877217,0.9824882664290582,0.28456497142653997,0.7357469600162779
0.069,1.7016601021602322,1.0,2948.7055064828937,0.5398762862429738,1.2873797564612495,0.9826300085048215,0.2845227242907298,0.7366482001794419
0.0695,1.7006542179742745,1.0,2952.926812053717,0.5424572339875016,1.286888583060767,0.9827689383764752,0.28448047715491953,0.7375476432059482
0.07,1.6996483337883168,1.0,2957.1350373925193,0.5450237083303976,1.2863975502544553,0.9829051293746458,0.2844382300191093,0.7384452908426236
0.07050000000000001,1.6986424496023593,1.0,2961.3301746855745,0.5475757878610189,1.2859066578104945,0.9830386524196274,0.2843959828832991,0.7393411448330127
0.07100000000000001,1.6976365654164016,1.0,2965.5122163252595,0.5501135511687231,1.2854159054970649,0.9831695761170556,0.28435373574748884,0.7402352069173805
0.07150000000000001,1.696630681230444,1.0,2969.6811549100557,0.5526370768428672,1.2849252930823474,0.9832979668491709,0.28431148861167865,0.7411274788327119
0.07200000000000001,1.6956247970444862,1.0,2973.8369832431417,0.5551464434728087,1.2844348203345222,0.9834238888618978,0.2842692414758684,0.7420179623127172
