Time [s],Phi [rad],STIM [ ],Fsee [N],Gamma [ ],Lcerel [ ],q [ ],Lmtc [m],fisomrel [ ]
0.0,1.8,1.0,19.292155379599006,0.0011750231127951492,1.3791939425011073,0.005354134410776073,0.288653,0.5414922001609278
0.0005,1.79999375,1.0,19.937462544816427,0.0067776414711527445,1.3791219246334911,0.016488372279247723,0.2886527375,0.5416663464993542
0.001,1.799975,1.0,24.1488035578757,0.012348833570418593,1.3786870068125234,0.04193451525695442,0.28865195,0.5427173178296296
0.0015,1.79994375,1.0,35.59888328129333,0.017888775687120776,1.377673418498918,0.07909217511399179,0.2886506375,0.5451619545897362
0.002,1.7999,1.0,62.001786188929565,0.023397643108966235,1.3758418444157734,0.12466498856051772,0.2886488,0.5495628443435893
0.0025,1.79984375,1.0,110.15099142734788,0.028875610140321993,1.3733269454098171,0.17532758835657486,0.28864643749999996,0.5555707647671411
0.003,1.7997750000000001,1.0,177.22061871217468,0.03432285010814198,1.3706202693164329,0.2283283506093904,0.28864354999999997,0.5619917601142053
0.0035,1.79969375,1.0,255.6857093938964,0.03973953536566295,1.3680403336063063,0.2815693426724207,0.2886401375,0.5680685996140267
0.004,1.7996,1.0,340.402205390562,0.04512583729881246,1.3656617406480724,0.3335019772606151,0.2886362,0.5736335823540237
0.0045000000000000005,1.7994937500000001,1.0,428.73244985303216,0.05048192634908549,1.3634712106625897,0.38306781372211707,0.2886317375,0.5787266550365795
0.005,1.799375,1.0,519.1586543443431,0.05580797193872626,1.3614428267601435,0.4296238698412985,0.28862675,0.5834154431876177
0.0055,1.79924375,1.0,610.6408397938537,0.06110414270323387,1.3595542100533353,0.4728477034245529,0.2886212375,0.5877575575029401
0.006,1.7991000000000001,1.0,702.3077311289454,0.06637060603950949,1.3577892624894914,0.512647145982432,0.2886152,0.5917947820383478
0.006500000000000001,1.79894375,1.0,793.498906186638,0.07160752876225587,1.3561344633224184,0.5490828617454021,0.2886086375,0.595562002659608
0.007,1.798775,1.0,883.6226656532248,0.07681507641339101,1.3545797706414564,0.582311660656468,0.28860155,0.5990854153439163
0.0075,1.79859375,1.0,972.2231993134221,0.08199341390495601,1.3531162862946964,0.6125437106177496,0.2885939375,0.602388036841333
0.008,1.7984,1.0,1058.9155172515636,0.08714270503146727,1.3517366385860659,0.64001434429458,0.2885858,0.6054889575133141
0.0085,1.79819375,1.0,1143.3926336958766,0.09226311245582049,1.3504343374279881,0.6649649317537366,0.2885771375,0.6084048952532111
0.009000000000000001,1.797975,1.0,1225.4461604047583,0.09735479876815058,1.3492031544618923,0.6876308152107202,0.28856795,0.6111516483222698
0.0095,1.79774375,1.0,1304.89751684542,0.10241792485033634,1.348037836006555,0.7082348690470668,0.2885582375,0.6137425532776605
0.01,1.7975,1.0,1381.6153662806144,0.10745265048252861,1.3469336129179157,0.7269836256882941,0.288548,0.6161896308281947
0.0105,1.79724375,1.0,1455.5276347330614,0.11245913501533117,1.3458858887528131,0.7440656715596085,0.2885372375,0.6185043111022851
0.011,1.796975,1.0,1526.610892993,0.11743753772656165,1.3448902657613588,0.7596515724635313,0.28852595000000003,0.6206973998184289
0.0115,1.79669375,1.0,1594.8377055232086,0.12238801561740621,1.343943076942345,0.7738948130224614,0.2885141375,0.6227779331104341
0.012,1.7964,1.0,1660.2042620878176,0.12731072483703423,1.343040928128068,0.7869326947375753,0.28850180000000003,0.6247542143782963
0.0125,1.79609375,1.0,1722.7432099557293,0.13220582125972194,1.342180477565045,0.7988875913853144,0.2884889375,0.6266343136905541
0.013000000000000001,1.7957750000000001,1.0,1782.5106253633382,0.13707346040988552,1.3413585365592975,0.8098684169097323,0.28847555,0.6284258594327001
0.0135,1.79544375,1.0,1839.5596958405417,0.14191379645047647,1.340572311429699,0.8199721084005492,0.2884616375,0.6301355251512504
0.014,1.7951000000000001,1.0,1893.9382957140474,0.1467269816779629,1.3398193685340043,0.8292849093655694,0.2884472,0.6317691223506077
0.0145,1.79474375,1.0,1945.7177119376383,0.15151316838881287,1.3390972742299672,0.8378834456265977,0.2884322375,0.6333323935261685
0.015,1.794375,1.0,1994.9736116901722,0.15627250784714727,1.33840377559539,0.8458358987175643,0.28841675,0.6348306271134725
0.0155,1.79399375,1.0,2041.8077671304216,0.1610051523384353,1.3377365416823757,0.8532029110651449,0.2884007375,0.6362692232539189
0.016,1.7936,1.0,2086.2906196992626,0.16571125075501775,1.337093747649366,0.860038656480839,0.2883842,0.6376524403562038
0.0165,1.7931937500000001,1.0,2128.4941418285284,0.17039095115362665,1.336473694902324,0.8663914852750101,0.2883671375,0.6389842239756947
0.017,1.792775,1.0,2168.502462617513,0.175044401590994,1.3358746848472123,0.8723045762332179,0.28834955,0.6402684823940874
0.0175,1.7923437500000001,1.0,2206.404254069954,0.1796717494149507,1.3352950853794467,0.8778165652187957,0.2883314375,0.6415089468124666
0.018000000000000002,1.7919,1.0,2242.29238736224,0.18427314214741572,1.3347333219002235,0.8829620762409652,0.2883128,0.6427091939082951
0.0185,1.79144375,1.0,2276.249191066031,0.1888487256644094,1.3341880131641681,0.8877722217697713,0.2882936375,0.6438723592391129
0.019,1.790975,1.0,2308.3437867524,0.1933986435034871,1.3336579830308082,0.8922750082468073,0.28827395,0.6450011172187913
0.0195,1.79049375,1.0,2338.651640697133,0.1979230392022039,1.333142055359671,0.8964956414166384,0.2882537375,0.6460981216541262
0.02,1.79,1.0,2367.254033590855,0.2024220562981151,1.332639054010284,0.9004568436518037,0.288233,0.6471660068467584
0.0205,1.78949375,1.0,2394.223640904504,0.20689583640372772,1.3321479379386683,0.9041791612771348,0.2882117375,0.6482071024333246
0.021,1.788975,1.0,2419.651632183134,0.2113445239979036,1.3316675314918047,0.9076811485946749,0.28818995000000003,0.6492240068690458
0.021500000000000002,1.78844375,1.0,2443.6017434688383,0.21576825891551218,1.3311969651530964,0.9109796751298768,0.2881676375,0.6502186552084779
0.022,1.7879,1.0,2466.133198430419,0.2201671798051648,1.3307354454036902,0.9140900598711702,0.2881448,0.6511928098010928
0.0225,1.78734375,1.0,2487.3082292924555,0.2245414253154729,1.3302821787247332,0.9170262215897506,0.28812143749999997,0.6521482219924853
0.023,1.786775,1.0,2507.1918253362637,0.22889113409504785,1.329836371597373,0.9198008262104661,0.28809755,0.6530866325621165
0.0235,1.78619375,1.0,2525.8469383467636,0.2332164439545848,1.3293972735617738,0.9224254245165627,0.28807313749999996,0.6540096816647638
0.024,1.7856,1.0,2543.3337785377585,0.23751749203302927,1.328964180999864,0.9249105669208314,0.2880482,0.654918901846584
0.0245,1.78499375,1.0,2559.723840742998,0.24179441710402444,1.3285363028605357,0.9272658817462575,0.2880227375,0.6558160003275841
0.025,1.784375,1.0,2575.061752836094,0.24604735254695423,1.3281131173454745,0.9295002254942067,0.28799675,0.6567021116895244
0.025500000000000002,1.78374375,1.0,2589.3935432742883,0.2502764317412025,1.3276941026563667,0.9316217148631354,0.2879702375,0.6575783644267814
0.026000000000000002,1.7831000000000001,1.0,2602.7665245185854,0.2544817880661532,1.3272787369948982,0.9336377985795321,0.2879432,0.6584458810938274
0.0265,1.78244375,1.0,2615.2291824901135,0.2586635549011902,1.3268664985627547,0.935555321378685,0.2879156375,0.6593057784353464
0.027,1.781775,1.0,2626.830278053889,0.2628218652980347,1.3264568729185635,0.9373805820688065,0.28788755,0.660159152181865
0.0275,1.7810937500000001,1.0,2637.6122507781242,0.26695684930552704,1.3260494129847993,0.9391193922990073,0.2878589375,0.6610069524625887
0.028,1.7804,1.0,2647.6285092482376,0.27106864260274366,1.325643577993925,0.9407771010356646,0.2878298,0.6618503192325078
0.0285,1.77969375,1.0,2656.9127049576246,0.2751573730931161,1.3252390166929005,0.9423586720546282,0.2878001375,0.6626899936882501
0.029,1.778975,1.0,2665.4990855429296,0.2792231686800761,1.3248353778286854,0.9438686943313982,0.28776995,0.663526713363824
0.029500000000000002,1.7782437500000001,1.0,2673.4224422691586,0.2832661572670551,1.3244323101482396,0.9453114151719324,0.2877392375,0.6643612121552184
0.03,1.7775,1.0,2680.7180602499952,0.2872864667574848,1.324029462398522,0.946690770019486,0.287708,0.6651942203371326
0.0305,1.77674375,1.0,2687.4216714040913,0.29128422505479695,1.3236264833264928,0.9480104093071472,0.2876762375,0.6660264645718345
0.031,1.775975,1.0,2693.560835558016,0.2952595558863807,1.323223100137056,0.9492737313002296,0.28764395,0.6668585061791794
0.0315,1.7751937500000001,1.0,2699.169881111906,0.29921258832271336,1.3228189811390176,0.9504838890106407,0.2876111375,0.6676910249246384
0.032,1.7744,1.0,2704.2873492084764,0.30314345287802785,1.3224137590809193,0.9516438122170456,0.2875778,0.6685247702656598
0.0325,1.77359375,1.0,2708.935002824085,0.30705227102553184,1.3220072225077009,0.9527562455015026,0.2875439375,0.6693601678982016
0.033,1.772775,1.0,2713.1348133969054,0.3109391642384328,1.3215991599643027,0.9538237473806348,0.28750955,0.6701976412954556
0.0335,1.7719437500000002,1.0,2716.9089410196298,0.3148042539899385,1.3211893599956648,0.9548487051521628,0.2874746375,0.6710376116886967
0.034,1.7711000000000001,1.0,2720.2797156230736,0.31864766175325643,1.3207776111467273,0.9558333483887755,0.2874392,0.6718804980452775
0.0345,1.7702437500000001,1.0,2723.269619151402,0.3224695090015942,1.3203637019624308,0.9567797612168646,0.2874032375,0.6727267170437717
0.035,1.7693750000000001,1.0,2725.9012687286195,0.32626991720815957,1.319947420987715,0.9576898935023145,0.28736675,0.6735766830462689
0.035500000000000004,1.76849375,1.0,2728.1974008162842,0.3300490078461599,1.3195285567675203,0.9585655710520566,0.2873297375,0.674430808067811
0.036000000000000004,1.7676,1.0,2730.1783850736742,0.33380690004341884,1.319106920307076,0.9594085066992569,0.2872922,0.6752894560335889
0.0365,1.76669375,1.0,2731.861049006227,0.33754371102196107,1.3186823555901441,0.9602203098426713,0.2872541375,0.676152921669378
0.037,1.765775,1.0,2733.2705191421783,0.34125956740129865,1.3182546318732098,0.9610024857755326,0.28721555,0.6770216495256624
0.0375,1.76484375,1.0,2734.4196375222577,0.3449545838434776,1.3178236306089808,0.9617564569070244,0.2871764375,0.6778958540386675
0.038,1.7639,1.0,2735.321295720836,0.3486288750105441,1.3173892332501644,0.962483560411897,0.28713679999999997,0.6787757481405381
0.0385,1.76294375,1.0,2735.988428779143,0.3522825555645443,1.3169513212494681,0.9631850542690901,0.28709663750000003,0.6796615432341087
0.039,1.761975,1.0,2736.434009449018,0.35591574016752425,1.3165097760595992,0.963862122809389,0.28705595,0.6805534491667806
0.0395,1.7609937500000001,1.0,2736.671042749693,0.3595285434815301,1.316064479133265,0.964515881816887,0.2870147375,0.6814516742035011
0.04,1.76,1.0,2736.7125608347187,0.36312108016860806,1.315615311923173,0.9651473832245393,0.286973,0.6823564249988463
0.0405,1.7589937500000001,1.0,2736.5716181715566,0.3666934648908042,1.3151621558820308,0.9657576194400688,0.2869307375,0.6832679065682097
0.041,1.757975,1.0,2736.261287032039,0.3702458123101646,1.3147048924625457,0.9663475273349103,0.28688795,0.6841863222580916
0.0415,1.75694375,1.0,2735.768274346524,0.3737782206335301,1.3142436426166737,0.9669180094717876,0.2868446375,0.6851113937340697
0.042,1.7559,1.0,2735.1447115866213,0.37729082426632793,1.313777933424414,0.9674698753047226,0.28680079999999997,0.6860440321935716
0.0425,1.75484375,1.0,2734.398092681361,0.38078373263661874,1.3133076972353235,0.9680039198577881,0.2867564375,0.6869843330774836
0.043000000000000003,1.753775,1.0,2733.5320279533444,0.384257052928661,1.3128329017151408,0.9685208980628749,0.28671155,0.687932320167363
0.043500000000000004,1.75269375,1.0,2732.5501334703918,0.38771089232671335,1.3123535145296041,0.9690215248200104,0.28666613750000003,0.6888880164572844
0.044,1.7516,1.0,2731.4560302776854,0.39114535801503425,1.3118695033444516,0.9695064775161931,0.2866202,0.6898514441444039
0.0445,1.75049375,1.0,2730.2533436549616,0.3945605571778824,1.3113808358254213,0.9699763983617322,0.2865737375,0.690822624619458
0.045,1.7493750000000001,1.0,2728.9457023954064,0.3979565969995162,1.310887479638252,0.970431896558979,0.28652675,0.6918015784571923
0.0455,1.74824375,1.0,2727.536738108621,0.4013335846641943,1.310389402448681,0.9708735503169955,0.2864792375,0.6927883254067306
0.046,1.7471,1.0,2726.03008454647,0.40469162735617514,1.3098865719224477,0.9713019087244903,0.2864312,0.6937828843818674
0.0465,1.7459437500000001,1.0,2724.4293769522033,0.4080308322597174,1.3093789557252895,0.9717174934922587,0.28638263750000004,0.6947852734513054
0.047,1.7447780306558478,1.0,2722.888643361207,0.41135130655907953,1.3088665215229451,0.9721208005753781,0.2863336772875456,0.695795509828814
0.0475,1.7436117350453266,1.0,2721.8525956862272,0.41465315743852016,1.3083492369811525,0.9725123016845145,0.2862846928719037,0.6968136098633325
0.048,1.7424454394348052,1.0,2721.3466410564142,0.4179364850914638,1.3078271284410263,0.9728924489443833,0.2862357084562618,0.6978394738384945
0.0485,1.7412791438242838,1.0,2721.267901032157,0.42120139979612714,1.3073011310879596,0.9732617371775983,0.2861867240406199,0.6988712207654995
0.049,1.7401128482137624,1.0,2721.5814208789475,0.4244480044152381,1.3067715629393688,0.9736205942606921,0.286137739624978,0.6999081893231407
0.0495,1.738946552603241,1.0,2722.262397138328,0.4276763995172417,1.306238650365268,0.973969421434077,0.28608875520933613,0.7009499012195761
0.05,1.7377802569927199,1.0,2723.2860917763987,0.4308866856705827,1.3057026197356718,0.9743086012471787,0.28603977079369425,0.7019958810164134
0.0505,1.7366139613821985,1.0,2724.627815966402,0.4340789634437061,1.3051636974205938,0.9746384986028857,0.2859907863780523,0.703045656175358
0.051000000000000004,1.735447665771677,1.0,2726.262915007315,0.43725333340505684,1.3046221097900481,0.9749594617347881,0.2859418019624104,0.704098757101594
0.051500000000000004,1.7342813701611557,1.0,2728.1667543786575,0.4404098961230799,1.3040780832140488,0.9752718231220744,0.28589281754676854,0.7051547171838968
0.052000000000000005,1.7331150745506343,1.0,2730.3147069313045,0.4435487521662201,1.3035318440626105,0.97557590034657,0.28584383313112666,0.7062130728314768
0.0525,1.7319487789401131,1.0,2732.6821412149056,0.4466700021029224,1.3029836187057466,0.9758719968960434,0.2857948487154848,0.7072733635075598
0.053,1.7307824833295917,1.0,2735.254433403025,0.4497737412663199,1.3024335425088724,0.9761603967081753,0.28574586429984283,0.7083353072880549
0.0535,1.7296161877190703,1.0,2738.0066646568703,0.45286007372904385,1.301881844232314,0.9764413780171707,0.28569687988420095,0.7093984442694419
0.054,1.728449892108549,1.0,2740.922524128151,0.45592909785971614,1.3013286742711132,0.9767152017021973,0.28564789546855907,0.7104624683099916
0.0545,1.7272835964980275,1.0,2743.99119911759,0.45898090867004326,1.300774132996387,0.9769821141601409,0.2855989110529171,0.711527171301887
0.055,1.7261173008875064,1.0,2747.2018652963825,0.46201560117173174,1.3002183207792517,0.9772423513730982,0.2855499266372753,0.712592346519408
0.0555,1.724951005276985,1.0,2750.543683765856,0.46503327037648795,1.299661337990824,0.9774961394377973,0.28550094222163336,0.7136577886273889
0.056,1.7237847096664636,1.0,2754.005798341316,0.46803401129601846,1.2991032850022204,0.9777436950639221,0.2854519578059915,0.7147232936890323
0.0565,1.7226184140559422,1.0,2757.5773330584375,0.4710179189420297,1.2985442621845573,0.9779852260434067,0.2854029733903496,0.7157886591730813
0.057,1.7214521184454208,1.0,2761.2473899032416,0.47398508832622815,1.297984369908951,0.9782209316926077,0.28535398897470765,0.716853683960349
0.0575,1.7202858228348996,1.0,2765.0050467659744,0.4769356144603203,1.2974237085465186,0.9784510032691364,0.28530500455906577,0.7179181683496033
0.058,1.7191195272243782,1.0,2768.8452042915656,0.4798695849786101,1.2968623256851783,0.9786756207659457,0.2852560201434239,0.7189820139948568
0.0585,1.7179532316138568,1.0,2772.755740079875,0.4827871000158922,1.296300332150435,0.9788949616145111,0.285207035727782,0.720045003723029
0.059000000000000004,1.7167869360033354,1.0,2776.7270069652736,0.4856882561776493,1.2957378161738065,0.97910919470745,0.2851580513121401,0.7211069645559562
0.059500000000000004,1.715620640392814,1.0,2780.7547649871317,0.48857314259934004,1.2951748170584656,0.9793184790544539,0.2851090668964982,0.7221678168829764
0.06,1.7144543447822929,1.0,2784.834763177473,0.491441848416423,1.2946113741075858,0.9795229675142172,0.2850600824808563,0.7232274816531893
0.0605,1.7132880491717715,1.0,2788.9627391569543,0.49429446276435696,1.2940475266243396,0.9797228070810522,0.2850110980652144,0.7242858803766208
0.061,1.71212175356125,1.0,2793.1344187651907,0.49713107477860047,1.2934833139119006,0.9799181391560335,0.28496211364957247,0.7253429351252831
0.0615,1.7109554579507287,1.0,2797.3455157257026,0.49995177359461224,1.2929187752734415,0.9801090998036173,0.2849131292339306,0.7263985685341425
0.062,1.7097891623402073,1.0,2801.591731344309,0.5027566483478508,1.2923539500121355,0.9802958199946196,0.2848641448182887,0.7274527038019827
0.0625,1.708622866729686,1.0,2805.868754242602,0.505545788173775,1.2917888774311554,0.9804784258363752,0.2848151604026468,0.7285052646921752
0.063,1.7074565711191647,1.0,2810.17226012517,0.5083192822078434,1.2912235968336745,0.9806570387908436,0.28476617598700493,0.7295561755333464
0.0635,1.7062902755086433,1.0,2814.497911581045,0.5110772195855147,1.2906581475228656,0.9808317758813795,0.284717191571363,0.7306053612199495
0.064,1.705123979898122,1.0,2818.843957193017,0.5138196799004421,1.2900925455529244,0.981002748030088,0.2846682071557211,0.7316527902252057
0.0645,1.7039576842876005,1.0,2823.20762105924,0.5165467517990676,1.2895268160863758,0.9811700632788889,0.2846192227400792,0.7326984144352231
0.065,1.7027913886770794,1.0,2827.5825056731715,0.5192585379180399,1.2889610165521217,0.9813338283915654,0.28457023832443734,0.7337421266363663
0.0655,1.701625093066558,1.0,2831.9673298681005,0.5219551206126752,1.2883951585454154,0.9814941426809273,0.28452125390879546,0.7347839047435099
0.066,1.7004587974560366,1.0,2836.3608084779535,0.5246365822382901,1.28782925366151,0.9816511019750344,0.2844722694931535,0.7358237268388335
0.0665,1.6992925018455152,1.0,2840.761652324153,0.527303005150201,1.287263313495658,0.9818047987647699,0.28442328507751163,0.7368615711718602
0.067,1.6981262062349938,1.0,2845.1685682045577,0.5299544717037242,1.2866973496431124,0.9819553223441624,0.28437430066186975,0.7378974161594865
0.0675,1.6969599106244724,1.0,2849.5802588859474,0.5325910642541761,1.2861313736991264,0.9821027589438546,0.2843253162462278,0.738931240386004
0.068,1.6957936150139512,1.0,2853.9954230999924,0.5352128651568733,1.2855653972589527,0.9822471918581052,0.284276331830586,0.739963022603114
0.0685,1.6946273194034298,1.0,2858.4127555406,0.5378199567671319,1.2849994319178444,0.9823887015656765,0.28422734741494404,0.7409927417299298
0.069,1.6934610237929084,1.0,2862.8309468664133,0.5404124214402685,1.2844334892710543,0.9825273658449426,0.28417836299930216,0.7420203768529753
0.0695,1.692294728182387,1.0,2867.2486837043866,0.5429903415315994,1.2838675809138353,0.9826632598835351,0.2841293785836603,0.7430459072261708
0.07,1.6911284325718658,1.0,2871.664648657244,0.5455537993964411,1.2833017184414406,0.9827964563828172,0.28408039416801834,0.7440693122708122
0.07050000000000001,1.6899621369613445,1.0,2876.077520314153,0.54810287739011,1.282735913449123,0.9829270256574656,0.28403140975237645,0.7450905715755423
0.07100000000000001,1.688795841350823,1.0,2880.4859732635414,0.5506376578679225,1.2821701775321352,0.9830550357304217,0.28398242533673457,0.7461096648963115
0.07150000000000001,1.6876295457403017,1.0,2884.8887899234223,0.5531582215808436,1.281604521297136,0.9831805522835513,0.2839334409210927,0.7471265739317947
0.07200000000000001,1.6864632501297803,1.0,2889.2875898656616,0.5556646159626771,1.281038930253343,0.9833036358101845,0.2838844565054508,0.7481413255167624
0.0725,1.685296954519259,1.0,2893.678735070535,0.5581569688024187,1.2804734363683563,0.9834243516287391,0.28383547208980886,0.7491538631751453
