Time [s],Phi [rad],STIM [ ],Fsee [N],Gamma [ ],Lcerel [ ],q [ ],Lmtc [m],fisomrel [ ]
0.0,1.8,1.0,17.969936762762313,5.665698046799368e-05,1.3793394349361707,0.005000843894520857,0.288653,0.5411402841272535
0.0005,1.79999375,1.0,18.29482519704356,0.005665548488422555,1.3793003798331838,0.013070550702645067,0.2886527375,0.5412347635790897
0.001,1.799975,1.0,21.67115684438254,0.011242978549710748,1.3789329151806318,0.03585211529064633,0.28865195,0.5421232327573602
0.0015,1.79994375,1.0,31.195941590992227,0.016789123639075487,1.378035419831522,0.07093481585480339,0.2886506375,0.5442896089056282
0.002,1.7999,1.0,53.856548937174544,0.022304159239535323,1.376350368220975,0.11511218618888892,0.2886488,0.5483431133288792
0.0025,1.79984375,1.0,97.58049045048831,0.02778825985027108,1.3739129524938771,0.16500360054696425,0.28864643749999996,0.5541744386393864
0.003,1.7997750000000001,1.0,161.55926055460304,0.03324159899390923,1.3711918652125679,0.21772267846996335,0.28864354999999997,0.5606396658163739
0.0035,1.79969375,1.0,238.36278369092778,0.03866434921645885,1.3685638202453863,0.27105269788247754,0.2886401375,0.5668390000195365
0.004,1.7996,1.0,322.18981984549083,0.0440566820979998,1.3661369523594116,0.3233416359651586,0.2886362,0.5725246559852104
0.0045000000000000005,1.7994937500000001,1.0,410.01661393006736,0.0494187682578945,1.3639052435281085,0.3734387217644168,0.2886317375,0.5777199417498344
0.005,1.799375,1.0,500.17770715316357,0.05475077734611587,1.3618421093044117,0.42062562381972146,0.28862675,0.5824945406062951
0.0055,1.79924375,1.0,591.5614487176017,0.06005287808815806,1.3599237758624974,0.4645238128196655,0.2886212375,0.5869096797477129
0.006,1.7991000000000001,1.0,683.290163701318,0.06532523823437299,1.3581323848022284,0.5050017104317205,0.2886152,0.5910114635072341
0.006500000000000001,1.79894375,1.0,774.651514781785,0.07056802461335414,1.3564541080964383,0.5420949148201047,0.2886086375,0.5948356786389435
0.007,1.798775,1.0,865.0472914787148,0.0757814030973291,1.3548780973580186,0.5759448421006107,0.28860155,0.5984105102536758
0.0075,1.79859375,1.0,953.9915569619053,0.08096553860268409,1.3533952711828552,0.6067537215226991,0.2885939375,0.6017595099030493
0.008,1.7984,1.0,1041.0960058671974,0.08612059538171109,1.3519977893119335,0.6347535439428419,0.2885858,0.6049029219372184
0.0085,1.79819375,1.0,1126.033024300074,0.09124673618006868,1.3506790676031746,0.66018564819628,0.2885771375,0.6078577536510463
0.009000000000000001,1.797975,1.0,1208.571320231488,0.0963441232012018,1.3494328659985189,0.6832872615250353,0.28856795,0.6106398984695829
0.0095,1.79774375,1.0,1288.5512720735608,0.10141291846938076,1.3482534037085436,0.7042839201385891,0.2885582375,0.6132639247621625
0.01,1.7975,1.0,1365.8187567632115,0.10645328159780218,1.3471360100756307,0.7233856819509031,0.288548,0.615741678918277
0.0105,1.79724375,1.0,1440.2864355872719,0.11146537200052727,1.3460761006513995,0.7407847606457962,0.2885372375,0.6180846063709261
0.011,1.796975,1.0,1511.913479824608,0.11644934838580082,1.345069331783865,0.756655303590685,0.28852595000000003,0.6203034319586638
0.0115,1.79669375,1.0,1580.6957700927612,0.12140536928500786,1.3441116173169654,0.7711539771355157,0.2885141375,0.6224081467713725
0.012,1.7964,1.0,1646.6185908114435,0.12633359065656505,1.3431995923217745,0.7844212357714895,0.28850180000000003,0.6244070147645655
0.0125,1.79609375,1.0,1709.7035787801474,0.1312341682312947,1.342329951876069,0.7965823265348252,0.2884889375,0.6263080486241337
0.013000000000000001,1.7957750000000001,1.0,1769.994159687189,0.13610725706036697,1.3414995684820028,0.8077487591694095,0.28847555,0.6281187650720851
0.0135,1.79544375,1.0,1827.5624875012593,0.1409530125560653,1.3407053631418366,0.818019659209457,0.2884616375,0.6298464780815983
0.014,1.7951000000000001,1.0,1882.459386903709,0.14577158743637714,1.3399448167882704,0.8274832939941472,0.2884472,0.6314971987844047
0.0145,1.79474375,1.0,1934.7406622642336,0.15056313344299255,1.339215618415536,0.8362181554811422,0.2884322375,0.6330764165273135
0.015,1.794375,1.0,1984.4832591152524,0.15532780231760154,1.338515457017865,0.8442940123637361,0.28841675,0.6345895579081187
0.0155,1.79399375,1.0,2031.7661205335858,0.16006574480998187,1.3378422039287652,0.8517729903542746,0.2884007375,0.6360415983563605
0.016,1.7936,1.0,2076.692352026442,0.16477711226021105,1.3371936540250857,0.8587103910398546,0.2883842,0.6374376265472284
0.0165,1.7931937500000001,1.0,2119.3337248783237,0.16946205283608062,1.3365680867343352,0.8651556684910593,0.2883671375,0.6387816421938425
0.017,1.792775,1.0,2159.764313626431,0.17412071407251503,1.335963884883712,0.8711530043859907,0.28834955,0.6400773853757775
0.0175,1.7923437500000001,1.0,2198.0691982501903,0.17875324350443877,1.3353794313004137,0.8767419008795317,0.2883314375,0.64132856205552
0.018000000000000002,1.7919,1.0,2234.3330505119375,0.18335978760297192,1.3348132140400526,0.8819577583915891,0.2883128,0.6425386215056439
0.0185,1.79144375,1.0,2268.65104591347,0.1879404937859526,1.3342637048078414,0.8868323232228689,0.2882936375,0.6437110192861488
0.019,1.790975,1.0,2301.0975638934747,0.19249550631597692,1.3337296617192334,0.8913941835215624,0.28827395,0.644848574262647
0.0195,1.79049375,1.0,2331.743915651765,0.19702496835448138,1.3332099383093248,0.8956690830608607,0.2882537375,0.6459538807777296
0.02,1.79,1.0,2360.6672425429724,0.20152902306290255,1.3327033881132124,0.8996802214569956,0.288233,0.6470295138328735
0.0205,1.78949375,1.0,2387.9479934355986,0.20600781327056952,1.3322088843908033,0.9034485440888573,0.2882117375,0.6480779883029908
0.021,1.788975,1.0,2413.6585837677253,0.21046148038397927,1.3317254247391128,0.9069930143726053,0.28818995000000003,0.6491015388445638
0.021500000000000002,1.78844375,1.0,2437.884830182565,0.2148901680970835,1.3312519177227873,0.9103307869002802,0.2881676375,0.6501025733577033
0.022,1.7879,1.0,2460.6841542663255,0.2192940147276582,1.3307875816234935,0.9134774812482267,0.2881448,0.6510828311341856
0.0225,1.78734375,1.0,2482.1170071085166,0.2236731585934793,1.3303316347228988,0.9164472848891492,0.28812143749999997,0.6520440405015859
0.023,1.786775,1.0,2502.246619285454,0.22802773801232282,1.32988329530267,0.9192531043152444,0.28809755,0.6529879192610057
0.0235,1.78619375,1.0,2521.13876439296,0.23235789130196466,1.3294417816444746,0.921906698430499,0.28807313749999996,0.6539161750858238
0.024,1.7856,1.0,2538.8520613128,0.2366637545298647,1.32900640132742,0.9244188115437311,0.2880482,0.6548303185126932
0.0245,1.78499375,1.0,2555.452242793799,0.24094546703307612,1.3285764137681286,0.9267992542509914,0.2880227375,0.6557319525359552
0.025,1.784375,1.0,2570.99247596375,0.24520316433330752,1.3281512136167621,0.9290570249486263,0.28799675,0.6566223883987441
0.025500000000000002,1.78374375,1.0,2585.5182569412086,0.24943697941054413,1.3277302815037784,0.9312003816278681,0.2879702375,0.6575027505913718
0.026000000000000002,1.7831000000000001,1.0,2599.076384665112,0.2536470452447712,1.3273130980596348,0.9332369006817091,0.2879432,0.6583741576486093
0.0265,1.78244375,1.0,2611.714849731825,0.25783349481597406,1.3268991439147892,0.9351735423655311,0.2879156375,0.659237722282455
0.027,1.781775,1.0,2623.4827292143077,0.261996461104138,1.3264878996996994,0.9370167091726062,0.28788755,0.660094551497701
0.0275,1.7810937500000001,1.0,2634.424210117775,0.26613607541777345,1.3260789004230835,0.9387723054853141,0.2878589375,0.6609456336060995
0.028,1.7804,1.0,2644.5809726255034,0.27025246932204494,1.325671712080136,0.9404457806456662,0.2878298,0.661791887598192
0.0285,1.77969375,1.0,2654.0068583387297,0.2743457771855492,1.325265795437743,0.942042151596243,0.2878001375,0.6626344461678966
0.029,1.778975,1.0,2662.733364191726,0.2784161261536311,1.324860823811609,0.9435660828965228,0.28776995,0.6634739960218198
0.029500000000000002,1.7782437500000001,1.0,2670.7925186420935,0.2824636433716355,1.3244564705174402,0.945021890790533,0.2877392375,0.6643112204699153
0.03,1.7775,1.0,2678.2168351207843,0.28648845598490724,1.3240524088709413,0.9464135736751331,0.287708,0.6651467994417738
0.0305,1.77674375,1.0,2685.039267848225,0.2904906911387913,1.3236483121878178,0.9477448395412669,0.2876762375,0.6659814094960996
0.031,1.775975,1.0,2691.29317001675,0.2944704759786324,1.323243853783775,0.9490191307218002,0.28764395,0.6668157238233849
0.0315,1.7751937500000001,1.0,2697.012254338932,0.29842793764977554,1.322838706974518,0.9502396462395243,0.2876111375,0.6676504122417771
0.032,1.7744,1.0,2702.2239544563304,0.3023631987058,1.3224326053829918,0.9514093679812764,0.2875778,0.6684860171745406
0.0325,1.77359375,1.0,2706.9632050098285,0.3062763895442408,1.322025216582331,0.9525310669931233,0.2875439375,0.669323213919333
0.033,1.772775,1.0,2711.2530389562044,0.31016763260263236,1.3216163190672756,0.9536073367555906,0.28750955,0.6701624467781135
0.0335,1.7719437500000002,1.0,2715.1150980770008,0.3140370491433847,1.321205705787225,0.9546405980792596,0.2874746375,0.6710041280922532
0.034,1.7711000000000001,1.0,2718.5711952102665,0.31788476042890784,1.320793169691578,0.9556331114254561,0.2874392,0.67184866798224
0.0345,1.7702437500000001,1.0,2721.6432966876196,0.3217108877216117,1.320378503729734,0.9565869894197885,0.2874032375,0.6726964743236507
0.035,1.7693750000000001,1.0,2724.3535057215336,0.3255155522839064,1.3199615008510919,0.9575042082492986,0.28736675,0.6735479527203978
0.035500000000000004,1.76849375,1.0,2726.724046743155,0.3292988753782018,1.319541954005051,0.9583866180545001,0.2873297375,0.6744035064752355
0.036000000000000004,1.7676,1.0,2728.7700217437946,0.3330609714042827,1.319119721858151,0.9592359576147187,0.2872922,0.6752634028098736
0.0365,1.76669375,1.0,2730.514746088039,0.3368019640571093,1.3186945891930317,0.9600538520982069,0.2872541375,0.6761280574588162
0.037,1.765775,1.0,2731.984536841255,0.3405219808045672,1.3182663142753823,0.9608418249080395,0.28721555,0.6769979374922308
0.0375,1.76484375,1.0,2733.192045301147,0.3442211358968298,1.3178347801675951,0.9616013162422913,0.2871764375,0.6778732541958434
0.038,1.7639,1.0,2734.1499732750667,0.3478995435840706,1.3173998699320622,0.9623336798007882,0.28713679999999997,0.6787542173696111
0.0385,1.76294375,1.0,2734.8710670455653,0.3515573181164632,1.3169614666311757,0.9630401889268122,0.28709663750000003,0.6796410353029785
0.039,1.761975,1.0,2735.3681116386438,0.35519457374418095,1.3165194533273281,0.9637220422484081,0.28705595,0.6805339147492646
0.0395,1.7609937500000001,1.0,2735.6539253963942,0.35881142471739746,1.3160737130829112,0.964380368865024,0.2870147375,0.6814330608991759
0.04,1.76,1.0,2735.7413548514132,0.3624079852862862,1.3156241289603177,0.9650162331206094,0.286973,0.6823386773534463
0.0405,1.7589937500000001,1.0,2735.643269905548,0.36598436970102066,1.3151705840219392,0.9656306390001888,0.2869307375,0.6832509660946102
0.041,1.757975,1.0,2735.3725593109375,0.3695406922117744,1.3147129613301682,0.9662245341832744,0.28688795,0.6841701274578955
0.0415,1.75694375,1.0,2734.94212645479,0.3730770670687208,1.314251143947397,0.966798813784211,0.2868446375,0.6850963601012513
0.042,1.7559,1.0,2734.3614168556396,0.3765936027136139,1.3137850464361547,0.9673543254798438,0.28680079999999997,0.6860297979370544
0.0425,1.75484375,1.0,2733.640393944424,0.3800904117206858,1.3133145787360314,0.9678918712523912,0.2867564375,0.6869705827533903
0.043000000000000003,1.753775,1.0,2732.793074091869,0.38356761416274615,1.3128396140246086,0.9684122082139641,0.28671155,0.687918928242774
0.043500000000000004,1.75269375,1.0,2731.8260529334457,0.38702531679921015,1.312360092909587,0.96891605655196,0.28666613750000003,0.688874911854318
0.044,1.7516,1.0,2730.745929656069,0.39046362638949295,1.311875955998667,0.9694040986055323,0.2866202,0.6898386099168288
0.0445,1.75049375,1.0,2729.5593056039384,0.39388264969300985,1.3113871438995486,0.9698769812255597,0.2865737375,0.6908100976214344
0.045,1.7493750000000001,1.0,2728.2727829617907,0.397282493469176,1.3108935972199325,0.9703353179650545,0.28652675,0.6917894490039872
0.0455,1.74824375,1.0,2726.8929635169607,0.4006632644774065,1.3103952565675188,0.9707796911137376,0.2864792375,0.6927767369272455
0.046,1.7471,1.0,2725.4264474994175,0.4040250694771167,1.309892062550008,0.9712106535892675,0.2864312,0.6937720330628252
0.0465,1.7459437500000001,1.0,2723.879832499875,0.4073680152277217,1.3093839557751004,0.9716287306965068,0.28638263750000004,0.6947754078729297
0.047,1.744775,1.0,2722.259712466185,0.41069220848863675,1.3088708768504962,0.9720344217652096,0.28633355,0.6957869305918547
0.0475,1.74359375,1.0,2720.5726767784536,0.4139977560192769,1.308352766383896,0.9724282016756005,0.28628393750000003,0.6968066692072654
0.048,1.7424,1.0,2718.825453649475,0.41728476415098226,1.3078295636692663,0.9728105221337594,0.2862338,0.6978346930203736
0.0485,1.74119375,1.0,2717.022387475414,0.42055333589638166,1.3073012296601805,0.9731818142526469,0.2861831375,0.6988710275808068
0.049,1.739975,1.0,2715.1668191163085,0.4238035738463593,1.3067677344210327,0.9735424892237796,0.28613195,0.6999156795860548
0.0495,1.73874375,1.0,2713.2632220888745,0.4270355802747314,1.3062290376639172,0.9738929381324275,0.2860802375,0.7009686750364515
0.05,1.7375,1.0,2711.3160651022545,0.4302494574553141,1.3056850991009292,0.9742335338204787,0.286028,0.7020300388636961
0.0505,1.73624375,1.0,2709.329468938075,0.43344530746033494,1.3051358815711274,0.9745646320823969,0.2859752375,0.7030997888323053
0.051000000000000004,1.734975,1.0,2707.304848071905,0.43662323134168485,1.3045813725677087,0.9748865739195506,0.28592195,0.7041778937652126
0.051500000000000004,1.73369375,1.0,2705.2474890767776,0.4397833295246048,1.3040215242196092,0.975199682504327,0.2858681375,0.7052643903417909
0.052000000000000005,1.7324,1.0,2703.161766396811,0.44292570211855153,1.3034562969204593,0.9755042669778308,0.2858138,0.7063592980207973
0.0525,1.73109375,1.0,2701.0498732073347,0.4460504484440455,1.3028856709385748,0.9758006238827922,0.28575893750000003,0.7074625967477342
0.053,1.7297803861209975,1.0,2699.171484101343,0.44915766742580215,1.30230970538017,0.9760890415553242,0.2857037762170819,0.7085741136254937
0.0535,1.72846699013,1.0,2697.8429129678625,0.4522474573719483,1.301728704163891,0.9763698107780541,0.28564861358546,0.709693204985903
0.054,1.7271535941390028,1.0,2697.0312897353697,0.455319913672526,1.3011429786514668,0.9766432098821248,0.28559345095383815,0.7108192168651857
0.0545,1.7258401981480056,1.0,2696.6792608734554,0.4583751375609757,1.30055305119239,0.9769095185776605,0.2855382883222162,0.7119510950859204
0.055,1.7245268021570082,1.0,2696.7480310908586,0.46141322622131964,1.2999592757320804,0.9771689942004527,0.2854831256905943,0.7130881151220848
0.0555,1.723213406166011,1.0,2697.2098869525007,0.46443427417011557,1.299361905825095,0.9774218770506483,0.28542796305897244,0.7142297491733642
0.056,1.7219000101750135,1.0,2698.0371956472027,0.46743837592392123,1.2987611950259903,0.9776683974066069,0.2853728004273506,0.7153754730441397
0.0565,1.7205866141840163,1.0,2699.2023854936947,0.4704256259992945,1.2981573968893236,0.9779087760321331,0.28531763779572866,0.7165247661995611
0.057,1.719273218193019,1.0,2700.677927872228,0.473396118912793,1.2975507649696514,0.978143224654139,0.2852624751641068,0.7176771118175233
0.0575,1.7179598222020216,1.0,2702.43632058048,0.47634994918097456,1.296941552821531,0.9783719464126791,0.2852073125324849,0.718831996836537
0.058,1.7166464262110244,1.0,2704.4510570677453,0.47928721087553305,1.2963300050098827,0.978595135740271,0.285152149900863,0.7199889289886572
0.0585,1.7153330302200271,1.0,2706.70552097571,0.4822079946330263,1.2957162758149257,0.9788129739995808,0.28509698726924115,0.7211475899813482
0.059000000000000004,1.7140196342290297,1.0,2709.168560422036,0.4851123987316746,1.2951006521798858,0.979025643369591,0.28504182463761923,0.722307414167749
0.059500000000000004,1.7127062382380325,1.0,2711.826738613409,0.48800051309196724,1.2944832592201323,0.9792333093530833,0.28498666200599737,0.7234681442572971
0.06,1.7113928422470353,1.0,2714.666613691493,0.4908724276343936,1.2938642220510332,0.979436131036157,0.28493149937437545,0.7246295248671589
0.0605,1.7100794462560378,1.0,2717.674733998466,0.49372823227944296,1.2932436657879576,0.9796342613899668,0.2848763367427536,0.7257913025358439
0.061,1.7087660502650406,1.0,2720.837633689391,0.4965680169476047,1.292621715546274,0.9798278475560748,0.2848211741111317,0.7269532257358275
0.0615,1.7074526542740431,1.0,2724.1418286917574,0.4993918715593682,1.2919984964413511,0.9800170311164175,0.2847660114795098,0.728115044885173
0.062,1.706139258283046,1.0,2727.573813012516,0.5021998860352227,1.2913741335885576,0.9802019483488288,0.28471084884788794,0.729276512358155
0.0625,1.7048258622920487,1.0,2731.1200553911713,0.5049921502956576,1.290748752103262,0.9803827304689936,0.284655686216266,0.7304373824948851
0.063,1.7035124663010512,1.0,2734.777622304701,0.5077687450428018,1.290122380607624,0.9805594982059823,0.28460052358464416,0.731597590148485
0.0635,1.702199070310054,1.0,2738.524175275776,0.510529771638949,1.28949522380012,0.9807323783835837,0.2845453609530223,0.7327567455258878
0.064,1.7008856743190566,1.0,2742.3538658501293,0.5132753149916106,1.2888673363272205,0.9809014844396415,0.2844901983214004,0.7339147385306648
0.0645,1.6995722783280593,1.0,2746.2610044277567,0.5160054598407641,1.2882387712771564,0.9810669256422626,0.28443503568977846,0.7350714627953927
0.065,1.6982588823370621,1.0,2750.2398879524926,0.5187202909263867,1.2876095817381585,0.9812288073610521,0.2843798730581566,0.7362268127946476
0.0655,1.6969454863460647,1.0,2754.284799145518,0.5214198929884558,1.2869798207984582,0.9813872312358218,0.28432471042653473,0.7373806838472092
0.066,1.6956320903550675,1.0,2758.390005801945,0.524104350766949,1.286349541546286,0.9815422953368452,0.2842695477949128,0.7385329721180862
0.0665,1.6943186943640702,1.0,2762.549760149234,0.5267737490018434,1.2857187970698734,0.9816940943171335,0.28421438516329095,0.7396835746203589
0.067,1.6930052983730728,1.0,2766.758298268324,0.5294281724331165,1.285087640457451,0.9818427195571915,0.28415922253166903,0.7408323892168469
0.0675,1.6916919023820756,1.0,2771.0098395776504,0.5320677058007457,1.28445612479725,0.9819882593026699,0.28410405990004717,0.7419793146215925
0.068,1.6903785063910781,1.0,2775.2985863787576,0.5346924338447083,1.283824303177501,0.9821307987953093,0.2840488972684253,0.7431242504011673
0.0685,1.689065110400081,1.0,2779.622264143219,0.5373024325824283,1.2831921967944862,0.9822704183286766,0.2839937346368034,0.7442671545749778
0.069,1.6877517144090837,1.0,2783.9757461154018,0.5398977895775722,1.2825598524544353,0.9824071974433755,0.2839385720051815,0.7454079393524482
0.0695,1.6864383184180862,1.0,2788.351983260488,0.5424785972532232,1.281927334108531,0.982541214133597,0.2838834093735596,0.7465464868700786
0.07,1.685124922427089,1.0,2792.7490650801897,0.5450449342878536,1.2812946593341907,0.9826725408152216,0.28382824674193774,0.7476827634887169
0.07050000000000001,1.6838115264360916,1.0,2797.165075089852,0.5475968793599354,1.280661845708831,0.982801247529008,0.2837730841103159,0.748816735852399
0.07100000000000001,1.6824981304450943,1.0,2801.5980907608514,0.5501345111479409,1.2800289108098688,0.9829274020350819,0.28371792147869396,0.7499483708885157
0.07150000000000001,1.681184734454097,1.0,2806.046183470368,0.552657908330342,1.279395872214721,0.9830510699030605,0.2836627588470721,0.7510776358079571
0.07200000000000001,1.6798713384630997,1.0,2810.5074184567557,0.555167149585611,1.2787627475008048,0.9831723145980421,0.2836075962154502,0.7522044981052378
0.0725,1.6785579424721024,1.0,2814.9798547834507,0.5576623135922198,1.2781295542455369,0.9832911975626795,0.2835524335838283,0.7533289255586064
0.073,1.6772445464811052,1.0,2819.461545308201,0.5601434790286409,1.2774963100263341,0.9834077782955375,0.28349727095220645,0.7544508862301297
