Time [s],Phi [rad],STIM [ ],Fsee [N],Gamma [ ],Lcerel [ ],q [ ],Lmtc [m],fisomrel [ ]
0.0,1.8,1.0,17.96696028466651,1.0001495396396192e-05,1.3793397683892863,0.005000026659714262,0.288653,0.5411394774182483
0.0005,1.79999375,1.0,18.276311005924853,0.005619154703711257,1.379302435903228,0.012940519066631313,0.2886527375,0.5412297899167017
0.001,1.799975,1.0,21.617942081196087,0.011196844997449624,1.378938346999993,0.03560858740945263,0.28865195,0.5421101057809724
0.0015,1.79994375,1.0,31.06870856343322,0.016743248859546655,1.3780462486653144,0.07060172096697706,0.2886506375,0.5442635008612349
0.002,1.7999,1.0,53.58159340890184,0.022258541781286365,1.3763681832257142,0.11471785562796324,0.2886488,0.5483003528551507
0.0025,1.79984375,1.0,97.11778021370354,0.02774289826986507,1.3739352230336508,0.16457469414877868,0.28864643749999996,0.5541213296389473
0.003,1.7997750000000001,1.0,160.9568981104492,0.03319649185610894,1.3712143912454038,0.2172802474961317,0.28864354999999997,0.5605863384320928
0.0035,1.79969375,1.0,237.68202900662698,0.038619495094064954,1.368584774354774,0.27061268170266484,0.2886401375,0.5667897452609703
0.004,1.7996,1.0,321.46549012199716,0.04401207957178324,1.3661561263307416,0.32291560047000073,0.2886362,0.5724798824951085
0.0045000000000000005,1.7994937500000001,1.0,409.26652085780086,0.04937441591650153,1.3639228430377799,0.373034316162015,0.2886317375,0.5776790953931742
0.005,1.799375,1.0,499.41231763542817,0.054706673785736494,1.3618583675605418,0.4202472817121878,0.28862675,0.5824570211301653
0.0055,1.79924375,1.0,590.7892780250543,0.060009021914743076,1.35993885729351,0.46417353283685414,0.2886212375,0.5868750606193949
0.006,1.7991000000000001,1.0,682.5170164478413,0.06528162805968298,1.358146434594882,0.5046798106521265,0.2886152,0.5909793730451975
0.006500000000000001,1.79894375,1.0,773.8805200511421,0.070524659052898,1.3564672662121782,0.5418006193301779,0.2886086375,0.5948057656862759
0.007,1.798775,1.0,864.2848057961235,0.07573828078787793,1.354890411236927,0.5756766566764489,0.28860155,0.5983826403446582
0.0075,1.79859375,1.0,953.241573585589,0.08092265822718657,1.3534068044441216,0.6065098104339769,0.2885939375,0.6017335158564872
0.008,1.7984,1.0,1040.3556703732206,0.08607795537744627,1.3520086873366306,0.6345319746630985,0.2885858,0.6048784567587444
0.0085,1.79819375,1.0,1125.3165269787057,0.09120433547529587,1.350689208946544,0.6599843214470396,0.2885771375,0.6078350724759156
0.009000000000000001,1.797975,1.0,1207.8765035437918,0.09630196045987818,1.3494423585707351,0.6831042880088403,0.28856795,0.6106187437389088
0.0095,1.79774375,1.0,1287.869290788755,0.10137099191591759,1.348262427030596,0.7041175637714205,0.2885582375,0.6132438836695113
0.01,1.7975,1.0,1365.1623691115308,0.10641159032838332,1.347144445431941,0.7232341901609439,0.288548,0.6157230038448666
0.0105,1.79724375,1.0,1439.6563195483207,0.11142391468353502,1.3460839861831566,0.7406466178586908,0.2885372375,0.6180672018736502
0.011,1.796975,1.0,1511.3033417972163,0.11640812348458553,1.3450767841781484,0.7565291802392345,0.28852595000000003,0.6202870313178177
0.0115,1.79669375,1.0,1580.1077817806138,0.1213643754671596,1.3441186411199106,0.771038629940528,0.2885141375,0.6223927322505935
0.012,1.7964,1.0,1646.0637809271434,0.12629282703482547,1.343206085714167,0.7843155092257544,0.28850180000000003,0.6243928020687495
0.0125,1.79609375,1.0,1709.1781124203492,0.13119363344449383,1.3423359872649547,0.7964852646871373,0.2884889375,0.6262948718856147
0.013000000000000001,1.7957750000000001,1.0,1769.4939473052445,0.13606694995307542,1.3415052150763112,0.8076595112054142,0.28847555,0.6281064670780692
0.0135,1.79544375,1.0,1827.0690414621845,0.14091293080215583,1.340710844904718,0.8179375266787532,0.2884616375,0.6298345668504886
0.014,1.7951000000000001,1.0,1881.982712064253,0.14573173044267534,1.339950034430481,0.8274075388809192,0.2884472,0.6314858867688606
0.0145,1.79474375,1.0,1934.2862363962968,0.1505235003068387,1.3392205248335645,0.836148140131826,0.2884322375,0.6330658020779372
0.015,1.794375,1.0,1984.0486081585314,0.1552883916417965,1.3385200907196535,0.8442291984079294,0.28841675,0.6345795541427219
0.0155,1.79399375,1.0,2031.353669564691,0.16002655533607235,1.3378465494801668,0.8517128810152348,0.2884007375,0.6360322353454886
0.016,1.7936,1.0,2076.2918295676973,0.1647381418475667,1.3371978279930503,0.8586545842972706,0.2883842,0.637428650499902
0.0165,1.7931937500000001,1.0,2118.9533701918217,0.1694233011572862,1.33657201043585,0.8651037484880165,0.2883671375,0.6387732199973535
0.017,1.792775,1.0,2159.4061107049106,0.1740821802285453,1.3359675453071678,0.8711046181442269,0.28834955,0.640069542411595
0.0175,1.7923437500000001,1.0,2197.72862459534,0.1787149260246584,1.3353828811056054,0.8766967504704051,0.2883314375,0.6413211832311969
0.018000000000000002,1.7919,1.0,2234.009337563731,0.18332168550893996,1.3348164663297655,0.8819155665776935,0.2883128,0.6425316768955645
0.0185,1.79144375,1.0,2268.328956266258,0.18790260391003585,1.3342669162175012,0.8867928765528815,0.2882936375,0.643704173222073
0.019,1.790975,1.0,2300.7879638196905,0.192457828705411,1.3337327267548533,0.8913572267821838,0.28827395,0.6448420506784771
0.0195,1.79049375,1.0,2331.4551800689533,0.1969875028084444,1.3332127779324559,0.8956343926464655,0.2882537375,0.6459478463728823
0.02,1.79,1.0,2360.399638578334,0.20149176848352895,1.3327060037343779,0.8996476139361697,0.288233,0.6470239639001918
0.0205,1.78949375,1.0,2387.695503208022,0.20597076799505756,1.3322113381446887,0.9034178671959433,0.2882117375,0.6480727895666942
0.021,1.788975,1.0,2413.421635903038,0.21042464360742313,1.3317277151474571,0.9069641169428665,0.28818995000000003,0.6490966932495139
0.021500000000000002,1.78844375,1.0,2437.6463307288805,0.21485353541633798,1.3312542116455783,0.910303565288599,0.2881676375,0.650097727254676
0.022,1.7879,1.0,2460.4550032882917,0.21925758667181436,1.330789775394378,0.9134517888347656,0.2881448,0.6510782031075795
0.0225,1.78734375,1.0,2481.9066925620195,0.22363693562405085,1.3303336394477072,0.9164229912454193,0.28812143749999997,0.652039817121276
0.023,1.786775,1.0,2502.0570522576154,0.22799171951069652,1.3298850949746257,0.9192301041735571,0.28809755,0.6529841330152493
0.0235,1.78619375,1.0,2520.9641492188425,0.23232207556940052,1.3294434331441947,0.921884908940813,0.28807313749999996,0.6539127052237453
0.024,1.7856,1.0,2538.6882609709774,0.23662814103781193,1.3290079451254742,0.924398154755453,0.2880482,0.6548270792229369
0.0245,1.78499375,1.0,2555.28869469582,0.24091005256042808,1.328577950173936,0.9267796680387443,0.2880227375,0.6557287329703265
0.025,1.784375,1.0,2570.817460575266,0.2451679451071185,1.3281528527739508,0.9290384538935497,0.28799675,0.6566189579601971
0.025500000000000002,1.78374375,1.0,2585.346461749262,0.24940195708318214,1.3277318859744875,0.9311827359876077,0.2879702375,0.6574993970523135
0.026000000000000002,1.7831000000000001,1.0,2598.9169247273335,0.25361222038430814,1.3273145834346278,0.9332201061274161,0.2879432,0.6583710569866583
0.0265,1.78244375,1.0,2611.5711956974183,0.2577988669061857,1.3269004788134529,0.9351575384723271,0.2879156375,0.6592349392587221
0.027,1.781775,1.0,2623.3526466822022,0.26196202854450407,1.3264891057700439,0.9370014480673547,0.28788755,0.6600920402215469
0.0275,1.7810937500000001,1.0,2634.30558651715,0.2661018371949523,1.326079997963482,0.9387577431167209,0.2878589375,0.6609433511739016
0.028,1.7804,1.0,2644.4751766501304,0.2702184247532196,1.325672689052849,0.9404318717349993,0.2878298,0.6617898584345866
0.0285,1.77969375,1.0,2653.902306726387,0.27431192016617356,1.3252667592032288,0.9420288693466864,0.2878001375,0.6626324469305765
0.029,1.778975,1.0,2662.630244445512,0.2783824567661253,1.3248617728189642,0.9435533896981682,0.28776995,0.6634720298498715
0.029500000000000002,1.7782437500000001,1.0,2670.692248462969,0.2824301622261404,1.324457391906751,0.9450097504379164,0.2877392375,0.6643093138937148
0.03,1.7775,1.0,2678.120390316266,0.2864551631040013,1.3240532938790652,0.9464019529154601,0.287708,0.6651449704277047
0.0305,1.77674375,1.0,2684.947179141586,0.29045758595749044,1.3236491561483836,0.9477337078328826,0.2876762375,0.6659796674886453
0.031,1.775975,1.0,2691.205520428755,0.29443755734439003,1.3232446561271827,0.9490084600149133,0.28764395,0.6668140697870517
0.0315,1.7751937500000001,1.0,2696.928677082941,0.29839520382248247,1.3228394712279383,0.9502294107769409,0.2876111375,0.667648838703014
0.032,1.7744,1.0,2702.1400549606988,0.302330646627149,1.3224333718428762,0.9513995478867314,0.2875778,0.6684844410779129
0.0325,1.77359375,1.0,2706.873199043727,0.3062440150471827,1.3220260381079472,0.952521644958798,0.2875439375,0.66932152672353
0.033,1.772775,1.0,2711.1641608118493,0.3101354387833204,1.3216171296566193,0.9535982848525385,0.28750955,0.6701607841563691
0.0335,1.7719437500000002,1.0,2715.032431988537,0.31400503787938616,1.3212064591843349,0.9546318920900692,0.2874746375,0.6710025847521117
0.034,1.7711000000000001,1.0,2718.497666479338,0.3178529323792041,1.3207938393865364,0.9556247305664177,0.2874392,0.6718472978687663
0.0345,1.7702437500000001,1.0,2721.579664635033,0.3216792423265983,1.3203790829586664,0.9565789160864804,0.2874032375,0.6726952908245025
0.035,1.7693750000000001,1.0,2724.298358292231,0.32548408776539284,1.319962002596167,0.9574964277835059,0.28736675,0.6735469288732476
0.035500000000000004,1.76849375,1.0,2726.673796592306,0.3292675887394118,1.3195424109944807,0.9583791185305928,0.2873297375,0.6744025751780434
0.036000000000000004,1.7676,1.0,2728.726132577353,0.3330298652924793,1.31912012084905,0.9592287244444649,0.2872922,0.6752625907821677
0.0365,1.76669375,1.0,2730.475610564876,0.33677103746841935,1.3186949448553171,0.960046873570052,0.2872541375,0.6761273345780179
0.037,1.765775,1.0,2731.942554299792,0.34049122531105613,1.3182666957087248,0.9608350938249048,0.28721555,0.6769971632737564
0.0375,1.76484375,1.0,2733.134613300244,0.3441905413377338,1.317835301852815,0.9615948299936496,0.2871764375,0.6778721967351082
0.038,1.7639,1.0,2734.078853172645,0.3478691107197095,1.3174005158411715,0.9623274257673581,0.28713679999999997,0.6787529098971884
0.0385,1.76294375,1.0,2734.793970151662,0.35152705139783424,1.3169621667292644,0.9630341508546767,0.28709663750000003,0.6796396200965882
0.039,1.761975,1.0,2735.291000849097,0.3551644763542215,1.3165201534879776,0.9637162059854176,0.28705595,0.6805325013901375
0.0395,1.7609937500000001,1.0,2735.5810129345145,0.35878149857098496,1.3160743750881956,0.9643747222289876,0.2870147375,0.681431726443261
0.04,1.76,1.0,2735.6751008104875,0.36237823103023814,1.3156247305008022,0.9650107657772057,0.286973,0.682337466506046
0.0405,1.7589937500000001,1.0,2735.5843815148623,0.36595478671409465,1.315171118696682,0.9656253423498503,0.2869307375,0.6832498913886544
0.041,1.757975,1.0,2735.3199908488396,0.36951127860466804,1.3147134386467187,0.9662194012563551,0.28688795,0.6841691694360905
0.0415,1.75694375,1.0,2734.893079731842,0.37304781968407197,1.3142515893217968,0.9667938391438062,0.2868446375,0.6850954675023113
0.042,1.7559,1.0,2734.3148107820984,0.37656452293441994,1.3137854696928004,0.9673495034584764,0.28680079999999997,0.6860289509236883
0.0425,1.75484375,1.0,2733.5963551244495,0.3800615013378256,1.3133149787306135,0.9678871956455111,0.2867564375,0.6869697834918214
0.043000000000000003,1.753775,1.0,2732.7458783342713,0.3835388587463631,1.312840042759512,0.968407674883587,0.28671155,0.6879180728514884
0.043500000000000004,1.75269375,1.0,2731.7760117046396,0.38699671669435476,1.3123605475738418,0.9689116595512502,0.28666613750000003,0.6888740061204391
0.044,1.7516,1.0,2730.693763880847,0.39043518303039165,1.3118764300599315,0.9693998321620225,0.2866202,0.6898376670059716
0.0445,1.75049375,1.0,2729.505634535946,0.39385436409028984,1.3113876317463735,0.9698728398618076,0.2865737375,0.6908091288118141
0.045,1.7493750000000001,1.0,2728.2181241865705,0.3972543662098654,1.310894094161761,0.9703312964831982,0.28652675,0.6917884636968687
0.0455,1.74824375,1.0,2726.837732980875,0.4006352957249342,1.3103957588346866,0.9707757845809938,0.2864792375,0.6927757426576502
0.046,1.7471,1.0,2725.370959561966,0.40399725897131233,1.3098925672937434,0.9712068573243129,0.2864312,0.6937710355104998
0.0465,1.7459437500000001,1.0,2723.8243000073144,0.4073403622848158,1.309384461067524,0.9716250402566804,0.28638263750000004,0.6947744108735896
0.047,1.744775,1.0,2722.204246843601,0.4106647120012605,1.3088713816846216,0.9720308329344856,0.28633355,0.6957859361487015
0.0475,1.74359375,1.0,2720.5172881382523,0.4139704144564625,1.3083532706736287,0.9724247104532763,0.28628393750000003,0.6968056775027929
0.048,1.7424,1.0,2718.7690519022194,0.4172575718733085,1.3078300773479277,0.972807124900568,0.2862338,0.6978336845662273
0.0485,1.74119375,1.0,2716.961262984342,0.4205262681095106,1.3073017865361385,0.9731785068715286,0.2861831375,0.6988699361980153
0.049,1.739975,1.0,2715.106524665157,0.42377664607394433,1.3067682839225254,0.9735392668958989,0.28613195,0.6999146045256022
0.0495,1.73874375,1.0,2713.2076191971305,0.4270088039931184,1.3062295445857746,0.9738897967849335,0.2860802375,0.700967685021649
0.05,1.7375,1.0,2711.2673261635105,0.43022284009354156,1.305685543604572,0.9742304700860626,0.286028,0.702029172293295
0.0505,1.73624375,1.0,2709.2884222589773,0.43341885260172247,1.3051362560576036,0.9745616430953165,0.2859752375,0.7030990600738156
0.051000000000000004,1.734975,1.0,2707.2736810850447,0.4365969397441699,1.3045816570235556,0.9748836558048979,0.28592195,0.7041773412142385
0.051500000000000004,1.73369375,1.0,2705.225872958739,0.4397571997473925,1.3040217215811136,0.9751968327905888,0.2858681375,0.705264007674923
0.052000000000000005,1.7324,1.0,2703.147764734851,0.44289973083789913,1.3034564248089642,0.975501484043313,0.2858138,0.7063590505170966
0.0525,1.73109375,1.0,2701.042119642686,0.44602463124219827,1.3028857417857929,0.9757979057488252,0.28575893750000003,0.707462459894356
0.053,1.729775,1.0,2698.9116971355234,0.4491319991867989,1.3023096475902858,0.9760863810191807,0.28570355000000003,0.7085742250441238
0.0535,1.72844375,1.0,2696.759252755037,0.45222193289820956,1.301728117301129,0.9763671805793613,0.2856476375,0.7096943342790694
0.054,1.7271,1.0,2694.5875380085927,0.4552945306029391,1.3011411259970085,0.9766405634121631,0.2855912,0.7108227749784881
0.0545,1.7257437500000001,1.0,2692.399300260618,0.45834989052749614,1.3005486487566102,0.9769067773642162,0.2855342375,0.711959533579642
0.055,1.724375,1.0,2690.197282637638,0.46138811089838944,1.2999506606586204,0.9771660597157871,0.28547675,0.7131045955690598
0.0555,1.72299375,1.0,2687.9842239475756,0.46440928994212766,1.2993471367817246,0.9774186377168127,0.2854187375,0.7142579454737993
0.056,1.7216,1.0,2685.762858611935,0.4674135258852196,1.2987380522046093,0.9776647290914258,0.2853602,0.7154195668526664
0.0565,1.72019375,1.0,2683.529202399636,0.4704008814862552,1.298123443556101,0.9779045428385735,0.28530113749999997,0.7165893252622838
0.057,1.718775,1.0,2681.2910549417506,0.47337148796836886,1.297503239457163,0.9781382793840763,0.28524155,0.7177672911750443
0.0575,1.71734375,1.0,2679.051736184453,0.4763254487447173,1.2968774095101823,0.9783661307482558,0.2851814375,0.718953455747843
0.058,1.7159,1.0,2676.8119727720623,0.47926285272820485,1.2962459470697705,0.9785882812266307,0.2851208,0.7201477641732614
0.0585,1.71444375,1.0,2674.572490139163,0.482183788831736,1.2956088454905383,0.9788049077212525,0.2850596375,0.7213501609303286
0.059000000000000004,1.7129750000000001,1.0,2672.3340125090676,0.48508834596821515,1.2949660981270972,0.9790161800937985,0.28499795,0.7225605897821291
0.059500000000000004,1.71149375,1.0,2670.097262893513,0.4879766130505467,1.2943176983340585,0.9792222614991108,0.2849357375,0.7237789937734125
0.06,1.71,1.0,2667.862963093274,0.490848678991635,1.293663639466033,0.9794233087004137,0.284873,0.7250053152282008
0.0605,1.7084937500000001,1.0,2665.631833699762,0.4937046327043845,1.2930039148776324,0.9796194723673438,0.2848097375,0.7262394957473888
0.061,1.7069750000000001,1.0,2663.4045940973947,0.49654456310169975,1.2923385179234674,0.9798108973578602,0.28474595,0.7274814762063473
0.0615,1.7054437500000001,1.0,2661.181962467119,0.499368559096485,1.2916674419581495,0.9799977229850191,0.2846816375,0.7287311967525174
0.062,1.7039,1.0,2658.9646557913297,0.5021767096016447,1.2909906803362898,0.9801800832695347,0.2846168,0.7299885968030075
0.0625,1.70234375,1.0,2656.7533898587,0.5049691035300833,1.2903082264124996,0.9803581071789857,0.2845514375,0.7312536150421838
0.063,1.7007750000000001,1.0,2654.5488792710867,0.5077458297947052,1.28962007354139,0.9805319188544691,0.28448555,0.7325261894192596
0.0635,1.69919375,1.0,2652.3518374509686,0.5105069773084147,1.2889262150775722,0.9807016378254424,0.28441913750000003,0.7338062571458817
0.064,1.6976,1.0,2650.162976649408,0.5132526349841163,1.2882266443756574,0.9808673792134606,0.2843522,0.7350937546937129
0.0645,1.69599375,1.0,2647.9830079560566,0.5159828917347146,1.2875213547902566,0.9810292539254528,0.2842847375,0.7363886177920134
0.065,1.694375,1.0,2645.812641309174,0.5186978364731137,1.2868103396759814,0.9811873688371493,0.28421675,0.7376907814252175
0.0655,1.69274375,1.0,2643.651961862391,0.5213975518845374,1.2860935981474404,0.9813418268169819,0.2841482375,0.7390001693209531
0.066,1.6911,1.0,2641.498186898408,0.5240820912413773,1.2853711558167245,0.981492726328246,0.2840792,0.7403166563387333
0.0665,1.6894437500000001,1.0,2639.3571233135203,0.5267515928363561,1.2846429589394652,0.981640164299652,0.2840096375,0.7416402612442153
0.067,1.687775,1.0,2637.2286957424917,0.529406136462583,1.283909008079456,0.9817842328622606,0.28393955,0.7429709028422813
0.0675,1.68609375,1.0,2635.112828997845,0.5320458019131672,1.2831693038004892,0.9819250209254486,0.2838689375,0.7443084993148796
0.068,1.6844000000000001,1.0,2633.0094480680136,0.5346706689812178,1.282423846666359,0.9820626143105817,0.2837978,0.7456529682212277
0.0685,1.68269375,1.0,2630.918478116157,0.5372808174598442,1.2816726372408573,0.9821970958782399,0.2837261375,0.7470042264980242
0.069,1.680975,1.0,2628.8398444788195,0.5398763271421556,1.2809156760877785,0.9823285456493388,0.28365395,0.7483621904596502
0.0695,1.67924375,1.0,2626.7734726646545,0.542457277821261,1.2801529637709146,0.9824570409204854,0.28358123749999997,0.7497267757983821
0.07,1.6775,1.0,2624.719288353004,0.5450237492902698,1.2793845008540596,0.9825826563738778,0.283508,0.7510978975845917
0.07050000000000001,1.67574375,1.0,2622.677217392573,0.547575821342291,1.2786102879010062,0.982705464182041,0.2834342375,0.7524754702669594
0.07100000000000001,1.673975,1.0,2620.6471858001505,0.5501135737704341,1.2778303254755476,0.9828255341076757,0.28335995,0.7538594076726762
0.07150000000000001,1.67219375,1.0,2618.629119759268,0.5526370863678081,1.277044614141477,0.98294293359888,0.2832851375,0.7552496230076533
0.07200000000000001,1.6704,1.0,2616.6229456191263,0.5551464389275222,1.2762531544625875,0.983057727879983,0.2832098,0.7566460288567276
0.0725,1.66859375,1.0,2614.628589892848,0.5576417112426858,1.2754559470026723,0.9831699800382261,0.2831339375,0.758048537183868
0.073,1.6667750000000001,1.0,2612.6459792566457,0.5601229831064078,1.2746529923255243,0.9832797511065022,0.28305755,0.7594570593323836
0.0735,1.66494375,1.0,2610.675040548283,0.5625903343117978,1.273844290994937,0.9833871001423606,0.2829806375,0.7608715060251284
0.074,1.6631,1.0,2608.715700765803,0.5650438446519647,1.2730298435747032,0.9834920843034651,0.2829032,0.7622917873647101
0.0745,1.6612437500000001,1.0,2606.767887066328,0.5674835939200178,1.2722096506286162,0.9835947589196903,0.2828252375,0.7637178128336948
0.075,1.659375,1.0,2604.8315267649923,0.5699096619090663,1.271383712720469,0.9836951775620233,0.28274675,0.7651494912948149
0.0755,1.65749375,1.0,2602.9033586745727,0.5723220996376024,1.270552060094217,0.9837933918050563,0.2826677375,0.7665866797792575
