Time [s],Phi [rad],STIM [ ],Fsee [N],Gamma [ ],Lcerel [ ],q [ ],Lmtc [m],fisomrel [ ]
0.0,1.8,1.0,19.031378859952294,0.0010528540835733444,1.3792222329994532,0.005284609585174233,0.288653,0.5414237818842742
0.0005,1.79999375,1.0,19.646133978344793,0.006656157713579577,1.379153022512014,0.0160872022291624,0.2886527375,0.5415911528061357
0.001,1.799975,1.0,23.763267075623776,0.01222803124177298,1.3787244134698593,0.041247651462730385,0.28865195,0.5426269727101756
0.0015,1.79994375,1.0,34.988696828035096,0.017768650962893352,1.377722194349032,0.07818540109642735,0.2886506375,0.5450444639545664
0.002,1.7999,1.0,60.96588221607315,0.02327819218944897,1.3759045823562759,0.12361244833336761,0.2886488,0.5494124520521486
0.0025,1.79984375,1.0,108.64210779861767,0.02875682924603629,1.3733954538207782,0.17419605695664814,0.28864643749999996,0.5554076373277268
0.003,1.7997750000000001,1.0,175.39986066256176,0.034204735480647744,1.3706853875027785,0.22716992612936882,0.28864354999999997,0.561837830012484
0.0035,1.79969375,1.0,253.70065174744107,0.03962208326945596,1.3680994016608632,0.2804235390653287,0.2886401375,0.5679299441865897
0.004,1.7996,1.0,338.33646942634755,0.04500904402036402,1.3657149914792877,0.33239698996668327,0.2886362,0.5735093909671702
0.0045000000000000005,1.7994937500000001,1.0,426.6194485962949,0.05036578817059895,1.3635197316969765,0.3820220502462452,0.2886317375,0.5786141730451475
0.005,1.799375,1.0,517.0340162499881,0.05569248524648976,1.361487153655056,0.428647453198703,0.28862675,0.5833132581070345
0.0055,1.79924375,1.0,608.5017388940686,0.060989303731519916,1.3595953540583043,0.471945212480887,0.2886212375,0.5876632058025597
0.006,1.7991000000000001,1.0,700.1946972163739,0.06625641129333681,1.3578271553294299,0.5118184511620326,0.2886152,0.5917083128470921
0.006500000000000001,1.79894375,1.0,791.4020586011969,0.07149397447298812,1.3561698360272296,0.548325741282006,0.2886086375,0.5954816578582155
0.007,1.798775,1.0,881.567416152704,0.07670215918298287,1.3546126233561062,0.5816218862346244,0.28860155,0.5990111203970037
0.0075,1.79859375,1.0,970.2011093515512,0.08188112999527757,1.3531470990727539,0.6119165565260262,0.2885939375,0.6023186429097531
0.008,1.7984,1.0,1056.9397955188695,0.08703105087916131,1.351765484560691,0.6394445341998061,0.2885858,0.6054242470401221
0.0085,1.79819375,1.0,1141.4786852978555,0.09215208489882176,1.3504612281068027,0.6644471863745358,0.2885771375,0.6083447946233151
0.009000000000000001,1.797975,1.0,1223.5781454673977,0.09724439381409625,1.3492285049429171,0.6871603051748533,0.28856795,0.6110951892070628
0.0095,1.79774375,1.0,1303.0754981647676,0.102308138577355,1.3480617969371433,0.7078069368283023,0.2885582375,0.6136893670691543
0.01,1.7975,1.0,1379.8719140376652,0.10734348059379255,1.3469558942386133,0.7265937723352613,0.288548,0.6161403298886614
0.0105,1.79724375,1.0,1453.8592785502526,0.11235057808614046,1.3459066613322477,0.7437100418374076,0.2885372375,0.6184584873915107
0.011,1.796975,1.0,1524.9905781455354,0.11732958927103349,1.3449099644762732,0.7593268167106758,0.28852595000000003,0.6206540701689285
0.0115,1.79669375,1.0,1593.2621257168835,0.12228067191047887,1.3439618172552927,0.7735977860615173,0.2885141375,0.6227368248419535
0.012,1.7964,1.0,1658.6986617684581,0.12720398351480136,1.343058479651185,0.7866604423338059,0.28850180000000003,0.6247158148578362
0.0125,1.79609375,1.0,1721.316757409297,0.1320996794540262,1.3421968014814276,0.7986375639417307,0.2884889375,0.6265986895914555
0.013000000000000001,1.7957750000000001,1.0,1781.142699935213,0.13696791399077388,1.3413739257960873,0.8096384789959374,0.28847555,0.6283923558245137
0.0135,1.79544375,1.0,1838.2337003969178,0.14180884138766472,1.3405869956452312,0.8197603383114085,0.2884616375,0.6301036300936074
0.014,1.7951000000000001,1.0,1892.6603908954437,0.14662261475766314,1.3398333153878519,0.8290895042124274,0.2884472,0.6317388958944541
0.0145,1.79474375,1.0,1944.5065488091655,0.15140938763189488,1.339110315434411,0.837702757180609,0.2884322375,0.6333041899425199
0.015,1.794375,1.0,1993.830060309779,0.15616931032286402,1.3384159356837957,0.8456685255890408,0.28841675,0.6348043828930519
0.0155,1.79399375,1.0,2040.7061356812246,0.16090253310715935,1.3377481207840987,0.8530476929562133,0.2884007375,0.636244282228348
0.016,1.7936,1.0,2085.2211189703216,0.16560920579471142,1.337104868467266,0.8598945045353588,0.2883842,0.6376285320652657
0.0165,1.7931937500000001,1.0,2127.466114373422,0.1702894778527863,1.3364842778904913,0.8662573682603526,0.2883671375,0.6389615138154165
0.017,1.792775,1.0,2167.5367621809737,0.1749434986962965,1.3358845339848178,0.8721795402757113,0.28834955,0.6402473846613578
0.0175,1.7923437500000001,1.0,2205.499743819637,0.17957141409546587,1.3353042307823704,0.8776998183350307,0.2883314375,0.6414893903681216
0.018000000000000002,1.7919,1.0,2241.4308946107108,0.18417336982051824,1.3347419623152739,0.8828529522351186,0.2883128,0.6426907482950248
0.0185,1.79144375,1.0,2275.4144436967517,0.1887495116416775,1.3341963226156532,0.8876701159230056,0.2882936375,0.6438546490758107
0.019,1.790975,1.0,2307.5348912195645,0.19329998439500973,1.3336659789357392,0.8921793385107941,0.28827395,0.6449841023624198
0.0195,1.79049375,1.0,2337.8811645031205,0.19782493333541054,1.3331496219393422,0.896405852640569,0.2882537375,0.6460820452859484
0.02,1.79,1.0,2366.533181595782,0.2023245022022634,1.3326460903065243,0.9003724385905691,0.288233,0.6471510797314532
0.0205,1.78949375,1.0,2393.5544186951356,0.20679883191308768,1.3321544333359203,0.9040997105531707,0.2882117375,0.648193343161013
0.021,1.788975,1.0,2419.012687178012,0.21124806338540272,1.3316737003261658,0.9076063102608093,0.28818995000000003,0.6492109582651426
0.021500000000000002,1.78844375,1.0,2442.9797743286863,0.2156723375367279,1.3312029405758965,0.9109091227990372,0.2881676375,0.6502060336539515
0.022,1.7879,1.0,2465.5268494464553,0.220071794493922,1.3307412440746385,0.9140234742300657,0.2881448,0.6511805786605882
0.0225,1.78734375,1.0,2486.722876535458,0.22444657394961315,1.330287752709743,0.9169633000282229,0.28812143749999997,0.6521364808990678
0.023,1.786775,1.0,2506.6421908792636,0.2287968165175899,1.3298415846409037,0.9197412772133982,0.28809755,0.653075666586663
0.0235,1.78619375,1.0,2525.3363917292627,0.23312265801378915,1.3294020979385044,0.9223690013323377,0.28807313749999996,0.6539995467911734
0.024,1.7856,1.0,2542.8591325704233,0.2374242342541477,1.3289686506729277,0.9248570546729791,0.2880482,0.6549095244720449
0.0245,1.78499375,1.0,2559.265950251413,0.24170168105460244,1.3285406009145577,0.9272151087499738,0.2880227375,0.6558069947407568
0.025,1.784375,1.0,2574.614103251108,0.24595513423109017,1.3281173067337773,0.9294520151822064,0.28799675,0.6566933450949373
0.025500000000000002,1.78374375,1.0,2588.954824363024,0.25018472781264867,1.3276981970830584,0.9315758973826184,0.2879702375,0.6575698074888809
0.026000000000000002,1.7831000000000001,1.0,2602.3436467842125,0.25439059750370685,1.3272826734221714,0.9335942065376546,0.2879432,0.658437664788381
0.0265,1.78244375,1.0,2614.8351755125377,0.2585728781118967,1.3268701574815636,0.9355137924711422,0.2879156375,0.6592981509820722
0.027,1.781775,1.0,2626.467729418928,0.2627316999810788,1.3264602322482777,0.937340980634452,0.28788755,0.6601521580369917
0.0275,1.7810937500000001,1.0,2637.2804932370445,0.26686719345511384,1.3260524807093566,0.9390815979315279,0.2878589375,0.6610005734160544
0.028,1.7804,1.0,2647.3134433434298,0.2709794888778623,1.325646485851843,0.9407410185952615,0.2878298,0.6618442801414075
0.0285,1.77969375,1.0,2656.6072773942055,0.2750687165931848,1.3252418306627805,0.942324205287373,0.2878001375,0.6626841568466941
0.029,1.778975,1.0,2665.2033478166545,0.2791350069449421,1.3248380981292114,0.9438357459710464,0.28776995,0.6635210778182297
0.029500000000000002,1.7782437500000001,1.0,2673.104064433876,0.2831784871258244,1.324435234363502,0.9452799354454147,0.2877392375,0.6643551616820778
0.03,1.7775,1.0,2680.4224868085216,0.2871992891111881,1.324032173458888,0.9466606190630444,0.287708,0.6651886178683326
0.0305,1.77674375,1.0,2687.180603979973,0.2911975392168922,1.3236286916756381,0.9479814731552971,0.2876762375,0.6660219066464119
0.031,1.775975,1.0,2693.377259874062,0.2951733623087041,1.3232247798943613,0.9492459378586622,0.28764395,0.6668550435658218
0.0315,1.7751973734457507,1.0,2699.190507725432,0.2991268832523915,1.3228204289956664,0.9504572100018766,0.2876112896847215,0.6676880440786157
0.032,1.7744193911210846,1.0,2705.0415169399043,0.3030582269137218,1.3224156298601624,0.9516182633140677,0.28757861442708554,0.6685209235391416
0.0325,1.7736414087964187,1.0,2710.949005673344,0.3069675181584627,1.3220103733684585,0.9527318667223926,0.2875459391694496,0.6693536972037817
0.033,1.7728634264717529,1.0,2716.9141604017245,0.31085488174214126,1.3216046502051093,0.953800600886191,0.28751326391181364,0.6701863806328103
0.0335,1.7720854441470868,1.0,2722.922224112692,0.3147204408422996,1.3211985962035693,0.9548268894363562,0.28748058865417764,0.6710186919542617
0.034,1.771307461822421,1.0,2728.9542447700355,0.3185643176452701,1.320792384741983,0.9558129991617725,0.2874479133965417,0.6718502738888763
0.0345,1.770529479497755,1.0,2735.001128594743,0.3223866330931574,1.3203860989179026,0.9567610381381169,0.2874152381389057,0.6726809554214539
0.035,1.7697514971730892,1.0,2741.053741399973,0.3261875081280661,1.3199798218288807,0.9576729782233707,0.28738256288126973,0.6735105663978245
0.035500000000000004,1.7689735148484231,1.0,2747.109544215639,0.329967055355066,1.3195735764501861,0.9585506571196308,0.2873498876236338,0.6743390600600672
0.036000000000000004,1.7681955325237573,1.0,2753.1512236739477,0.33372540730850553,1.3191675193713284,0.9593958153207515,0.28731721236599783,0.6751661179156656
0.0365,1.7674175501990914,1.0,2759.172677934853,0.33746268333733737,1.318761705137171,0.9602100713885455,0.2872845371083618,0.6759916305422299
0.037,1.7666395678744253,1.0,2765.170958079615,0.34117899880705954,1.3183561595842879,0.9609949406660633,0.2872518618507259,0.6768155473684421
0.0375,1.7658615855497595,1.0,2771.1431032215123,0.34487446908316993,1.3179509085492518,0.9617518465435798,0.28721918659308987,0.6776378180889838
0.038,1.7650836032250936,1.0,2777.0861406671465,0.3485492095311666,1.3175459778686367,0.9624821270600156,0.2871865113354539,0.6784583926640666
0.0385,1.7643056209004275,1.0,2782.997086092724,0.35220333551654737,1.3171413933790157,0.9631870409610445,0.28715383607781797,0.67927722131893
0.039,1.7635276385757617,1.0,2788.8729437348634,0.3558369624048102,1.3167371809169621,0.9638677732640278,0.287121160820182,0.6800942545432895
0.0395,1.7627496562510958,1.0,2794.710706596141,0.3594502055614532,1.3163333663190493,0.9645254403748035,0.287088485562546,0.6809094430907467
0.04,1.7619716739264297,1.0,2800.507356666035,0.36304318035197414,1.3159299754218508,0.965161094796835,0.28705581030491006,0.681722737978153
0.0405,1.7611936916017639,1.0,2806.2598651557005,0.3666160021418711,1.31552703406194,0.9657757294691789,0.28702313504727406,0.6825340904849341
0.041,1.760415709277098,1.0,2811.9686260544877,0.37016877076335925,1.3151245373294547,0.9663702763970812,0.2869904597896381,0.6833435139441872
0.0415,1.759637726952432,1.0,2817.6301799065545,0.3737016151135525,1.3147225148205262,0.9669456240450585,0.28695778453200216,0.6841509523757772
0.042,1.758859744627766,1.0,2823.242687421191,0.37721465338494303,1.314320981545101,0.9675026091377722,0.28692510927436615,0.6849563793384067
0.0425,1.7580817623031002,1.0,2828.8063343437916,0.3807079928826468,1.313919934386567,0.968042019836503,0.2868924340167302,0.685759804830145
0.043000000000000003,1.7573037799784341,1.0,2834.321309371675,0.3841817409117796,1.3135193702283123,0.9685646021747513,0.2868597587590942,0.6865612388126353
0.043500000000000004,1.7565257976537683,1.0,2839.7878041211343,0.38763600477745724,1.313119285953725,0.9690710627349566,0.28682708350145825,0.6873606912111906
0.044,1.7557478153291024,1.0,2845.2060130937716,0.39107089178479565,1.3127196784461932,0.9695620711293728,0.2867944082438223,0.6881581719148901
0.0445,1.7549698330044365,1.0,2850.57613364391,0.39448650923891065,1.3123205445891046,0.9700382623012359,0.28676173298618635,0.6889536907766745
0.045,1.7541918506797705,1.0,2855.8983659451233,0.3978829644449181,1.3119218812658475,0.970500238660888,0.28672905772855034,0.6897472576134391
0.0455,1.7534138683551046,1.0,2861.1729129584182,0.4012603647079339,1.31152368535981,0.9709485720701999,0.2866963824709144,0.6905388822061291
0.046,1.7526358860304387,1.0,2866.399980399089,0.4046188173330738,1.31112595375438,0.9713838056874327,0.28666370721327844,0.6913285742998323
0.0465,1.7518579037057727,1.0,2871.579776704865,0.40795842962545376,1.3107286833329455,0.9718064556836072,0.28663103195564243,0.6921163436038715
0.047,1.7510799213811068,1.0,2876.7125130040313,0.4112793088901896,1.3103318709788947,0.9722170128404759,0.2865983566980065,0.6929021997918963
0.0475,1.750301939056441,1.0,2881.798403083439,0.4145815624323971,1.3099355135756157,0.9726159440393116,0.28656568144037053,0.6936861525019751
0.048,1.7495239567317749,1.0,2886.8378433665744,0.4178652684738583,1.3095396064154903,0.973003689896072,0.28653300618273453,0.6944682144774981
0.0485,1.748745974407109,1.0,2891.8319354705354,0.42113055354647344,1.309144138591886,0.9733806756166832,0.2865003309250986,0.6952484106322728
0.049,1.7479679920824431,1.0,2896.7814722254807,0.4243775419230809,1.308749101971852,0.9737473061312641,0.28646765566746263,0.696026760304767
0.0495,1.747190009757777,1.0,2901.687208225265,0.42760633132790626,1.3083544887983418,0.9741039642398474,0.2864349804098266,0.696803282008652
0.05,1.7464120274331112,1.0,2906.5499022478352,0.4308170194851751,1.30796029131431,0.9744510150289996,0.2864023051521907,0.6975779941760374
0.0505,1.7456340451084453,1.0,2911.370317182529,0.4340097041191129,1.3075665017627107,0.9747888068504913,0.2863696298945547,0.6983509151576801
0.051000000000000004,1.7448560627837792,1.0,2916.149219959554,0.43718448295394524,1.3071731123864978,0.9751176722374651,0.2863369546369187,0.6991220632231887
0.051500000000000004,1.7440780804591134,1.0,2920.887381480664,0.44034145371389766,1.3067801154286258,0.9754379287626143,0.28630427937928277,0.6998914565612213
0.052000000000000005,1.7433000981344475,1.0,2925.5855765504607,0.44348071412319573,1.3063875031320487,0.9757498798425226,0.28627160412164676,0.700659113279684
0.0525,1.7425221158097814,1.0,2930.2445838103167,0.44660236190606495,1.3059952677397209,0.9760538154919847,0.2862389288640108,0.7014250514059202
0.053,1.7417441334851156,1.0,2934.8651856721754,0.4497064947867309,1.305603401494596,0.9763500130318242,0.28620625360637486,0.7021892888869028
0.0535,1.7409661511604497,1.0,2939.4481682547657,0.4527932104894192,1.3052118966396289,0.9766387377534547,0.2861735783487389,0.7029518435894149
0.054,1.7401881688357836,1.0,2943.9943213207152,0.45586260673835527,1.3048207454177734,0.9769202435431742,0.2861409030911029,0.7037127333002328
0.0545,1.7394101865111178,1.0,2948.5044382151677,0.45891478125776475,1.3044299400719837,0.9771947734689538,0.28610822783346695,0.7044719757263025
0.055,1.738632204186452,1.0,2952.9793158053876,0.46194983177187315,1.304039472845214,0.977462560332273,0.28607555257583095,0.7052295884949118
0.0555,1.7378542218617858,1.0,2957.4197544222184,0.46496785600490603,1.3036493359804184,0.9777238271873565,0.286042877318195,0.7059855891538616
0.056,1.73707623953712,1.0,2961.8265578023215,0.46796895168108893,1.3032595217205514,0.9779787878299969,0.28601020206055905,0.7067399951716277
0.0565,1.7362982572124541,1.0,2966.2005330322686,0.47095321652464744,1.3028700223085665,0.978227647257976,0.2859775268029231,0.7074928239375269
0.057,1.7355202748877883,1.0,2970.5419579733257,0.4739207286831742,1.3024808346272856,0.978470600633323,0.2859448515452871,0.708244083811163
0.0575,1.7347422925631222,1.0,2974.8506022359784,0.47687154356552175,1.3020919599995049,0.978707833537702,0.28591217628765114,0.7089937745652346
0.058,1.7339643102384563,1.0,2979.1294889357046,0.47980583776265406,1.3017033714428154,0.9789395330128222,0.28587950103001514,0.7097419504465514
0.0585,1.7331863279137905,1.0,2983.379125710781,0.482723698043188,1.3013150639275703,0.9791658721182677,0.2858468257723792,0.7104886232472073
0.059000000000000004,1.7324083455891244,1.0,2987.6000223798364,0.4856252111757403,1.3009270324241222,0.9793870171107842,0.28581415051474324,0.7112338047079442
0.059500000000000004,1.7316303632644585,1.0,2991.792690910582,0.48851046392892794,1.3005392719028241,0.9796031277650226,0.2857814752571073,0.7119775065182409
0.06,1.7308523809397927,1.0,2995.9576453896575,0.4913795430713676,1.3001517773340294,0.9798143576767425,0.2857487999994713,0.7127197403164006
0.0605,1.7300743986151266,1.0,3000.0954019927603,0.4942325353716763,1.2997645436880907,0.9800208545495713,0.28571612474183533,0.7134605176896389
0.061,1.7292964162904607,1.0,3004.2064789545843,0.49706952759847073,1.2993775659353612,0.9802227604663248,0.2856834494841993,0.714199850174166
0.0615,1.7285184339657949,1.0,3008.2913965409953,0.49989060652036776,1.2989908390461942,0.9804202121458342,0.2856507742265634,0.7149377492552704
0.062,1.7277404516411288,1.0,3012.350677019921,0.5026958589059843,1.298604357990942,0.9806133411861581,0.2856180989689274,0.7156742263674021
0.0625,1.726962469316463,1.0,3016.3848446340667,0.5054853715239371,1.2982181177399583,0.9808022742949981,0.2855854237112914,0.7164092928942487
0.063,1.726184486991797,1.0,3020.3944255739184,0.5082592311428431,1.2978321132635957,0.9809871335080813,0.28555274845365547,0.717142960168816
0.0635,1.725406504667131,1.0,3024.379947950587,0.5110175245313191,1.2974463395322073,0.9811680363962252,0.28552007319601946,0.717875239473504
0.064,1.724628522342465,1.0,3028.3419417705177,0.5137603384579819,1.2970607915161463,0.9813450962617478,0.2854873979383835,0.7186061420401807
0.0645,1.7238505400177992,1.0,3032.2809389095582,0.5164877596914483,1.2966754641857654,0.9815184223248481,0.28545472268074756,0.7193356790502572
0.065,1.7230725576931332,1.0,3036.197473088204,0.5191998750003354,1.2962903525114178,0.9816881199005364,0.2854220474231116,0.720063861634757
0.0655,1.7222945753684673,1.0,3040.0920798471348,0.5218967711532596,1.2959054514634567,0.9818542905666604,0.2853893721654756,0.7207907008743875
0.066,1.7215165930438014,1.0,3043.9652965239256,0.5245785349188382,1.2955207560122346,0.9820170323235347,0.28535669690783966,0.7215162077996088
0.0665,1.7207386107191354,1.0,3047.8176622291508,0.5272452530656877,1.295136261128105,0.9821764397456494,0.28532402165020365,0.7222403933906985
0.067,1.7199606283944695,1.0,3051.649717824359,0.5298970123624251,1.2947519617814205,0.9823326041259097,0.2852913463925677,0.722963268577819
0.0675,1.7191826460698036,1.0,3055.462005899467,0.5325338995776672,1.2943678529425346,0.9824856136128143,0.28525867113493175,0.7236848442410788
0.068,1.7184046637451376,1.0,3059.2550707516534,0.5351560014800308,1.2939839295817999,0.9826355533409776,0.2852259958772958,0.7244051312105975
0.0685,1.7176266814204717,1.0,3063.0291987195055,0.5377633909376089,1.2936001888974455,0.9827825047856167,0.2851933206196598,0.7251241360949754
0.069,1.7168486990958058,1.0,3066.7839089663066,0.5403561067194355,1.293216634675232,0.9829265448808212,0.28516064536202385,0.7258418531560316
0.0695,1.71607071677114,1.0,3070.5209199937563,0.5429343069136873,1.2928332518452508,0.9830677544815446,0.2851279701043879,0.7265583119060457
0.07,1.715292734446474,1.0,3074.2404909937195,0.5454980677417076,1.2924500378747696,0.9832062072994298,0.2850952948467519,0.7272735183260389
0.07050000000000001,1.714514752121808,1.0,3077.9428820657704,0.5480474654248398,1.2920669902310564,0.9833419746267574,0.28506261958911594,0.727987478371722
0.07100000000000001,1.713736769797142,1.0,3081.6283542071537,0.5505825761844275,1.2916841063813789,0.9834751254322202,0.28502994433148,0.7287001979735219
