Time [s],Phi [rad],STIM [ ],Fsee [N],Gamma [ ],Lcerel [ ],q [ ],Lmtc [m],fisomrel [ ]
0.0,1.8,1.0,17.96706327983912,1.0001966731649849e-05,1.3793397568503354,0.005000026662216381,0.288653,0.5411395053339555
0.0005,1.79999375,1.0,18.276404635733588,0.005619155172402654,1.3793024255026687,0.012940520167170538,0.2886527375,0.5412298150758689
0.001,1.799975,1.0,21.618030449639747,0.011196845463512062,1.3789383379743747,0.03560858918837321,0.28865195,0.5421101275931715
0.0015,1.79994375,1.0,31.068797024874158,0.016743249322994813,1.3780462411286447,0.07060172317041978,0.2886506375,0.544263519032215
0.002,1.7999,1.0,53.58168504432706,0.02225854224213498,1.3763681772808385,0.1147178581755587,0.2886488,0.548300367124679
0.0025,1.79984375,1.0,97.11787216676552,0.02774289872812867,1.3739352186026266,0.16457469704234642,0.28864643749999996,0.5541213402060137
0.003,1.7997750000000001,1.0,160.9569848892101,0.03319649231180206,1.3712143879971797,0.21728025067561857,0.28864354999999997,0.5605863461220644
0.0035,1.79969375,1.0,237.68210811827416,0.03861949554720202,1.3685847719179198,0.2706126850383288,0.2886401375,0.5667897509892061
0.004,1.7996,1.0,321.4655616176717,0.04401208002237859,1.3661561244370908,0.32291560383104817,0.2886362,0.5724798869171228
0.0045000000000000005,1.7994937500000001,1.0,409.2665855848352,0.04937441636456934,1.3639228415183873,0.3730343194489162,0.2886317375,0.5776790989195879
0.005,1.799375,1.0,499.4123760181376,0.054706674231290234,1.3618583663199129,0.42024728486523655,0.28862675,0.5824570239932518
0.0055,1.79924375,1.0,590.7893314811221,0.06000902235779881,1.359938856249107,0.46417353580828247,0.2886212375,0.5868750630168516
0.006,1.7991000000000001,1.0,682.5170646957963,0.06528162850025399,1.358146433717862,0.5046798134334904,0.2886152,0.5909793750483965
0.006500000000000001,1.79894375,1.0,773.8806000073299,0.07052465949094854,1.356467264847273,0.5418006215174163,0.2886086375,0.594805768789235
0.007,1.798775,1.0,864.2849709129317,0.07573828122346248,1.3548904085697602,0.5756766577863236,0.28860155,0.5983826463813415
0.0075,1.79859375,1.0,953.2416551858037,0.08092265866035293,1.3534068031890252,0.6065098121978093,0.2885939375,0.6017335186853113
0.008,1.7984,1.0,1040.3563849045563,0.0860779558173369,1.352008676816584,0.634531970714983,0.2885858,0.6048784803757581
0.0085,1.79819375,1.0,1125.3183787181085,0.0912043358971948,1.3506891827327598,0.659984308295417,0.2885771375,0.6078351311040465
0.009000000000000001,1.797975,1.0,1207.8781109401252,0.09630196079292863,1.3494423366073671,0.6831042771864927,0.28856795,0.6106187926861719
0.0095,1.79774375,1.0,1287.872647959836,0.10137099234438406,1.3482623826058786,0.704117541533856,0.2885582375,0.61324398233953
0.01,1.7975,1.0,1365.1659880379816,0.10641159078542513,1.3471443989189045,0.7232341677167247,0.288548,0.6157231068215323
0.0105,1.79724375,1.0,1439.6589692203208,0.11142391512324107,1.3460839530204567,0.7406466028255748,0.2885372375,0.6180672750693059
0.011,1.796975,1.0,1511.3069809848691,0.11640812398430161,1.3450767397236467,0.7565291605333241,0.28852595000000003,0.6202871291508245
0.0115,1.79669375,1.0,1580.1104116212066,0.12136437591519929,1.3441186097022917,0.7710386168124521,0.2885141375,0.6223928012007712
0.012,1.7964,1.0,1646.0649900253916,0.1262928274127049,1.3432060715619147,0.7843155040019751,0.28850180000000003,0.6243928330454014
0.0125,1.79609375,1.0,1709.1781600837883,0.13119363378866566,1.3423359867174611,0.7964852653020505,0.2884889375,0.6262948730809383
0.013000000000000001,1.7957750000000001,1.0,1769.4933194242794,0.13606695030877697,1.3415052221645805,0.8076595148830154,0.28847555,0.6281064516400527
0.0135,1.79544375,1.0,1827.073082891594,0.14091293125001933,1.340710800004892,0.8179375101852702,0.2884616375,0.6298346644133499
0.014,1.7951000000000001,1.0,1881.9861833862126,0.1457317309232825,1.3399499964312984,0.8274075256598059,0.2884472,0.6314859691529343
0.0145,1.79474375,1.0,1934.2855133092219,0.1505235007091448,1.339220532641166,0.8361481436530347,0.2884322375,0.6330657851870016
0.015,1.794375,1.0,1984.0449395538994,0.1552883919881845,1.3385201298318616,0.8442292124263182,0.28841675,0.6345794697022307
0.0155,1.79399375,1.0,2031.3470360536953,0.16002655531288223,1.3378466193739282,0.8517129040472657,0.2884007375,0.6360320847500257
0.016,1.7936,1.0,2076.287443947156,0.16473814193381744,1.3371978736991812,0.8586545989270752,0.2883842,0.6374285522090276
0.0165,1.7931937500000001,1.0,2118.9528138649016,0.16942330149791493,1.3365720161751216,0.8651037507069891,0.2883671375,0.6387732076779775
0.017,1.792775,1.0,2159.4094720744088,0.17408218082678892,1.3359675109564118,0.8711046088190907,0.28834955,0.6400696160132442
0.0175,1.7923437500000001,1.0,2197.7344399126227,0.1787149267420537,1.3353828221977146,0.8766967346629165,0.2883314375,0.6413213092305361
0.018000000000000002,1.7919,1.0,2234.0145406175993,0.18332168606532356,1.3348164140536927,0.8819155529483966,0.2883128,0.6425317885211297
0.0185,1.79144375,1.0,2268.3371109489112,0.18790260464275801,1.3342668349080493,0.8867928559446545,0.2882936375,0.643704346557892
0.019,1.790975,1.0,2300.7938276215245,0.1924578287854785,1.3337326687013964,0.8913572121266164,0.28827395,0.6448421742392985
0.0195,1.79049375,1.0,2331.4640083822987,0.19698750282511643,1.3332126911061806,0.8956343713811143,0.2882537375,0.6459480308857688
0.02,1.79,1.0,2360.4138403585175,0.20149176874093921,1.332705864919268,0.89964758129204,0.288233,0.6470242584449037
0.0205,1.78949375,1.0,2387.714560480428,0.2059707685122144,1.332211152937524,0.903417825227898,0.2882117375,0.648073181964034
0.021,1.788975,1.0,2413.4420351548692,0.21042464411820944,1.331727517957815,0.9069640736749491,0.28818995000000003,0.6490971104258532
0.021500000000000002,1.78844375,1.0,2437.6690224638355,0.21485353616396843,1.3312539933883067,0.9103035190601583,0.2881676375,0.6500981883427923
0.022,1.7879,1.0,2460.4728714805374,0.21925758665376874,1.3307896043300351,0.913451753298989,0.2881448,0.6510785639897283
0.0225,1.78734375,1.0,2481.920864350492,0.2236369354986399,1.330333504359109,0.9164229639738868,0.28812143749999997,0.652040101715021
0.023,1.786775,1.0,2502.0683777522677,0.2279917196546082,1.3298849874530894,0.9192300832847162,0.28809755,0.652984359225367
0.0235,1.78619375,1.0,2520.9731948734943,0.23232207607770008,1.329443347589537,0.9218848930562005,0.28807313749999996,0.6539128849776769
0.024,1.7856,1.0,2538.695303867906,0.23662814172394184,1.3290078787460131,0.9243981429586022,0.2880482,0.6548272185046198
0.0245,1.78499375,1.0,2555.2967073633426,0.24091005354935982,1.3285778749000785,0.9267796551555724,0.2880227375,0.6557288907083814
0.025,1.784375,1.0,2570.8287865994157,0.24516794530941788,1.3281527466951104,0.9290384355987186,0.28799675,0.6566191799631846
0.025500000000000002,1.78374375,1.0,2585.357962628639,0.2494019563275346,1.3277317785610616,0.931182717482367,0.2879702375,0.6574996215599594
0.026000000000000002,1.7831000000000001,1.0,2598.9299999042605,0.25361221970353875,1.3273144616371746,0.9332200858082095,0.2879432,0.6583713112345873
0.0265,1.78244375,1.0,2611.5861298931527,0.2577988668861978,1.3269003400363997,0.9351575162990826,0.2879156375,0.6592352285844588
0.027,1.781775,1.0,2623.36859830861,0.26196202932427937,1.3264889578716867,0.9370014254165554,0.28788755,0.6600923481755738
0.0275,1.7810937500000001,1.0,2634.3205780572093,0.26610183846655083,1.3260798592559857,0.9387577226485975,0.2878589375,0.6609436396288155
0.028,1.7804,1.0,2644.4860867937355,0.2702184257617798,1.3256725883022467,0.9404318572735412,0.2878298,0.66179006769297
0.0285,1.77969375,1.0,2653.9094153937695,0.2743119223954777,1.3252666936743382,0.9420288607946882,0.2878001375,0.662632582864044
0.029,1.778975,1.0,2662.62666247431,0.27838245475912554,1.324861805784048,0.943553393564215,0.28776995,0.6634719615520648
0.029500000000000002,1.7782437500000001,1.0,2670.6883825326167,0.28243015916999487,1.3244574274313872,0.9450097541884359,0.2877392375,0.6643092403845859
0.03,1.7775,1.0,2678.122936580597,0.2864551611140002,1.324053270513531,0.9464019490859075,0.287708,0.6651450187164677
0.0305,1.77674375,1.0,2684.959096665993,0.29045758607705596,1.323649046927654,0.9477336935922649,0.2876762375,0.6659798929299146
0.031,1.775975,1.0,2691.226009318475,0.29443755954507667,1.3232444685709313,0.9490084367705484,0.28764395,0.6668144564358937
0.0315,1.7751937500000001,1.0,2696.953160836157,0.2983952070039767,1.322839247340537,0.9502293838156829,0.2876111375,0.6676492996702664
0.032,1.7744,1.0,2702.170344412433,0.3023306539396705,1.3224330951336465,0.951399516312402,0.2875778,0.6684850100846201
0.0325,1.77359375,1.0,2706.907629103239,0.3062440258380726,1.3220257238474344,0.9525216105754141,0.2875439375,0.669322172131811
0.033,1.772775,1.0,2711.1870430877134,0.3101354428621755,1.3216169209636726,0.9535982616020661,0.28750955,0.6701612122125218
0.0335,1.7719437500000002,1.0,2715.038867763829,0.31400503197926044,1.3212064005299502,0.9546318837525519,0.2874746375,0.6710027049062284
0.034,1.7711000000000001,1.0,2718.496411084083,0.31785292230633583,1.3207938508206742,0.9556247291723232,0.2874392,0.6718472744759025
0.0345,1.7702437500000001,1.0,2721.577334851135,0.3216792324493721,1.320379104166318,0.9565789158767906,0.2874032375,0.6726952474923074
0.035,1.7693750000000001,1.0,2724.2994242954696,0.3254840810143396,1.3199619928973554,0.957496425057779,0.28736675,0.67354694866439
0.035500000000000004,1.76849375,1.0,2726.68057556868,0.32926758660720884,1.31954234934426,0.9583791115067143,0.2873297375,0.6744027008148945
0.036000000000000004,1.7676,1.0,2728.738783859342,0.33302986783395017,1.3191200058375052,0.9592287131291982,0.2872922,0.6752628248541793
0.0365,1.76669375,1.0,2730.492132132954,0.3367710433005339,1.3186947947075651,0.9600468596395682,0.2872541375,0.6761276397522415
0.037,1.765775,1.0,2731.9587804945213,0.3404912316129306,1.318266548284913,0.9608350805145325,0.28721555,0.6769974625089514
0.0375,1.76484375,1.0,2733.1569561750184,0.3441905513771107,1.3178350989000227,0.961594812276581,0.2871764375,0.6778726081224897
0.038,1.7639,1.0,2734.1049441406276,0.34786912119904445,1.3174002788833676,0.9623274051704431,0.28713679999999997,0.6787533895559963
0.0385,1.76294375,1.0,2734.8153925528327,0.3515270542163909,1.3169619721966745,0.9630341330600979,0.28709663750000003,0.6796400133328907
0.039,1.761975,1.0,2735.3046207379184,0.35516446967931664,1.3165200298196091,0.9637161932066067,0.28705595,0.6805327510299546
0.0395,1.7609937500000001,1.0,2735.591224997929,0.3587814881783164,1.3160742823677127,0.9643747117950661,0.2870147375,0.6814319133473705
0.04,1.76,1.0,2735.6852540578975,0.36237822122109925,1.3156246383159242,0.9650107556959343,0.286973,0.6823376520661416
0.0405,1.7589937500000001,1.0,2735.596778400946,0.36595478031537426,1.3151710061391817,0.9656253312752412,0.2869307375,0.6832501176314283
0.041,1.757975,1.0,2735.335886812356,0.3695112769688505,1.314713294312424,0.9662193884580323,0.28688795,0.6841694591295331
0.0415,1.75694375,1.0,2734.9126831101626,0.37304782268923703,1.3142514113105896,0.9667938244780493,0.2868446375,0.6850958242643579
0.042,1.7559,1.0,2734.3372830611647,0.3765645289842429,1.3137852656086173,0.9673494873408806,0.28680079999999997,0.6860293593333211
0.0425,1.75484375,1.0,2733.6198114829426,0.38006150736157723,1.313314765681445,0.9678871790251994,0.2867564375,0.6869702092027463
0.043000000000000003,1.753775,1.0,2732.770399530733,0.383538869328949,1.3128398200040117,0.9684076584443664,0.28671155,0.6879185172827091
0.043500000000000004,1.75269375,1.0,2731.799182171355,0.38699672639406735,1.3123603370512558,0.9689116441885841,0.28666613750000003,0.6888744255013581
0.044,1.7516,1.0,2730.7113414229248,0.3904351801682698,1.3118762703219005,0.9693998191217468,0.2866202,0.6898379847260869
0.0445,1.75049375,1.0,2729.5174966812224,0.3938543462629797,1.311387523924184,0.9698728288424722,0.2865737375,0.69080934293484
0.045,1.7493750000000001,1.0,2728.2295941491866,0.3972543431073269,1.3108939898797547,0.970331285155817,0.28652675,0.6917886704612468
0.0455,1.74824375,1.0,2726.8526752575517,0.4006352746715274,1.3103956229489386,0.9707757713444926,0.2864792375,0.6927760116522332
0.046,1.7471,1.0,2725.391780969949,0.40399724492579714,1.3098923778920617,0.9712068412775119,0.2864312,0.6937714098354708
0.0465,1.7459437500000001,1.0,2723.8519509907633,0.40734035784035216,1.3093842094694497,0.9716250211716364,0.28638263750000004,0.694774907305369
0.047,1.744775,1.0,2722.23822301826,0.4106647173854085,1.308871072441428,0.9720308112311472,0.28633355,0.6957865453089352
0.0475,1.74359375,1.0,2720.5556320438163,0.41397042753118213,1.308352921568323,0.9724246871754181,0.28628393750000003,0.6968063640315041
0.048,1.7424,1.0,2718.809209695283,0.41725759224788905,1.3078297116104602,0.9728071016629485,0.2862338,0.6978344025823371
0.0485,1.74119375,1.0,2717.0039836273545,0.4205263155057453,1.3073013973281653,0.9731784856197774,0.2861831375,0.6988706989800928
0.049,1.739975,1.0,2715.1449769552964,0.42377670127496686,1.3067679334817646,0.9735392494795174,0.28613195,0.6999152901381622
0.0495,1.73874375,1.0,2713.2372077361374,0.4270088535257697,1.3062292748315831,0.973889784341651,0.2860802375,0.7009682118498812
0.05,1.7375,1.0,2711.2856884937974,0.4302228762283699,1.3056853761379472,0.9742304630541699,0.286028,0.7020294987736024
0.0505,1.73624375,1.0,2709.295385117563,0.43341887242695165,1.3051361925322553,0.9745616411452186,0.2859752375,0.7030991836955307
0.051000000000000004,1.734975,1.0,2707.270599138324,0.43659692170852893,1.3045816851520542,0.974883655631492,0.28592195,0.7041772865750476
0.051500000000000004,1.73369375,1.0,2705.2163607532198,0.4397571587225449,1.304021808430593,0.9751968339142404,0.2858681375,0.7052638392812238
0.052000000000000005,1.7324,1.0,2703.1348439861426,0.44289967927707263,1.303456542824908,0.9755014860474289,0.2858138,0.7063588221197536
0.0525,1.73109375,1.0,2701.028220026412,0.4460245791801851,1.3028858687920355,0.9757979082858496,0.28575893750000003,0.7074622145602483
0.053,1.729775,1.0,2698.898657121772,0.44913195423995544,1.302309766789012,0.9760863838158578,0.28570355000000003,0.7085739952295063
0.0535,1.72844375,1.0,2696.7483204802434,0.45222190026445663,1.3017282172728732,0.9763671834413435,0.2856476375,0.7096941419047634
0.054,1.7271,1.0,2694.579372180183,0.45529451306176166,1.3011412007006562,0.9766405662280345,0.2855912,0.7108226315069104
0.0545,1.7257437500000001,1.0,2692.393971088944,0.45834988843994356,1.3005486975293967,0.9769067801089968,0.2855342375,0.7119594400936965
0.055,1.724375,1.0,2690.1942727897417,0.4613881222070754,1.2999506882161311,0.9771660624539731,0.28547675,0.7131045428528995
0.0555,1.72299375,1.0,2687.9824295174426,0.4644093101712302,1.2993471532178957,0.9774186406050052,0.2854187375,0.7142579140954772
0.056,1.7216,1.0,2685.7605901022694,0.46741354814048097,1.2987380729917268,0.9776647323805959,0.2853602,0.7154195272486916
0.0565,1.72019375,1.0,2683.53089992256,0.47040093192290067,1.2981234279946607,0.9779045465505071,0.28530113749999997,0.7165893548492103
0.057,1.718775,1.0,2681.2955008656004,0.47337155732656244,1.2975031986837338,0.9781382832831214,0.28524155,0.7177673685361825
0.0575,1.71734375,1.0,2679.056531296866,0.4763255201595392,1.2968773655159822,0.9783661345671723,0.2851814375,0.7189535390442918
0.058,1.7159,1.0,2676.816126038084,0.4792629162299041,1.2962459089484422,0.9785882846094973,0.2851208,0.7201478361967836
0.0585,1.71444375,1.0,2674.5726374894466,0.4821838390965795,1.2956088441374969,0.9788049119535,0.2850596375,0.7213501634811641
0.059000000000000004,1.7129750000000001,1.0,2672.3299044945293,0.48508837855197784,1.294966135864686,0.9790161849281935,0.28499795,0.7225605187916314
0.059500000000000004,1.71149375,1.0,2670.0897811134864,0.4879766258059319,1.2943177670929833,0.9792222663237932,0.2849357375,0.7237788647110983
0.06,1.71,1.0,2667.852847510173,0.49084867200356147,1.2936637324690323,0.9794233131757789,0.284873,0.7250051410470555
0.0605,1.7084937500000001,1.0,2665.615349864588,0.49370460814385225,1.2930040664940494,0.9796194785432323,0.2848097375,0.7262392124296897
0.061,1.7069750000000001,1.0,2663.3880742380607,0.4965445249340249,1.2923386699347503,0.9798109024329176,0.28474595,0.7274811927958582
0.0615,1.7054438206588258,1.0,2661.179510386781,0.4993685123377435,1.291667496441359,0.9799977222084109,0.2846816404676707,0.7287310954069829
0.062,1.7039076497452208,1.0,2659.3200346474187,0.5021766592033575,1.2909908623450628,0.9801800889234449,0.2846171212892993,0.7299882590295814
0.0625,1.702371478831616,1.0,2658.019669721666,0.5049690543792166,1.2903090839770495,0.9803581480073958,0.28455260211092787,0.7312520272972145
0.063,1.700835307918011,1.0,2657.2426572810277,0.5077457863131635,1.2896224869803543,0.9805320399758756,0.28448808293255645,0.7325217316177122
0.0635,1.699299137004406,1.0,2656.940769361485,0.5105069434246938,1.2889315135589658,0.9807019061699818,0.28442356375418504,0.7337964938537154
0.064,1.697762966090801,1.0,2657.077241873385,0.5132526126344492,1.2882365016611168,0.9808678774486489,0.2843590445758136,0.7350756349176053
0.0645,1.6962267951771959,1.0,2657.617673960145,0.5159828805518853,1.2875377684882376,0.9810300789238678,0.2842945253974422,0.7363585194285863
0.065,1.6946906242635909,1.0,2658.530264722812,0.5186978330412522,1.2868356080653636,0.9811886300616556,0.2842300062190708,0.7376445597760624
0.0655,1.693154453349986,1.0,2659.7872569172996,0.5213975549676702,1.2861302777441455,0.9813436442415482,0.28416548704069944,0.7389332402999305
0.066,1.691618282436381,1.0,2661.34433969065,0.524082136757949,1.2854221876632312,0.981495238783555,0.28410096786232797,0.7402237716503036
0.0665,1.690082111522776,1.0,2663.1822449354445,0.526751661573246,1.2847115175508514,0.9816435152430875,0.2840364486839566,0.7415157900953164
0.067,1.688545940609171,1.0,2665.281723985268,0.5294062125747184,1.2839984471352375,0.9817885716822383,0.2839719295055852,0.7428089350279774
0.0675,1.687009769695566,1.0,2667.623537692355,0.5320458729235238,1.2832831561446196,0.9819305028192509,0.2839074103272138,0.7441028489947163
0.068,1.685473598781961,1.0,2670.1884472205256,0.5346707257808191,1.2825658243072293,0.9820694001706344,0.28384289114884237,0.7453971777218623
0.0685,1.683937427868356,1.0,2672.957205554724,0.537280854307762,1.2818466313512973,0.9822053521863318,0.28377837197047096,0.7466915701400699
0.069,1.682401256954751,1.0,2675.910549726722,0.5398763416655096,1.2811257570050543,0.9823384443783256,0.28371385279209954,0.7479856784066812
0.0695,1.680865086041146,1.0,2679.0302000048587,0.5424572704467617,1.280403371764564,0.9824687589752177,0.2836493336137281,0.74927917443579
0.07,1.679328915127541,1.0,2682.304401568626,0.545023720725085,1.2796795860507182,0.9825963725709498,0.2835848144353567,0.7505718403906216
0.07050000000000001,1.677792744213936,1.0,2685.712890777098,0.5475757783168965,1.2789545881108297,0.9827213632120864,0.2835202952569853,0.7518633219767772
0.07100000000000001,1.6762565733003312,1.0,2689.246577369624,0.5501135222645616,1.2782284634948584,0.9828438013184762,0.2834557760786139,0.7531534505780939
0.07150000000000001,1.6747204023867261,1.0,2692.8963554131974,0.552637031610445,1.277501297752764,0.9829637550479391,0.28339125690024247,0.7544420591375377
0.07200000000000001,1.6731842314731211,1.0,2696.653101246408,0.5551463853969119,1.2767731764345063,0.9830812903861302,0.2833267377218711,0.7557289821631176
0.0725,1.671648060559516,1.0,2700.5076715856694,0.5576416626663274,1.2760441850900452,0.983196471232286,0.28326221854349964,0.7570140557333318
0.073,1.670111889645911,1.0,2704.450901794595,0.5601229424610568,1.2753144092693403,0.9833093594810675,0.2831976993651283,0.7582971175021499
0.0735,1.6685757187323063,1.0,2708.4736043137473,0.5625903038234649,1.2745839345223515,0.9834200151007001,0.28313318018675687,0.7595780067035235
0.074,1.6670395478187012,1.0,2712.56737422224,0.5650438247411426,1.2738528390411497,0.9835284958222599,0.28306866100838546,0.7608565770060657
