Time [s],Phi [rad],STIM [ ],Fsee [N],Gamma [ ],Lcerel [ ],q [ ],Lmtc [m],fisomrel [ ]
0.0,1.8,1.0,17.968052128193243,1.091454621011531e-05,1.3793396460674814,0.0050000317276162245,0.288653,0.5411397733462946
0.0005,1.79999375,1.0,18.277609437259773,0.005620062633031915,1.3793022916736335,0.01294305187114535,0.2886527375,0.5412301388110009
0.001,1.799975,1.0,21.61986144882056,0.011197747834004936,1.3789381509671994,0.03561333818921444,0.28865195,0.5421105795330357
0.0015,1.79994375,1.0,31.072065194220766,0.01674414663190277,1.3780459626971935,0.07060822185221298,0.2886506375,0.5442641903327559
0.002,1.7999,1.0,53.58785180523894,0.02225943451784899,1.3763677772220548,0.11472555437631295,0.2886488,0.5483013273881687
0.0025,1.79984375,1.0,97.12769774238284,0.02774378599888181,1.373934745140966,0.16458307140047515,0.28864643749999996,0.554122469312375
0.003,1.7997750000000001,1.0,160.969487846976,0.0331973746056678,1.3712139200069413,0.21728889236701718,0.28864354999999997,0.560587454059567
0.0035,1.79969375,1.0,237.69607178964273,0.03862037289209648,1.3685843418051136,0.27062128221276593,0.2886401375,0.5667907620411072
0.004,1.7996,1.0,321.48030675288913,0.04401295244606171,1.3661557338985217,0.3229239298085466,0.2886362,0.5724807988942442
0.0045000000000000005,1.7994937500000001,1.0,409.2817721790482,0.04937528389464651,1.3639224850339347,0.3730422241289928,0.2886317375,0.5776799262969567
0.005,1.799375,1.0,499.4278026657528,0.054707536895210525,1.361858038507093,0.4202546811856542,0.28862675,0.5824577805095636
0.0055,1.79924375,1.0,590.804849050967,0.060009880182854025,1.3599385530751356,0.46418038421489216,0.2886212375,0.5868757589610263
0.006,1.7991000000000001,1.0,682.532555731801,0.06528248151358787,1.358146152133443,0.5046861075739774,0.2886152,0.5909800182143135
0.006500000000000001,1.79894375,1.0,773.8958791673176,0.07052550771966999,1.3564670040231637,0.5418063777734268,0.2886086375,0.5948063617434625
0.007,1.798775,1.0,864.2998326469699,0.07573912469430312,1.354890168506049,0.5756819059085333,0.28860155,0.5983831897249621
0.0075,1.79859375,1.0,953.2565397128627,0.0809234973999072,1.353406574250323,0.6065145828115502,0.2885939375,0.6017340346831983
0.008,1.7984,1.0,1040.3685208264872,0.08607878982388122,1.3520084981399276,0.634536326724479,0.2885858,0.6048788814964049
0.0085,1.79819375,1.0,1125.3325889775815,0.09120516526933739,1.3506889815687382,0.6599882461663188,0.2885771375,0.6078355810149274
0.009000000000000001,1.797975,1.0,1207.8954049116219,0.09630278568159521,1.3494421003044914,0.6831078299313148,0.28856795,0.6106193193073526
0.0095,1.79774375,1.0,1287.883737566744,0.10137181240942313,1.3482622358599248,0.7041208126506723,0.2885582375,0.613244308271193
0.01,1.7975,1.0,1365.1758894786926,0.10641240618480677,1.347144271658807,0.7232371512603533,0.288548,0.6157233885665705
0.0105,1.79724375,1.0,1439.6711068735603,0.11142472599286316,1.3460838011087037,0.7406493069027574,0.2885372375,0.6180676103640026
0.011,1.796975,1.0,1511.3175002939367,0.11640893024219048,1.3450766112253139,0.7565316363187092,0.28852595000000003,0.620287411942773
0.0115,1.79669375,1.0,1580.1215926864822,0.1213651777226799,1.3441184761270173,0.7710408754366492,0.2885141375,0.6223930943495517
0.012,1.7964,1.0,1646.0768964315962,0.1262936247905011,1.3432059322000982,0.7843175673815272,0.28850180000000003,0.6243931380824668
0.0125,1.79609375,1.0,1709.1903996373705,0.13119442671732945,1.34233584612614,0.796487155109672,0.2884889375,0.6262951800290171
0.013000000000000001,1.7957750000000001,1.0,1769.5055061311896,0.13606773877484046,1.3415050845867258,0.8076612502861582,0.28847555,0.6281067512800168
0.0135,1.79544375,1.0,1827.0806094928657,0.140913715210075,1.3407107163853316,0.8179391262869032,0.2884616375,0.629834846110313
0.014,1.7951000000000001,1.0,1881.9935849668245,0.14573251045003247,1.3399499154092518,0.8274090155749662,0.2884472,0.6314861448126358
0.0145,1.79474375,1.0,1934.2959646015172,0.15052427592586123,1.3392204197924826,0.836149507514494,0.2884322375,0.6330660293233796
0.015,1.794375,1.0,1984.0574600306986,0.1552891629030715,1.338519996347064,0.844230465912204,0.28841675,0.634579757886428
0.0155,1.79399375,1.0,2031.3618631148163,0.16002732222518873,1.3378464631492635,0.8517140571904649,0.2884007375,0.6360324213569304
0.016,1.7936,1.0,2076.3002246421747,0.16473890446971778,1.3371977405012614,0.858655674856368,0.2883842,0.6374288386506506
0.0165,1.7931937500000001,1.0,2118.961769185606,0.1694240595297501,1.3365719237888545,0.8651047618338173,0.2883671375,0.6387734059855534
0.017,1.792775,1.0,2159.414353031352,0.17408293436419317,1.3359674610766226,0.8711055616517104,0.28834955,0.6400697228881636
0.0175,1.7923437500000001,1.0,2197.736588881948,0.17871567593195448,1.3353828004291457,0.8766976306108185,0.2883314375,0.6413213557917852
0.018000000000000002,1.7919,1.0,2234.0169435489656,0.1833224311919415,1.334816389911004,0.8819163890274468,0.2883128,0.6425318400732225
0.0185,1.79144375,1.0,2268.3367072252427,0.18790334542205786,1.3342668389335306,0.886793644927356,0.2882936375,0.6437043379763556
0.019,1.790975,1.0,2300.795479677325,0.1924585660202864,1.3337326523455446,0.8913579465043977,0.28827395,0.6448422090510455
0.0195,1.79049375,1.0,2331.462722504317,0.19698823598379112,1.333212703752753,0.8956350671152971,0.2882537375,0.6459480040107782
0.02,1.79,1.0,2360.4073074999137,0.2014924975601403,1.3327059287745548,0.8996482465889708,0.288233,0.6470241229536379
0.0205,1.78949375,1.0,2387.703232243366,0.20597149299690215,1.3322112630303495,0.9034184614984846,0.2882117375,0.6480729487110329
0.021,1.788975,1.0,2413.4291885561984,0.21042536454164495,1.3317276421395365,0.9069646763803391,0.28818995000000003,0.649096847705815
0.021500000000000002,1.78844375,1.0,2437.6536528390784,0.21485425230978145,1.3312541412187768,0.9103040926515634,0.2881676375,0.6500978760376616
0.022,1.7879,1.0,2460.4618971955583,0.21925829951371795,1.330789709394247,0.9134522869133741,0.2881448,0.6510783423433345
0.0225,1.78734375,1.0,2481.913315736286,0.22363764446731146,1.3303335763141082,0.9164234619345315,0.28812143749999997,0.6520399501260563
0.023,1.786775,1.0,2502.0634576315206,0.22799242439384268,1.3298850341635087,0.9192305493857109,0.28809755,0.6529842609532548
0.0235,1.78619375,1.0,2520.9702832854146,0.2323227765165923,1.329443375127596,0.9218853306025019,0.28807313749999996,0.6539128271190626
0.024,1.7856,1.0,2538.69396217216,0.2366288380588411,1.3290078913915184,0.9243985548037351,0.2880482,0.6548271919710039
0.0245,1.78499375,1.0,2555.294286235475,0.2409107457400672,1.3285778976450051,0.9267800474718295,0.2880227375,0.6557288430458819
0.025,1.784375,1.0,2570.8230290740744,0.24516863431273025,1.3281528006197065,0.9290388138967192,0.28799675,0.6566190671091937
0.025500000000000002,1.78374375,1.0,2585.3518655434304,0.24940264238819024,1.3277318355052696,0.9311830781185071,0.2879702375,0.6574995025393715
0.026000000000000002,1.7831000000000001,1.0,2598.922068067923,0.253612901846133,1.327314535523516,0.9332204317353302,0.2879432,0.6583711569994417
0.0265,1.78244375,1.0,2611.5760293596236,0.25779954456624443,1.3269004338962669,0.9351578487194413,0.2879156375,0.6592350329031647
0.027,1.781775,1.0,2623.3571684797394,0.2619627024282104,1.3264890638453435,0.9370017439476699,0.28788755,0.6600921275171915
0.0275,1.7810937500000001,1.0,2634.309841730991,0.2661025073117168,1.3260799585925667,0.9387580254728927,0.2878589375,0.6609434330493305
0.028,1.7804,1.0,2644.479258380272,0.2702190910964495,1.3256726513597579,0.9404321412733504,0.2878298,0.6617899367229133
0.0285,1.77969375,1.0,2653.906535298032,0.27431258278603887,1.3252667202235342,0.9420291264416611,0.2878001375,0.6626325277902587
0.029,1.778975,1.0,2662.6342565496616,0.2783831156161343,1.3248617358953687,0.9435536355439523,0.28776995,0.6634721063490042
0.029500000000000002,1.7782437500000001,1.0,2670.6958409142935,0.28243081737027487,1.3244573588951793,0.9450099859790427,0.2877392375,0.6643093822026939
0.03,1.7775,1.0,2678.1234317924086,0.2864558145895279,1.3240532659692719,0.9464021789321957,0.287708,0.6651450281079349
0.0305,1.77674375,1.0,2684.949610685759,0.2904582338149607,1.3236491338639516,0.9477339249562731,0.2876762375,0.6659797134856951
0.031,1.775975,1.0,2691.2073558606626,0.2944382015876407,1.3232446393255242,0.9490086687403197,0.28764395,0.6668141044238259
0.0315,1.7751937500000001,1.0,2696.930003328027,0.2983958444486352,1.3228394591002957,0.9502296114762296,0.2876111375,0.6676488636729226
0.032,1.7744,1.0,2702.141744706172,0.30233128367639367,1.3224333564061688,0.9513997400424337,0.2875778,0.6684844728209585
0.0325,1.77359375,1.0,2706.874894546198,0.30624464804815044,1.322026022632194,0.9525218292795575,0.2875439375,0.6693215585066634
0.033,1.772775,1.0,2711.1659139532608,0.31013606805232496,1.3216171136674333,0.9535984617916691,0.28750955,0.6701608169522618
0.0335,1.7719437500000002,1.0,2715.034269450056,0.31400566366274213,1.3212064424380665,0.9546320620748586,0.2874746375,0.6710026190570187
0.034,1.7711000000000001,1.0,2718.499589653561,0.31785355485322664,1.3207938218702737,0.9556248940012624,0.2874392,0.6718473337049207
0.0345,1.7702437500000001,1.0,2721.5816495581685,0.32167986159760326,1.3203790648902343,0.9565790733556436,0.2874032375,0.6726953277425354
0.035,1.7693750000000001,1.0,2724.300355594059,0.3254847038696968,1.3199619844241282,0.957496579253559,0.28736675,0.6735469659546365
0.035500000000000004,1.76849375,1.0,2726.675731462224,0.3292682016433319,1.3195423933981352,0.9583792645525662,0.2873297375,0.6744026110376002
0.036000000000000004,1.7676,1.0,2728.7279047448906,0.3330304748923335,1.319120104738435,0.9592288653557527,0.2872922,0.6752626235705683
0.0365,1.76669375,1.0,2730.4770942922037,0.3367716435905262,1.3186949313712077,0.9600470096960972,0.2872541375,0.6761273619843788
0.037,1.765775,1.0,2731.9435983845706,0.34049182771173486,1.3182666862226329,0.9608352254806941,0.28721555,0.6769971825282658
0.0375,1.7648438422134605,1.0,2733.163490160337,0.3441911410952163,1.3178350811931356,0.9615949365673898,0.28717644137296533,0.6778726440145182
0.038,1.7639078605469245,1.0,2734.4964903896416,0.3478697057687884,1.3174002729260537,0.9623275259355395,0.2871371301429708,0.6787534016150085
0.0385,1.7629718788803885,1.0,2736.1450804188644,0.3515276424425591,1.3169626024203571,0.9630343111973461,0.2870978189129763,0.6796387393715391
0.039,1.7620358972138526,1.0,2738.08850378329,0.35516506394817415,1.3165222606342892,0.9637165166393249,0.2870585076829818,0.6805282478410686
0.0395,1.7610999155473166,1.0,2740.306023949454,0.35878208311727955,1.3160794385260934,0.9643752952603492,0.2870191964529873,0.6814215195823645
0.04,1.7601639338807806,1.0,2742.7769134096297,0.36237881278152095,1.3156343270540125,0.9650117336897749,0.2869798852229928,0.6823181491873747
0.0405,1.7592279522142447,1.0,2745.4804435848705,0.36595536577254434,1.3151871171762899,0.9656268567165534,0.28694057399299827,0.6832177333102669
0.041,1.7582919705477087,1.0,2748.3958755362023,0.36951185492199545,1.314737999851169,0.966221631463844,0.28690126276300376,0.6841198706941503
0.0415,1.7573559888811727,1.0,2751.5024514850347,0.37304839306152016,1.3142871660368927,0.9667969712402599,0.28686195153300925,0.6850241621954677
0.042,1.7564200072146368,1.0,2754.779387141126,0.3765650930227643,1.3138348066917045,0.9673537390958654,0.28682264030301474,0.6859302108060602
0.0425,1.7554840255481008,1.0,2758.205864839796,0.38006206763737366,1.3133811127738473,0.967892751108339,0.28678332907302023,0.6868376216729121
0.043000000000000003,1.7545480438815648,1.0,2761.7703548395866,0.383539423070851,1.3129261909561651,0.9684147715088922,0.2867440178430257,0.687746170324189
0.043500000000000004,1.7536120622150289,1.0,2765.453548887462,0.38699727587264676,1.3124702179748466,0.9689205311493614,0.2867047066130312,0.688655493873571
0.044,1.7526760805484929,1.0,2769.240522451049,0.39043573808255944,1.3120133306104156,0.9694107185223211,0.2866653953830367,0.6895653109738378
0.0445,1.751740098881957,1.0,2773.1233809436403,0.3938549158152382,1.3115556019299552,0.9698859804366889,0.2866260841530422,0.6904754684504568
0.045,1.750804117215421,1.0,2777.094212073151,0.3972549151853318,1.3110971050005482,0.9703469304385361,0.2865867729230477,0.6913858139677229
0.0455,1.749868135548885,1.0,2781.1450845384325,0.4006358423074894,1.3106379128892771,0.9707941508480084,0.2865474616930532,0.692296196032506
0.046,1.748932153882349,1.0,2785.268046843723,0.4039978032963598,1.3101780986632248,0.9712281946525658,0.28650815046305866,0.6932064639976621
0.0465,1.747996172215813,1.0,2789.4551262317605,0.40734090426659214,1.3097177353894742,0.9716495872679671,0.28646883923306415,0.6941164680651009
0.047,1.747060190549277,1.0,2793.6983277351437,0.41066525133283527,1.3092568961351079,0.9720588281774091,0.28642952800306964,0.6950260592885176
0.0475,1.7461242088827411,1.0,2797.989633346017,0.4139709506097382,1.3087956539672085,0.9724563924583278,0.28639021677307513,0.6959350895757781
0.048,1.7451882272162051,1.0,2802.3210013040634,0.4172581082119499,1.308334081952859,0.9728427322055418,0.2863509055430806,0.6968434116909681
0.0485,1.7442522455496692,1.0,2806.6886696859633,0.42052682316339846,1.3078722145774628,0.9732182743006487,0.2863115943130861,0.6977509550101042
0.049,1.7433162638831332,1.0,2811.084550413486,0.42377720666147467,1.3074101249730312,0.9735834295449652,0.2862722830830916,0.6986575735461267
0.0495,1.7423802822165972,1.0,2815.50365201533,0.42700936275171486,1.306947858332868,0.9739385866810503,0.2862329718530971,0.6995631768650052
0.05,1.7414443005500613,1.0,2819.943117520927,0.4302233912316416,1.3064854406225495,0.9742841146038069,0.2861936606231026,0.7004677126479647
0.0505,1.7405083188835253,1.0,2824.400080984524,0.43341939189877743,1.3060228978076518,0.9746203652468274,0.2861543493931081,0.7013711288820392
0.051000000000000004,1.7395723372169893,1.0,2828.8716674058833,0.4365974645506451,1.3055602558537505,0.974947674514442,0.28611503816311357,0.7022733738603015
0.051500000000000004,1.7386363555504534,1.0,2833.3549926654728,0.4397577089847671,1.305097540726422,0.9752663631545802,0.28607572693311906,0.7031743961820449
0.052000000000000005,1.7377003738839174,1.0,2837.8471634749617,0.44290022499866616,1.3046347783912424,0.9755767375766942,0.28603641570312455,0.7040741447529293
0.0525,1.7367643922173814,1.0,2842.345277342873,0.44602511238986475,1.3041719948137873,0.9758790906186545,0.28599710447313004,0.7049725687850807
0.053,1.7358284105508455,1.0,2846.846422554243,0.4491324709558857,1.3037092159596333,0.976173702266216,0.2859577932431355,0.7058696177971455
0.0535,1.7348924288843095,1.0,2851.347678166502,0.45222240049425144,1.3032464677943558,0.9764608403283757,0.28591848201314096,0.7067652416143071
0.054,1.7339564472177735,1.0,2855.850389452915,0.45529497741284836,1.3027837382908474,0.9767407564366977,0.2858791707831465,0.7076594637328433
0.0545,1.7330204655512376,1.0,2860.348380535247,0.4583503273394139,1.302321082242332,0.9770137003688887,0.28583985955315194,0.708552178672912
0.055,1.7320844838847016,1.0,2864.8395230372516,0.46138855133458034,1.301858518359246,0.9772799067486061,0.2858005483231575,0.7094433510649261
0.0555,1.7311485022181656,1.0,2869.323177727075,0.46440974163127857,1.301396052091981,0.9775395987399531,0.2857612370931629,0.7103329712479844
0.056,1.7302125205516297,1.0,2873.7987035121573,0.46741399046243953,1.3009336888909282,0.9777929902457834,0.28572192586316847,0.7112210296253126
0.0565,1.7292765388850937,1.0,2878.26545745062,0.4704013900609942,1.3004714342064791,0.978040286368331,0.2856826146331739,0.7121075166642267
0.057,1.7283405572185577,1.0,2882.7227947649903,0.4733720326598734,1.3000092934890248,0.9782816838433025,0.28564330340317945,0.7129924228960975
0.0575,1.7274045755520218,1.0,2887.1700688545357,0.476326010492008,1.299547272188957,0.9785173714491656,0.2856039921731849,0.7138757389163104
0.058,1.7264685938854858,1.0,2891.6066313104398,0.47926341579032905,1.2990853757566665,0.9787475303932338,0.28556468094319043,0.7147574553842271
0.0585,1.7255326122189498,1.0,2896.0318319295875,0.48218434078776734,1.298623609642545,0.9789723346760448,0.28552536971319586,0.7156375630231406
0.059000000000000004,1.7245966305524139,1.0,2900.445018730894,0.4850888777172539,1.2981619792969838,0.9791919514354142,0.2854860584832014,0.7165160526202328
0.059500000000000004,1.7236606488858779,1.0,2904.845537970538,0.4879771188117195,1.2977004901703744,0.9794065412714443,0.28544674725320685,0.7173929150265269
0.06,1.722724667219342,1.0,2909.232734159543,0.49084915630409515,1.297239147713108,0.9796162585536927,0.2854074360232124,0.7182681411568405
0.0605,1.721788685552806,1.0,2913.6059500801894,0.4937050824273118,1.2967779573755758,0.9798212517116043,0.2853681247932178,0.7191417219897351
0.061,1.72085270388627,1.0,2917.9645268051877,0.49654498941430025,1.2963169246081694,0.980021663509241,0.2853288135632233,0.7200136485674633
0.0615,1.719916722219734,1.0,2922.30780371544,0.49936896949799153,1.2958560548612799,0.980217631305277,0.2852895023332288,0.7208839119959163
0.062,1.718980740553198,1.0,2926.6363606830582,0.502177080819582,1.2953953426814033,0.9804092841385791,0.2852501911032343,0.721752523986404
0.0625,1.718044758886662,1.0,2930.9494713002537,0.5049694424453482,1.2949347940909224,0.9805967514568219,0.2852108798732398,0.7226194745999528
0.063,1.7171087772201261,1.0,2935.2465369230995,0.507746159630006,1.2944744139761408,0.9807801567974138,0.2851715686432453,0.7234847561014299
0.0635,1.7161727955535901,1.0,2939.52761073713,0.5105073156413986,1.2940142015013858,0.9809596172553644,0.28513225741325077,0.724348371541781
0.064,1.7152368138870542,1.0,2943.7927463934993,0.5132529937473693,1.2935541558309844,0.9811352456776381,0.28509294618325626,0.7252103239616011
0.0645,1.7143008322205182,1.0,2948.041998005818,0.5159832772157614,1.2930942761292636,0.9813071508485608,0.28505363495326175,0.7260706163911447
0.065,1.7133648505539822,1.0,2952.2754201468665,0.5186982493144184,1.292634561560551,0.9814754376658301,0.28501432372326724,0.7269292518503319
0.0655,1.7124288688874463,1.0,2956.4930678461014,0.5213979933111835,1.292175011289173,0.9816402073076732,0.28497501249327273,0.7277862333487616
0.066,1.7114928872209103,1.0,2960.6949965858953,0.5240825924739002,1.2917156244794572,0.9818015573916551,0.2849357012632782,0.7286415638857153
0.0665,1.7105569055543743,1.0,2964.8812622990417,0.5267521300704116,1.2912564002957303,0.9819595821256112,0.2848963900332837,0.72949524645017
0.067,1.7096209238878384,1.0,2969.0519213653915,0.5294066893685612,1.2907973379023197,0.9821143724511519,0.2848570788032892,0.7303472840208041
0.0675,1.7086849422213024,1.0,2973.207030609127,0.5320463536361922,1.2903384364635522,0.9822660161801479,0.2848177675732947,0.7311976795660073
0.068,1.7077489605547664,1.0,2977.3466472955242,0.534671206141148,1.289879695143755,0.9824145981245931,0.2847784563433002,0.7320464360438892
0.0685,1.7068129788882305,1.0,2981.4708291280886,0.5372813301512721,1.2894211131072555,0.9825602002202055,0.28473914511330567,0.7328935564022871
0.069,1.7058769972216945,1.0,2985.5796342456947,0.5398768089344076,1.2889626895183803,0.9827029016441117,0.28469983388331116,0.733739043578776
0.0695,1.7049410155551585,1.0,2989.673121219438,0.5424577257583979,1.2885044235414567,0.982842778926936,0.28466052265331665,0.7345829005006753
0.07,1.7040050338886226,1.0,2993.7513490498454,0.5450241638910863,1.2880463143408116,0.9829799060595972,0.28462121142332214,0.7354251300850585
0.07050000000000001,1.7030690522220866,1.0,2997.814377163925,0.5475762066003163,1.2875883610807726,0.9831143545950967,0.28458190019332763,0.7362657352387602
0.07100000000000001,1.7021330705555506,1.0,3001.8622654122387,0.5501139371539311,1.2871305629256662,0.9832461937455657,0.2845425889633331,0.7371047188583866
0.07150000000000001,1.7011970888890147,1.0,3005.895063196134,0.5526374329852032,1.2866729191339719,0.9833754901351784,0.2845032777333386,0.7379420836581863
