Time [s],Phi [rad],STIM [ ],Fsee [N],Gamma [ ],Lcerel [ ],q [ ],Lmtc [m],fisomrel [ ]
0.0,1.8,1.0,17.980335422997186,0.00012022058704910641,1.3793382701970105,0.005003777097361504,0.288653,0.5411431019258286
0.0005,1.79999375,1.0,18.32612896550718,0.00572875555345228,1.379296905798017,0.013249341615783838,0.2886527375,0.5412431672578135
0.001,1.799975,1.0,21.749707880542054,0.011305831073086234,1.3789249093713922,0.03618524318442433,0.28865195,0.5421425799039612
0.0015,1.79994375,1.0,31.376099884573282,0.016851623609513363,1.3780201242172365,0.07138958685145269,0.2886506375,0.5443264849706158
0.002,1.7999,1.0,54.23908477324156,0.022366308634506473,1.37632565831425,0.11564999195234434,0.2886488,0.5484024199437065
0.0025,1.79984375,1.0,98.2186034097061,0.027850060636316547,1.3738823261483215,0.16558819520061477,0.28864643749999996,0.5542474687306127
0.003,1.7997750000000001,1.0,162.38632828502162,0.03330305312639908,1.3711610043705849,0.2183254652641194,0.28864354999999997,0.5607127194981464
0.0035,1.79969375,1.0,239.29548842061845,0.03872545863981989,1.3685351594584705,0.27165202337576405,0.2886401375,0.5669063655705349
0.004,1.7996,1.0,323.1810692546976,0.04411744874579421,1.3661107475648318,0.32392179669912047,0.2886362,0.5725858434869899
0.0045000000000000005,1.7994937500000001,1.0,411.04235541250273,0.04947919405294509,1.363881202490651,0.37398934241571535,0.2886317375,0.5777757349297125
0.005,1.799375,1.0,501.2238199376246,0.05481086420098353,1.361819908085452,0.42114069969911433,0.28862675,0.5825457720441168
0.0055,1.79924375,1.0,592.6162249395251,0.060112627902107786,1.35990319069925,0.4650006491614174,0.2886212375,0.586956930243939
0.006,1.7991000000000001,1.0,684.3452458066058,0.06538465289869168,1.35811322444962,0.5054398968899755,0.2886152,0.5910552247267097
0.006500000000000001,1.79894375,1.0,775.6971495461613,0.07062710599279638,1.3564362733177424,0.5424955784065109,0.2886086375,0.5948762215030601
0.007,1.798775,1.0,866.0833383536576,0.07584015310382439,1.3548613742544235,0.5763099297245894,0.28860155,0.5984483579791516
0.0075,1.79859375,1.0,955.0103718845172,0.08102395910999052,1.3533796110837844,0.6070857619358284,0.2885939375,0.6017948037955144
0.008,1.7984,1.0,1042.0875801045304,0.08617868799403569,1.3519831990244136,0.635055290704138,0.2885858,0.6049356747593753
0.0085,1.79819375,1.0,1127.0136448974874,0.09130450316361448,1.3506651930724352,0.6604596561637212,0.2885771375,0.6078887830595401
0.009000000000000001,1.797975,1.0,1209.530156890558,0.09640156634707771,1.3494197708703557,0.6835362332495416,0.28856795,0.6106690807554469
0.0095,1.79774375,1.0,1289.4598311609066,0.1014700387763124,1.3482413862352016,0.7045105104121889,0.2885582375,0.6132906151562026
0.01,1.7975,1.0,1366.6984238634554,0.10651008168031141,1.3471247084925895,0.723591992686372,0.288548,0.6157666988327002
0.0105,1.79724375,1.0,1441.1443185495712,0.11152185387177035,1.3460653675228753,0.740972811164485,0.2885372375,0.6181082952846213
0.011,1.796975,1.0,1512.7415838157176,0.11650551361339435,1.3450592194981765,0.756827009949791,0.28852595000000003,0.620325685712083
0.0115,1.79669375,1.0,1581.4781577184751,0.12146121873374434,1.3441022733461043,0.7713110979731447,0.2885141375,0.6224286526723307
0.012,1.7964,1.0,1647.3741506061078,0.1263891268643606,1.3431907511485504,0.7845651629082111,0.28850180000000003,0.6244263658357583
0.0125,1.79609375,1.0,1710.4424456542806,0.13128939341883583,1.3423214669854096,0.7967143495812375,0.2884889375,0.6263265728346848
0.013000000000000001,1.7957750000000001,1.0,1770.7117494145568,0.13616217295230457,1.3414914694397777,0.8078700954102308,0.28847555,0.6281364040174151
0.0135,1.79544375,1.0,1828.2388586711356,0.14100761973110687,1.3406978504396847,0.8181314541061235,0.2884616375,0.6298628019954664
0.014,1.7951000000000001,1.0,1883.097813002094,0.14582588770062999,1.3399378296653235,0.8275864697348803,0.2884472,0.6315123468189716
0.0145,1.79474375,1.0,1935.3579163377067,0.1506171295984248,1.3392089548706385,0.8363134827815405,0.2884322375,0.6330908320649526
0.015,1.794375,1.0,1985.0798997419365,0.15538149607993212,1.3385090972122597,0.8443822374747065,0.28841675,0.6346032879609085
0.0155,1.79399375,1.0,2032.3428922027774,0.16011913780059284,1.3378361278468176,0.8518547773469802,0.2884007375,0.6360546898006019
0.016,1.7936,1.0,2077.2311092579343,0.1648302044592067,1.337188040104765,0.8587863922729649,0.2883842,0.6374496990124596
0.0165,1.7931937500000001,1.0,2119.843642438004,0.16951484677133766,1.336562827027351,0.8652263820114542,0.2883671375,0.6387929319622365
0.017,1.792775,1.0,2160.259350738819,0.174173212705754,1.3359588266711895,0.8712188625519017,0.28834955,0.6400882231559875
0.0175,1.7923437500000001,1.0,2198.549106220253,0.17880544850235333,1.3353745705764652,0.8768033311198105,0.2883314375,0.6413389585798838
0.018000000000000002,1.7919,1.0,2234.793311232784,0.18341170040103322,1.3348085902833629,0.8820151553960698,0.2883128,0.6425484944912859
0.0185,1.79144375,1.0,2269.0810956945365,0.1879921146416912,1.3342594173320672,0.8868860557535708,0.2882936375,0.6437201591990656
0.019,1.790975,1.0,2301.4917893187894,0.19254683559466132,1.3337257591924494,0.8914445703690816,0.28827395,0.6448568802660182
0.0195,1.79049375,1.0,2332.122517304313,0.19707600995719876,1.3332062151482162,0.8957163523477949,0.2882537375,0.6459617926868643
0.02,1.79,1.0,2361.0401730083113,0.2015797797333059,1.3326997432544578,0.8997246025952463,0.288233,0.6470372475714854
0.0205,1.78949375,1.0,2388.312270532796,0.20605828637355825,1.3322053444968533,0.9034902724127285,0.2882117375,0.6480854881623948
0.021,1.788975,1.0,2414.0108475107827,0.21051167132853132,1.3317220198610817,0.9070323036462905,0.28818995000000003,0.6491087421533295
0.021500000000000002,1.78844375,1.0,2438.2120837157236,0.21494007604880064,1.3312487703328222,0.9103678489892734,0.2881676375,0.6501092224266365
0.022,1.7879,1.0,2460.9817920726873,0.2193436397657948,1.3307847323482502,0.9135124921946367,0.2881448,0.651088841981175
0.0225,1.78734375,1.0,2482.4025680042646,0.22372250502545013,1.3303289128834894,0.9164803651349309,0.28812143749999997,0.6520497745957017
0.023,1.786775,1.0,2502.5317825792717,0.22807680937044003,1.3298805882072002,0.9192843742306521,0.28809755,0.6529936145537998
0.0235,1.78619375,1.0,2521.4226306928854,0.23240668918410196,1.3294390969762924,0.9219362893150763,0.28807313749999996,0.6539218156359854
0.024,1.7856,1.0,2539.130430357449,0.2367122808497733,1.329003777847675,0.9244468492086945,0.2880482,0.6548358232205282
0.0245,1.78499375,1.0,2555.7124445774252,0.24099372075079148,1.3285739694782583,0.9268258662334634,0.2880227375,0.6557370745577187
0.025,1.784375,1.0,2571.2277129217596,0.24525114527049394,1.3281490105249514,0.929082318866096,0.28799675,0.656626999016248
0.025500000000000002,1.78374375,1.0,2585.726865881492,0.24948468702020093,1.3277283332849747,0.9312244478556156,0.2879702375,0.6575068225837134
0.026000000000000002,1.7831000000000001,1.0,2599.274989987673,0.2536944852167523,1.3273112481077056,0.9332597973535317,0.2879432,0.6583780193309183
0.0265,1.78244375,1.0,2611.912253496883,0.2578806708930098,1.3268973096090522,0.9351953336941926,0.2879156375,0.6592415464616184
0.027,1.781775,1.0,2623.6796730481406,0.262043375029297,1.3264860737764819,0.9370374650277942,0.28788755,0.6600983534120461
0.0275,1.7810937500000001,1.0,2634.6191757500605,0.2661827286059372,1.3260770965974629,0.9387920933038626,0.2878589375,0.6609493848041099
0.028,1.7804,1.0,2644.773519187047,0.27029886260325403,1.3256699340594627,0.94046466095227,0.2878298,0.6617955805156417
0.0285,1.77969375,1.0,2654.186215796254,0.27439190800157087,1.325264142149949,0.9420601926939633,0.2878001375,0.6626378757380671
0.029,1.778975,1.0,2662.8866335017387,0.27846199113314646,1.3248594133135565,0.9435833504320996,0.28776995,0.6634769183085838
0.029500000000000002,1.7782437500000001,1.0,2670.9232447677523,0.2825092460011273,1.3244552692923952,0.9450384273929412,0.2877392375,0.6643137060854569
0.03,1.7775,1.0,2678.3406195663206,0.28653380363124387,1.3240512730089484,0.946429405402279,0.287708,0.6651491468790816
0.0305,1.77674375,1.0,2685.165446153698,0.2905357886483807,1.3236471558315843,0.9477599971674141,0.2876762375,0.6659837963078004
0.031,1.775975,1.0,2691.4247716140717,0.2945153256774221,1.323242649128671,0.9490336493527123,0.28764395,0.666818207220277
0.0315,1.7751937500000001,1.0,2697.1459697572095,0.29847253934325263,1.3228374842685766,0.9502535649601441,0.2876111375,0.6676529296911242
0.032,1.7744,1.0,2702.3567106157175,0.30240755427075666,1.3224313926196691,0.9514227235662078,0.2875778,0.6684885110119285
0.0325,1.77359375,1.0,2707.084931543099,0.3063204950848187,1.322024105550317,0.9525438996436311,0.2875439375,0.6693254956776731
0.033,1.772775,1.0,2711.358809910834,0.31021148641032303,1.321615354428888,0.9536196791696587,0.28750955,0.670164425368561
0.0335,1.7719437500000002,1.0,2715.2067374061394,0.31408065287215425,1.3212048706237505,0.9546524746994831,0.2874746375,0.6710058389272313
0.034,1.7711000000000001,1.0,2718.650105436693,0.3179281136389141,1.3207924509923792,0.9556445449559958,0.2874392,0.6718501383491773
0.0345,1.7702437500000001,1.0,2721.7173146590994,0.3217539967681896,1.320377829968528,0.9565979964169203,0.2874032375,0.6726978509714826
0.035,1.7693750000000001,1.0,2724.4284021312283,0.3255584227986406,1.3199608194329957,0.9575148059904164,0.28736675,0.6735493432007842
0.035500000000000004,1.76849375,1.0,2726.800868556346,0.32934150992096667,1.3195412553733656,0.9583968264692895,0.2873297375,0.6744049302117778
0.036000000000000004,1.7676,1.0,2728.8523119114698,0.3331033763258674,1.3191189737772215,0.9592457939154725,0.2872922,0.6752649253041231
0.0365,1.76669375,1.0,2730.600416503403,0.33684414020404224,1.3186938106321469,0.9600633363408594,0.2872541375,0.6761296398748766
0.037,1.765775,1.0,2732.0629426205865,0.34056391974619094,1.318265601925725,0.9608509816485886,0.28721555,0.676999383389209
0.0375,1.76484375,1.0,2733.257716782165,0.34426283314301304,1.3178341836455394,0.9616101649053231,0.2871764375,0.6778744633494054
0.038,1.7639,1.0,2734.20262258247,0.3479409985852081,1.317399391779174,0.9623422350076705,0.28713679999999997,0.6787551852621506
0.0385,1.76294375,1.0,2734.906452730366,0.351598524311476,1.3169611453057073,0.9630484666242707,0.28709663750000003,0.6796416848421375
0.039,1.761975,1.0,2735.3910468761464,0.3552355360058964,1.316519245078858,0.9637300521328234,0.28705595,0.6805343351234368
0.0395,1.7609937500000001,1.0,2735.6751191999065,0.3588521553249269,1.3160735206564191,0.9643881165661164,0.2870147375,0.6814334487878067
0.04,1.76,1.0,2735.768156284511,0.3624484932120145,1.3156238856240663,0.965023725961979,0.286973,0.6823391671669845
0.0405,1.7589937500000001,1.0,2735.6796660533846,0.366024660610606,1.315170253567476,0.9656378859152537,0.2869307375,0.6832516303131787
0.041,1.757975,1.0,2735.4191745300404,0.36958076846414845,1.3147125380723248,0.9662315456362031,0.28688795,0.6841709769772817
0.0415,1.75694375,1.0,2734.9962227631013,0.37311692771608873,1.3142506527242885,0.9668056016956303,0.2868446375,0.6850973445866027
0.042,1.7559,1.0,2734.4203639169577,0.3766332493098738,1.3137845111090438,0.9673609014838989,0.28680079999999997,0.6860308692221249
0.0425,1.75484375,1.0,2733.701160528147,0.3801298441889506,1.313314026812267,0.9678982464084183,0.2867564375,0.6869716855952872
0.043000000000000003,1.753775,1.0,2732.8481819264475,0.3836068232967661,1.3128391134196342,0.9684183948518419,0.28671155,0.6879199270242897
0.043500000000000004,1.75269375,1.0,2731.8710018232796,0.3870642975767672,1.3123596845168217,0.9689220649111255,0.28666613750000003,0.6888757254099223
0.044,1.7516,1.0,2730.779196063364,0.3905023779724008,1.3118756536895058,0.9694099369357119,0.2866202,0.6898392112109166
0.0445,1.75049375,1.0,2729.5823405441224,0.3939211754271139,1.311386934523363,0.9698826558814349,0.2865737375,0.6908105134188227
0.045,1.7493750000000001,1.0,2728.2807749689364,0.3973207846051221,1.310893524559324,0.9703408375792749,0.28652675,0.691789593071049
0.0455,1.74824375,1.0,2726.8935261692245,0.40070133362270605,1.3103952514507786,0.9707850584135477,0.2864792375,0.6927767470561477
0.046,1.7471,1.0,2725.4261057644744,0.40406292757626516,1.30989206565857,0.9712158715982891,0.2864312,0.693772026919211
0.0465,1.7459437500000001,1.0,2723.8829425229233,0.40740566967050573,1.3093839274770256,0.9716338031962953,0.28638263750000004,0.694775463708197
0.047,1.744775,1.0,2722.2684635863775,0.41072966311013387,1.3088707972004743,0.9720393532725149,0.28633355,0.6957870874896157
0.0475,1.74359375,1.0,2720.5870938788057,0.41403501109985574,1.3083526351232437,0.9724329974204483,0.28628393750000003,0.696806927335943
0.048,1.7424,1.0,2718.843255547913,0.4173218168443775,1.3078294015396623,0.9728151881851206,0.2862338,0.6978350113129252
0.0485,1.74119375,1.0,2717.041367443509,0.4205901835484053,1.307301056744058,0.973186356390537,0.2861831375,0.6988713664667898
0.049,1.739975,1.0,2715.18584462919,0.4238402144166454,1.3067675610307592,0.9735469123788492,0.28613195,0.6999160188113502
0.0495,1.73874375,1.0,2713.2810979304168,0.42707201265380385,1.306228874694094,0.9738972471678663,0.2860802375,0.7009689933150156
0.05,1.7375,1.0,2711.331533516598,0.43028568146458684,1.3056849580283905,0.9742377335329819,0.286028,0.7020303138876951
0.0505,1.73624375,1.0,2709.3415525183887,0.43348132405370055,1.3051357713279768,0.9745687270190918,0.2859752375,0.7031000033676043
0.051000000000000004,1.734975,1.0,2707.315550680107,0.4366590436258512,1.304581274887181,0.9748905668876179,0.28592195,0.7041780835079703
0.051500000000000004,1.73369375,1.0,2705.256187472183,0.43981892165286673,1.3040214448009275,0.9752035756451598,0.2858681375,0.7052645443276677
0.052000000000000005,1.7324,1.0,2703.1710230229737,0.4429610860875089,1.3034562123723865,0.975508063496398,0.2858138,0.7063594616473375
0.0525,1.73109375,1.0,2701.0622792873655,0.4460856348291543,1.3028855575797966,0.9758043266456421,0.28575893750000003,0.7074628157193104
0.053,1.729775,1.0,2698.9318667770553,0.4491926632551088,1.3023094632202208,0.9760926481417435,0.28570355000000003,0.708574580508616
0.0535,1.72844375,1.0,2696.781693330874,0.452282266742678,1.3017279120907215,0.9763732986605428,0.2856476375,0.7096947291625442
0.054,1.7271,1.0,2694.6136640395234,0.4553545406691677,1.3011408869883614,0.9766465371485593,0.2855912,0.7108232340046651
0.0545,1.7257437500000001,1.0,2692.4296811769677,0.45840958041188357,1.3005483707102032,0.9769126114279209,0.2855342375,0.7119600665288337
0.055,1.724375,1.0,2690.231644138385,0.46144748134813135,1.2999503460533095,0.9771717587651795,0.28547675,0.7131051973931757
0.0555,1.72299375,1.0,2688.021449384885,0.4644683388552168,1.299346795814743,0.9774242064064482,0.2854187375,0.7142585964140513
0.056,1.7216,1.0,2685.8009903944153,0.46747224831044565,1.2987377027915668,0.9776701720811174,0.2853602,0.715420232560005
0.0565,1.72019375,1.0,2683.5721576196033,0.47045930509112355,1.298123049780843,0.9779098644762362,0.28530113749999997,0.7165900739456922
0.057,1.718775,1.0,2681.3368384520154,0.4734296045745563,1.2975028195796345,0.9781434836834959,0.28524155,0.717768087825789
0.0575,1.71734375,1.0,2679.0969171926945,0.47638324213804956,1.2968769949850039,0.9783712216206039,0.2851814375,0.7189542405888839
0.058,1.7159,1.0,2676.8542750296438,0.47932031315890916,1.296245558794014,0.9785932624287084,0.2851208,0.7201484977513468
0.0585,1.7144439077265266,1.0,2674.6189493283437,0.48224091270840064,1.2956084901129532,0.9788097826153387,0.2850596441245141,0.7213508309092476
0.059000000000000004,1.7129833934664793,1.0,2672.7650800636025,0.48514513164930945,1.294965928956043,0.9790209601862834,0.2849983025255921,0.722560908020085
0.059500000000000004,1.711522879206432,1.0,2671.466750432635,0.48803306076685304,1.294318269241176,0.9792269800325992,0.28493696092667015,0.7237779221647914
0.06,1.710062364946385,1.0,2670.6834096710027,0.4909047907259854,1.2936658798778051,0.9794280185004168,0.2848756193277482,0.7250011192461561
0.0605,1.7086018506863379,1.0,2670.3746873920054,0.49376041219166084,1.293009129775382,0.9796242451525605,0.28481427772882617,0.7262297508554634
0.061,1.7071413364262906,1.0,2670.5005828210924,0.49660001577627594,1.2923483857627631,0.9798158229774173,0.2847529361299042,0.7274630782586309
0.0615,1.7056808221662436,1.0,2671.0253427038065,0.49942369133929837,1.2916839766428678,0.9800029067462166,0.28469159453098225,0.7287004393169736
0.062,1.7042203079061964,1.0,2671.913624648325,0.5022315289919468,1.2910162281869688,0.9801856453027367,0.28463025293206023,0.7299411828183358
0.0625,1.7027597936461492,1.0,2673.1387919786575,0.5050236168112905,1.2903453867158976,0.9803641776947293,0.2845689113331383,0.7311848099897829
0.063,1.701299279386102,1.0,2674.6742505787115,0.5078000428743984,1.289671698550485,0.9805386378555673,0.28450756973421626,0.7324308260806025
0.0635,1.699838765126055,1.0,2676.493432673624,0.5105608952583398,1.2889954100115628,0.9807091548370885,0.2844462281352943,0.7336787404089563
0.064,1.6983782508660077,1.0,2678.5725574808694,0.5133062612614575,1.2883167419527721,0.9808758516827323,0.28438488653637234,0.7349281132325849
0.0645,1.6969177366059605,1.0,2680.8876875423557,0.5160362286241346,1.287635916689736,0.9810388471334445,0.2843235449374503,0.7361785058356354
0.065,1.6954572223459135,1.0,2683.4210150702074,0.5187508830259506,1.286953100265707,0.9811982527607972,0.28426220333852836,0.7374295862496781
0.0655,1.6939967080858662,1.0,2686.1550714985415,0.5214503100299571,1.2862684555579555,0.9813541760358853,0.28420086173960635,0.7386810310984147
0.066,1.692536193825819,1.0,2689.072375678569,0.5241345951992049,1.2855821454437515,0.981506720670836,0.2841395201406844,0.7399325197823469
0.0665,1.691075679565772,1.0,2692.1639204531966,0.5268038189648189,1.284894255069749,0.9816559826413971,0.2840781785417624,0.7411838757278468
0.067,1.6896151653057248,1.0,2695.4023806825735,0.5294580737165342,1.2842050370977485,0.981802063523492,0.2840168369428404,0.7424346201794242
0.0675,1.6881546510456775,1.0,2698.7748063536465,0.5320974435678204,1.2835146122983305,0.9819450545569408,0.28395549534391845,0.7436845172618857
0.068,1.6866941367856305,1.0,2702.2723478077082,0.534722010126526,1.2828230637770572,0.9820850419284379,0.2838941537449965,0.7449334011344344
0.0685,1.6852336225255833,1.0,2705.88614065799,0.5373318550004996,1.282130474639491,0.9822221089210285,0.2838328121460745,0.7461811073969882
0.069,1.683773108265536,1.0,2709.607303795941,0.5399270597975897,1.2814369279911941,0.9823563360341135,0.2837714705471525,0.7474274730959165
0.0695,1.6823125940054888,1.0,2713.4269375500876,0.542507706125645,1.2807425069377285,0.9824878010977224,0.28371012894823056,0.7486723367293351
0.07,1.6808520797454418,1.0,2717.336121998276,0.545073875592514,1.2800472945846566,0.9826165793813662,0.28364878734930854,0.7499155382519598
0.07050000000000001,1.6793915654853946,1.0,2721.325915433474,0.5476256498060453,1.2793513740375406,0.982742743697765,0.2835874457503866,0.751156919079522
0.07100000000000001,1.6779310512253474,1.0,2725.38735298191,0.5501631103740875,1.2786548284019426,0.9828663645017185,0.2835261041514646,0.7523963220927422
0.07150000000000001,1.6764705369653004,1.0,2729.5127967734634,0.552686336931713,1.2779577284997476,0.9829875093066948,0.2834647625525426,0.7536336134160095
0.07200000000000001,1.6750100227052531,1.0,2733.699738067136,0.5551954038480724,1.2772600983730447,0.983106241044013,0.28340342095362064,0.7548687431446734
0.0725,1.673549508445206,1.0,2737.9341098122536,0.55769040398321,1.276562066906411,0.9832226264415549,0.28334207935469863,0.7561014768764471
0.073,1.6720889941851589,1.0,2742.212597572653,0.5601714136527807,1.275863665087573,0.9833367248038548,0.28328073775577667,0.7573317547335822
0.0735,1.6706284799251117,1.0,2746.5318772103938,0.5626385091724395,1.2751649239042555,0.9834485935777554,0.28321939615685465,0.7585595173876444
