Time [s],Phi [rad],STIM [ ],Fsee [N],Gamma [ ],Lcerel [ ],q [ ],Lmtc [m],fisomrel [ ]
0.0,1.8,1.0,18.74391394636954,0.0008992038033054522,1.3792536443380765,0.00520789221840706,0.288653,0.5413478101284687
0.0005,1.79999375,1.0,19.318802383746128,0.006503369289882193,1.37918823990046,0.015592256444083418,0.2886527375,0.541505990820125
0.001,1.799975,1.0,23.321356031345275,0.012076099839440406,1.3787676650983953,0.04039146010900095,0.28865195,0.5425224996043043
0.0015,1.79994375,1.0,34.26783636021959,0.017617571776537628,1.377780368371295,0.07705028162337407,0.2886506375,0.5449043152845939
0.002,1.7999,1.0,59.716143395951654,0.02312796043797532,1.3759809846087627,0.12229168326436406,0.2886488,0.5492292704484226
0.0025,1.79984375,1.0,106.79106878529257,0.028607440175735088,1.37348015035968,0.1727741823840807,0.28864643749999996,0.5552059224722921
0.003,1.7997750000000001,1.0,173.14652488466749,0.03405618436497045,1.3707664463205866,0.2257129131322854,0.28864354999999997,0.5616461807487358
0.0035,1.79969375,1.0,251.23837294180328,0.0394743654075706,1.368172992105208,0.27898135140047114,0.2886401375,0.5677571679984009
0.004,1.7996,1.0,335.76343911002874,0.04486215473856324,1.3657815472835704,0.3310055451441774,0.2886362,0.5733541443457818
0.0045000000000000005,1.7994937500000001,1.0,423.98863197165684,0.05021972283481517,1.3635803116204994,0.380704627019049,0.2886317375,0.5784737149296574
0.005,1.799375,1.0,514.3687250023884,0.055547239202672655,1.3615428893307955,0.4274172865385052,0.28862675,0.5831847550202174
0.0055,1.79924375,1.0,605.8334825311663,0.06084487242014888,1.3596467774710947,0.4708077577629123,0.2886212375,0.587545266118166
0.006,1.7991000000000001,1.0,697.5351081746192,0.06611279010489209,1.3578749308572942,0.5107741250669687,0.2886152,0.5915992789027007
0.006500000000000001,1.79894375,1.0,788.77645248255,0.07135115893664677,1.3562141947492714,0.5473713747251101,0.2886086375,0.5953808911324239
0.007,1.798775,1.0,878.9804672979521,0.07656014464743047,1.354654029655205,0.5807524900313765,0.28860155,0.5989174720960618
0.0075,1.79859375,1.0,967.6746762689202,0.08173991213111442,1.353185642231145,0.6111258856170437,0.2885939375,0.6022318307454517
0.008,1.7984,1.0,1054.4648209020697,0.08689062498590108,1.3518016578053955,0.6387262047531855,0.2885858,0.6053430917263246
0.0085,1.79819375,1.0,1139.071456934158,0.09201244666379423,1.3504950813215035,0.6637945704798774,0.2885771375,0.6082691261780377
0.009000000000000001,1.797975,1.0,1221.2549193774757,0.0971055391090358,1.3492600600236655,0.6865670413613433,0.28856795,0.6110249058426835
0.0095,1.79774375,1.0,1300.8293500969348,0.10217006303276809,1.3480913585580299,0.7072672354950706,0.2885582375,0.613623743932478
0.01,1.7975,1.0,1377.6797455986325,0.1072061787341904,1.3469839301386268,0.7261023927757947,0.288548,0.6160782915355629
0.0105,1.79724375,1.0,1451.7460304743636,0.11221404638363103,1.3459329903451087,0.743261907053177,0.2885372375,0.6184004023944226
0.011,1.796975,1.0,1522.9696776254489,0.11719382388640397,1.3449345479180428,0.7589174229795342,0.28852595000000003,0.6205999925145901
0.0115,1.79669375,1.0,1591.3246200141607,0.12214566839105523,1.3439848751071093,0.7732232169461549,0.2885141375,0.6226862426579924
0.012,1.7964,1.0,1656.8241587492842,0.1270697366743731,1.3430803427907314,0.7863172492367221,0.28850180000000003,0.624667979561844
0.0125,1.79609375,1.0,1719.5112134005678,0.13196618534965224,1.3422174733144994,0.7983225417288268,0.2884889375,0.6265535744841835
0.013000000000000001,1.7957750000000001,1.0,1779.4212292714067,0.13683516911052349,1.3413933008366679,0.809348735746722,0.28847555,0.6283501726525651
0.0135,1.79544375,1.0,1836.5925221701316,0.14167684132322816,1.3406051775647054,0.8194933841690445,0.2884616375,0.6300641358932255
0.014,1.7951000000000001,1.0,1891.0904700286455,0.14649135535400765,1.339850455706081,0.8288431455703876,0.2884472,0.6317017466720951
0.0145,1.79474375,1.0,1942.9878514126985,0.15127886342966904,1.339126673756099,0.8374750804455027,0.2884322375,0.6332688110558815
0.015,1.794375,1.0,1992.3823855719434,0.15603951844691444,1.338431334706476,0.8454576838776117,0.28841675,0.6347711469668151
0.0155,1.79399375,1.0,2039.3345365711743,0.16077346987256863,1.3377625418489703,0.8528520931755765,0.2884007375,0.6362132185067686
0.016,1.7936,1.0,2083.9179995591694,0.16548086702711995,1.3371184223399435,0.8597127670918144,0.2883842,0.6375993919611846
0.0165,1.7931937500000001,1.0,2126.2205883071115,0.17016185923105673,1.336497103335757,0.8660882702475432,0.2883671375,0.6389339905824133
0.017,1.792775,1.0,2166.325635628132,0.17481659419292644,1.3358968893147407,0.8720220214330775,0.28834955,0.6402209175659466
0.0175,1.7923437500000001,1.0,2204.339683378489,0.1794452212753843,1.3353159627703388,0.8775528181192273,0.2883314375,0.6414643020133953
0.018000000000000002,1.7919,1.0,2240.3300278273414,0.18404788549786427,1.3347530059695951,0.8827155430467551,0.2883128,0.642667171538011
0.0185,1.79144375,1.0,2274.371023760919,0.18862473178540815,1.3342067114315328,0.8875414898259973,0.2882936375,0.6438325064863526
0.019,1.790975,1.0,2306.5444143270765,0.19317590506305782,1.333675771675176,0.8920587754361541,0.28827395,0.6449632633832139
0.0195,1.79049375,1.0,2336.9307488872296,0.19770154919740796,1.3331589573595333,0.896292722176572,0.2882537375,0.6460622102395048
0.02,1.79,1.0,2365.6184254223404,0.2022018089425191,1.332655020860549,0.9002661525679163,0.288233,0.6471321335977924
0.0205,1.78949375,1.0,2392.6838387137327,0.20667682703362503,1.3321628844486983,0.9039997100725207,0.2882117375,0.6481754406719409
0.021,1.788975,1.0,2418.1892110216795,0.2111267436397532,1.3316816519586439,0.907512100857872,0.28818995000000003,0.6491941382461258
0.021500000000000002,1.78844375,1.0,2442.2006165578764,0.2155516989299312,1.3312104272250467,0.9108202672994504,0.2881676375,0.6501902196983484
0.022,1.7879,1.0,2464.787661568859,0.21995183307318655,1.3307483140825689,0.9139395786169092,0.2881448,0.6511656655980178
0.0225,1.78734375,1.0,2486.018615351462,0.22432728538851027,1.3302944598623514,0.9168840068581304,0.28812143749999997,0.6521223526283085
0.023,1.786775,1.0,2505.960128527899,0.22867819484814775,1.3298480545001035,0.9196662738538067,0.28809755,0.6530620565768392
0.0235,1.78619375,1.0,2524.6850894643244,0.23300470139307786,1.3294082530844145,0.9222979670033671,0.28807313749999996,0.6539866160710279
0.024,1.7856,1.0,2542.242883304434,0.23730694005442438,1.3289744544264022,0.9247897033225903,0.2880482,0.6548973480065403
0.0245,1.78499375,1.0,2558.6847126898488,0.2415850458633111,1.328546057337185,0.9271511855175115,0.2880227375,0.6557955618883646
0.025,1.784375,1.0,2574.0634465086205,0.2458391538508618,1.3281224606278808,0.9293912932551031,0.28799675,0.6566825600494415
0.025500000000000002,1.78374375,1.0,2588.4334766572756,0.25006939904820036,1.3277030631096078,0.9315181642127874,0.2879702375,0.6575596378462385
0.026000000000000002,1.7831000000000001,1.0,2601.844851379984,0.25427591511856296,1.3272873169527573,0.9335392742101936,0.2879432,0.658427972454928
0.0265,1.78244375,1.0,2614.3474872276342,0.2584588360774745,1.3268746867472097,0.9354614946761421,0.2879156375,0.6592887090686019
0.027,1.781775,1.0,2625.9981953552206,0.26261829692602945,1.3264645832360162,0.9372911397211555,0.28788755,0.6601430991471118
0.0275,1.7810937500000001,1.0,2636.8335448325506,0.26675442721340914,1.3260566138959267,0.939034053423142,0.2878589375,0.6609919787459266
0.028,1.7804,1.0,2646.890870329781,0.27086735648879495,1.3256503862036908,0.9406956256170999,0.2878298,0.6618361797365657
0.0285,1.77969375,1.0,2656.208206123419,0.2749572143013684,1.3252455076360585,0.9422808331548672,0.2878001375,0.6626765298551103
0.029,1.778975,1.0,2664.8242235181233,0.2790241302003108,1.3248415856697795,0.9437942769200188,0.28776995,0.6635138527408907
0.029500000000000002,1.7782437500000001,1.0,2672.778171684442,0.28306823373480355,1.3244382277816036,0.9452402150808306,0.2877392375,0.6643489679653454
0.03,1.7775,1.0,2680.1012237413174,0.2870896517560216,1.3240351203193157,0.9466226025759091,0.287708,0.6651825280600976
0.0305,1.77674375,1.0,2686.8379592246497,0.29108851484038106,1.3236318307158825,0.9479450934239996,0.2876762375,0.6660154277662192
0.031,1.775975,1.0,2693.0196277376563,0.2950649493636759,1.3232280524703377,0.9492110952492037,0.28764395,0.6668482975007418
0.0315,1.7751937500000001,1.0,2698.670320604923,0.29901907941491046,1.3228235476074766,0.9504237830796117,0.2876111375,0.6676816234378933
0.032,1.7744,1.0,2703.814404455305,0.3029510290830894,1.3224180781520942,0.9515861108164135,0.2875778,0.6685158892879786
0.0325,1.77359375,1.0,2708.476495898174,0.3068609224572172,1.322011406128986,0.9527008293389574,0.2875439375,0.6693515762845448
0.033,1.772775,1.0,2712.6814374549945,0.3107488836262984,1.3216032935629471,0.9537705029194052,0.28750955,0.6701891631679364
0.0335,1.7719478445764745,1.0,2716.6572285820293,0.31461503667933743,1.321193502478773,0.9547975241228471,0.28747480947221193,0.6710291261652372
0.034,1.7711204621064032,1.0,2720.8231334110906,0.318459498725726,1.320781904518759,0.9557841377562358,0.28744005940846895,0.6718717147108348
0.0345,1.7702930796363319,1.0,2725.13626883729,0.322282401870997,1.320368996234385,0.9567325143012559,0.28740530934472597,0.6727159000375402
0.035,1.7694656971662606,1.0,2729.583010406034,0.3260838645060193,1.3199549045742651,0.9576446399322949,0.28737055928098293,0.673561412751508
0.035500000000000004,1.7686383146961895,1.0,2734.1503420585464,0.329864004725448,1.3195397506391555,0.9585223732610075,0.28733580921723995,0.6744079966883493
0.036000000000000004,1.7678109322261182,1.0,2738.8252112765476,0.33362294062393827,1.319123655529812,0.9593674556432192,0.28730105915349696,0.6752553969428887
0.0365,1.7669835497560469,1.0,2743.5945263929666,0.3373607902961452,1.3187067403469905,0.9601815199138259,0.287266309089754,0.6761033598769004
0.037,1.7661561672859756,1.0,2748.445154227279,0.3410776718367239,1.3182891261914471,0.9609660983773366,0.28723155902601094,0.676951633125909
0.0375,1.7653287848159045,1.0,2753.3639180465298,0.3447737033403294,1.3178709341639374,0.9617226301250247,0.28719680896226796,0.6777999656050566
0.038,1.7645014023458332,1.0,2758.3375958507127,0.348449002901617,1.3174522853652175,0.9624524677422176,0.287162058898525,0.6786481075140323
0.0385,1.763674019875762,1.0,2763.3566054763273,0.3521036847209683,1.3170332675931185,0.9631568795474776,0.287127308834782,0.6794958776761166
0.039,1.7628466374056906,1.0,2768.4110603225977,0.3557378668567278,1.316613971084015,0.963837060444767,0.287092558771039,0.6803430909260539
0.0395,1.7620192549356195,1.0,2773.489635708975,0.359351669175657,1.3161944987182854,0.9644941375085884,0.287057808707296,0.6811895375647072
0.04,1.7611918724655482,1.0,2778.5878325373847,0.36294520335089053,1.3157748915109664,0.9651291661057232,0.28702305864355304,0.682035133581752
0.0405,1.760364489995477,1.0,2783.70113514472,0.3665185810555632,1.3153551904770944,0.9657431418647014,0.28698830857981006,0.6828797954054704
0.041,1.7595371075254056,1.0,2788.8250111985444,0.37007191396280975,1.3149354366317056,0.9663370046873129,0.286953558516067,0.6837234399030514
0.0415,1.7587097250553345,1.0,2793.9549116308767,0.373605313745765,1.3145156709898365,0.9669116424505914,0.28691880845232404,0.6845659843807811
0.042,1.7578823425852632,1.0,2799.08627060839,0.3771188920775636,1.3140959345665237,0.9674678944261004,0.28688405838858105,0.6854073465841264
0.0425,1.757054960115192,1.0,2804.2145055404253,0.3806127606313404,1.3136762683768035,0.9680065544408034,0.28684930832483807,0.6862474446977154
0.043000000000000003,1.7562275776451206,1.0,2809.335017124416,0.3840870310802301,1.3132567134357125,0.9685283738014758,0.28681455826109503,0.6870861973452038
0.043500000000000004,1.7554001951750495,1.0,2814.4446665233304,0.3875418100656787,1.3128372975362146,0.9690340621716246,0.28677980819735205,0.687923549968871
0.044,1.7545728127049782,1.0,2819.542432989314,0.39097720123576296,1.312418029428693,0.9695242901027407,0.28674505813360907,0.6887594862496569
0.0445,1.753745430234907,1.0,2824.6205197449353,0.3943933338381854,1.3119989783787183,0.9699997018756199,0.2867103080698661,0.6895938695492223
0.045,1.7529180477648358,1.0,2829.6780824022776,0.3977903120684454,1.3115801513392955,0.9704609002175506,0.2866755580061231,0.6904266877913958
0.0455,1.7520906652947645,1.0,2834.71427411507,0.40116824012204216,1.3111615552634297,0.9709084572958644,0.2866408079423801,0.6912579289733534
0.046,1.7512632828246932,1.0,2839.7282456135863,0.40452722219447507,1.3107431971041257,0.971342916563158,0.28660605787863713,0.6920875811655183
0.0465,1.750435900354622,1.0,2844.719145241055,0.40786736248124345,1.3103250838143887,0.9717647944740342,0.28657130781489415,0.692915632511456
0.047,1.7496085178845506,1.0,2849.686118990569,0.41118876517784647,1.3099072223472237,0.9721745820834581,0.2865365577511511,0.6937420712277693
0.0475,1.7487811354144795,1.0,2854.6283105437765,0.4144915344797836,1.3094896196556356,0.9725727465359393,0.2865018076874081,0.694566885603986
0.048,1.7479537529444082,1.0,2859.544861309863,0.4177757745825541,1.3090722826926293,0.9729597324539448,0.28646705762366514,0.6953900640024472
0.0485,1.747126370474337,1.0,2864.434910466086,0.4210415896816572,1.3086552184112101,0.9733359632332523,0.28643230755992216,0.6962115948581893
0.049,1.7462989880042656,1.0,2869.29759499927,0.42428908397259235,1.3082384337643826,0.973701842252275,0.2863975574961791,0.6970314666788275
0.0495,1.7454716055341946,1.0,2874.132049748686,0.42751836165085877,1.307821935705152,0.9740577540018152,0.28636280743243614,0.6978496680444302
0.05,1.7446442230641233,1.0,2878.937407449086,0.4307295269119558,1.3074057311865233,0.9744040651411606,0.28632805736869316,0.6986661876073947
0.0505,1.743816840594052,1.0,2883.713817937624,0.4339226656767385,1.3069898181488118,0.974741122828277,0.2862933073049502,0.6994810317377536
0.051000000000000004,1.7429894581239807,1.0,2888.4612286020297,0.4370978863483733,1.306574196333006,0.9750692611026515,0.2862585572412072,0.7002942032613888
0.051500000000000004,1.7421620756539096,1.0,2893.1786076024578,0.4402553129076041,1.306158874131294,0.9753888011744628,0.2862238071774642,0.7011056881079671
0.052000000000000005,1.7413346931838383,1.0,2897.866234146477,0.4433950406866747,1.3057438483481187,0.9757000460488376,0.2861890571137212,0.701915494889294
0.0525,1.740507310713767,1.0,2902.524389202573,0.4465171650178285,1.3053291157879243,0.9760032853538111,0.28615430704997824,0.7027236321816464
0.053,1.7396799282436959,1.0,2907.153355479466,0.44962178123330954,1.3049146732551535,0.9762987960465261,0.28611955698623526,0.7035301085258385
0.0535,1.7388525457736246,1.0,2911.753417405312,0.4527089846653613,1.30450051755425,0.9765868430762966,0.2860848069224922,0.7043349324272767
0.054,1.7380251633035533,1.0,2916.3248611074696,0.4557788706462275,1.3040866454896571,0.9768676800075121,0.28605005685874924,0.7051381123560191
0.0545,1.737197780833482,1.0,2920.8679743920575,0.4588315345081519,1.303673053865818,0.9771415496051442,0.28601530679500625,0.7059396567468366
0.055,1.7363703983634107,1.0,2925.383046724035,0.4618670715833781,1.3032597394871765,0.9774086843853892,0.2859805567312632,0.706739573999266
0.0555,1.7355430158933396,1.0,2929.870369207654,0.46488557720414986,1.3028466991581757,0.9776693071337998,0.28594580666752023,0.7075378724776702
0.056,1.7347156334232683,1.0,2934.330234566621,0.4678871467027108,1.3024339296832588,0.977923631393083,0.28591105660377725,0.7083345605112936
0.0565,1.733888250953197,1.0,2938.7629371248963,0.47087187541130465,1.3020214278668696,0.9781718619225698,0.28587630654003426,0.7091296463943153
0.057,1.7330608684831257,1.0,2943.168772787719,0.47383985866217515,1.301609190513451,0.978414195131223,0.2858415564762913,0.7099231383859081
0.0575,1.7322334860130546,1.0,2947.548039022688,0.4767911917875659,1.3011972144274468,0.9786508194859125,0.2858068064125483,0.710715044710289
0.058,1.7314061035429833,1.0,2951.901034841141,0.4797259701197206,1.3007854964133003,0.9788819158965532,0.2857720563488053,0.7115053735567746
0.0585,1.730578721072912,1.0,2956.2280607796847,0.4826442889908831,1.3003740332754548,0.9791076580795959,0.28573730628506233,0.7122941330798342
0.059000000000000004,1.7297513386028407,1.0,2960.5292079987494,0.48554622107111267,1.2999628236588932,0.9793282111190617,0.2857025562213193,0.713081327878137
0.059500000000000004,1.7289239561327696,1.0,2964.8047689602627,0.48843183100999676,1.2995518644606325,0.9795437329404971,0.2856678061575763,0.7138669658742309
0.06,1.7280965736626983,1.0,2969.0559719471985,0.4913012845617821,1.2991411444344176,0.9797543831014424,0.2856330560938333,0.7146510704925603
0.0605,1.727269191192627,1.0,2973.2831633791047,0.4941546666493986,1.2987306600497726,0.9799603088879847,0.28559830603009034,0.7154336503387349
0.061,1.726441808722556,1.0,2977.4866912015345,0.49699206219577613,1.2983204077762218,0.9801616519857115,0.28556355596634736,0.7162147139803212
0.0615,1.7256144262524846,1.0,2981.666904868017,0.49981355612384454,1.297910384083289,0.9803585487354155,0.2855288059026043,0.7169942699468979
0.062,1.7247870437824133,1.0,2985.8241553219545,0.5026192333565337,1.297500585440499,0.9805511303752571,0.28549405583886134,0.717772326730103
0.0625,1.723959661312342,1.0,2989.9587949786655,0.5054091788167735,1.2970910083173754,0.9807395232701935,0.28545930577511835,0.7185488927836898
0.063,1.7231322788422707,1.0,2994.0711777080433,0.5081834774274937,1.2966816491834428,0.9809238491294369,0.28542455571137537,0.7193239765235734
0.0635,1.7223048963721996,1.0,2998.1616588174206,0.5109422141116243,1.2962725045082246,0.9811042252126496,0.2853898056476324,0.7200975863278827
0.064,1.7214775139021283,1.0,3002.2305950345462,0.5136854737920952,1.2958635707612458,0.9812807645255398,0.2853550555838894,0.7208697305370066
0.0645,1.720650131432057,1.0,3006.278344490966,0.5164133413918361,1.2954548444120302,0.9814535760054732,0.2853203055201464,0.7216404174536449
0.065,1.7198227489619857,1.0,3010.305266705584,0.5191259018337769,1.2950463219301018,0.9816227646976851,0.2852855554564034,0.7224096553428531
0.0655,1.7189953664919146,1.0,3014.3117225688757,0.5218232400408477,1.294637999784985,0.9817884319226247,0.2852508053926604,0.7231774524320891
0.066,1.7181679840218433,1.0,3018.2980743265525,0.5245054409359781,1.2942298744462042,0.9819506754349488,0.2852160553289174,0.7239438169112593
0.0665,1.717340601551772,1.0,3022.2646855644302,0.5271725894420981,1.2938219423832829,0.9821095895746301,0.28518130526517443,0.7247087569327642
0.067,1.7165132190817007,1.0,3026.2119211929203,0.5298247704821375,1.2934142000657456,0.9822652654106281,0.2851465552014314,0.725472280611539
0.0675,1.7156858366116297,1.0,3030.1401474323534,0.5324620689790263,1.2930066439631165,0.9824177908775377,0.2851118051376884,0.7262343960251005
0.068,1.7148584541415584,1.0,3034.0497317978466,0.5350845698556941,1.2925992705449199,0.9825672509056058,0.28507705507394543,0.7269951112135867
0.0685,1.714031071671487,1.0,3037.941043085143,0.537692358035071,1.2921920762806796,0.982713727544482,0.28504230501020245,0.7277544341798008
0.069,1.7132036892014157,1.0,3041.8144513564525,0.5402855184400869,1.29178505763992,0.9828573000810445,0.28500755494645946,0.7285123728892494
0.0695,1.7123763067313447,1.0,3045.6703279263897,0.5428641359936714,1.291378211092165,0.9829980451516278,0.2849728048827165,0.7292689352701842
0.07,1.7115489242612734,1.0,3049.5090453484713,0.5454282956187547,1.2909715331069391,0.9831360368489491,0.2849380548189735,0.7300241292136398
0.07050000000000001,1.710721541791202,1.0,3053.330577747469,0.547978051470487,1.290565023588436,0.983271345136774,0.2849033047552305,0.7307779562087104
0.07100000000000001,1.7098941593211308,1.0,3057.1351607785377,0.5505134804234323,1.2901586801964922,0.9834040389635426,0.2848685546914875,0.7315304218961409
