Time [s],Phi [rad],STIM [ ],Fsee [N],Gamma [ ],Lcerel [ ],q [ ],Lmtc [m],fisomrel [ ]
0.0,1.8,1.0,17.96801892964652,1.010976071124604e-05,1.379339649786738,0.005000027237693858,0.288653,0.5411397643484532
0.0005,1.79999375,1.0,18.27730821866887,0.005619262361742963,1.3793023251325014,0.012940817497967876,0.2886527375,0.5412300578733361
0.001,1.799975,1.0,21.618962281246453,0.0111969520516052,1.3789382428017443,0.03560914460865288,0.28865195,0.5421103575967039
0.0015,1.79994375,1.0,31.069893285963815,0.016743355313212735,1.3780461477311283,0.07060248134546969,0.2886506375,0.5442637442144576
0.002,1.7999,1.0,53.58313740137569,0.022258647637831815,1.3763680830594178,0.11471875556055325,0.2886488,0.54830059328501
0.0025,1.79984375,1.0,97.11974384113446,0.027743003532638862,1.3739351284110457,0.1645756744999573,0.28864643749999996,0.5541215552940522
0.003,1.7997750000000001,1.0,160.95911915446504,0.03319659652844189,1.3712143081095716,0.2172812609236984,0.28864354999999997,0.5605865352510588
0.0035,1.79969375,1.0,237.68434599606957,0.038619599179269104,1.3685847029853486,0.2706136914967999,0.2886401375,0.5667899130267933
0.004,1.7996,1.0,321.4678261645228,0.04401218307315181,1.3661560644578867,0.3229165796114666,0.2886362,0.5724800269793109
0.0045000000000000005,1.7994937500000001,1.0,409.26884501368573,0.049374518837308846,1.3639227884809777,0.37303524664069965,0.2886317375,0.5776792220160382
0.005,1.799375,1.0,499.41461085602117,0.054706776129232616,1.3618583188297928,0.42024815306358065,0.28862675,0.5824571335895281
0.0055,1.79924375,1.0,590.7915363511664,0.06000912368418381,1.359938813171294,0.46417434011688546,0.2886212375,0.5868751619031899
0.006,1.7991000000000001,1.0,682.5192238974516,0.06528172925828185,1.358146394469324,0.5046805530597726,0.2886152,0.5909794646958655
0.006500000000000001,1.79894375,1.0,773.8824433706629,0.070524759684168,1.3564672333798566,0.5418013010330439,0.2886086375,0.594805840326884
0.007,1.798775,1.0,864.2869316571737,0.07573838085458316,1.3548903768974603,0.5756772756140567,0.28860155,0.5983827180662582
0.0075,1.79859375,1.0,953.2444040852604,0.08092275773210897,1.3534067609081066,0.606510366323021,0.2885939375,0.6017336139809961
0.008,1.7984,1.0,1040.3451932124344,0.08607805391631775,1.3520088415923093,0.6345325943891261,0.2885858,0.6048781104618639
0.0085,1.79819375,1.0,1125.3150243896011,0.09120443356867315,1.3506892302176665,0.6599848133533349,0.2885771375,0.6078350249022337
0.009000000000000001,1.797975,1.0,1207.9017365651307,0.09630205865200372,1.3494420137899152,0.6831045334386212,0.28856795,0.6106195121124002
0.0095,1.79774375,1.0,1287.894695295198,0.1013710896351189,1.3482620908597056,0.7041177814808023,0.2885582375,0.6132446303253385
0.01,1.7975,1.0,1365.1690178459485,0.10641168698682821,1.3471443599776882,0.7232345072946372,0.288548,0.6157231930346978
0.0105,1.79724375,1.0,1439.6593640019987,0.11142401070898313,1.3460839480794606,0.740646928052891,0.2885372375,0.6180672859749146
0.011,1.796975,1.0,1511.3216272907257,0.11640821960173046,1.3450765608122193,0.7565293758055847,0.28852595000000003,0.6202875228890649
0.0115,1.79669375,1.0,1580.1211241700923,0.12136447084469917,1.3441184817241674,0.771038832726027,0.2885141375,0.6223930820658606
0.012,1.7964,1.0,1646.0585861848142,0.12629292111713333,1.3432061465176421,0.7843157866933674,0.28850180000000003,0.6243926689812205
0.0125,1.79609375,1.0,1709.1748584191253,0.13119372707085752,1.342336024642574,0.796485510617723,0.2884889375,0.626294790280354
0.013000000000000001,1.7957750000000001,1.0,1769.5069282963982,0.13606704367905187,1.3415050685316858,0.8076596647905965,0.28847555,0.6281067862473488
0.0135,1.79544375,1.0,1827.0910985317328,0.14091302445843226,1.3407105998537623,0.8179376284705457,0.2884616375,0.6298350993217139
0.014,1.7951000000000001,1.0,1881.9913131762676,0.14573182292571463,1.3399499402775878,0.827407684146021,0.2884472,0.6314860908968892
0.0145,1.79474375,1.0,1934.281954628128,0.1505235913963388,1.3392205710663856,0.836148321667282,0.2884322375,0.6330657020580206
0.015,1.794375,1.0,1984.0567704331258,0.15528848291786262,1.3385200036990725,0.8442293223591956,0.28841675,0.6345797420139666
0.0155,1.79399375,1.0,2031.3750346036218,0.16002664702740377,1.3378463243689405,0.8517129507513845,0.2884007375,0.6360327203775404
0.016,1.7936,1.0,2076.3114879358504,0.16473823323482956,1.3371976231177436,0.8586546532993498,0.2883842,0.6374290910833679
0.0165,1.7931937500000001,1.0,2118.9546234440554,0.16942339097712864,1.3365719975068449,0.8651038676928435,0.2883671375,0.6387732477495294
0.017,1.792775,1.0,2159.3891387026706,0.17408226811134184,1.3359677187491183,0.8711047819422357,0.28834955,0.6400691707860756
0.0175,1.7923437500000001,1.0,2197.7208301382207,0.17871501427101238,1.3353829600618716,0.8766968790744916,0.2883314375,0.6413210143499268
0.018000000000000002,1.7919,1.0,2234.015688633847,0.18332177446890688,1.3348164025193627,0.8819156497784661,0.2883128,0.6425318131504849
0.0185,1.79144375,1.0,2268.347913636851,0.18790269371779186,1.3342667271958502,0.8867929223564709,0.2882936375,0.6437045761791298
0.019,1.790975,1.0,2300.799235115727,0.19245791703043402,1.3337326151655917,0.8913572869378621,0.28827395,0.644842288184742
0.0195,1.79049375,1.0,2331.4523485027953,0.1969875886224993,1.333212805780884,0.8956344805432556,0.2882537375,0.6459477871927004
0.02,1.79,1.0,2360.392399895112,0.20149185276979248,1.3327060744889507,0.8996477058835656,0.288233,0.6470238137696198
0.0205,1.78949375,1.0,2387.701550272631,0.2059708531146132,1.3322112793765086,0.9034179255347284,0.2882117375,0.6480729140785183
0.021,1.788975,1.0,2413.4409963826997,0.21042472980942928,1.3317275279990999,0.9069641443168476,0.28818995000000003,0.6490970891824184
0.021500000000000002,1.78844375,1.0,2437.6758298861846,0.21485362300670863,1.3312539279122673,0.9103035707350169,0.2881676375,0.6500983266667553
0.022,1.7879,1.0,2460.4747159666103,0.2192576728589191,1.3307895866715524,0.91345181152321,0.2881448,0.6510786012425495
0.0225,1.78734375,1.0,2481.9093645908356,0.22363701947655246,1.3303336139773125,0.9164230433028923,0.28812143749999997,0.6520398707802547
0.023,1.786775,1.0,2502.038728264909,0.22799180000504032,1.3298852689387437,0.919230190318006,0.28809755,0.6529837670191734
0.0235,1.78619375,1.0,2520.9474366464883,0.23232215638588244,1.3294435912136888,0.9218849887512065,0.28807313749999996,0.6539123731129717
0.024,1.7856,1.0,2538.683486610113,0.2366282236125251,1.3290079901239844,0.9243982115891634,0.2880482,0.6548269848041333
0.0245,1.78499375,1.0,2555.296697635265,0.24091013667841454,1.3285778749914674,0.926779701799864,0.2880227375,0.6557288905168739
0.025,1.784375,1.0,2570.838562163086,0.245168030576997,1.328152655137975,0.9290384653735411,0.28799675,0.6566193715749276
0.025500000000000002,1.78374375,1.0,2585.362103688658,0.2494020403017187,1.3277317398853432,0.9311827539250029,0.2879702375,0.6574997023970847
0.026000000000000002,1.7831000000000001,1.0,2598.9205499246136,0.25361230045062444,1.32731454966528,0.933220139766271,0.2879432,0.6583711274790016
0.0265,1.78244375,1.0,2611.5601626931298,0.2577989429088438,1.3269005813386678,0.9351575904467595,0.2879156375,0.6592347255116104
0.027,1.781775,1.0,2623.341302714221,0.2619621048602681,1.3264892109479456,0.9370014986705367,0.28788755,0.6600918212199869
0.0275,1.7810937500000001,1.0,2634.3008222220865,0.266101915830783,1.3260800420446557,0.9387577836289155,0.2878589375,0.6609432595030471
0.028,1.7804,1.0,2644.476354017971,0.270218505346274,1.3256726781803403,0.9404319034029623,0.2878298,0.6617898810167235
0.0285,1.77969375,1.0,2653.906244241545,0.27431200293262675,1.3252667229065418,0.9420288969345177,0.2878001375,0.6626325222246141
0.029,1.778975,1.0,2662.6294886270516,0.2783825381157269,1.3248617797748026,0.9435534216708964,0.28776995,0.6634720154386087
0.029500000000000002,1.7782437500000001,1.0,2670.685672244205,0.2824302404214599,1.3244574523366648,0.9450097873762934,0.2877392375,0.6643091888494927
0.03,1.7775,1.0,2678.103574562162,0.28645523547173174,1.3240534481873911,0.9464019990927297,0.287708,0.6651446515237941
0.0305,1.77674375,1.0,2684.9237111085727,0.2904576544214423,1.3236493712269557,0.9477337592086373,0.2876762375,0.6659792235471819
0.031,1.775975,1.0,2691.188388441105,0.2944376275529671,1.3232448129547438,0.9490085030338482,0.28764395,0.6668137464854996
0.0315,1.7751937500000001,1.0,2696.9219065695097,0.2983952781303417,1.322839533139894,0.9502294419656755,0.2876111375,0.6676487112309158
0.032,1.7744,1.0,2702.1488438817737,0.3023307294176016,1.3224332915515442,0.9513995632962129,0.2875778,0.6684846061837911
0.0325,1.77359375,1.0,2706.894031559542,0.306244104678782,1.3220258479588327,0.9525216485955929,0.2875439375,0.6693219172397793
0.033,1.772775,1.0,2711.182529272522,0.3101355271779184,1.3216169621308975,0.953598290375858,0.28750955,0.6701611277732552
0.0335,1.7719437500000002,1.0,2715.039602153046,0.31400512017904625,1.3212063938368768,0.954631907214614,0.2874746375,0.6710027186170575
0.034,1.7711000000000001,1.0,2718.490699049613,0.31785300694620094,1.3207939028459086,0.9556247574972085,0.2874392,0.6718471680385516
0.0345,1.7702437500000001,1.0,2721.561432060527,0.3216793107434179,1.320379248927131,0.9565789519182427,0.2874032375,0.6726949517120133
0.035,1.7693750000000001,1.0,2724.2715350179606,0.32548414849254115,1.3199622466428464,0.9574964691891028,0.28736675,0.6735464308777497
0.035500000000000004,1.76849375,1.0,2726.6478708012005,0.32926764847234585,1.3195426467727827,0.9583791578377988,0.2873297375,0.6744020946857292
0.036000000000000004,1.7676,1.0,2728.7074664664733,0.33302992907260254,1.3191202905412915,0.9592287569340441,0.2872922,0.6752622454236024
0.0365,1.76669375,1.0,2730.4660774670683,0.3367711071490582,1.3186950314921675,0.9600468981782162,0.2872541375,0.6761271584891786
0.037,1.765775,1.0,2731.939531868526,0.34049129955746027,1.3182667231692062,0.9608351129058884,0.28721555,0.6769971075355097
0.0375,1.76484375,1.0,2733.1437216821696,0.34419062315355564,1.3178352191162022,0.9615948393806258,0.2871764375,0.6778723644430988
0.038,1.7639,1.0,2734.094594673111,0.3478691947930916,1.3174003728769508,0.9623274294791547,0.28713679999999997,0.678753199290729
0.0385,1.76294375,1.0,2734.808146644909,0.3515271313318151,1.3169620379952467,0.9630341548256498,0.28709663750000003,0.6796398803249356
0.039,1.761975,1.0,2735.300414198513,0.3551645496254734,1.3165200680148854,0.9637162124260364,0.28705595,0.6805326739281006
0.0395,1.7609937500000001,1.0,2735.579745969235,0.3587815568368761,1.3160743865916256,0.9643747343902933,0.2870147375,0.6814317032548713
0.04,1.76,1.0,2735.662647635741,0.36237827323610294,1.315624843567757,0.9650107837420366,0.286973,0.6823372389120819
0.0405,1.7589937500000001,1.0,2735.5705438294312,0.3659548253724641,1.3151712443362176,0.9656253604051821,0.2869307375,0.6832496388506386
0.041,1.757975,1.0,2735.311712188639,0.36951132254402086,1.3147135138165709,0.9662194155023475,0.28688795,0.6841690185625863
0.0415,1.75694375,1.0,2734.8944445472043,0.37304787404883455,1.31425157692838,0.9667938474053385,0.2868446375,0.6850954923406456
0.042,1.7559,1.0,2734.327044476997,0.37656458918496655,1.313785358591209,0.9673495052018303,0.28680079999999997,0.6860291732582475
0.0425,1.75484375,1.0,2733.617824955462,0.3800615772504782,1.3133147837246206,0.9678871918999572,0.2867564375,0.6869701731492163
0.043000000000000003,1.753775,1.0,2732.7751061573845,0.3835389475434307,1.3128397772481788,0.9684076673930946,0.28671155,0.6879186025870851
0.043500000000000004,1.75269375,1.0,2731.8072133730857,0.3869968093618855,1.3123602640814471,0.9689116512050219,0.28666613750000003,0.688874570864058
0.044,1.7516,1.0,2730.72247505006,0.3904352720039039,1.3118761691439889,0.9693998250337774,0.2866202,0.6898381859696112
0.0445,1.75049375,1.0,2729.529220960968,0.3938544447675472,1.3113874173553675,0.9698728351108252,0.2865737375,0.6908095545687316
0.045,1.7493750000000001,1.0,2728.2357804954,0.3972544369508768,1.3108939336351464,0.9703312943906308,0.28652675,0.6917887819797998
0.0455,1.74824375,1.0,2726.8504810774803,0.400635357851954,1.3103956429028893,0.9707757845843826,0.2864792375,0.692775972152111
0.046,1.7471,1.0,2725.3816467081133,0.40399731676884004,1.3098924700781596,0.9712068580503596,0.2864312,0.6937712276430388
0.0465,1.7459437500000001,1.0,2723.8324725108805,0.4073404056980948,1.3093843867052564,0.971625040645594,0.28638263750000004,0.6947745575988915
0.047,1.744775,1.0,2722.2139167917708,0.41066475110937667,1.3088712936708191,0.9720308317123371,0.28633355,0.6957861095220492
0.0475,1.74359375,1.0,2720.53083667457,0.4139704575554506,1.3083531473195618,0.9724247071927881,0.28628393750000003,0.6968059200832929
0.048,1.7424,1.0,2718.787209916101,0.41725762632788577,1.3078299119733159,0.9728071201063521,0.2862338,0.6978340092299127
0.0485,1.74119375,1.0,2716.9870113979223,0.4205263587182514,1.3073015519539128,0.9731785017332245,0.2861831375,0.6988703959397851
0.049,1.739975,1.0,2715.134212699832,0.4237767560181167,1.3067680315831844,0.9735392628543355,0.28613195,0.6999150982097524
0.0495,1.73874375,1.0,2713.2327817024834,0.427008919519051,1.3062293151829625,0.973889794909609,0.2860802375,0.7009681330439217
0.05,1.7375,1.0,2711.286682218286,0.4302229505126235,1.3056853670750783,0.9742304710806182,0.286028,0.7020295164418834
0.0505,1.73624375,1.0,2709.2998736497475,0.43341895029040334,1.3051361515813638,0.9745616473032002,0.2859752375,0.7030992633868464
0.051000000000000004,1.734975,1.0,2707.2763106768525,0.4365970201439598,1.3045816330236502,0.9748836632151561,0.28592195,0.7041773878336943
0.051500000000000004,1.73369375,1.0,2705.2199429722427,0.4397572613648621,1.3040217757237695,0.9751968430437341,0.2858681375,0.7052639026969578
0.052000000000000005,1.7324,1.0,2703.134714944584,0.4428997752446795,1.3034565440035533,0.9755014964372163,0.2858138,0.7063588198387103
0.0525,1.73109375,1.0,2701.0245655106482,0.4460246630749812,1.3028859021848331,0.9757979192445934,0.28575893750000003,0.7074621500563766
0.053,1.729775,1.0,2698.8930678414263,0.4491320256478792,1.3023098178806947,0.9760863944009739,0.28570355000000003,0.7085738967249402
0.0535,1.72844375,1.0,2696.7402575861042,0.452221959502488,1.3017282910052872,0.976367194018883,0.2856476375,0.709694000022413
0.054,1.7271,1.0,2694.5687963921932,0.45529456133520135,1.3011412974515644,0.9766405769604759,0.2855912,0.7108224456925651
0.0545,1.7257437500000001,1.0,2692.382346742645,0.45834992809274633,1.3005488039160342,0.9769067904300764,0.2855342375,0.711959236175514
0.055,1.724375,1.0,2690.183024647834,0.4613881564704262,1.2999507912018007,0.9771660719164237,0.28547675,0.713104345846345
0.0555,1.72299375,1.0,2687.973550654727,0.4644093431399711,1.299347234544355,0.9774186485413776,0.2854187375,0.7142577588349709
0.056,1.7216,1.0,2685.756148353854,0.46741358347773904,1.2987381136929879,0.9776647380541517,0.2853602,0.7154194497039397
0.0565,1.72019375,1.0,2683.530263440889,0.4704009721491895,1.2981234338293801,0.9779045505694711,0.28530113749999997,0.7165893437556736
0.057,1.718775,1.0,2681.2953425966516,0.4733716038197822,1.297503200135213,0.9781382875499524,0.28524155,0.7177673657822303
0.0575,1.7173441300438288,1.0,2679.075227757217,0.4763255725258085,1.2968773656127595,0.9783661392076581,0.2851814534618408,0.7189535388610586
0.058,1.7159097124285743,1.0,2677.275062502939,0.47926297225261943,1.2962460829766673,0.9785882992903203,0.28512120792200013,0.7201475074010891
0.0585,1.7144752948133195,1.0,2676.0266230065477,0.48218389534168515,1.295609740797544,0.978804966798723,0.2850609623821594,0.7213484730408446
0.059000000000000004,1.713040877198065,1.0,2675.2871829472715,0.4850884341298285,1.294968727814512,0.9790163328715097,0.28500071684231876,0.7225556428937765
0.059500000000000004,1.7116064595828104,1.0,2675.0157077070685,0.4879766806280806,1.2943234188582005,0.9792225803720108,0.284940471302478,0.7237682560957279
0.06,1.710172041967556,1.0,2675.1718381755054,0.49084872675642943,1.2936741838286645,0.9794238847943664,0.28488022576263733,0.7249855668130349
0.0605,1.7087376243523014,1.0,2675.7225767606064,0.49370466302204213,1.293021326003385,0.9796204111929558,0.28481998022279664,0.7262069595255676
0.061,1.7073032067370466,1.0,2676.637157583971,0.4965445794903862,1.2923651288981333,0.9798123172451944,0.28475973468295596,0.7274318603455929
0.0615,1.705868789121792,1.0,2677.887012219547,0.4993685654990652,1.2917058563901709,0.9799997535800962,0.28469948914311527,0.7286597364402966
0.062,1.7044343715065375,1.0,2679.446904383951,0.502176709443305,1.2910437421525462,0.9801828635345219,0.2846392436032746,0.7298901152864865
0.0625,1.702999953891283,1.0,2681.2778577009412,0.5049691050385924,1.2903791461171676,0.9803617920897657,0.2845789980634339,0.7311222943248233
0.063,1.7015655362760282,1.0,2683.3623781905885,0.5077458388398853,1.2897122312001925,0.9805366682247195,0.28451875252359315,0.7323559409853515
0.0635,1.7001311186607737,1.0,2685.682981757613,0.5105069974021417,1.289043160317778,0.9807076162087495,0.2844585069837525,0.7335907253619618
0.064,1.6986967010455192,1.0,2688.2221861090097,0.5132526672803192,1.2883720963860823,0.980874755812691,0.2843982614439118,0.734826320235638
0.0645,1.6972622834302646,1.0,2690.962503261834,0.5159829350293759,1.287699202321262,0.9810382025089447,0.2843380159040711,0.7360624010960128
0.065,1.6958278658150099,1.0,2693.8864326371727,0.5186978872042695,1.2870246410394748,0.9811980676613125,0.2842777703642304,0.7372986461612265
0.0655,1.6943934481997553,1.0,2696.9764547444165,0.5213976103599579,1.2863485754568784,0.9813544587051648,0.2842175248243897,0.7385347363960983
0.066,1.6929590305845008,1.0,2700.218819748785,0.5240821884589701,1.285671133814413,0.9815074774361451,0.28415727928454904,0.7397704187027673
0.0665,1.6915246129692463,1.0,2703.600201050811,0.5267517068062406,1.2849924403022153,0.9816572220093359,0.28409703374470835,0.7410054495235596
0.067,1.6900901953539915,1.0,2707.1008651151483,0.5294062558729269,1.2843126773786517,0.9818037903648958,0.28403678820486766,0.7422394817658887
0.0675,1.688655777738737,1.0,2710.713115439176,0.5320459174736292,1.2836319173176156,0.9819472712361405,0.2839765426650269,0.743472370786777
0.068,1.6872213601234824,1.0,2714.429241339679,0.5346707734229479,1.2829502323930004,0.9820877503409797,0.2839162971251863,0.7447039731784026
0.0685,1.685786942508228,1.0,2718.2415164122353,0.5372809055354831,1.2822676948786997,0.9822253105072125,0.28385605158534555,0.7459341467725296
0.069,1.6843525248929732,1.0,2722.142197108018,0.5398763956258354,1.281584377048607,0.9823600317918026,0.28379580604550486,0.7471627506446042
0.0695,1.6829181072777186,1.0,2726.123521424772,0.5424573255086051,1.2809003511766157,0.9824919915944619,0.2837355605056642,0.748389645117519
0.07,1.681483689662464,1.0,2730.1777077147194,0.5450237769983924,1.2802156895366195,0.9826212647658513,0.2836753149658235,0.7496146917650411
0.07050000000000001,1.6800492720472096,1.0,2734.296953607591,0.5475758319097976,1.2795304644025116,0.9827479237106869,0.2836150694259828,0.7508377534149113
0.07100000000000001,1.6786148544319548,1.0,2738.473435050159,0.5501135720574213,1.2788447480481855,0.9828720384860261,0.2835548238861421,0.752058694151607
0.07150000000000001,1.6771804368167003,1.0,2742.7030474308976,0.5526370733689283,1.2781585788163952,0.9829936749974826,0.28349457834630143,0.7532774395116176
0.07200000000000001,1.6757460192014457,1.0,2746.9785132415855,0.5551464202816203,1.277472023693293,0.9831128988429539,0.2834343328064607,0.7544938650113158
0.0725,1.6743116015861912,1.0,2751.292341082057,0.5576416973542792,1.2767851514031765,0.9832297736235733,0.28337408726662006,0.7557078442688797
0.073,1.6728771839709364,1.0,2755.6416038442185,0.5601229811760267,1.276097989171486,0.9833443586225737,0.2833138417267793,0.7569193251768557
0.0735,1.671442766355682,1.0,2760.023365512531,0.5625903483359845,1.2754105642236622,0.9834567112648208,0.2832535961869386,0.7581282561033293
