Time [s],Phi [rad],STIM [ ],Fsee [N],Gamma [ ],Lcerel [ ],q [ ],Lmtc [m],fisomrel [ ]
0.0,1.8,1.0,17.96688325163593,1.2712890990303958e-05,1.3793397770196187,0.005000042992446403,0.288653,0.5411394565392409
0.0005,1.79999375,1.0,18.27715459121795,0.005621850890521158,1.3793023421972932,0.012948048336512707,0.2886527375,0.5412300165932638
0.001,1.799975,1.0,21.620810674215328,0.01119952606078314,1.378938054022179,0.035622718118597685,0.28865195,0.5421108138197839
0.0015,1.79994375,1.0,31.075866826109156,0.016745914884235984,1.3780456388358622,0.07062106406322706,0.2886506375,0.5442649711644926
0.002,1.7999,1.0,53.59731515309835,0.022261192851682786,1.3763671633472114,0.11474076452163466,0.2886488,0.5483028008736399
0.0025,1.79984375,1.0,97.14441898598862,0.027745534469854415,1.3739339394551573,0.16459961784293867,0.28864643749999996,0.5541243907000855
0.003,1.7997750000000001,1.0,160.99168406059263,0.03319911326910041,1.3712130892393957,0.21730596095395008,0.28864354999999997,0.560589420846124
0.0035,1.79969375,1.0,237.7214022655873,0.03862210180300048,1.3685835616011435,0.2706382574962448,0.2886401375,0.5667925960376788
0.004,1.7996,1.0,321.50742091683287,0.044014671659141726,1.3661550157781421,0.322940365544893,0.2886362,0.5724824758307031
0.0045000000000000005,1.7994937500000001,1.0,409.30996898259855,0.04937699346430447,1.3639218231702157,0.3730578252300499,0.2886317375,0.5776814624377113
0.005,1.799375,1.0,499.45666925580554,0.05470923687555933,1.3618574251120958,0.42026927655842444,0.28862675,0.5824591960817729
0.0055,1.79924375,1.0,590.8340458596908,0.060011570627615723,1.3599379826543114,0.464193896766774,0.2886212375,0.5868770683760989
0.006,1.7991000000000001,1.0,682.5618581080968,0.06528416247627451,1.3581456195055914,0.5046985249555408,0.2886152,0.5909812347862122
0.006500000000000001,1.79894375,1.0,773.9272571015334,0.07052717925534574,1.3564664683917282,0.541817707100426,0.2886086375,0.5948075794398247
0.007,1.798775,1.0,864.3312458384331,0.07574078684964158,1.3548896610910752,0.5756922260956162,0.28860155,0.5983843381717531
0.0075,1.79859375,1.0,953.2870791345787,0.08092515023577325,1.353406104529501,0.6065239722313219,0.2885939375,0.6017350933714396
0.008,1.7984,1.0,1040.4028444289368,0.0860804334375849,1.352007992800647,0.634544819332779,0.2885858,0.6048800159580985
0.0085,1.79819375,1.0,1125.3512217251887,0.0912067991463691,1.3506887178007825,0.6599960805829402,0.2885771375,0.6078361709414641
0.009000000000000001,1.797975,1.0,1207.914291292015,0.09630441025822384,1.3494418422450527,0.6831149429315756,0.28856795,0.6106198944144889
0.0095,1.79774375,1.0,1287.9266651358328,0.10137342870205887,1.3482616678162538,0.7041271091093151,0.2885582375,0.6132455699293409
0.01,1.7975,1.0,1365.221456731915,0.10641401364236515,1.3471436860032078,0.7232428589733736,0.288548,0.6157246851661553
0.0105,1.79724375,1.0,1439.704090707586,0.11142632424363358,1.346083388294737,0.7406545800605773,0.2885372375,0.6180685215128646
0.011,1.796975,1.0,1511.345298695057,0.11641051963604213,1.3450762716568556,0.7565364755006243,0.28852595000000003,0.6202881592455485
0.0115,1.79669375,1.0,1580.143388199055,0.12136675791963211,1.3441182157469629,0.7710453279451607,0.2885141375,0.6223936657880316
0.012,1.7964,1.0,1646.0908508524967,0.12629519587386553,1.34320576886737,0.7843216817825788,0.28850180000000003,0.6243934955872367
0.0125,1.79609375,1.0,1709.201455983158,0.13119598893333795,1.3423357191263317,0.7964909416254935,0.2884889375,0.6262954573031166
0.013000000000000001,1.7957750000000001,1.0,1769.510698277385,0.13606929165704085,1.3415050259718277,0.8076647540562792,0.28847555,0.6281068789412667
0.0135,1.79544375,1.0,1827.0978469925878,0.14091525998088208,1.3407105248796023,0.81794230032769,0.2884616375,0.6298352622329908
0.014,1.7951000000000001,1.0,1882.0177198901044,0.14573404695863743,1.3399496512153195,0.8274119133286267,0.2884472,0.6314867175975212
0.0145,1.79474375,1.0,1934.3205611588678,0.15052580392888276,1.3392201542103463,0.8361521802943298,0.2884322375,0.6330666038823625
0.015,1.794375,1.0,1984.0774624232367,0.15529068223019396,1.3385197830960491,0.844232953365352,0.28841675,0.6345802182799868
0.0155,1.79399375,1.0,2031.378571405169,0.16002883320114694,1.3378462871037948,0.8517163725657876,0.2884007375,0.6360328006702176
0.016,1.7936,1.0,2076.3083617545067,0.16474040660632705,1.3371976556980716,0.8586578506686092,0.2883842,0.6374290210195306
0.0165,1.7931937500000001,1.0,2118.9662396103067,0.16942555307402357,1.3365718776704396,0.8651067955030864,0.2883671375,0.638773504978937
0.017,1.792775,1.0,2159.4191240994405,0.17408441954677223,1.3359674123198713,0.8711074541648894,0.28834955,0.6400698273567909
0.0175,1.7923437500000001,1.0,2197.7434205301533,0.1787171528691817,1.3353827312261783,0.8766993893964556,0.2883314375,0.6413215038114446
0.018000000000000002,1.7919,1.0,2234.025298322709,0.18332389988586065,1.3348163059691738,0.8819180270538116,0.2883128,0.6425320193149127
0.0185,1.79144375,1.0,2268.3461520892865,0.18790480595172163,1.3342667447599947,0.8867951736137777,0.2882936375,0.6437045387358309
0.019,1.790975,1.0,2300.804553949998,0.19246001828784623,1.3337325625076082,0.8913593784977372,0.28827395,0.6448424002618156
0.0195,1.79049375,1.0,2331.471352358322,0.1969896800600019,1.3332126188784568,0.8956364105508003,0.2882537375,0.6459481843755113
0.02,1.79,1.0,2360.4154704690286,0.20149393351619005,1.3327058489858015,0.899649508683289,0.288233,0.6470242922533069
0.0205,1.78949375,1.0,2387.7109585239996,0.20597292090441202,1.3322111879429037,0.9034196486545177,0.2882117375,0.6480731077983568
0.021,1.788975,1.0,2413.4365621069837,0.21042678447266924,1.331727570863024,0.9069657942792573,0.28818995000000003,0.6490969984990986
0.021500000000000002,1.78844375,1.0,2437.6601725218643,0.21485566424964792,1.3312540785101123,0.9103051475866628,0.2881676375,0.6500980085153583
0.022,1.7879,1.0,2460.46822330397,0.21925970360130598,1.3307896488301274,0.9134532823871924,0.2881448,0.6510784701111001
0.0225,1.78734375,1.0,2481.919260082156,0.22363904069271298,1.3303335196513273,0.9164244026732408,0.28812143749999997,0.6520400694986166
0.023,1.786775,1.0,2502.0689685941556,0.22799381276948577,1.3298849818437843,0.9192314394524049,0.28809755,0.6529843710265499
0.0235,1.78619375,1.0,2520.9754481805185,0.2323241570772413,1.3294433262775702,0.9218861734679688,0.28807313749999996,0.6539129297550077
0.024,1.7856,1.0,2538.699009248292,0.2366302108615965,1.329007843822757,0.9243993534092104,0.2880482,0.6548272917828454
0.0245,1.78499375,1.0,2555.2988805588143,0.24091211075979402,1.3285778544843252,0.9267808054096142,0.2880227375,0.6557289334900435
0.025,1.784375,1.0,2570.827107835237,0.2451699917789378,1.3281527624182972,0.9290395341480691,0.28799675,0.6566191470575276
0.025500000000000002,1.78374375,1.0,2585.3556265204193,0.24940399228073162,1.3277318003793206,0.9311837628737165,0.2879702375,0.6574995759570446
0.026000000000000002,1.7831000000000001,1.0,2598.9256515969873,0.25361424416425343,1.3273145021423478,0.9332210831070057,0.2879432,0.6583712266814636
0.0265,1.78244375,1.0,2611.579517515508,0.25780087932858103,1.3269004014823302,0.9351584687481951,0.2879156375,0.6592351004805208
0.027,1.781775,1.0,2623.3605843781193,0.2619640296727924,1.3264890321742204,0.9370023346072756,0.28788755,0.6600921934628217
0.0275,1.7810937500000001,1.0,2634.3131489418306,0.2661038270959655,1.3260799279929703,0.9387585886749691,0.2878589375,0.6609434966839902
0.028,1.7804,1.0,2644.482360440684,0.27022040349717813,1.3256726227135316,0.9404326788716296,0.2878298,0.6617899962209494
0.0285,1.77969375,1.0,2653.9090409944542,0.27431388780928617,1.325266697125612,0.9420296405111241,0.2878001375,0.6626325757047048
0.029,1.778975,1.0,2662.6366588678998,0.27838441338706954,1.3248617137867273,0.9435541269053868,0.28776995,0.6634721521541787
0.029500000000000002,1.7782437500000001,1.0,2670.698425711533,0.2824321078736202,1.3244573351431053,0.9450104556022825,0.2877392375,0.6643094313515137
0.03,1.7775,1.0,2678.1263899626592,0.28645709783171025,1.3240532388239414,0.9464026278422779,0.287708,0.6651450842082705
0.0305,1.77674375,1.0,2684.953037470399,0.2904595098241118,1.3236491024584323,0.9477343542274492,0.2876762375,0.6659797783094745
0.031,1.775975,1.0,2691.2112502812647,0.29443947041359686,1.3232446036757735,0.9490090794906989,0.28764395,0.6668141779161102
0.0315,1.7751937500000001,1.0,2696.9342677292257,0.2983971061629376,1.322839420105161,0.950230004862996,0.2876111375,0.6676489439609802
0.032,1.7744,1.0,2702.145210340072,0.3023325382893068,1.322433324745808,0.9514001183192176,0.2875778,0.6684845379252689
0.0325,1.77359375,1.0,2706.878062857464,0.30624589625148685,1.3220259937133454,0.9525221929261775,0.2875439375,0.6693216178983815
0.033,1.772775,1.0,2711.1687289572706,0.31013730949346413,1.3216170879937468,0.9535988115462525,0.28750955,0.6701608696123168
0.0335,1.7719437500000002,1.0,2715.036702506076,0.31400689808156684,1.3212064202636742,0.9546323986272097,0.2874746375,0.6710026644814922
0.034,1.7711000000000001,1.0,2718.501639554622,0.3178547820821232,1.3207938031997903,0.9556252179951926,0.2874392,0.6718473719024687
0.0345,1.7702437500000001,1.0,2721.5833425997675,0.3216810815614615,1.3203790494787575,0.9565793853912137,0.2874032375,0.6726953592317853
0.035,1.7693750000000001,1.0,2724.301745623234,0.32548591658591003,1.319961971777238,0.9574968798892275,0.28736675,0.6735469917615498
0.035500000000000004,1.76849375,1.0,2726.6768999094056,0.32926940722179693,1.3195423827718942,0.9583795543072455,0.2873297375,0.6744026326927943
0.036000000000000004,1.7676,1.0,2728.728960640233,0.3330316735354505,1.3191200951393887,0.9592291447107705,0.2872922,0.6752626431065929
0.0365,1.76669375,1.0,2730.478174269094,0.33677283559319887,1.3186949215563837,0.9600472790970654,0.2872541375,0.6761273819329415
0.037,1.765775,1.0,2731.94486667157,0.3404930134613705,1.3182666746995417,0.960835485339285,0.28721555,0.6769972059173983
0.0375,1.76484375,1.0,2733.137174523926,0.34419231926728755,1.3178352785877496,0.9615952076612438,0.2871764375,0.6778722438936466
0.038,1.7639,1.0,2734.0827757271577,0.34787087907722525,1.3174004802165145,0.9623277893951554,0.28713679999999997,0.6787529820099683
0.0385,1.76294375,1.0,2734.7986063065355,0.3515288100255445,1.316962124629194,0.9630345015990394,0.28709663750000003,0.6796397051994492
0.039,1.761975,1.0,2735.2957838249386,0.3551662251425438,1.3165201100586,0.9637165448811277,0.28705595,0.6805325890576908
0.0395,1.7609937500000001,1.0,2735.5854570787174,0.35878323745852175,1.3160743347375439,0.9643750501970713,0.2870147375,0.6814318077813108
0.04,1.76,1.0,2735.6788017305,0.362379960003777,1.3156246968988377,0.965011083632173,0.286973,0.6823375341438676
0.0405,1.7589937500000001,1.0,2735.5870161724088,0.36595650580860795,1.315171094775293,0.9656256508063956,0.2869307375,0.68324993947112
0.041,1.757975,1.0,2735.321317618568,0.3695129879033132,1.3147134265997216,0.9662197009355606,0.28688795,0.6841691936156303
0.0415,1.75694375,1.0,2734.8929384272355,0.3730495193181914,1.314251590604935,0.9667941305788891,0.2868446375,0.6850954649307026
0.042,1.7559,1.0,2734.3131226527476,0.37656621308354105,1.3137854850237451,0.9673497871001133,0.28680079999999997,0.686028920243664
0.0425,1.75484375,1.0,2733.5931228268873,0.3800631822296607,1.3133150080889637,0.9678874718667752,0.2867564375,0.6869697248284841
0.043000000000000003,1.753775,1.0,2732.7409895058177,0.3835405299287003,1.3128400871707362,0.9684079440139592,0.28671155,0.68791798424428
0.043500000000000004,1.75269375,1.0,2731.7724826322915,0.3869983790601185,1.3123605796384203,0.968911919836139,0.28666613750000003,0.6888739422447387
0.044,1.7516,1.0,2730.693271693481,0.39043683632709675,1.3118764345327505,0.9694000827051321,0.2866202,0.6898376581094994
0.0445,1.75049375,1.0,2729.5088882118357,0.3938560081362237,1.3113876021717286,0.9698730804990418,0.2865737375,0.690809187543818
0.045,1.7493750000000001,1.0,2728.2248652862722,0.3972560008940878,1.3108940328733565,0.9703315277399016,0.28652675,0.6917885852160087
0.0455,1.74824375,1.0,2726.8467365649053,0.4006369210072778,1.3103956769556369,0.9707760076323676,0.2864792375,0.6927759047425126
0.046,1.7471,1.0,2725.3800352718167,0.4039988748823822,1.3098924847365714,0.9712070739587583,0.2864312,0.6937711986728121
0.0465,1.7459437500000001,1.0,2723.83029328881,0.40734196892598956,1.3093844065341622,0.9716252528418535,0.28638263750000004,0.6947745184741845
0.047,1.744775,1.0,2722.2030402915343,0.4106663095446885,1.3088713926664117,0.9720310443858567,0.28633355,0.6957859145162988
0.0475,1.7435938535558844,1.0,2720.5089395750365,0.41397200314506766,1.308353393451322,0.9724249242050136,0.28628394184934713,0.6968054360556575
0.048,1.7424079625608906,1.0,2719.133911979904,0.41725915551255227,1.3078303504758861,0.9728073441539704,0.2862341344275574,0.6978331483606286
0.0485,1.7412220715658968,1.0,2718.2745424809227,0.4205278703284465,1.3073026136385262,0.9731787625718418,0.2861843270057677,0.698868315213427
0.049,1.7400361805709028,1.0,2717.876889256888,0.4237782515430659,1.3067706720689949,0.9735396255179305,0.2861345195839779,0.6999099322651059
0.0495,1.738850289575909,1.0,2717.908821215182,0.42701040078069363,1.306234817525287,0.9738903442572798,0.28608471216218817,0.7009573869108872
0.05,1.7376643985809153,1.0,2718.3383136043194,0.4302244196656128,1.3056953417653965,0.9742313108298014,0.28603490474039844,0.7020100702262035
0.0505,1.7364785075859215,1.0,2719.133423645974,0.4334204098221066,1.305152536547318,0.9745628991299263,0.2859850973186087,0.7030673770367913
0.051000000000000004,1.7352926165909275,1.0,2720.262268053718,0.4365984728744582,1.3046066936290466,0.9748854659164776,0.28593528989681893,0.7041287059833552
0.051500000000000004,1.7341067255959337,1.0,2721.6979648919414,0.4397587089047729,1.3040580595971358,0.9751993486671391,0.2858854824750292,0.7051935471748234
0.052000000000000005,1.73292083460094,1.0,2723.4104595889303,0.44290121990868003,1.3035069101488361,0.9755048717699341,0.2858356750532395,0.7062613376655176
0.0525,1.731734943605946,1.0,2725.379169821892,0.44602610445403773,1.302953434882782,0.9758023393728724,0.28578586763144975,0.7073316846069003
0.053,1.7305490526109522,1.0,2727.5850707229647,0.44913346054567693,1.3023978093077744,0.9760920412959906,0.28573606020965997,0.7084042248911318
0.0535,1.7293631616159584,1.0,2730.00913869468,0.4522233861884283,1.3018402089326142,0.9763742547229258,0.28568625278787024,0.7094785978045786
0.054,1.7281772706209646,1.0,2732.6323433836938,0.4552959793871226,1.301280809266102,0.9766492448642,0.2856364453660805,0.7105544450509016
0.0545,1.7269913796259706,1.0,2735.436968648753,0.4583513374316552,1.300719773756302,0.9769172647813327,0.28558663794429073,0.7116314339029288
0.055,1.7258054886309768,1.0,2738.4061208472017,0.4613895578339596,1.300157258224999,0.9771785563730127,0.285536830522501,0.7127092485167452
0.0555,1.724619597635983,1.0,2741.5248291975363,0.4644107372911218,1.299593400858367,0.9774333502555346,0.2854870231007113,0.7137876089353248
0.056,1.723433706640989,1.0,2744.781853273934,0.46741497031743073,1.2990283058316627,0.9776818652527779,0.28543721567892155,0.7148663020135382
0.0565,1.7222478156459953,1.0,2748.165936151247,0.47040235142717524,1.298462077320143,0.9779243111677693,0.2853874082571318,0.715945116076993
0.057,1.7210619246510015,1.0,2751.665801666733,0.47337297513464416,1.2978948194990643,0.9781608892307967,0.28533760083534204,0.7170238409299106
0.0575,1.7198760336560075,1.0,2755.270151922717,0.47632693595412645,1.2973266365436833,0.9783917925217911,0.2852877934135523,0.7181022678623101
0.058,1.7186901426610137,1.0,2758.97622466975,0.4792643190020118,1.2967575552420307,0.9786172011997173,0.2852379859917626,0.7191803361185367
0.0585,1.71750425166602,1.0,2762.762606380525,0.4821852318586917,1.2961877708688063,0.9788372995733857,0.2851881785699728,0.72025766705283
0.059000000000000004,1.7163183606710262,1.0,2766.62288580462,0.4850897655014021,1.2956173427523556,0.9790522557608161,0.2851383711481831,0.7213341411480749
0.059500000000000004,1.7151324696760322,1.0,2770.551948230551,0.487978009426071,1.2950463183845717,0.9792622305382576,0.28508856372639335,0.7224096620143812
0.06,1.7139465786810384,1.0,2774.5446665066543,0.49085005312862645,1.294474745257348,0.9794673784511547,0.2850387563046036,0.7234841339464925
0.0605,1.7127606876860446,1.0,2778.595900438092,0.4937059861049965,1.2939026708625778,0.979667848105184,0.2849889488828139,0.7245574619255206
0.061,1.7115747966910508,1.0,2782.700496233998,0.49654589785110925,1.2933301426921544,0.9798637824415446,0.2849391414610241,0.7256295516205369
0.0615,1.7103889056960568,1.0,2786.853286004893,0.49936987786289266,1.2927572082379712,0.980055318997472,0.2848893340392344,0.7267003093900164
0.062,1.709203014701063,1.0,2791.0490873095823,0.5021780156362748,1.2921839149919214,0.9802425901528748,0.28483952661744466,0.727769642283143
0.0625,1.7080171237060693,1.0,2795.2827027524863,0.5049704006671838,1.2916103104458982,0.9804257233639305,0.2847897191956549,0.7288374580409658
0.063,1.7068312327110753,1.0,2799.5489196309813,0.5077471224515476,1.291036442091795,0.9806048413844243,0.28473991177386515,0.7299036650974147
0.0635,1.7056453417160815,1.0,2803.842536169895,0.5105082704034833,1.2904623571835079,0.9807800624574351,0.2846901043520754,0.7309681730210469
0.064,1.7044594507210877,1.0,2808.1656383233353,0.5132539143882052,1.2898880375251902,0.9809514958143728,0.2846402969302857,0.7320310130733225
0.0645,1.7032735597260937,1.0,2812.5068956951686,0.5159841686604161,1.2893135851164705,0.9811192559570033,0.2845904895084959,0.7330919944740266
0.065,1.7020876687311,1.0,2816.86467533826,0.518699116149364,1.2887390148754745,0.9812834467389463,0.2845406820867062,0.7341510882931777
0.0655,1.7009017777361062,1.0,2821.237339245231,0.5213988397842969,1.2881643417203275,0.9814441683356491,0.28449087466491646,0.7352082658191657
0.066,1.6997158867411124,1.0,2825.6232443122194,0.5240834224944627,1.2875895805691548,0.9816015174016152,0.28444106724312673,0.7362634985588572
0.0665,1.6985299957461184,1.0,2830.020742307208,0.5267529472091093,1.2870147463400823,0.9817555872198332,0.28439125982133695,0.7373167582376856
0.067,1.6973441047511246,1.0,2834.4281798435845,0.5294074968574846,1.2864398539512352,0.9819064678438466,0.2843414523995472,0.7383680167997292
0.0675,1.6961582137561309,1.0,2838.843898358106,0.5320471543688365,1.2858649183207391,0.9820542462328736,0.2842916449777575,0.7394172464077715
0.068,1.6949723227611369,1.0,2843.2662340942943,0.534672002672413,1.2852899543667198,0.9821990063803655,0.28424183755596777,0.7404644194433513
0.0685,1.693786431766143,1.0,2847.6935180905684,0.5372821246974621,1.2847149770073023,0.9823408294363638,0.284192030134178,0.7415095085067963
0.069,1.6926005407711493,1.0,2852.1240761735767,0.5398776033732317,1.2841400011606126,0.9824797938240003,0.28414222271238826,0.742552486417242
0.0695,1.6914146497761555,1.0,2856.556228955931,0.5424585216289695,1.2835650417447757,0.982615975350451,0.28409241529059853,0.7435933262126391
0.07,1.6902287587811615,1.0,2860.9882918391045,0.5450249623939237,1.2829901136779174,0.9827494473126541,0.28404260786880875,0.7446320011497429
0.07050000000000001,1.6890428677861677,1.0,2865.41857502177,0.5475770085973422,1.2824152318781634,0.9828802805980632,0.283992800447019,0.7456684847040917
0.07100000000000001,1.687856976791174,1.0,2869.8467910032405,0.5501147277554669,1.2818403987868245,0.9830085422830682,0.2839429930252293,0.7467027729964404
0.07150000000000001,1.68667108579618,1.0,2874.272645279839,0.5526381968225232,1.2812656168998469,0.983134297848417,0.28389318560343957,0.7477348620852953
0.07200000000000001,1.6854851948011862,1.0,2878.6926846131305,0.5551475282800463,1.2806909166634288,0.9832576140183483,0.28384337818164984,0.7487646980313905
0.0725,1.6842993038061924,1.0,2883.1065739764454,0.5576427973659731,1.2801163008526195,0.9833785519608018,0.28379357075986006,0.7497922767750151
