Time [s],Phi [rad],STIM [ ],Fsee [N],Gamma [ ],Lcerel [ ],q [ ],Lmtc [m],fisomrel [ ]
0.0,1.8,1.0,20.957725510168018,0.0017684217488198478,1.379017592275898,0.005798834851229583,0.288653,0.5419185738054245
0.0005,1.79999375,1.0,21.739708854324565,0.007367711609916054,1.3789343953958608,0.018532245189840403,0.2886527375,0.5421196555675174
0.001,1.799975,1.0,26.410029538901238,0.012935593882041591,1.3784733796397595,0.04534675367834611,0.28865195,0.5432331023726356
0.0015,1.79994375,1.0,39.01063455007169,0.018472244737676717,1.3774080824688462,0.08354891594321866,0.2886506375,0.5458008268086372
0.002,1.7999,1.0,67.52464531389033,0.023977839359376113,1.375515868205999,0.12980711659896818,0.2886488,0.5503438543542567
0.0025,1.79984375,1.0,117.92086453378192,0.029452551948872824,1.3729813694788084,0.18083568326598037,0.28864643749999996,0.5563931697120937
0.003,1.7997750000000001,1.0,186.42540390411565,0.03489655572882787,1.3702960705156069,0.23395373030991598,0.28864354999999997,0.5627577173491731
0.0035,1.79969375,1.0,265.60994190536087,0.04031002295214268,1.3677484048120978,0.2871239432031757,0.2886401375,0.5687535419584102
0.004,1.7996,1.0,350.68975390163484,0.04569312490228393,1.3653989206653125,0.33885158071306337,0.2886362,0.5742462652315836
0.0045000000000000005,1.7994937500000001,1.0,439.20449965301617,0.05104603191307837,1.3632324856695899,0.3881260887440884,0.2886317375,0.5792798512573061
0.005,1.799375,1.0,529.7103084193565,0.05636891334712957,1.3612240164418545,0.43434286973329733,0.28862675,0.5839196745714759
0.0055,1.79924375,1.0,621.1747381130452,0.06166193762752362,1.3593526415728872,0.4772081259077863,0.2886212375,0.58821963965111
0.006,1.7991000000000001,1.0,712.7701400657894,0.06692527219465637,1.3576024753958278,0.5166488716712013,0.2886152,0.5922208851746696
0.006500000000000001,1.79894375,1.0,803.8275948487225,0.07215908368618806,1.3559609019866377,0.5527385871507491,0.2886086375,0.5959561105129443
0.007,1.798775,1.0,893.7671317313019,0.07736353749818169,1.3544181704030482,0.585641479321601,0.28860155,0.599450766862742
0.0075,1.79859375,1.0,982.1509099816401,0.08253879862123595,1.3529654697321367,0.6155714554890339,0.2885939375,0.6027276057932783
0.008,1.7984,1.0,1068.5951574087778,0.0876850305519745,1.3515957009968862,0.6427653304736985,0.2885858,0.6058050479608043
0.0085,1.79819375,1.0,1152.8026970274136,0.09280239600347626,1.3503024536379726,0.6674643195730602,0.2885771375,0.6086995885689287
0.009000000000000001,1.797975,1.0,1234.569552864161,0.0978910573826091,1.349079619314073,0.6899027164367301,0.28856795,0.6114267199602738
0.0095,1.79774375,1.0,1313.7201059548806,0.10295117535336368,1.3479220481531824,0.7103018267994142,0.2885582375,0.6139995166099956
0.01,1.7975,1.0,1390.132416782031,0.10798290987501641,1.3468249665389544,0.7288663207477432,0.288548,0.6164299827335877
0.0105,1.79724375,1.0,1463.7425670280547,0.11298642023969564,1.345783778430487,0.7457828655390233,0.2885372375,0.6187295235151018
0.011,1.796975,1.0,1534.522149243411,0.1179618653797828,1.3447942357262401,0.7612202238156349,0.28852595000000003,0.6209085937817538
0.0115,1.79669375,1.0,1602.436563540195,0.12290940193896546,1.3438528240629999,0.7753301723755008,0.2885141375,0.622975878137435
0.012,1.7964,1.0,1667.4960495671262,0.12782918653253106,1.3429560365639617,0.7882483181039339,0.28850180000000003,0.6249399138531205
0.0125,1.79609375,1.0,1729.7351308720736,0.1327213746717166,1.3421005615859396,0.8000955558289327,0.2884889375,0.6268086918449769
0.013000000000000001,1.7957750000000001,1.0,1789.2187554406564,0.13758612254163596,1.3412831550602464,0.8109794370672687,0.28847555,0.6285899492095786
0.0135,1.79544375,1.0,1845.9789383474072,0.14242358285800477,1.3405012987601268,0.8209958056190504,0.2884616375,0.6302897498171776
0.014,1.7951000000000001,1.0,1900.0731816663042,0.1472339083126437,1.339752478765758,0.8302298015506436,0.2884472,0.6319140726164643
0.0145,1.79474375,1.0,1951.5795158298008,0.15201725134916358,1.339034214512681,0.8387570864699493,0.2884322375,0.6334687544316626
0.015,1.794375,1.0,2000.5817328651588,0.15677376358580514,1.338344191370191,0.8466449860784665,0.28841675,0.6349592097131747
0.0155,1.79399375,1.0,2047.171813569679,0.16150359674639053,1.3376802054852304,0.8539534489380175,0.2884007375,0.6363905574727442
0.016,1.7936,1.0,2091.4128450394983,0.16620689914002065,1.3370405255094127,0.8607360247956531,0.2883842,0.637766850013836
0.0165,1.7931937500000001,1.0,2133.3812094122995,0.1708838190757963,1.3364234200943512,0.8670404759972393,0.2883671375,0.639092099528124
0.017,1.792775,1.0,2173.16546737727,0.17553450486281844,1.3358271578916596,0.8729094631725963,0.28834955,0.6403702806837064
0.0175,1.7923437500000001,1.0,2210.84954621398,0.18015910332258056,1.3352501667432013,0.8783811902275369,0.2883314375,0.6416049926615298
0.018000000000000002,1.7919,1.0,2246.5339801912955,0.184757762951012,1.334690804666828,0.8834898666626801,0.2883128,0.642799953034028
0.0185,1.79144375,1.0,2280.290775145497,0.18933062824250874,1.3341478029445824,0.888266283022412,0.2882936375,0.6439580541687135
0.019,1.790975,1.0,2312.1913641531532,0.1938778428571857,1.3336199690247608,0.8927381292644548,0.28827395,0.6450820034053497
0.0195,1.79049375,1.0,2342.313518363813,0.19839955045515786,1.3331061103556592,0.8969303307496286,0.2882537375,0.6461744873843221
0.02,1.79,1.0,2370.7408124572803,0.20289589469654012,1.332605034385574,0.900865361108848,0.288233,0.6472381731548825
0.0205,1.78949375,1.0,2397.5440695510483,0.2073670169486341,1.3321157236403856,0.9045635543323739,0.2882117375,0.648275338363594
0.021,1.788975,1.0,2422.8149141415693,0.21181306188240848,1.3316370028847555,0.908043271022278,0.28818995000000003,0.6492885788189308
0.021500000000000002,1.78844375,1.0,2446.6131576595194,0.21623416864100592,1.331168044445353,0.9113212159469425,0.2881676375,0.6502797395989817
0.022,1.7879,1.0,2468.9991581196455,0.22063047595478175,1.3307080471382124,0.9144125512239304,0.2881448,0.6512505980804524
0.0225,1.78734375,1.0,2490.036269524787,0.22500212255409135,1.3302562097793673,0.9173310553785092,0.28812143749999997,0.6522029206063984
0.023,1.786775,1.0,2509.790589523656,0.22934924716929,1.3298117311848519,0.9200892687594068,0.28809755,0.6531384629236321
0.0235,1.78619375,1.0,2528.323472139987,0.23367198686719162,1.3293738786340963,0.9226986337752107,0.28807313749999996,0.6540588267650881
0.024,1.7856,1.0,2545.700634879941,0.23797048051212238,1.3289418988755564,0.9251695926160878,0.2880482,0.6549656478448446
0.0245,1.78499375,1.0,2561.980417819845,0.24224486494897451,1.3285151267931743,0.9275117053604804,0.2880227375,0.6558603682017367
0.025,1.784375,1.0,2577.209387802515,0.2464952736582031,1.3280930234797115,0.9297337431685954,0.28799675,0.6567441579845074
0.025500000000000002,1.78374375,1.0,2591.4355263844086,0.2507218401202632,1.3276750500279297,0.9318437457581599,0.2879702375,0.6576181810879903
0.026000000000000002,1.7831000000000001,1.0,2604.7081098205267,0.25492469781561006,1.327260667530591,0.9338490923177788,0.2879432,0.6584835953043113
0.0265,1.78244375,1.0,2617.077595487749,0.25910398022469866,1.3268493370804566,0.9357565646801604,0.2879156375,0.6593415524555678
0.027,1.781775,1.0,2628.5890891748772,0.2632598190288007,1.3264405792868235,0.9375724120638824,0.28788755,0.6601930746010304
0.0275,1.7810937500000001,1.0,2639.287042676435,0.2673923469306036,1.326033929317545,0.9393023948581515,0.2878589375,0.6610391483857211
0.028,1.7804,1.0,2649.223541512391,0.271501697926668,1.3256288595149484,0.9409518181742298,0.2878298,0.6618808860044453
0.0285,1.77969375,1.0,2658.431803049261,0.27558799978447623,1.3252250233173604,0.9425256052555262,0.2878001375,0.6627190185211174
0.029,1.778975,1.0,2666.9456311148806,0.2796513802715106,1.3248220741631065,0.9440283081467591,0.28776995,0.6635542733940605
0.029500000000000002,1.7782437500000001,1.0,2674.799364474595,0.28369196715525347,1.3244196654905134,0.945464140461223,0.2877392375,0.6643873744994369
0.03,1.7775,1.0,2682.0278279707263,0.28770988820318705,1.3240174507379068,0.9468370068648034,0.287708,0.6652190421470285
0.0305,1.77674375,1.0,2688.6662863248416,0.2917052711827938,1.3236150833436127,0.9481505296414394,0.2876762375,0.6660499930883502
0.031,1.775975,1.0,2694.7494006973516,0.29567824328356646,1.3232122258931354,0.9494080736337677,0.28764395,0.6668809216620053
0.0315,1.7751937500000001,1.0,2700.304826954443,0.2996289285448444,1.322808608201521,0.950612774198224,0.2876111375,0.6677123803284343
0.032,1.7744,1.0,2705.3688653913773,0.3035574572820069,1.3224038837747971,0.9517675414844536,0.2875778,0.6685450756598441
0.0325,1.77359375,1.0,2709.964021153755,0.30746395149570366,1.3219978345751764,0.9528750989601729,0.2875439375,0.6693794468395962
0.033,1.772775,1.0,2714.113008915814,0.3113485331865845,1.3215902425648716,0.9539379857146144,0.28750955,0.6702159307623312
0.0335,1.7719437500000002,1.0,2717.838732522076,0.31521132435529936,1.3211808897060953,0.9549585711513114,0.2874746375,0.671054962014034
0.034,1.7711000000000001,1.0,2721.1642656822487,0.3190524470024979,1.3207695579610599,0.9559390683438203,0.2874392,0.6718969728490634
0.0345,1.7702437500000001,1.0,2724.112833720894,0.32287202312883,1.3203560292919778,0.9568815461901586,0.2874032375,0.6727423931641501
0.035,1.7693750000000001,1.0,2726.707796380682,0.3266701747349454,1.3199400856610621,0.9577879404866384,0.28736675,0.673591650469363
0.035500000000000004,1.76849375,1.0,2728.9594992249067,0.33044701322121806,1.3195216284112568,0.9586600740201819,0.2873297375,0.6744449265861567
0.036000000000000004,1.7676,1.0,2730.9061423468647,0.3342026735845832,1.3191003065310738,0.959499634646419,0.2872922,0.6753029157263226
0.0365,1.76669375,1.0,2732.56361666383,0.3379372730051768,1.3186759726862025,0.9603082221338354,0.2872541375,0.6761658942362969
0.037,1.765775,1.0,2733.9455568173685,0.34165092677146747,1.318248500647985,0.9610873398932746,0.28721555,0.6770340938625943
0.0375,1.76484375,1.0,2735.0656547437584,0.34534375017192415,1.3178177641877624,0.961838400292397,0.2871764375,0.677907744791747
0.038,1.7639,1.0,2735.937652834163,0.34901585849501543,1.3173836370768768,0.9625627311720265,0.28713679999999997,0.6787870756245324
0.0385,1.76294375,1.0,2736.575337448704,0.3526673670292102,1.3169459930866694,0.9632615818274404,0.28709663750000003,0.6796723133491867
0.039,1.761975,1.0,2736.99253278285,0.3562983910629771,1.316504705988482,0.9639361285038731,0.28705595,0.6805636833135987
0.0395,1.7609937500000001,1.0,2737.2030950883336,0.35990904588478506,1.316059649553656,0.964587479450498,0.2870147375,0.6814614091964928
0.04,1.76,1.0,2737.2209072462533,0.3634994467831027,1.3156106975535333,0.9652166795727066,0.286973,0.6823657129775897
0.0405,1.7589937500000001,1.0,2737.0598736941092,0.3670697090463988,1.3151577237594554,0.9658247147185303,0.2869307375,0.6832768149067564
0.041,1.757975,1.0,2736.727007050233,0.37061994057861164,1.3147006646568218,0.9664125197493185,0.28688795,0.6841948076038094
0.0415,1.75694375,1.0,2736.237805331025,0.3741502605431934,1.314239379832473,0.9669809732470726,0.2868446375,0.6851199367426748
0.042,1.7559,1.0,2735.6057479496976,0.3776607841694926,1.3137737472809876,0.9675309066111378,0.28680079999999997,0.6860524091748945
0.0425,1.75484375,1.0,2734.838313408447,0.3811516196397128,1.3133036995416305,0.9680631096031715,0.2867564375,0.6869923209615042
0.043000000000000003,1.753775,1.0,2733.942986480715,0.3846228751360573,1.3128291691536667,0.9685783297252348,0.28671155,0.6879397669854166
0.043500000000000004,1.75269375,1.0,2732.9272564225507,0.3880746588407297,1.3123500886563613,0.9690772749016215,0.28666613750000003,0.6888948409322808
0.044,1.7516,1.0,2731.798615283629,0.39150707893593334,1.311866390588979,0.9695606159646782,0.2866202,0.6898576352710537
0.0445,1.75049375,1.0,2730.5645563204134,0.39492024360387173,1.311378007490785,0.9700289889607365,0.2865737375,0.690828241234275
0.045,1.7493750000000001,1.0,2729.232572509308,0.39831426102674833,1.3108848719010442,0.9704829972908242,0.28652675,0.6918067487980591
0.0455,1.74824375,1.0,2727.810155160932,0.40168923938676654,1.3103869163590218,0.97092321369949,0.2864792375,0.6927932466617908
0.046,1.7471,1.0,2726.3047926358286,0.4050452868661298,1.3098840734039825,0.9713501821238831,0.2864312,0.6937878222275358
0.0465,1.7459437500000001,1.0,2724.7207073022146,0.40838250534060333,1.309376305250231,0.9717644207401512,0.28638263750000004,0.6947905030284309
0.047,1.744775,1.0,2723.0613080633966,0.41170099724950615,1.3088635815034546,0.9721664228026247,0.28633355,0.6958013010869224
0.0475,1.74359375,1.0,2721.3413142903405,0.4150008860350771,1.3083457687999722,0.9725566528577843,0.28628393750000003,0.696820430048323
0.048,1.7424,1.0,2719.5642793861516,0.41828227231939813,1.3078228353091357,0.972935557205692,0.2862338,0.6978479019841988
0.0485,1.74119375,1.0,2717.733754092382,0.42154525672455084,1.3072947492002962,0.973303560795598,0.2861831375,0.6988837280418593
0.049,1.739975,1.0,2715.853286129176,0.42478993987261704,1.3067614786428052,0.9736610684401023,0.28613195,0.6999279184339278
0.0495,1.73874375,1.0,2713.9264198594556,0.4280164223856786,1.3062229918060146,0.9740084659495714,0.2860802375,0.7009804824278492
0.05,1.7375,1.0,2711.956695974948,0.43122480488581716,1.3056792568592757,0.9743461211927211,0.286028,0.7020414283353348
0.0505,1.73624375,1.0,2709.9476512046094,0.4344151879951145,1.3051302419719397,0.9746743850887954,0.2859752375,0.7031107635017395
0.051000000000000004,1.734975,1.0,2707.902818045772,0.43758767233565254,1.3045759153133585,0.9749935925363218,0.28592195,0.704188494295376
0.051500000000000004,1.73369375,1.0,2705.825724517504,0.4407423585295129,1.3040162450528836,0.9753040632830245,0.2858681375,0.7052746260967635
0.052000000000000005,1.7324,1.0,2703.719893936582,0.4438793471987773,1.303451199359866,0.9756061027411079,0.2858138,0.7063691632878151
0.0525,1.73109375,1.0,2701.588844716072,0.44699873896552766,1.302880746403658,0.9759000027517877,0.28575893750000003,0.7074721092409535
0.053,1.729775,1.0,2699.43609018584,0.4501006344518457,1.3023048543536107,0.9761860423026393,0.28570355000000003,0.7085834663081705
0.0535,1.72844375,1.0,2697.2610315583233,0.4531851250201405,1.3017235289314613,0.9764644895773137,0.2856476375,0.7097031635495716
0.054,1.7271,1.0,2695.064155725915,0.4562523064236632,1.3011367659395887,0.9767356010099939,0.2855912,0.7108311485951702
0.0545,1.7257437500000001,1.0,2692.856743791514,0.45930229575687254,1.3005444623954923,0.9769996181740912,0.2855342375,0.7119675577914686
0.055,1.724375,1.0,2690.6399308456344,0.46233518563808373,1.2999466080360405,0.9772567755023727,0.28547675,0.7131123479836541
0.0555,1.72299375,1.0,2688.4148501957584,0.46535106868561216,1.2993431925981016,0.977507297559167,0.2854187375,0.7142654752716067
0.056,1.7216,1.0,2686.1826333458757,0.4683500375177732,1.298734205818544,0.9777513995349278,0.2853602,0.7154268950062621
0.0565,1.72019375,1.0,2683.944409978611,0.4713321847528821,1.2981196374342359,0.977989287712093,0.28530113749999997,0.7165965617859686
0.057,1.718775,1.0,2681.701307939664,0.47429760300925417,1.2974994771820456,0.9782211599041235,0.28524155,0.7177744294528365
0.0575,1.71734375,1.0,2679.4544532241534,0.4772463849052048,1.2968737147988416,0.9784472058694694,0.2851814375,0.7189604510890818
0.058,1.7159,1.0,2677.2049699661166,0.4801786230590493,1.296242340021492,0.9786676077020863,0.2851208,0.7201545790133634
0.0585,1.71444375,1.0,2674.9539804296874,0.4830944100891029,1.2956053425868652,0.9788825402000049,0.2850596375,0.7213567647771112
0.059000000000000004,1.7129750000000001,1.0,2672.7026050027443,0.48599383861368106,1.2949627122318295,0.9790921712133501,0.28499795,0.7225669591608512
0.059500000000000004,1.71149375,1.0,2670.451962193087,0.488877001251099,1.2943144386932532,0.9792966619731093,0.2849357375,0.7237851121705207
0.06,1.71,1.0,2668.2031686266246,0.491743990619672,1.293660511708005,0.9794961674018549,0.284873,0.7250111730337778
0.0605,1.7084937500000001,1.0,2665.9573390484807,0.4945948993377155,1.2930009210129523,0.9796908364075436,0.2848097375,0.7262450901963065
0.061,1.7069750000000001,1.0,2663.7156842388504,0.49742981848446266,1.292335655444046,0.9798808119920709,0.28474595,0.7274868129977681
0.0615,1.7054437500000001,1.0,2661.482319468209,0.5002488152583002,1.2916646770825346,0.9800662284254342,0.2846816375,0.7287363397396072
0.062,1.7039,1.0,2659.2567053484645,0.5030520139643361,1.2909879908104385,0.9802472215296578,0.2846168,0.7299935880232914
0.0625,1.70234375,1.0,2657.0391345803687,0.5058394993187973,1.2903055938523915,0.9804239185778887,0.2845514375,0.731258489088043
0.063,1.7007750000000001,1.0,2654.8298993896933,0.5086113560379109,1.2896174834330283,0.9805964420989504,0.28448555,0.732530973501019
0.0635,1.69919375,1.0,2652.629291531542,0.5113676688379039,1.2889236567769833,0.9807649100876791,0.28441913750000003,0.7338109711563009
0.064,1.6976,1.0,2650.4376022941537,0.5141085224350032,1.2882241111088906,0.9809294362044307,0.2843522,0.7350984112738836
0.0645,1.69599375,1.0,2648.255122503974,0.5168340015454359,1.2875188436533844,0.9810901299643872,0.2842847375,0.7363932223986629
0.065,1.694375,1.0,2646.0821425297036,0.519544190885429,1.2868078516350996,0.981247096917259,0.28421675,0.737695332399422
0.0655,1.69274375,1.0,2643.9189522874904,0.5222391751712097,1.2860911322786701,0.9814004388179302,0.2841482375,0.7390046684678204
0.066,1.6911,1.0,2641.765841245636,0.5249190391190047,1.2853686828087305,0.9815502537885702,0.2840792,0.7403211571173793
0.0665,1.6894437500000001,1.0,2639.6230984301947,0.5275838674450414,1.2846405004499148,0.981696636472691,0.2840096375,0.7416447241824682
0.067,1.687775,1.0,2637.4910124295093,0.5302337448655464,1.2839065824268578,0.9818396781816081,0.28393955,0.7429752948172887
0.0675,1.68609375,1.0,2635.3698714004377,0.532868756096747,1.2831669259641938,0.9819794670337263,0.2838689375,0.7443127934948622
0.068,1.6844000000000001,1.0,2633.2599630737172,0.5354889858548701,1.2824215282865568,0.9821160880870541,0.2837978,0.7456571440060129
0.0685,1.68269375,1.0,2631.161574759661,0.5380945188561429,1.2816703866185812,0.9822496234653155,0.2837261375,0.7470082694583513
0.069,1.680975,1.0,2629.0749933543448,0.5406854398167922,1.2809134981849017,0.982380152478014,0.28365395,0.748366092275259
0.0695,1.67924375,1.0,2626.998183753071,0.5432617700297311,1.2801508817203013,0.9825077487423092,0.28358123749999997,0.7497304957631943
0.07,1.6775,1.0,2624.9339850234765,0.5458236602243689,1.2793825108114503,0.982632489412122,0.283508,0.7511014434078122
0.07050000000000001,1.67574375,1.0,2622.8829428710173,0.5483712049737821,1.2786083802693493,0.9827544465079264,0.2834342375,0.7524788598331941
0.07100000000000001,1.673975,1.0,2620.84488116176,0.5509044797800445,1.2778284915935405,0.982873688783117,0.28335995,0.7538626570754401
0.07150000000000001,1.67219375,1.0,2618.819624098946,0.5534235601452303,1.2770428462835657,0.9829902827188084,0.2832851375,0.7552527465660096
0.07200000000000001,1.6704,1.0,2616.8069962190393,0.5559285215714131,1.2762514458389667,0.9831042926125586,0.2832098,0.756649039132272
0.0725,1.66859375,1.0,2614.806822388046,0.558419439560667,1.2754542917592857,0.9832157806630545,0.2831339375,0.7580514449980559
0.073,1.6667750000000001,1.0,2612.8189277980723,0.5608963896150658,1.2746513855440644,0.9833248070509646,0.28305755,0.7594598737842018
0.0735,1.66494375,1.0,2610.8431379635213,0.5633594472366837,1.273842728692845,0.9834314300161598,0.2829806375,0.7608742345091098
0.074,1.6631,1.0,2608.8792787175917,0.5658086879275945,1.2730283227051693,0.9835357059314835,0.2829032,0.7622944355892919
0.0745,1.6612437500000001,1.0,2606.9271762090207,0.5682441871898721,1.272208169080579,0.9836376893732516,0.2828252375,0.7637203848399199
0.075,1.659375,1.0,2604.986656898429,0.5706660205255905,1.2713822693186163,0.9837374331886392,0.28274675,0.7651519894753763
0.0755,1.65749375,1.0,2603.057547555,0.5730742634368234,1.2705506249188232,0.9838349885601182,0.2826677375,0.766589156109803
