Time [s],Phi [rad],STIM [ ],Fsee [N],Gamma [ ],Lcerel [ ],q [ ],Lmtc [m],fisomrel [ ]
0.0,1.8,1.0,18.121125080423937,0.000398923194257277,1.3793225335730257,0.005041194073657893,0.288653,0.541181171950704
0.0005,1.79999375,1.0,18.554272358633433,0.0060058948594586626,1.3792716759560284,0.014055437889838016,0.2886527375,0.5413041958466371
0.001,1.799975,1.0,22.18452405996911,0.011581415846739279,1.3788808526809146,0.03766400379037283,0.28865195,0.5422490416829817
0.0015,1.79994375,1.0,32.26717450337986,0.017125662570548424,1.377945108747307,0.07339643176705851,0.2886506375,0.5445073175190891
0.002,1.7999,1.0,56.03271128930541,0.022638810453481026,1.3762109442857806,0.11801556192568192,0.2886488,0.548677695789545
0.0025,1.79984375,1.0,101.12896234154873,0.028121033935688742,1.3737438882387785,0.16815463200384678,0.28864643749999996,0.5545775063908147
0.003,1.7997750000000001,1.0,166.10646884829504,0.033572506479761545,1.3710231546904197,0.22096852300223097,0.28864354999999997,0.5610389626389315
0.0035,1.79969375,1.0,243.4621604823316,0.03899340057282754,1.3684078000131685,0.2742776062793895,0.2886401375,0.5672056533464835
0.004,1.7996,1.0,327.59271102972076,0.04438388773636734,1.365994605354266,0.32646177877807137,0.2886362,0.5728569797562981
0.0045000000000000005,1.7994937500000001,1.0,415.5966238988906,0.049744138531792034,1.3637748213326473,0.3763988512393634,0.2886317375,0.5780225745038283
0.005,1.799375,1.0,505.8590605524206,0.055074322551281335,1.3617218139141853,0.42339391042231067,0.28862675,0.58277209610533
0.0055,1.79924375,1.0,597.2856288589422,0.06037460845829626,1.3598122812378366,0.4670860497109779,0.2886212375,0.5871655684643622
0.006,1.7991000000000001,1.0,689.0118582457583,0.06564516395139608,1.3580286550985967,0.5073559373541552,0.2886152,0.5912483486233739
0.006500000000000001,1.79894375,1.0,780.3293832234053,0.07088615578311597,1.3563574082251424,0.5442472316992809,0.2886086375,0.5950554770505715
0.007,1.798775,1.0,870.6518755538992,0.07609774982962342,1.3547877513219062,0.5779061247824593,0.28860155,0.5986149601783968
0.0075,1.79859375,1.0,959.4938509815258,0.08128011086261165,1.3533107950467977,0.6085374857977365,0.2885939375,0.601949879156249
0.008,1.7984,1.0,1046.4798847696752,0.08643340310607345,1.3519186528037421,0.6363742941442527,0.2885858,0.6050805542372424
0.0085,1.79819375,1.0,1131.290967618588,0.09155778935171173,1.3506047448786402,0.6616579409334991,0.2885771375,0.6080239568513508
0.009000000000000001,1.797975,1.0,1213.6864553881821,0.09665343172775777,1.3493630669420176,0.68462524237335,0.28856795,0.6107954319415414
0.0095,1.79774375,1.0,1293.5071590892474,0.10172049187485013,1.3481879037628883,0.7055008773659717,0.2885582375,0.6134093867130281
0.01,1.7975,1.0,1370.6122240678344,0.1067591296547984,1.3470744697113601,0.7244937862986096,0.288548,0.6158779096765885
0.0105,1.79724375,1.0,1444.916124362525,0.11176950440070511,1.3460182156353062,0.7417950956591026,0.2885372375,0.6182123547466797
0.011,1.796975,1.0,1516.3876844267916,0.1167517752928034,1.3450147284948848,0.7575778301439579,0.28852595000000003,0.6204235877602071
0.0115,1.79669375,1.0,1585.0017088884595,0.12170609970245497,1.344060220571016,0.7719977571655302,0.2885141375,0.6225209331014792
0.012,1.7964,1.0,1650.7538674466307,0.12663263393242769,1.3431512282312006,0.7851943158139555,0.28850180000000003,0.6245128653170233
0.0125,1.79609375,1.0,1713.6724746017073,0.13153153382751556,1.342284395953719,0.7972918503590026,0.2884889375,0.6264075009138959
0.013000000000000001,1.7957750000000001,1.0,1773.8157364343813,0.1364029553643397,1.3414564553259078,0.8084010236605921,0.28847555,0.6282126566207471
0.0135,1.79544375,1.0,1831.2305693916514,0.1412470524365044,1.3406646370693316,0.8186203764120092,0.2884616375,0.6299349650842494
0.014,1.7951000000000001,1.0,1885.9644084604367,0.14606397753409314,1.3399064713904787,0.8280375558771975,0.2884472,0.6315803275091636
0.0145,1.79474375,1.0,1938.0886106653256,0.15085388314718923,1.339179488495838,0.8367304312957144,0.2884322375,0.6331545745653755
0.015,1.794375,1.0,1987.6782176561542,0.1556169207753192,1.3384814119510862,0.8447682877764515,0.28841675,0.6346630540931094
0.0155,1.79399375,1.0,2034.8354478170077,0.16035324261575318,1.3378098795791944,0.8522127383021814,0.2884007375,0.6361112412585784
0.016,1.7936,1.0,2079.629700839254,0.1650629976178492,1.3371630553001426,0.8591188200122991,0.2883842,0.6375034251934726
0.0165,1.7931937500000001,1.0,2122.133667799601,0.16974633408603487,1.3365392136279335,0.8655356399148615,0.2883671375,0.6388436150851153
0.017,1.792775,1.0,2162.4324554969253,0.17440340032473783,1.33593662907657,0.871507044101573,0.28834955,0.6401357820302012
0.0175,1.7923437500000001,1.0,2200.612053693795,0.1790343436385971,1.3353536821549903,0.8770722681779053,0.2883314375,0.6413836347738832
0.018000000000000002,1.7919,1.0,2236.7684283327485,0.18363931211764847,1.334788753757185,0.882266450809848,0.2883128,0.6425908493549457
0.0185,1.79144375,1.0,2270.9773260547545,0.18821845084905586,1.3342405172904548,0.8871211843879824,0.2882936375,0.6437604483463304
0.019,1.790975,1.0,2303.311208496184,0.1927719037664897,1.3337077526792005,0.8916648762257418,0.28827395,0.6448952034496096
0.0195,1.79049375,1.0,2333.84909501881,0.19729981480362033,1.3331892398478233,0.8959230874334406,0.2882537375,0.6459978649541762
0.02,1.79,1.0,2362.6733396171926,0.20180232744038237,1.3326837847900574,0.8999188616285624,0.288233,0.6470711075821516
0.0205,1.78949375,1.0,2389.8608472512847,0.2062795842358822,1.3321902990820067,0.9036730249133098,0.2882117375,0.6481173635070374
0.021,1.788975,1.0,2415.4948740715786,0.2107317291106386,1.331707678422661,0.9072044056167368,0.28818995000000003,0.6491390818732417
0.021500000000000002,1.78844375,1.0,2439.63541221677,0.21515890120544445,1.3312350838008176,0.9105301086855174,0.2881676375,0.6501381353937034
0.022,1.7879,1.0,2462.345878500272,0.21956123966109256,1.3307716762052744,0.9136656483343223,0.2881448,0.6511163846312281
0.0225,1.78734375,1.0,2483.692830696147,0.22393888361837588,1.3303166166248288,0.9166251179758677,0.28812143749999997,0.6520756785125188
0.023,1.786775,1.0,2503.7456994318773,0.22829197221808722,1.3298690660482784,0.9194213400198141,0.28809755,0.6530178547973104
0.0235,1.78619375,1.0,2522.564757693679,0.23262064176935213,1.3294282968264397,0.9220660174039376,0.28807313749999996,0.6539445065370891
0.024,1.7856,1.0,2540.218960797476,0.23692503336211018,1.3289935204093837,0.9245698206903413,0.2880482,0.6548573454357158
0.0245,1.78499375,1.0,2556.759684413423,0.24120528227300325,1.3285641331490519,0.9269425306006926,0.2880227375,0.6557576862500387
0.025,1.784375,1.0,2572.235079005878,0.24546152228006735,1.3281395772628428,0.9291931042293337,0.28799675,0.6566467405413354
0.025500000000000002,1.78374375,1.0,2586.694769564871,0.24969388716133858,1.3277192949681553,0.9313297490749205,0.2879702375,0.6575257133468597
0.026000000000000002,1.7831000000000001,1.0,2600.1897294933306,0.25390251069485303,1.3273027284823877,0.9333599959513724,0.2879432,0.6583958033417869
0.0265,1.78244375,1.0,2612.7721613915787,0.25808752665864665,1.3268893200229388,0.9352907639172355,0.2879156375,0.6592582029813161
0.027,1.781775,1.0,2624.485731947926,0.262249066407234,1.3264786012855352,0.9371284309872493,0.28788755,0.6601139123170936
0.0275,1.7810937500000001,1.0,2635.3769142544793,0.2663872635734063,1.3260700866205608,0.9388788701481157,0.2878589375,0.6609639624083545
0.028,1.7804,1.0,2645.4999834026016,0.27050225242515474,1.32566322629907,0.9405474883140676,0.2878298,0.6618095122336758
0.0285,1.77969375,1.0,2654.887705662161,0.27459416075897203,1.3252576764671888,0.9421393049865066,0.2878001375,0.6626512879437676
0.029,1.778975,1.0,2663.573444057055,0.2786631163713511,1.3248530932710432,0.9436589598998121,0.28776995,0.663490012092586
0.029500000000000002,1.7782437500000001,1.0,2671.5911066473072,0.28270924705878475,1.3244491328567587,0.945110746653568,0.2877392375,0.6643264036623002
0.03,1.7775,1.0,2678.9750974333447,0.28673268061776563,1.3240454513704614,0.9464986429648465,0.287708,0.6651611780807205
0.0305,1.77674375,1.0,2685.7602698814017,0.29073354484478675,1.323641704958277,0.9478263379169827,0.2876762375,0.6659950472311851
0.031,1.775975,1.0,2691.981883070389,0.2947119675363408,1.3232375497663316,0.9490972565356931,0.28764395,0.6668287194549054
0.0315,1.7751937500000001,1.0,2697.667914134989,0.2986680721246171,1.3228327118517638,0.9503145893279353,0.2876111375,0.6676627556072579
0.032,1.7744,1.0,2702.8544167264636,0.30260198914596675,1.3224268462052726,0.9514812979230244,0.2875778,0.6684978598409486
0.0325,1.77359375,1.0,2707.5671586496105,0.3065138426303761,1.3220197043745128,0.9526001498676662,0.2875439375,0.6693345344214012
0.033,1.772775,1.0,2711.828551420676,0.310403754312224,1.3216110705812971,0.9536737279399194,0.28750955,0.6701732119883672
0.0335,1.7719437500000002,1.0,2715.6611997592454,0.3142718459258892,1.3212007290474383,0.954704441772067,0.2874746375,0.6710143228934761
0.034,1.7711000000000001,1.0,2719.0878822343407,0.3181182392057507,1.3207884639947496,0.9556945415193874,0.2874392,0.6718582951782184
0.0345,1.7702437500000001,1.0,2722.131532944012,0.3219430558861873,1.3203740596450435,0.9566461302960416,0.2874032375,0.6727055545489609
0.035,1.7693750000000001,1.0,2724.815224226149,0.3257464177015779,1.3199573002201328,0.9575611755022378,0.28736675,0.6735565243489918
0.035500000000000004,1.76849375,1.0,2727.160966578482,0.32952844510590384,1.3195379807069572,0.9584415199799087,0.2873297375,0.6744116035896692
0.036000000000000004,1.7676,1.0,2729.1831439017524,0.33328925035137674,1.3191159663737446,0.9592888959186464,0.2872922,0.6752710459354309
0.0365,1.76669375,1.0,2730.915110778288,0.33702896899306395,1.3186909508389297,0.9601049156636443,0.2872541375,0.6761354523385805
0.037,1.765775,1.0,2732.370060265827,0.34074771585532115,1.3182628117304913,0.9608911062011145,0.28721555,0.6770050467774293
0.0375,1.76484375,1.0,2733.5612434633526,0.34444560576250394,1.3178314266764093,0.9616489017810409,0.2871764375,0.6778800517118567
0.038,1.7639,1.0,2734.501962835406,0.34812275353896804,1.3173966733046625,0.9623796505730461,0.28713679999999997,0.678760688058461
0.0385,1.76294375,1.0,2735.2055658688028,0.351779274009069,1.3169584292432301,0.9630846207743284,0.28709663750000003,0.6796471751647458
0.039,1.761975,1.0,2735.6854390607136,0.3554152819971625,1.316516572120092,0.9637650062202382,0.28705595,0.6805397307823553
0.0395,1.7609937500000001,1.0,2735.9550022399426,0.3590308923276042,1.316070979563227,0.9644219315429328,0.2870147375,0.6814385710393562
0.04,1.76,1.0,2736.027703218841,0.36262621982474974,1.3156215292006144,0.9650564569189561,0.286973,0.6823439104115616
0.0405,1.7589937500000001,1.0,2735.917012778324,0.36620137931295477,1.3151680986602337,0.9656695824425291,0.2869307375,0.6832559616928994
0.041,1.757975,1.0,2735.636419984212,0.36975648561657487,1.314710565570064,0.9662622521576891,0.28688795,0.6841749359648294
0.0415,1.75694375,1.0,2735.1949834274355,0.3732916464994395,1.314248847913983,0.9668353600086381,0.2868446375,0.6851009616860151
0.042,1.7559,1.0,2734.6046855171057,0.3768069792814541,1.3137828372316211,0.9673897503281941,0.28680079999999997,0.6860342189377358
0.0425,1.75484375,1.0,2733.877650759206,0.38030260036832403,1.3133124238417972,0.9679262213726344,0.2867564375,0.6869748886045217
0.043000000000000003,1.753775,1.0,2733.0212044865243,0.38377861734831165,1.3128375416985296,0.9684455306877658,0.28671155,0.6879230628316988
0.043500000000000004,1.75269375,1.0,2732.0426770351023,0.3872351378096792,1.312358124755836,0.9689483956112984,0.28666613750000003,0.688878832586153
0.044,1.7516,1.0,2730.9494020691786,0.3906722693406891,1.3118741069677349,0.9694354958043065,0.2866202,0.6898422876373657
0.0445,1.75049375,1.0,2729.7487150041575,0.39409011952960366,1.3113854222882442,0.9699074755990827,0.2865737375,0.6908135165381756
0.045,1.7493750000000001,1.0,2728.447951525535,0.3974887959646852,1.3108920046713821,0.9703649461783843,0.28652675,0.6917926066052593
0.0455,1.74824375,1.0,2727.054446204639,0.4008684062341962,1.3103937880711665,0.9708084875997068,0.2864792375,0.6927796438993361
0.046,1.7471,1.0,2725.575531211379,0.40422905792639874,1.3098907064416156,0.971238650677011,0.2864312,0.6937747132050905
0.0465,1.7459437500000001,1.0,2724.0185351233786,0.4075708586295553,1.3093826937367476,0.9716559587312087,0.28638263750000004,0.6947778980108221
0.047,1.744775,1.0,2722.390781831856,0.4108939159319282,1.3088696839105807,0.9720609092197323,0.28633355,0.6957892804878125
0.0475,1.74359375,1.0,2720.696874605224,0.41419831101612026,1.3083516356347926,0.9724539736188815,0.28628393750000003,0.6968088928614415
0.048,1.7424,1.0,2718.944971923274,0.41748418430462186,1.3078284751747296,0.972835605855301,0.2862338,0.697836829947707
0.0485,1.74119375,1.0,2717.1387390849377,0.4207516375858795,1.3073001696537119,0.9732062359898833,0.2861831375,0.6988731050089283
0.049,1.739975,1.0,2715.281622058263,0.4240007703531293,1.3067666881660334,0.9735662735118277,0.28613195,0.6999177265039658
0.0495,1.73874375,1.0,2713.3770637041007,0.4272316820996071,1.306227999805988,0.9739161086502868,0.2860802375,0.7009707019605351
0.05,1.7375,1.0,2711.428503464926,0.43044447231854893,1.3056840736678696,0.9742561134514162,0.286028,0.7020320379649759
0.0505,1.73624375,1.0,2709.439377075201,0.43363924050319075,1.305134878845972,0.9745866427858335,0.2859752375,0.7031017401519579
0.051000000000000004,1.734975,1.0,2707.4131162927106,0.43681608614676853,1.3045803844345896,0.974908035291554,0.28592195,0.704179813194125
0.051500000000000004,1.73369375,1.0,2705.3531486513834,0.4399751087425183,1.3040205595280154,0.9752206142570821,0.2858681375,0.7052662607916851
0.052000000000000005,1.7324,1.0,2703.262897234716,0.4431164077836759,1.3034553732205443,0.9755246884489405,0.2858138,0.7063610856619267
0.0525,1.73109375,1.0,2701.1457804712436,0.4462400827634774,1.3028847946064694,0.9758205528875962,0.28575893750000003,0.7074642895286889
0.053,1.729775,1.0,2699.0052119502566,0.44934623317515865,1.302308792780085,0.9761084895754134,0.28570355000000003,0.7085758731117592
0.0535,1.72844375,1.0,2696.844600259295,0.4524349585119558,1.3017273368356848,0.9763887681799919,0.2856476375,0.7096958361162158
0.054,1.7271,1.0,2694.6673488427473,0.4555063582671048,1.3011403958675627,0.9766616466759783,0.2855912,0.7108241772217081
0.0545,1.7257437500000001,1.0,2692.4768558813703,0.45856053193384144,1.300547938970013,0.9769273719482101,0.2855342375,0.7119608940716753
0.055,1.724375,1.0,2690.2713533631622,0.4615975495917924,1.2999499824880767,0.9771861803539846,0.28547675,0.7131058928743702
0.0555,1.72299375,1.0,2688.052688427287,0.46461751690178255,1.2993465096820624,0.9774382997454442,0.2854187375,0.7142591426695373
0.056,1.7216,1.0,2685.8286230145004,0.46762056775532174,1.2987374495870712,0.9776839478578795,0.2853602,0.7154207149687887
0.0565,1.72019375,1.0,2683.6000296420384,0.47060679184984244,1.2981227942766131,0.9779233329073194,0.28530113749999997,0.7165905597343885
0.057,1.718775,1.0,2681.367779409724,0.47357627888277715,1.297502535824199,0.9781566545527557,0.28524155,0.7177686262059031
0.0575,1.71734375,1.0,2679.132741991915,0.47652911855155844,1.2968766663033384,0.9783841043147933,0.2851814375,0.7189548628973732
0.058,1.7159,1.0,2676.895785630818,0.47946540055361875,1.2962451777875421,0.9786058659705639,0.2851208,0.7201492175944757
0.0585,1.71444375,1.0,2674.657777131355,0.48238521458639066,1.2956080623503201,0.9788221159264325,0.2850596375,0.7213516373516877
0.059000000000000004,1.7129750000000001,1.0,2672.419581857099,0.48528865034730667,1.2949653120651825,0.9790330235699053,0.28499795,0.7225620684894436
0.059500000000000004,1.71149375,1.0,2670.1820637276355,0.48817579753379925,1.29431691900564,0.9792387516020562,0.2849357375,0.7237804565912868
0.06,1.71,1.0,2667.9460852178026,0.49104674584330094,1.2936628752452026,0.979439456351695,0.284873,0.7250067465010221
0.0605,1.7084937500000001,1.0,2665.7125073577113,0.4939015849732443,1.2930031728573805,0.9796352880724111,0.2848097375,0.7262408823198596
0.061,1.7069750000000001,1.0,2663.4821897345405,0.4967404046210618,1.2923378039156839,0.9798263912235489,0.28474595,0.7274828074035561
0.0615,1.7054437500000001,1.0,2661.2559904952154,0.49956329448418596,1.2916667604936234,0.9800129047361071,0.2846816375,0.7287324643595514
0.062,1.7039,1.0,2659.034766351737,0.5023703442600493,1.290990034664709,0.9801949622644689,0.2846168,0.7299897950441054
0.0625,1.70234375,1.0,2656.819372586025,0.5051616436460843,1.2903076185024507,0.9803726924248277,0.2845514375,0.7312547405594246
0.063,1.7007750000000001,1.0,2654.6106630577474,0.5079372823397236,1.2896195040803593,0.9805462190210984,0.28448555,0.7325272412507868
0.0635,1.69919375,1.0,2652.4094902129827,0.5106973500383996,1.2889256834719447,0.9807156612590662,0.28441913750000003,0.7338072367036659
0.064,1.6976,1.0,2650.2167050937996,0.5134419364395447,1.2882261487507172,0.9808811339494605,0.2843522,0.7350946657408465
0.0645,1.69599375,1.0,2648.0331573501608,0.5161711312405917,1.2875208919901873,0.9810427477006081,0.2842847375,0.7363894664195378
0.065,1.694375,1.0,2645.8596411877056,0.5188850235768502,1.2868099057630014,0.9812006090863677,0.28421675,0.737691575115492
0.0655,1.69274375,1.0,2643.6926059687366,0.5215836549889371,1.286093222758781,0.9813548194964127,0.2841482375,0.7390008542458373
0.066,1.6911,1.0,2641.5383700975217,0.5242671697601059,1.2853707845337137,0.9815054793618385,0.2840792,0.740317332061903
0.0665,1.6894437500000001,1.0,2639.3968569362896,0.5269356481053519,1.2846425916615376,0.9816526839811175,0.2840096375,0.7416409279725866
0.067,1.687775,1.0,2637.267990027851,0.5295891702396703,1.2839086447159904,0.9817965252983288,0.28393955,0.7429715607638059
0.0675,1.68609375,1.0,2635.151693094567,0.5322278163780566,1.28316894427081,0.9819370920433118,0.2838689375,0.7443091485987081
0.068,1.6844000000000001,1.0,2633.047890036612,0.5348516667355061,1.282423490899734,0.9820744698650061,0.2837978,0.7456536090178821
0.0685,1.68269375,1.0,2630.95650493063,0.5374608015270141,1.2816722851765006,0.9822087414583566,0.2837261375,0.7470048589395668
0.069,1.680975,1.0,2628.877462028661,0.5400553009675759,1.2809153276748475,0.9823399866851352,0.28365395,0.7483628146598631
0.0695,1.67924375,1.0,2626.8106857564535,0.5426352452721869,1.2801526189685122,0.9824682826890122,0.28358123749999997,0.7497273918529452
0.07,1.6775,1.0,2624.7561007123095,0.5452007146558423,1.279384159631233,0.982593704005182,0.283508,0.7510985055712682
0.07050000000000001,1.67574375,1.0,2622.7136316656415,0.5477517893335374,1.2786099502367474,0.982716322664845,0.2834342375,0.7524760702457818
0.07100000000000001,1.673975,1.0,2620.6832035556677,0.5502885495202677,1.2778299913587934,0.982836208294811,0.28335995,0.7538599996861377
0.07150000000000001,1.67219375,1.0,2618.6647414900453,0.5528110754310284,1.2770442835711089,0.982953428212488,0.2832851375,0.7552502070809025
0.07200000000000001,1.6704,1.0,2616.6581707437126,0.5553194472808147,1.2762528274474314,0.9830680475164985,0.2832098,0.7566466049977669
0.0725,1.66859375,1.0,2614.663416757185,0.5578137452846221,1.2754556235614993,0.9831801291731478,0.2831339375,0.758049105383755
0.073,1.6667750000000001,1.0,2612.680405135856,0.560294049657446,1.27465267248705,0.9832897340989678,0.28305755,0.7594576195654378
0.0735,1.66494375,1.0,2610.709061648118,0.5627604406142815,1.2738439747978214,0.9833969212395302,0.2829806375,0.7608720582491395
0.074,1.6631,1.0,2608.7493122242627,0.5652129983701242,1.2730295310675512,0.9835017476447261,0.2829032,0.7622923315211514
0.0745,1.6612437500000001,1.0,2606.801082955288,0.5676518031399691,1.2722093418699776,0.9836042685406904,0.2828252375,0.763718348847939
0.075,1.659375,1.0,2604.861512465489,0.5700769013289624,1.2713834337164192,0.9837045366405998,0.28274675,0.7651499741845853
