Time [s],Phi [rad],STIM [ ],Fsee [N],Gamma [ ],Lcerel [ ],q [ ],Lmtc [m],fisomrel [ ]
0.0,1.8,1.0,18.315091307463184,0.0006011254673199717,1.3793009529789344,0.005093225482867561,0.288653,0.5412333771341589
0.0005,1.79999375,1.0,18.80782350725227,0.006206962937672816,1.3792438176411306,0.014662757695912684,0.2886527375,0.5413715777454748
0.001,1.799975,1.0,22.58826633035206,0.011781356092026993,1.3788403294624996,0.03875518729405153,0.28865195,0.5423469539947219
0.0015,1.79994375,1.0,33.01133839370739,0.01732448130900841,1.3778832511712789,0.07486540437000361,0.2886506375,0.5446564046053068
0.002,1.7999,1.0,57.448310022091356,0.022836513976043915,1.3761216981602116,0.11973936551946864,0.2886488,0.5488917990212969
0.0025,1.79984375,1.0,103.35574033813845,0.028317628497245596,1.37363930662889,0.17001975275169293,0.28864643749999996,0.554826749176921
0.003,1.7997750000000001,1.0,168.89749366509665,0.03376799830161788,1.370920744099946,0.22288612266544897,0.28864354999999997,0.5612812550903774
0.0035,1.79969375,1.0,246.55792754346297,0.039187795840648215,1.3683138783281077,0.27618024385530615,0.2886401375,0.567426297930191
0.004,1.7996,1.0,330.8541402632089,0.044577192600757036,1.3659092459638755,0.32830073219547223,0.2886362,0.5730561980808292
0.0045000000000000005,1.7994937500000001,1.0,418.95450284402324,0.04993635910658698,1.3636967589476006,0.37814216535345135,0.2886317375,0.5782036592187849
0.005,1.799375,1.0,509.26444900043964,0.05526546489476449,1.3616500327988112,0.4250234182111547,0.28862675,0.582937671481565
0.0055,1.79924375,1.0,600.7191838276719,0.06056467868770037,1.3597456592564185,0.46859357685833836,0.2886212375,0.5873184331829235
0.006,1.7991000000000001,1.0,692.4381927340369,0.0658341680284478,1.3579667445183776,0.5087407166481336,0.2886152,0.5913896996776613
0.006500000000000001,1.79894375,1.0,783.7278164730873,0.0710740996929077,1.3562996976954504,0.545512998500432,0.2886086375,0.5951866244328146
0.007,1.798775,1.0,874.0082723161319,0.07628463952419612,1.3547337852944668,0.5790593726523328,0.28860155,0.5987370585799081
0.0075,1.79859375,1.0,962.7862911181987,0.08146595220988762,1.3532603623626778,0.6095862972558647,0.2885939375,0.6020635088756046
0.008,1.7984,1.0,1049.7007415843332,0.08661820207765562,1.3518714073993021,0.6373272334745725,0.2885858,0.6051865837207728
0.0085,1.79819375,1.0,1134.430301824927,0.09174155177061434,1.3505604517057614,0.6625236442524062,0.2885771375,0.6081229901143256
0.009000000000000001,1.797975,1.0,1216.7359039076955,0.09683616334181602,1.3493215253734119,0.6854120262416465,0.28856795,0.6108879844094157
0.0095,1.79774375,1.0,1296.4598376339293,0.1019021984687102,1.3481489390482713,0.7062165404914504,0.2885582375,0.6134959063761578
0.01,1.7975,1.0,1373.4678549241657,0.10693981710859851,1.347037859173423,0.7251454767012933,0.288548,0.6159589422842077
0.0105,1.79724375,1.0,1447.6721001543506,0.1119491785063384,1.3459838016858368,0.7423893415202153,0.2885372375,0.6182882939126773
0.011,1.796975,1.0,1519.035976944382,0.11693044121755714,1.3449824466227398,0.7581205570848784,0.28852595000000003,0.6204946158233051
0.0115,1.79669375,1.0,1587.5544138794312,0.12188376354036837,1.344029783813682,0.7724941751093841,0.2885141375,0.6225877163555841
0.012,1.7964,1.0,1653.2125629953043,0.12680930137527616,1.3431225012924857,0.7856491410449866,0.28850180000000003,0.6245757305701154
0.0125,1.79609375,1.0,1716.0358925321711,0.1317072105973155,1.3422572931430514,0.7977093031215744,0.2884889375,0.6264666622780337
0.013000000000000001,1.7957750000000001,1.0,1776.065966153874,0.1365776460028379,1.3414310910590594,0.8087849339863402,0.28847555,0.6282678892162636
0.0135,1.79544375,1.0,1833.3854952840559,0.14142076323316805,1.34064073032189,0.8189739971047335,0.2884616375,0.6299869032071731
0.014,1.7951000000000001,1.0,1888.0346007863645,0.1462367143519624,1.339883839950092,0.8283638125661286,0.2884472,0.6316293856529981
0.0145,1.79474375,1.0,1940.0728675903708,0.15102565123015954,1.3391580897977844,0.8370319727287411,0.2884322375,0.6332008613670856
0.015,1.794375,1.0,1989.5809462333857,0.155787725738698,1.3384611497190857,0.8450474516908061,0.28841675,0.634706792509039
0.0155,1.79399375,1.0,2036.6389103141528,0.1605230884145549,1.3377908979427895,0.8524716821730477,0.2884007375,0.636152134142232
0.016,1.7936,1.0,2081.3509281542706,0.16523189066940028,1.337145135103635,0.8593593549797625,0.2883842,0.6375419575126011
0.0165,1.7931937500000001,1.0,2123.783333673653,0.16991428027078165,1.3365222111341661,0.8657594042795209,0.2883671375,0.6388801065477414
0.017,1.792775,1.0,2164.011650572902,0.17457040478832794,1.3359205050830252,0.8717155315489197,0.28834955,0.640170326099379
0.0175,1.7923437500000001,1.0,2202.1223325827787,0.17920041179166807,1.3353383959988538,0.8772668153751149,0.2883314375,0.6414163270692471
0.018000000000000002,1.7919,1.0,2238.1981288239267,0.18380444751096137,1.3347744004311215,0.8824482906195841,0.2883128,0.6426214949489257
0.0185,1.79144375,1.0,2272.3381329498147,0.18838265962402734,1.3342269587657851,0.8872913652223215,0.2882936375,0.6437893495987697
0.019,1.790975,1.0,2304.614230702791,0.19293519203259252,1.333694861237888,0.8918243433021352,0.28827395,0.6449226389777636
0.0195,1.79049375,1.0,2335.0971507256068,0.19746218781507852,1.3331769731712897,0.8960727120905551,0.2882537375,0.6460239303202095
0.02,1.79,1.0,2363.8633708829666,0.20196379004990694,1.3326721598898494,0.9000594435605386,0.288233,0.6470957717928012
0.0205,1.78949375,1.0,2390.994276755103,0.20644014175927589,1.332179290177599,0.9038052772987362,0.2882117375,0.6481406861514873
0.021,1.788975,1.0,2416.5586276452905,0.21089138363589954,1.3316974011579323,0.907329002521941,0.28818995000000003,0.649160822911587
0.021500000000000002,1.78844375,1.0,2440.64696297604,0.21531765982800824,1.3312253592940468,0.9106476019717545,0.2881676375,0.6501586778078112
0.022,1.7879,1.0,2463.315974098889,0.21971910854442175,1.3307623932851171,0.9137765522498991,0.2881448,0.6511359667994308
0.0225,1.78734375,1.0,2484.62533256264,0.22409586799395997,1.3303077318303187,0.9167299130059253,0.28812143749999997,0.6520943950673159
0.023,1.786775,1.0,2504.637444965846,0.22844807638544268,1.3298606036288259,0.9195204762731422,0.28809755,0.6530356574414116
0.0235,1.78619375,1.0,2523.4172209988933,0.23277587192768973,1.3294202373798139,0.9221598983013346,0.28807313749999996,0.653961438790265
0.024,1.7856,1.0,2541.023406349274,0.23707939071515205,1.3289859413715233,0.9246588294468712,0.2880482,0.6548732473848617
0.0245,1.78499375,1.0,2557.520722782763,0.24135877181780552,1.3285569862662185,0.9270269975279085,0.2880227375,0.6557726619121809
0.025,1.784375,1.0,2572.9623063411486,0.24561415075547172,1.3281327684475681,0.929273324801118,0.28799675,0.656660989384358
0.025500000000000002,1.78374375,1.0,2587.393804281115,0.2498456604590234,1.327712768410302,0.9314060001958178,0.2879702375,0.6575393540205859
0.026000000000000002,1.7831000000000001,1.0,2600.862155828256,0.25405343385933327,1.3272964666491502,0.9334325377170903,0.2879432,0.6584088741038957
0.0265,1.78244375,1.0,2613.4154815654633,0.25823760388727396,1.3268833436588428,0.93535984118003,0.2879156375,0.6592706621122925
0.027,1.781775,1.0,2625.102978805117,0.2623983034737183,1.3264728799341101,0.9371942619456817,0.28788755,0.660125824832679
0.0275,1.7810937500000001,1.0,2635.9667616659813,0.2665356634469475,1.326064630532282,0.9389416608549459,0.2878589375,0.6609753084051224
0.028,1.7804,1.0,2646.0502377540083,0.27064981618906236,1.3256581461740415,0.9406074429982689,0.2878298,0.66182006323497
0.0285,1.77969375,1.0,2655.4064082579553,0.27474089540000585,1.3252528960972128,0.9421965879162203,0.2878001375,0.6626612040190553
0.029,1.778975,1.0,2664.066646671435,0.2788090281632216,1.3248485553147653,0.9437137253239415,0.28776995,0.663499413615784
0.029500000000000002,1.7782437500000001,1.0,2672.062851756753,0.2828543415621533,1.324444798839668,0.9451631396862922,0.2877392375,0.6643353715111207
0.03,1.7775,1.0,2679.427401487897,0.2868769626802444,1.3240413016848898,0.9465488003798377,0.287708,0.6651697538340633
0.0305,1.77674375,1.0,2686.193109335295,0.2908770186009387,1.3236377388634,0.947874388861764,0.2876762375,0.6660032333653882
0.031,1.775975,1.0,2692.39318289239,0.2948546364076797,1.3232337853881675,0.94914332317524,0.28764395,0.6668364795396559
0.0315,1.7751937500000001,1.0,2698.061184843333,0.2988099431839111,1.3228291162721613,0.9503587800812391,0.2876111375,0.6676701584404827
0.032,1.7744,1.0,2703.224161216361,0.3027430614017978,1.3224234689576095,0.9515237212807972,0.2875778,0.6685048044175428
0.0325,1.77359375,1.0,2707.9168455118106,0.30665412137534653,1.3220165131081578,0.9526408990790596,0.2875439375,0.6693410882833661
0.033,1.772775,1.0,2712.162461592116,0.31054324566606223,1.3216080256847338,0.9537128893374062,0.28750955,0.6701794573187743
0.0335,1.7719437500000002,1.0,2715.9824862342934,0.3144105554156391,1.321197801329838,0.9547420969446125,0.2874746375,0.6710203202196363
0.034,1.7711000000000001,1.0,2719.3985648809503,0.3182561717657714,1.320785634685972,0.9557307676902924,0.2874392,0.6718640834793306
0.0345,1.7702437500000001,1.0,2722.43249431381,0.3220802158581533,1.3203713203956369,0.9566810006662295,0.2874032375,0.6727111513646562
0.035,1.7693750000000001,1.0,2725.106206261198,0.32588280883447884,1.3199546531013338,0.9575947595625814,0.28736675,0.6735619258890471
0.035500000000000004,1.76849375,1.0,2727.441751941456,0.3296640718364424,1.319535427445564,0.9584738829689942,0.2873297375,0.6744168067831018
0.036000000000000004,1.7676,1.0,2729.456133182282,0.3334241209545687,1.319113484922355,0.9593200974423234,0.2872922,0.6752760961119578
0.0365,1.76669375,1.0,2731.1686696950596,0.33716307555796315,1.3186886467348913,0.9601350208968406,0.2872541375,0.6761401353389148
0.037,1.765775,1.0,2732.608414482418,0.3408810660439114,1.3182606463661164,0.9609201655563913,0.28721555,0.6770094418833603
0.0375,1.76484375,1.0,2733.7878375994587,0.34457820654112903,1.3178293685945672,0.9616769631424276,0.2871764375,0.677884223401718
0.038,1.7639,1.0,2734.7194585775906,0.34825461117833195,1.3173946981987807,0.9624067594841825,0.28713679999999997,0.6787646860819672
0.0385,1.76294375,1.0,2735.4158405231797,0.351910394084236,1.3169565199572941,0.9631108206106824,0.28709663750000003,0.6796510346191371
0.039,1.761975,1.0,2735.889584510084,0.35554566938755705,1.3165147186486443,0.9637903383469355,0.28705595,0.6805434721899539
0.0395,1.7609937500000001,1.0,2736.1533242671994,0.35916055121701085,1.3160691790513683,0.9644464354595667,0.2870147375,0.6814422004266393
0.04,1.76,1.0,2736.2197211595276,0.36275515370131334,1.315619785944003,0.9650801703926086,0.286973,0.6823474193898651
0.0405,1.7589937500000001,1.0,2736.101459464122,0.3663295909691803,1.3151664241050858,0.9656925416300977,0.2869307375,0.6832593275408585
0.041,1.757975,1.0,2735.811241940315,0.3698839771493275,1.3147089783131531,0.9662844917185139,0.28688795,0.6841781217126637
0.0415,1.75694375,1.0,2735.3617856940305,0.37341842637047096,1.3142473333467424,0.96685691097886,0.2868446375,0.6851039970805529
0.042,1.7559,1.0,2734.763205134603,0.3769330481547869,1.3137813977145374,0.9674106421558896,0.28680079999999997,0.6860370996438498
0.0425,1.75484375,1.0,2734.0246112009104,0.38042795252589373,1.313311089114775,0.9679464831589505,0.2867564375,0.6869775556049538
0.043000000000000003,1.753775,1.0,2733.1608057602193,0.3839032612071321,1.3128362736095964,0.9684651867634357,0.28671155,0.6879255928382071
0.043500000000000004,1.75269375,1.0,2732.178301030533,0.3873590808690153,1.3123568925740547,0.9689674694416418,0.28666613750000003,0.6888812871858432
0.044,1.7516,1.0,2731.08361263028,0.39079551818205666,1.3118728873832028,0.969454010050921,0.2866202,0.6898447133777554
0.0445,1.75049375,1.0,2729.8832582136974,0.39421267981676955,1.3113841994120932,0.9699254521767945,0.2865737375,0.690815945014317
0.045,1.7493750000000001,1.0,2728.5837561813605,0.39761067244366727,1.310890770035779,0.9703824063078771,0.28652675,0.6917950545489808
0.0455,1.74824375,1.0,2727.1916244675463,0.4009896027332631,1.3103925406293127,0.9708254518562178,0.2864792375,0.6927821132706649
0.046,1.7471,1.0,2725.71337940369,0.4043495773560704,1.3098894525677474,0.9712551390354334,0.2864312,0.6937771912859116
0.0465,1.7459437500000001,1.0,2724.1555346579516,0.4076907029826025,1.3093814472261358,0.9716719906079162,0.28638263750000004,0.6947803575008347
0.047,1.744775,1.0,2722.524600250683,0.4110130862833727,1.3088684659795307,0.9720765035114086,0.28633355,0.6957916796028428
0.0475,1.74359375,1.0,2720.8270816472123,0.4143168339288943,1.308350450202985,0.9724691503743342,0.28628393750000003,0.6968112240421444
0.048,1.7424,1.0,2719.0664893264297,0.41760204359746966,1.3078273684979524,0.9728503817140647,0.2862338,0.6978390025625822
0.0485,1.74119375,1.0,2717.2458139764917,0.42086881417442185,1.3072991941816496,0.9732206269417144,0.2861831375,0.698875016758
0.049,1.739975,1.0,2715.3779206314475,0.4241172749949328,1.3067658105673972,0.9735802925832939,0.28613195,0.6999194434532137
0.0495,1.73874375,1.0,2713.4657389325052,0.42734752454602304,1.3062271913971164,0.9739297684234879,0.2860802375,0.7009722807686027
0.05,1.7375,1.0,2711.5121956274643,0.4305596613147131,1.3056833104127292,0.9742694260943678,0.286028,0.7020335259410556
0.0505,1.73624375,1.0,2709.520214339401,0.43375378378802365,1.3051341413561572,0.9745996200807093,0.2859752375,0.7031031753151806
0.051000000000000004,1.734975,1.0,2707.492715351693,0.43692999045297504,1.3045796579693223,0.9749206886609696,0.28592195,0.7041812243344727
0.051500000000000004,1.73369375,1.0,2705.4326154073447,0.44008837979658794,1.3040198339941462,0.9752329547885698,0.2858681375,0.7052676675324355
0.052000000000000005,1.7324,1.0,2703.3428275241945,0.4432290503058829,1.3034546431725507,0.9755367269177686,0.2858138,0.7063624985236605
0.0525,1.73109375,1.0,2701.2262608253677,0.4463521004678804,1.3028840592464572,0.9758322997780563,0.28575893750000003,0.7074657099948616
0.053,1.729775,1.0,2699.085820384567,0.44945762876960105,1.3023080559577878,0.9761199551007028,0.28570355000000003,0.7085772936958644
0.0535,1.72844375,1.0,2696.92440708733,0.45254573369806533,1.301726607048464,0.9763999623007964,0.2856476375,0.709697240430554
0.054,1.7271,1.0,2694.744917507057,0.4556165137402939,1.3011396862604077,0.9766725791178628,0.2855912,0.7108255400477783
0.0545,1.7257437500000001,1.0,2692.5502437964155,0.4586700673833072,1.3005472673355403,0.9769380522179006,0.2855342375,0.7119621814322044
0.055,1.724375,1.0,2690.34327359414,0.46170649311412576,1.2999493240157838,0.9771966177594708,0.28547675,0.7131071524951351
0.0555,1.72299375,1.0,2688.126889947207,0.4647258894197702,1.2993458300430598,0.977448501926263,0.2854187375,0.7142604401652792
0.056,1.7216,1.0,2685.896448946295,0.4677283323343426,1.298736828086895,0.9776939233773076,0.2853602,0.715421899057975
0.0565,1.72019375,1.0,2683.657563305836,0.470713935008087,1.2981222668668224,0.9779330896932901,0.28530113749999997,0.7165915624942192
0.057,1.718775,1.0,2681.4164009836572,0.4736828051597856,1.297502089925475,0.9781661990824081,0.28524155,0.7177694722256842
0.0575,1.71734375,1.0,2679.1737742960695,0.47663503255956285,1.2968762898470947,0.9783934428309539,0.2851814375,0.718955575658877
0.058,1.7159,1.0,2676.9304942106614,0.47957070697754334,1.296244859215923,0.9786150044932932,0.2851208,0.7201498194774807
0.0585,1.71444375,1.0,2674.687370343383,0.48248991818385156,1.2956077906162016,0.9788310602639294,0.2850596375,0.7213521496396937
0.059000000000000004,1.7129750000000001,1.0,2672.4452109562326,0.48539275594861214,1.2949650766321725,0.9790417793288118,0.28499795,0.7225625113755632
0.059500000000000004,1.71149375,1.0,2670.2048229572715,0.48827931004194963,1.294316709848077,0.9792473241972004,0.2849357375,0.7237808491843203
0.06,1.71,1.0,2667.9670119008124,0.4911496702339885,1.2936626828481572,0.9794478510153071,0.284873,0.7250071068317048
0.0605,1.7084937500000001,1.0,2665.7325819897424,0.4940039262948533,1.2930029882166547,0.9796435098628454,0.2848097375,0.7262412273472925
0.061,1.7069750000000001,1.0,2663.5023360780856,0.4968421679946686,1.292337618537811,0.9798344450335451,0.28474595,0.7274831530218153
0.0615,1.7054437500000001,1.0,2661.277075675603,0.49966448510355904,1.2916665663958684,0.9800207953006136,0.2846816375,0.7287328254044787
0.062,1.7039,1.0,2659.0576009534752,0.502470967391649,1.290989824375068,0.9802026941680619,0.2846168,0.7299901853002779
0.0625,1.70234375,1.0,2656.8447107506886,0.5052617046290632,1.2903073850596516,0.9803802701087447,0.2845514375,0.731255172767306
0.063,1.7007750000000001,1.0,2654.6392025820965,0.508036786585926,1.2896192410338614,0.9805536467899133,0.28448555,0.7325277271140629
0.0635,1.69919375,1.0,2652.441872647955,0.5107963030323621,1.2889253848819384,0.9807229432870254,0.28441913750000003,0.7338077868967594
0.064,1.6976,1.0,2650.2535158435803,0.513540343738496,1.2882258091881251,0.9808882742865007,0.2843522,0.7350952899166151
0.0645,1.69599375,1.0,2648.072075478593,0.5162689762809629,1.287520532840064,0.9810497500081402,0.2842847375,0.736390124985222
0.065,1.694375,1.0,2645.8993608042006,0.5189823028398174,1.2868095390659704,0.9812074773724117,0.28421675,0.7376922458570332
0.0655,1.69274375,1.0,2643.737728470425,0.52168042419826,1.2860928060110763,0.9813615590758061,0.2841482375,0.7390016146323618
0.066,1.6911,1.0,2641.5872505562525,0.5243634217451831,1.2853703328939405,0.9815120938178207,0.2840792,0.7403181540306172
0.0665,1.6894437500000001,1.0,2639.4479990628015,0.5270313768694793,1.2846421189331216,0.9816591767986287,0.2840096375,0.7416417861264752
0.067,1.687775,1.0,2637.3200459142245,0.5296843709600411,1.2839081633471785,0.9818028998663845,0.28393955,0.7429724323495912
0.0675,1.68609375,1.0,2635.2034629602786,0.5323224854057609,1.2831684653546702,0.9819433516573148,0.2838689375,0.7443100134843142
0.068,1.6844000000000001,1.0,2633.098321977619,0.5349458015955312,1.282423024174155,0.9820806177289999,0.2837978,0.7456544496694026
0.0685,1.68269375,1.0,2631.0046946713255,0.5375544009182445,1.281671839024192,0.982214780687219,0.2837261375,0.7470056603977351
0.069,1.680975,1.0,2628.922652676837,0.5401483647627934,1.2809149091233398,0.9823459203067114,0.28365395,0.7483635645160259
0.0695,1.67924375,1.0,2626.8522675615695,0.5427277745180703,1.2801522336901574,0.9824741136461902,0.28358123749999997,0.749728080224539
0.07,1.6775,1.0,2624.7936108267486,0.5452927115729678,1.2793838119432035,0.9825994351579096,0.283508,0.7510991250768008
0.07050000000000001,1.67574375,1.0,2622.746753909089,0.5478432573163783,1.2786096431010368,0.9827219567920885,0.2834342375,0.7524766159793141
0.07100000000000001,1.673975,1.0,2620.711768182458,0.5503794931371943,1.277829726382216,0.9828417480964583,0.28335995,0.7538604691912723
0.07150000000000001,1.67219375,1.0,2618.688724959807,0.5529015004243083,1.2770440610053,0.982958876311195,0.2832851375,0.7552506003242718
0.07200000000000001,1.6704,1.0,2616.6776954949632,0.5554093605666128,1.2762526461888477,0.9830734064594807,0.2832098,0.756646924342026
0.0725,1.66859375,1.0,2614.678750984262,0.5579031549530004,1.2754554811514176,0.9831854014339185,0.2831339375,0.7580493555600798
0.073,1.6667750000000001,1.0,2612.6919625684623,0.5603829649723634,1.2746525651115688,0.9832949220790222,0.28305755,0.7594578076455213
0.0735,1.66494375,1.0,2610.7192470602076,0.5628488228915849,1.2738438801335012,0.983402023668727,0.2829806375,0.760872223575984
0.074,1.6631,1.0,2608.7589442031135,0.5653008642064451,1.2730294415132761,0.9835067670909876,0.2829032,0.7622924874583819
0.0745,1.6612437500000001,1.0,2606.8105599623586,0.5677391697759351,1.2722092537236465,0.9836092076954818,0.2828252375,0.7637185018724983
0.075,1.659375,1.0,2604.873855981533,0.5701638124521596,1.2713833188657766,0.9837093985228792,0.28274675,0.765150172963636
0.0755,1.65749375,1.0,2602.9485943099958,0.5725748650872242,1.270551639040831,0.9838073909431555,0.2826677375,0.7665874062892856
