Time [s],Phi [rad],STIM [ ],Fsee [N],Gamma [ ],Lcerel [ ],q [ ],Lmtc [m],fisomrel [ ]
0.0,1.8,1.0,17.967643761506068,1.0006839283136049e-05,1.3793396918173293,0.005000026688093218,0.288653,0.5411396626656046
0.0005,1.79999375,1.0,18.276933079666623,0.005619160017622768,1.3793023668027131,0.012940532522181965,0.2886527375,0.541229957072258
0.001,1.799975,1.0,21.618530890952513,0.011196850281554498,1.3789382868615412,0.035608610762256854,0.28865195,0.5421102511174756
0.0015,1.79994375,1.0,31.069301492974652,0.01674325411401164,1.3780461981495657,0.07060175139720262,0.2886506375,0.5442636226551636
0.002,1.7999,1.0,53.58221440058829,0.02225854700627818,1.3763681429387917,0.11471789125657086,0.2886488,0.5483004495561392
0.0025,1.79984375,1.0,97.11841223707837,0.02774290346554869,1.3739351925778207,0.1645747337202454,0.28864643749999996,0.5541214022697327
0.003,1.7997750000000001,1.0,160.95750245209217,0.033196497022648944,1.371214368624253,0.21728028961076284,0.28864354999999997,0.5605863919862792
0.0035,1.79969375,1.0,237.68258621238772,0.03861950023162494,1.3685847571913259,0.27061272474145814,0.2886401375,0.5667897856065414
0.004,1.7996,1.0,321.46599887369683,0.044012084680525684,1.3661561128558308,0.32291564301481496,0.2886362,0.5724799139614416
0.0045000000000000005,1.7994937500000001,1.0,409.26698593013595,0.04937442099658759,1.3639228321207462,0.37303435718836575,0.2886317375,0.5776791207309159
0.005,1.799375,1.0,499.41274133981193,0.05470667883732229,1.3618583585568502,0.4202473206128099,0.28862675,0.5824570419086161
0.0055,1.79924375,1.0,590.7896693733167,0.06000902693800138,1.3599388496475078,0.46417356919931724,0.2886212375,0.5868750781710101
0.006,1.7991000000000001,1.0,682.5173732835766,0.06528163305476789,1.3581464281085538,0.5046798444051915,0.2886152,0.5909793878606011
0.006500000000000001,1.79894375,1.0,773.8806198910684,0.07052466402027963,1.3564672645078444,0.5418006529271474,0.2886086375,0.5948057695608882
0.007,1.798775,1.0,864.2851360357974,0.07573828572729602,1.3548904059024955,0.5756766849378203,0.28860155,0.5983826524182461
0.0075,1.79859375,1.0,953.2426436751025,0.0809226631384152,1.3534067879850296,0.6065098290599725,0.2885939375,0.6017335529531389
0.008,1.7984,1.0,1040.3439559942426,0.0860779598748728,1.352008859807976,0.6345321020510719,0.2885858,0.6048780695685226
0.0085,1.79819375,1.0,1125.3139941502172,0.09120434006084632,1.3506892448020666,0.6599843646751621,0.2885771375,0.6078349922836613
0.009000000000000001,1.797975,1.0,1207.9000058810416,0.0963019656386095,1.349442037437649,0.6831041311528717,0.28856795,0.6106194594114309
0.0095,1.79774375,1.0,1287.8922785590075,0.1013709971158874,1.3482621228395726,0.7041174207615095,0.2885582375,0.6132445592961558
0.01,1.7975,1.0,1365.166982864803,0.1064115950004051,1.347144386132688,0.7232341768413302,0.288548,0.6157231351293344
0.0105,1.79724375,1.0,1439.658879623229,0.11142391926009,1.3460839541418335,0.7406466175670433,0.2885372375,0.6180672725942389
0.011,1.796975,1.0,1511.321684176252,0.1164081286700866,1.3450765601173378,0.7565290893094748,0.28852595000000003,0.6202875244183208
0.0115,1.79669375,1.0,1580.1206397940532,0.1213643804077735,1.344118487510786,0.7710385737108425,0.2885141375,0.6223930693663551
0.012,1.7964,1.0,1646.0570914873608,0.1262928311262325,1.3432061640128103,0.7843155545999461,0.28850180000000003,0.624392630687538
0.0125,1.79609375,1.0,1709.1738919912104,0.1311936376213497,1.3423360357436136,0.7964852954201557,0.2884889375,0.6262947660438372
0.013000000000000001,1.7957750000000001,1.0,1769.5064968330364,0.1360669547846733,1.3415050734025409,0.8076594648266296,0.28847555,0.628106775638792
0.0135,1.79544375,1.0,1827.0912910283362,0.14091293608964708,1.3407105977151585,0.8179374418102543,0.2884616375,0.6298351039686843
0.014,1.7951000000000001,1.0,1881.9923062309388,0.14573173500971492,1.339949929407034,0.8274075086556034,0.2884472,0.6314861144647723
0.0145,1.79474375,1.0,1934.2796207008796,0.1505235039344606,1.3392205962672206,0.8361481722518961,0.2884322375,0.6330656475386204
0.015,1.794375,1.0,1984.0527801353078,0.15528839589801072,1.3385200462408724,0.8442291903036732,0.28841675,0.6345796501692527
0.0155,1.79399375,1.0,2031.3727919257308,0.16002656055827758,1.3378463479987024,0.8517128227195423,0.2884007375,0.6360326694640934
0.016,1.7936,1.0,2076.31207449657,0.16473814731559483,1.337197617004748,0.8586545253655613,0.2883842,0.6374291042293346
0.0165,1.7931937500000001,1.0,2118.9574135564267,0.1694233055702961,1.3365719687230468,0.865103741805659,0.2883671375,0.6387733095340956
0.017,1.792775,1.0,2159.390965117131,0.17408218331663106,1.3359677000844115,0.871104667587137,0.28834955,0.6400692107780324
0.0175,1.7923437500000001,1.0,2197.719763470965,0.17871492978920522,1.335382970867005,0.8766967804064197,0.2883314375,0.6413209912385893
0.018000000000000002,1.7919,1.0,2234.0130177881415,0.183321690308905,1.3348164293538436,0.8819155619206686,0.2883128,0.6425317558505825
0.0185,1.79144375,1.0,2268.3451778111107,0.18790260995046162,1.3342667544743891,0.8867928404329573,0.2882936375,0.6437045180266532
0.019,1.790975,1.0,2300.798225800999,0.19245783378860637,1.3337326251581036,0.8913572060859086,0.28827395,0.6448422669167113
0.0195,1.79049375,1.0,2331.4525018545723,0.19698750578282115,1.3332128042726703,0.8956344019124309,0.2882537375,0.6459477903977777
0.02,1.79,1.0,2360.3975271248783,0.2014917709943317,1.3327060243727868,0.8996476210635735,0.288233,0.6470239201085923
0.0205,1.78949375,1.0,2387.7064920410708,0.2059707717705105,1.3322112313501648,0.9034178459291359,0.2882117375,0.6480730158316559
0.021,1.788975,1.0,2413.4434876885875,0.21042464857822935,1.3317275039169099,0.9069640741259982,0.28818995000000003,0.6490971401309202
0.021500000000000002,1.78844375,1.0,2437.676570882341,0.21485354188435996,1.3312539207851266,0.9103035078226495,0.2881676375,0.6500983417234728
0.022,1.7879,1.0,2460.477432236502,0.21925759215577406,1.33078956066692,0.9134517481821824,0.2881448,0.651078656102634
0.0225,1.78734375,1.0,2481.9130347752434,0.2236369380745619,1.3303335789922908,0.916422980750153,0.28812143749999997,0.6520399444838776
0.023,1.786775,1.0,2502.0564659511297,0.2279917207748154,1.3298851005408858,0.9192301060794942,0.28809755,0.6529841213046226
0.0235,1.78619375,1.0,2520.96784700785,0.23232207817843487,1.329443398170138,0.9218849039294398,0.28807313749999996,0.6539127787057142
0.024,1.7856,1.0,2538.699202614979,0.2366281456763788,1.3290078420002742,0.9243981385293044,0.2880482,0.6548272956068961
0.0245,1.78499375,1.0,2555.3044512323763,0.2409100586596056,1.328577802151522,0.9267796450349044,0.2880227375,0.6557290431545768
0.025,1.784375,1.0,2570.839244837468,0.24516795251907372,1.3281526487441084,0.9290384224662137,0.28799675,0.6566193849560771
0.025500000000000002,1.78374375,1.0,2585.3608174494225,0.24940196264574158,1.3277317518982608,0.9311827162176533,0.2879702375,0.6574996772885742
0.026000000000000002,1.7831000000000001,1.0,2598.916104892303,0.2536122212603568,1.3273145910715383,0.9332201078092688,0.2879432,0.6583710410448715
0.0265,1.78244375,1.0,2611.5641697536544,0.25779886584676315,1.3269005441026616,0.9351575484033258,0.2879156375,0.6592348031421678
0.027,1.781775,1.0,2623.351250001441,0.2619620292104529,1.3264891187196408,0.9370014503800782,0.28788755,0.6600920132578836
0.0275,1.7810937500000001,1.0,2634.3145763247303,0.266101841034675,1.3260799147862763,0.9387577321668108,0.2878589375,0.6609435241485166
0.028,1.7804,1.0,2644.4921656802862,0.2702184310026784,1.3256725321663683,0.9404318511476987,0.2878298,0.661790184286817
0.0285,1.77969375,1.0,2653.9227532779482,0.27431192879771216,1.3252665707237172,0.942028845628669,0.2878001375,0.6626328379133708
0.029,1.778975,1.0,2662.6457281159414,0.27838246410302514,1.3248616303221237,0.9435533724765001,0.28776995,0.6634723250779715
0.029500000000000002,1.7782437500000001,1.0,2670.7010720656513,0.2824301666018665,1.324457310825388,0.9450097409251474,0.2877392375,0.6643094816707829
0.03,1.7775,1.0,2678.1204384355688,0.2864551629018763,1.324053293437503,0.9464019527850703,0.287708,0.6651449713402663
0.0305,1.77674375,1.0,2684.9428909915173,0.2904575833660972,1.3236491954481213,0.9477337120914049,0.2876762375,0.665979586370484
0.031,1.775975,1.0,2691.2070396806876,0.2944375569311387,1.3232446422198552,0.9490084581026631,0.28764395,0.666814098457136
0.0315,1.7751937500000001,1.0,2696.9381005644013,0.2983952072028225,1.322839385056439,0.9502294010803762,0.2876111375,0.6676490161236617
0.032,1.7744,1.0,2702.1615733394897,0.3023306577869704,1.3224331752616072,0.9513995272723824,0.2875778,0.6684848453147887
0.0325,1.77359375,1.0,2706.903214778167,0.3062440322894042,1.3220257641390936,0.9525216172880367,0.2875439375,0.6693220893833958
0.033,1.772775,1.0,2711.1890135387175,0.3101354543159458,1.321616902992633,0.953598262754751,0.28750955,0.6701612490734289
0.0335,1.7719437500000002,1.0,2715.045166348694,0.31400504747241686,1.3212063431259595,0.9546318814349655,0.2874746375,0.6710028224988787
0.034,1.7711000000000001,1.0,2718.4980555582124,0.31785293536463927,1.3207938358428073,0.9556247309622395,0.2874392,0.6718473051188074
0.0345,1.7702437500000001,1.0,2721.569319592869,0.3216792374591741,1.3203791771280071,0.9565789251824882,0.2874032375,0.6726950984144804
0.035,1.7693750000000001,1.0,2724.2834316186177,0.32548407971494847,1.3199621384036424,0.9574964404046242,0.28736675,0.673546651747986
0.035500000000000004,1.76849375,1.0,2726.6600487640862,0.3292675826497116,1.319542536021947,0.9583791302624775,0.2873297375,0.6744023203847662
0.036000000000000004,1.7676,1.0,2728.716223865847,0.333029863904884,1.3191202109283453,0.9592287334478217,0.2872922,0.6752624074523228
0.0365,1.76669375,1.0,2730.469095058529,0.33677104112188594,1.3186950040682617,0.9600468804142525,0.2872541375,0.6761272142280952
0.037,1.765775,1.0,2731.9358757491163,0.3404912319421381,1.3182667563871202,0.9608351013339419,0.28721555,0.6769970401110379
0.0375,1.76484375,1.0,2733.13384515234,0.3441905540070608,1.3178353088303454,0.961594833383985,0.2871764375,0.6778721825915783
0.038,1.7639,1.0,2734.0803393872084,0.3478691249580745,1.3174005023433615,0.9623274274256192,0.28713679999999997,0.6787529372199674
0.0385,1.76294375,1.0,2734.792743133943,0.3515270624365996,1.3169621778715928,0.9630341541330217,0.28709663750000003,0.6796395975730127
0.039,1.761975,1.0,2735.2742734590884,0.35516446811067504,1.3165203053728276,0.9637162184558137,0.28705595,0.6805321947917473
0.0395,1.7609937500000001,1.0,2735.555891013274,0.3587814796706161,1.316074603183547,0.964374739415876,0.2870147375,0.6814312666529441
0.04,1.76,1.0,2735.6492472720665,0.3623782106764556,1.3156249652348762,0.9650107830348408,0.286973,0.6823369940066429
0.0405,1.7589937500000001,1.0,2735.563377108248,0.3659547714772013,1.3151713094067279,0.9656253564026749,0.2869307375,0.6832495080575529
0.041,1.757975,1.0,2735.3073330476236,0.3695112724218609,1.3147135535790146,0.9662194101306151,0.28688795,0.6841689387553211
0.0415,1.75694375,1.0,2734.890182380979,0.373047823859442,1.314251615631649,0.966793842103203,0.2868446375,0.6850954147732726
0.042,1.7559,1.0,2734.321004425455,0.37656453613895247,1.3137854134445435,0.967349500943653,0.28680079999999997,0.6860290634867249
0.0425,1.75484375,1.0,2733.6088879359095,0.38006151960939993,1.3133148648976105,0.967887189217182,0.2867564375,0.6869700109508676
0.043000000000000003,1.753775,1.0,2732.762928664501,0.3835388846197921,1.312839887870763,0.9684076663945823,0.28671155,0.6879183818782157
0.043500000000000004,1.75269375,1.0,2731.7922270718404,0.38699674151913666,1.3123604002439133,0.9689116515962349,0.28666613750000003,0.6888742996156323
0.044,1.7516,1.0,2730.705886185389,0.3904352006564413,1.3118763198969738,0.9693998261348611,0.2866202,0.6898378861209198
0.0445,1.75049375,1.0,2729.5130096093453,0.3938543723807138,1.3113875647098576,0.9698728358736406,0.2865737375,0.6908092619389803
0.045,1.7493750000000001,1.0,2728.222699682868,0.39725436704096184,1.3108940525624768,0.9703312934147879,0.28652675,0.6917885461775507
0.0455,1.74824375,1.0,2726.83821017764,0.4006352809944733,1.3103957544950318,0.9707757821754375,0.2864792375,0.692775751248278
0.046,1.7471,1.0,2725.3715104306348,0.4039972364736636,1.3098925622827642,0.971206853849239,0.2864312,0.6937710454139768
0.0465,1.7459437500000001,1.0,2723.8293188840585,0.40734034193132745,1.3093844154003473,0.9716250341574604,0.28638263750000004,0.6947745009801828
0.047,1.744775,1.0,2722.216053351833,0.41066469986237497,1.308871274224327,0.9720308235453194,0.28633355,0.6957861478285735
0.0475,1.74359375,1.0,2720.536129424614,0.413970412761716,1.3083530991312486,0.9724246979675081,0.28628393750000003,0.696806014847431
0.048,1.7424,1.0,2718.793959914747,0.4172575831242605,1.307829850497658,0.9728071103122539,0.2862338,0.6978341299189718
0.0485,1.74119375,1.0,2716.99395433747,0.42052631344491836,1.3073014887001009,0.9731784917297919,0.2861831375,0.6988705199065746
0.049,1.739975,1.0,2715.1405184254904,0.4237767062185996,1.306767974115123,0.9735392528724848,0.28613195,0.6999152106419109
0.0495,1.73874375,1.0,2713.238053679351,0.4270088639402141,1.30622926711927,0.9738897850532244,0.2860802375,0.7009682269119735
0.05,1.7375,1.0,2711.290956952277,0.43022288910467177,1.3056853280890874,0.9742304613281939,0.286028,0.7020295924460044
0.0505,1.73624375,1.0,2709.303620069641,0.43341888420688257,1.3051361174011211,0.9745616375095671,0.2859752375,0.7030993299023254
0.051000000000000004,1.734975,1.0,2707.280429483786,0.43659695174175644,1.3045815954319167,0.9748836531132665,0.28592195,0.7041774608550646
0.051500000000000004,1.73369375,1.0,2705.225765962818,0.4397571942042033,1.30402172255802,0.9751968322464837,0.2858681375,0.7052640057807855
0.052000000000000005,1.7324,1.0,2703.137394366143,0.442899694113234,1.3034565195301442,0.9755014861525574,0.2858138,0.7063588672023318
0.0525,1.73109375,1.0,2701.022719217996,0.44602456930014805,1.302885919055169,0.9757979104208689,0.28575893750000003,0.7074621174684492
0.053,1.729775,1.0,2698.888062324931,0.44913192942482294,1.3023098636362298,0.9760863872996498,0.28570355000000003,0.7085738085084317
0.0535,1.72844375,1.0,2696.7351431391917,0.45222186874756787,1.301728337775215,0.9763671876857112,0.2856476375,0.7096939100236155
0.054,1.7271,1.0,2694.5656786232325,0.45529448152869206,1.301141325974012,0.9766405707387197,0.2855912,0.710822390913947
0.0545,1.7257437500000001,1.0,2692.3813831921507,0.45834986202850475,1.3005488127345097,0.9769067844864412,0.2855342375,0.7119592192725657
0.055,1.724375,1.0,2690.183968661767,0.46138810450731516,1.2999507825585954,0.9771660663938586,0.28547675,0.713104362380377
0.0555,1.72299375,1.0,2687.9751442018705,0.4644093032254325,1.2993472199481573,0.9774186438985975,0.2854187375,0.7142577867006045
0.056,1.7216,1.0,2685.7566162947583,0.46741355244316607,1.2987381094050836,0.9776647349149232,0.2853602,0.7154194578733301
0.0565,1.72019375,1.0,2683.530088699225,0.47040094642082503,1.2981234354312625,0.9779045483083956,0.28530113749999997,0.7165893407100187
0.057,1.718775,1.0,2681.29726242011,0.4733715794187186,1.2975031825285817,0.9781382843431078,0.28524155,0.7177673991880276
0.0575,1.71734375,1.0,2679.0598356821297,0.476325545697156,1.2968773351989293,0.9783661351033145,0.2851814375,0.7189535964450975
0.058,1.7159,1.0,2676.8195039104967,0.4792629395164466,1.2962458779441934,0.9785882848910975,0.2851208,0.7201478947738331
0.0585,1.71444375,1.0,2674.5779597158853,0.4821838551368995,1.295608795266262,0.9788049106016191,0.2850596375,0.7213502556161644
0.059000000000000004,1.7129750000000001,1.0,2672.336892884896,0.48508838681882394,1.2949660716670235,0.9790161820773894,0.28499795,0.7225606395577946
0.059500000000000004,1.71149375,1.0,2670.0979903761568,0.4879766288225291,1.2943176916483654,0.9792222624428796,0.2849357375,0.723779006322633
0.06,1.71,1.0,2667.8590008348697,0.4908486548310783,1.2936636758951445,0.9794233087013312,0.284873,0.7250052470017587
0.0605,1.7084937500000001,1.0,2665.622218702192,0.4937045684580196,1.2930040033152155,0.9796194719485808,0.2848097375,0.7262393304887028
0.061,1.7069750000000001,1.0,2663.391808637885,0.4965444775640471,1.2923386355717708,0.9798108968420056,0.28474595,0.7274812568623579
0.0615,1.7054437500000001,1.0,2661.1681100821584,0.49936846785960487,1.291667569477241,0.9799977225906403,0.2846816375,0.728730959551144
0.062,1.7039,1.0,2658.951461915137,0.5021766250551366,1.2909908018440568,0.9801800831216974,0.2846168,0.7299883713078854
0.0625,1.70234375,1.0,2656.7422024599846,0.5049690348610862,1.2903083294846485,0.9803581073190025,0.2845514375,0.7312534242086506
0.063,1.7007750000000001,1.0,2654.5406694874896,0.5077457829878977,1.289620149211447,0.9805319192489365,0.28448555,0.7325260496515918
0.0635,1.69919375,1.0,2652.347200220352,0.5105069551460147,1.2889262578368827,0.9807016383746224,0.28441913750000003,0.7338061783557881
0.064,1.6976,1.0,2650.1621313374094,0.5132526370458812,1.2882266521733865,0.9808673797590526,0.2843522,0.7350937403600819
0.0645,1.69599375,1.0,2647.9857989788934,0.515982914397941,1.2875213290333885,0.9810292542578047,0.2842847375,0.7363886650219196
0.065,1.694375,1.0,2645.818538750945,0.518697872912638,1.2868102852293197,0.9811873687019488,0.28421675,0.7376908810161871
0.0655,1.69274375,1.0,2643.6606857312563,0.521397598300416,1.2860935175736103,0.9813418260717153,0.2841482375,0.7390003163340507
0.066,1.6911,1.0,2641.512574474099,0.524082176271719,1.2853710228786912,0.9814927256614508,0.2840792,0.7403168982817905
0.0665,1.6894437500000001,1.0,2639.3745390165163,0.5267516925369907,1.284642797956993,0.9816401632363584,0.2840096375,0.741640553479638
0.067,1.687775,1.0,2637.2469128836406,0.5294062328066751,1.2839088396209462,0.981784231181488,0.28393955,0.7429712078606119
0.0675,1.68609375,1.0,2635.1300290953013,0.532045882791216,1.2831691446829812,0.9819250186434076,0.2838689375,0.7443087866693523
0.068,1.6844000000000001,1.0,2633.0242201721494,0.5346707282010572,1.2824237099555287,0.9820626116649696,0.2837978,0.7456532144609548
0.0685,1.68269375,1.0,2630.9294403969366,0.5372808511005543,1.28167253574831,0.9821970932431315,0.2837261375,0.7470044088173373
0.069,1.680975,1.0,2628.8421624371053,0.539876297238446,1.2809156546188272,0.9823285427222128,0.28365395,0.7483622289224356
0.0695,1.67924375,1.0,2626.768680438284,0.5424572051642492,1.280153008174045,0.9824570384009447,0.28358123749999997,0.7497266964637546
0.07,1.6775,1.0,2624.7087847365347,0.545023651970965,1.2793845982151066,0.9825826548151206,0.283508,0.7510977241077278
0.07050000000000001,1.67574375,1.0,2622.662266066881,0.5475757147515943,1.2786104265431537,0.9827054639989573,0.2834342375,0.7524752239204144
0.07100000000000001,1.673975,1.0,2620.6289155585887,0.550113470599138,1.277830494959329,0.982825535584452,0.28335995,0.7538591073681575
0.07150000000000001,1.67219375,1.0,2618.6085247308656,0.5526369966065969,1.277044805264775,0.9829429368961462,0.2832851375,0.7552492853182492
0.07200000000000001,1.6704,1.0,2616.600885488091,0.5551463698669722,1.2762533592606335,0.9830577330415287,0.2832098,0.7566456680395897
0.0725,1.66859375,1.0,2614.6057901152126,0.5576416674732645,1.2754561587480475,0.9831699869973115,0.2831339375,0.7580481652033496
0.073,1.6667750000000001,1.0,2612.6230312736984,0.560122966518475,1.274653205528159,0.9832797596917913,0.28305755,0.7594566858836316
0.0735,1.66494375,1.0,2610.652401997011,0.5625903440956047,1.2738445014021105,0.9833871100834967,0.2829806375,0.7608711385581298
0.074,1.6631,1.0,2608.6936956861587,0.5650438772976543,1.2730300481710444,0.9834920952363133,0.2829032,0.762291431108792
0.0745,1.6612437500000001,1.0,2606.746706105795,0.5674836432176247,1.2722098476361028,0.9835947703912643,0.2828252375,0.76371747082248
0.075,1.659375,1.0,2604.811227380139,0.569909718948517,1.2713839015984285,0.9836951890351181,0.28274675,0.7651491643916277
0.0755,1.65749375,1.0,2602.887053988671,0.572322181583332,1.2705522118591634,0.983793402965979,0.2826677375,0.7665864179149054
