Time [s],Phi [rad],STIM [ ],Fsee [N],Gamma [ ],Lcerel [ ],q [ ],Lmtc [m],fisomrel [ ]
0.0,1.8,1.0,18.137275089175763,0.00041914557376308115,1.3793207323361485,0.005045458239779018,0.288653,0.5411855294004082
0.0005,1.79999375,1.0,18.576502354618363,0.006026003807407859,1.379269225907005,0.014115327291648789,0.2886527375,0.5413101220660117
0.001,1.799975,1.0,22.221744795044074,0.011601411999391367,1.3788771015241181,0.037772442458063146,0.28865195,0.5422581056781987
0.0015,1.79994375,1.0,32.336637678056064,0.017145546560522217,1.3779393047394228,0.07354287433870152,0.2886506375,0.5445213071845718
0.002,1.7999,1.0,56.16935476605597,0.022658582909973232,1.3762022808345873,0.11818768780738788,0.2886488,0.5486984818075712
0.0025,1.79984375,1.0,101.34582070856402,0.02814069548470634,1.3737336531137985,0.16834107201201112,0.28864643749999996,0.5546019022009405
0.003,1.7997750000000001,1.0,166.38374335765366,0.03359205774250285,1.371012942405416,0.22116027837639732,0.28864354999999997,0.5610631268101895
0.0035,1.79969375,1.0,243.76746425544587,0.03901284216914673,1.3683985110396342,0.2744680008071377,0.2886401375,0.5672274778819533
0.004,1.7996,1.0,327.9151633206901,0.04440322028079732,1.3659861471357784,0.3266458606671872,0.2886362,0.5728767222726671
0.0045000000000000005,1.7994937500000001,1.0,415.9293680274995,0.04976336263243204,1.3637670718114412,0.37657339850568905,0.2886317375,0.5780405531432711
0.005,1.799375,1.0,506.1971424614796,0.0550934388122086,1.361714676810625,0.4235570881157624,0.28862675,0.582788560522274
0.0055,1.79924375,1.0,597.6310165508692,0.06039361751458367,1.3598055709610846,0.46723697888956,0.2886212375,0.5871809665349743
0.006,1.7991000000000001,1.0,689.3546277786528,0.06566406637118608,1.35802245466245,0.5074946127080265,0.2886152,0.591262506241945
0.006500000000000001,1.79894375,1.0,780.6725280664288,0.07090495218546793,1.356351575411009,0.5443739631136472,0.2886086375,0.5950687331061608
0.007,1.798775,1.0,870.9953296067772,0.0761164407940643,1.354782224303257,0.5780215490721383,0.28860155,0.5986274659388822
0.0075,1.79859375,1.0,959.8282247257106,0.08129869692921934,1.3533056692590748,0.6086424832188635,0.2885939375,0.6019614287927209
0.008,1.7984,1.0,1046.8095544019766,0.08645188498139858,1.351913813680534,0.6364696723527224,0.2885858,0.6050914149898674
0.0085,1.79819375,1.0,1131.6131375365978,0.09157616758703772,1.3506001965243282,0.6617445810215259,0.2885771375,0.6080341269040257
0.009000000000000001,1.797975,1.0,1213.999106463678,0.09667170682702762,1.3493588054067587,0.6847039857381368,0.28856795,0.6108049269284519
0.0095,1.79774375,1.0,1293.806927036799,0.10173866440734808,1.3481839458794984,0.7055725229198874,0.2885582375,0.6134181754840005
0.01,1.7975,1.0,1370.9016701964185,0.10677720036623164,1.3470707571392653,0.7245590299695684,0.288548,0.6158861273557945
0.0105,1.79724375,1.0,1445.1950825186927,0.1117874739106733,1.346014730784713,0.74185459009014,0.2885372375,0.6182200448979036
0.011,1.796975,1.0,1516.6464068999055,0.11676964357443059,1.345011573505631,0.7576322186398995,0.28852595000000003,0.6204305298060224
0.0115,1.79669375,1.0,1585.2529849104315,0.12172386788384597,1.3440572234357275,0.7720474932136404,0.2885141375,0.6225275095717406
0.012,1.7964,1.0,1651.0002558715228,0.12665030270707722,1.3431483485108668,0.7852398614501013,0.28850180000000003,0.6245191674562012
0.0125,1.79609375,1.0,1713.91162383257,0.13154910376772852,1.342281652628443,0.7973336418832222,0.2884889375,0.6264134893939476
0.013000000000000001,1.7957750000000001,1.0,1774.0298291345518,0.13642042601980697,1.3414540414114153,0.8084395168621691,0.28847555,0.6282179132774601
0.0135,1.79544375,1.0,1831.430811186605,0.14126442493360425,1.340662414994292,0.8186558509530624,0.2884616375,0.6299397927622983
0.014,1.7951000000000001,1.0,1886.164312572145,0.1460812530615498,1.3399042854876562,0.8280702537040211,0.2884472,0.6315850660303761
0.0145,1.79474375,1.0,1938.2865925423775,0.15087106209172113,1.3391773529204352,0.8367606268382167,0.2884322375,0.6331591940876486
0.015,1.794375,1.0,1987.8748720364817,0.1556340037121959,1.338479317321557,0.8447962174105617,0.28841675,0.6346675757191733
0.0155,1.79399375,1.0,2035.0093273805423,0.1603702286567164,1.3378080491118112,0.8522386867740853,0.2884007375,0.6361151848063527
0.016,1.7936,1.0,2079.791392911646,0.16507988816528235,1.3371613715615809,0.859142936375971,0.2883842,0.6375070456846735
0.0165,1.7931937500000001,1.0,2122.2938230211985,0.16976313041326915,1.3365375626779386,0.8655580580423355,0.2883671375,0.6388471585038029
0.017,1.792775,1.0,2162.5906654456358,0.17442010285889983,1.3359350134464203,0.8715279167397199,0.28834955,0.6401392434335249
0.0175,1.7923437500000001,1.0,2200.766880020638,0.17905095296039747,1.3353521148525627,0.8770917352030363,0.2883314375,0.6413869868109491
0.018000000000000002,1.7919,1.0,2236.9076049233904,0.18365582712593406,1.3347873563071013,0.8822846652231491,0.2883128,0.6425938330896109
0.0185,1.79144375,1.0,2271.106968403722,0.18823487272656203,1.3342392254119493,0.8871382372163847,0.2882936375,0.6437632021556765
0.019,1.790975,1.0,2303.4395543377136,0.1927882340482197,1.3337064827286236,0.8916808447314262,0.28827395,0.6448979062018203
0.0195,1.79049375,1.0,2333.976436015497,0.19731605415850512,1.3331879881101794,0.8959380599143498,0.2882537375,0.6460005248057749
0.02,1.79,1.0,2362.794467574892,0.20181847612501624,1.3326826014096724,0.8999329301029467,0.288233,0.6470736183650926
0.0205,1.78949375,1.0,2389.9751283156484,0.20629564291757446,1.3321891889614224,0.9036862625287283,0.2882117375,0.6481197153608178
0.021,1.788975,1.0,2415.5857377727234,0.21074769519753372,1.3317068004708947,0.9072169099923106,0.28818995000000003,0.6491409391625065
0.021500000000000002,1.78844375,1.0,2439.720238020992,0.21517477739704727,1.3312342682535734,0.9105419020568839,0.2881676375,0.6501398582095657
0.022,1.7879,1.0,2462.4345464160406,0.2195770276809953,1.330770827659178,0.9136767655152026,0.2881448,0.6511181746481579
0.0225,1.78734375,1.0,2483.787553592961,0.22395458421425812,1.3303157140374282,0.9166356048657864,0.28812143749999997,0.6520775799105356
0.023,1.786775,1.0,2503.8408801085893,0.22830758516171595,1.329868162738044,0.9194312522777425,0.28809755,0.6530197551397555
0.0235,1.78619375,1.0,2522.658646047258,0.23263616868824905,1.3294274091107445,0.9220753999728318,0.28807313749999996,0.6539463715771114
0.024,1.7856,1.0,2540.300714804014,0.23694047142803337,1.3289927501138985,0.9245787276526224,0.2880482,0.6548589616469833
0.0245,1.78499375,1.0,2556.8298089449363,0.2412206313641514,1.3285634745677168,0.9269509938700768,0.2880227375,0.655759066262721
0.025,1.784375,1.0,2572.3035587833515,0.24547678497608494,1.3281389360658162,0.9292011391336017,0.28799675,0.6566480823902876
0.025500000000000002,1.78374375,1.0,2586.767014352388,0.2497090651582962,1.3277186204117488,0.9313373764873693,0.2879702375,0.6575271231996815
0.026000000000000002,1.7831000000000001,1.0,2600.2665131731956,0.2539176048052473,1.3273020134090676,0.9333672417157116,0.2879432,0.6583972959769469
0.0265,1.78244375,1.0,2612.8495706857175,0.2581025368114004,1.3268886008613245,0.9352976583310891,0.2879156375,0.6592597022542273
0.027,1.781775,1.0,2624.5647765415865,0.2622639940712176,1.3264778685720724,0.9371349955335846,0.28788755,0.6601154379229485
0.0275,1.7810937500000001,1.0,2635.4554125692976,0.2664021077331085,1.326069360475966,0.9388851280187984,0.2878589375,0.6609654724451359
0.028,1.7804,1.0,2645.564103498525,0.2705170097862202,1.325662634294542,0.9405534758484647,0.2878298,0.6618107417867969
0.0285,1.77969375,1.0,2654.942648280729,0.2746088338629995,1.325257170093179,0.9421450328547615,0.2878001375,0.6626523383385741
0.029,1.778975,1.0,2663.622918770034,0.2786777071612877,1.3248526380353491,0.9436644396513773,0.28776995,0.6634909552342936
0.029500000000000002,1.7782437500000001,1.0,2671.6373182557,0.28272375687892604,1.324448708284524,0.945115990644746,0.2877392375,0.6643272821827292
0.03,1.7775,1.0,2679.0187345682775,0.2867471102137558,1.324045051004175,0.9465036642918898,0.287708,0.6651620054837424
0.0305,1.77674375,1.0,2685.800495598411,0.29074789436361825,1.323641336357774,0.9478311503544882,0.2876762375,0.6659958080374817
0.031,1.775975,1.0,2692.0163272272302,0.2947262365263546,1.3232372345087926,0.9491018744799942,0.28764395,0.6668293693466448
0.0315,1.7751937500000001,1.0,2697.6999326501723,0.2986822636154542,1.322832419104372,0.950319020745819,0.2876111375,0.6676633583393465
0.032,1.7744,1.0,2702.8788885481085,0.3026160984070806,1.3224266226724166,0.9514855572864653,0.2875778,0.6684983194899843
0.0325,1.77359375,1.0,2707.5876287767715,0.30652787134964893,1.3220195175570457,0.9526042431684122,0.2875439375,0.6693349180877791
0.033,1.772775,1.0,2711.8477840039654,0.31041770387511314,1.3216108951960273,0.9536776614939162,0.28750955,0.6701735717194195
0.0335,1.7719437500000002,1.0,2715.681174035955,0.3142857174154272,1.321200547027129,0.9547082221966854,0.2874746375,0.6710146957572483
0.034,1.7711000000000001,1.0,2719.1097892114226,0.31813203340254503,1.3207882644881186,0.9556981757122639,0.2874392,0.6718587033376942
0.0345,1.7702437500000001,1.0,2722.15577276011,0.32195677326842054,1.3203738390167634,0.9566496254154568,0.2874032375,0.6727060053369291
0.035,1.7693750000000001,1.0,2724.841404125712,0.32576005844500766,1.3199570620508316,0.9575645389489653,0.28736675,0.6735570103437509
0.035500000000000004,1.76849375,1.0,2727.189083253391,0.3295420103642603,1.3195377250280909,0.9584447585536735,0.2873297375,0.6744121246296946
0.036000000000000004,1.7676,1.0,2729.207338763501,0.3333027386701742,1.3191157464393155,0.9592920208853047,0.2872922,0.6752714935410666
0.0365,1.76669375,1.0,2730.932312428352,0.33704237877262944,1.3186907945231927,0.9601079350281793,0.2872541375,0.6761357700452046
0.037,1.765775,1.0,2732.3815205806886,0.34076104916194644,1.318262707615393,0.960894024400387,0.28721555,0.6770052581036954
0.0375,1.76484375,1.0,2733.568004017845,0.3444588642992427,1.3178313652712272,0.9616517230779238,0.2871764375,0.6778801761792976
0.038,1.7639,1.0,2734.504854343015,0.3481359386456359,1.3173966470460068,0.9623823790729201,0.28713679999999997,0.6787607412115835
0.0385,1.76294375,1.0,2735.2052077450808,0.3517923866622436,1.3169584324950425,0.9630872604399361,0.28709663750000003,0.6796471685914719
0.039,1.761975,1.0,2735.682239098634,0.3554283228101834,1.3165166011736453,0.9637675608850843,0.28705595,0.6805396721348327
0.0395,1.7609937500000001,1.0,2735.9491563872784,0.3590438615505729,1.3160710326371268,0.9644244049233844,0.2870147375,0.681438464055167
0.04,1.76,1.0,2736.019195447195,0.36263911734452964,1.3156216064407977,0.965058852625189,0.286973,0.6823437549353641
0.0405,1.7589937500000001,1.0,2735.9056150332026,0.3662142046531713,1.3151682021399693,0.9656719039884414,0.2869307375,0.6832557536985314
0.041,1.757975,1.0,2735.621692206094,0.36976923793761546,1.3147106992899527,0.9662645029698954,0.28688795,0.6841746675778986
0.0415,1.75694375,1.0,2735.1807180415176,0.3733043316589797,1.3142489774460586,0.9668375412051908,0.2868446375,0.6851007020857989
0.042,1.7559,1.0,2734.587723955279,0.37681958891516937,1.313782991262082,0.9673918658450368,0.28680079999999997,0.6860339106971307
0.0425,1.75484375,1.0,2733.8574293095685,0.3803151338590384,1.3133126075002537,0.9679282742981771,0.2867564375,0.6869745216243367
0.043000000000000003,1.753775,1.0,2732.9994232454815,0.3837910779631454,1.312837739554593,0.9684475228977921,0.28671155,0.6879226680815456
0.043500000000000004,1.75269375,1.0,2732.0207293937506,0.38724752819315905,1.3123583241591474,0.9689503289903664,0.28666613750000003,0.6888784353587021
0.044,1.7516,1.0,2730.9283747276486,0.39068459151474827,1.311874298047965,0.9694373722496525,0.2866202,0.6898419075800035
0.0445,1.75049375,1.0,2729.729388068516,0.39410237489358196,1.3113855979550937,0.9699092970240251,0.2865737375,0.6908131676854233
0.045,1.7493750000000001,1.0,2728.430798678491,0.39750098529532885,1.310892160614581,0.9703667145152859,0.28652675,0.6917922974119823
0.0455,1.74824375,1.0,2727.0396349428033,0.40088052968565774,1.3103939227604748,0.9708102048025564,0.2864792375,0.6927793772747589
0.046,1.7471,1.0,2725.562923140711,0.4042411150302376,1.309890821126823,0.9712403187236671,0.2864312,0.6937744865476512
0.0465,1.7459437500000001,1.0,2724.007686304922,0.40758284829473707,1.3093827924476733,0.9716575796253512,0.28638263750000004,0.6947777032438773
0.047,1.744775,1.0,2722.3809431698196,0.4109058364448251,1.3088697734570733,0.9720624849925597,0.28633355,0.6957891040962252
0.0475,1.74359375,1.0,2720.689707209024,0.4142101864461705,1.3083517008890715,0.9724555079663108,0.28628393750000003,0.6968087645370427
0.048,1.7424,1.0,2718.934585436689,0.41749598452093745,1.3078285697671301,0.9728371002526595,0.2862338,0.6978366442446527
0.0485,1.74119375,1.0,2717.125081252035,0.42076335793907116,1.3073002940804774,0.9732076913831255,0.2861831375,0.6988728611545029
0.049,1.739975,1.0,2715.2669269056205,0.42401241575331866,1.3067668220888662,0.9735676905358734,0.28613195,0.6999174644945725
0.0495,1.73874375,1.0,2713.3631870970853,0.4272432568080206,1.3062281263134514,0.9739174880451423,0.2860802375,0.7009704548933445
0.05,1.7375,1.0,2711.416923531137,0.4304559799475178,1.3056841792753886,0.9742574560601371,0.286028,0.7020318320814161
0.0505,1.73624375,1.0,2709.4311946693597,0.4336506840161509,1.305134953495833,0.974587949552504,0.2859752375,0.7031015948823209
0.051000000000000004,1.734975,1.0,2707.409055498736,0.43682746785826077,1.3045804214959396,0.9749093072593025,0.28592195,0.704179741203303
0.051500000000000004,1.73369375,1.0,2705.3535573164822,0.43998643031818807,1.3040205557968636,0.9752218525661329,0.2858681375,0.70526626802604
0.052000000000000005,1.7324,1.0,2703.2677475321148,0.44312767024027355,1.3034553289197606,0.975525894334717,0.2858138,0.7063611713973212
0.0525,1.73109375,1.0,2701.154669486165,0.44625128646885787,1.3028847133857855,0.9758217276788751,0.28575893750000003,0.7074644464196767
0.053,1.729775,1.0,2699.017362285171,0.4493573778482819,1.3023086817160936,0.9761096346925401,0.28570355000000003,0.7085760872419566
0.0535,1.72844375,1.0,2696.858860654167,0.45244604322288634,1.3017272064318404,0.976389885133157,0.2856476375,0.7096960870498648
0.054,1.7271,1.0,2694.682194805423,0.4555173814370119,1.3011402600541806,0.9766627370635634,0.2855912,0.7108244380564429
0.0545,1.7257437500000001,1.0,2692.4903903238287,0.45857149133499936,1.30054781510427,0.9769284374552005,0.2855342375,0.711961131492505
0.055,1.724375,1.0,2690.286468069275,0.4616084717611894,1.2999498441032635,0.9771872227552886,0.28547675,0.7131061575970278
0.0555,1.72299375,1.0,2688.0724543409183,0.4646284074049624,1.2993463286378755,0.9774393186185453,0.2854187375,0.7142594883004626
0.056,1.7216,1.0,2685.8493454250042,0.4676313897725702,1.2987372597033806,0.9776849424646294,0.2853602,0.7154210767376115
0.0565,1.72019375,1.0,2683.620278141032,0.47061754483439444,1.2981226086584374,0.9779243047074776,0.28530113749999997,0.7165909126488781
0.057,1.718775,1.0,2681.386347727706,0.47358696254688415,1.2975023655373938,0.9781576048619456,0.28524155,0.7177689492973689
0.0575,1.71734375,1.0,2679.148647634429,0.4765397328664883,1.2968765203745978,0.9783850343100092,0.2851814375,0.7189551391909152
0.058,1.7159,1.0,2676.9082695111247,0.4794759457496559,1.2962450632043978,0.9786067766953743,0.2851208,0.7201494340785152
0.0585,1.71444375,1.0,2674.6663031998482,0.48239569115283587,1.2956079840611414,0.9788230082958926,0.2850596375,0.7213517849467729
0.059000000000000004,1.7129750000000001,1.0,2672.4238367281337,0.48529905903247716,1.2949652729791772,0.9790338983751998,0.28499795,0.7225621420163248
0.059500000000000004,1.71149375,1.0,2670.1819563054655,0.4881861393450287,1.294316919992853,0.9792396095148831,0.2849357375,0.7237804547382671
0.06,1.71,1.0,2667.9417463210293,0.4910570220469395,1.293662915136517,0.9794402979284051,0.284873,0.7250066717905701
0.0605,1.7084937500000001,1.0,2665.7042893444545,0.49391179709465854,1.2930032484445175,0.9796361137579168,0.2848097375,0.7262407410744909
0.061,1.7069750000000001,1.0,2663.47066612817,0.4967505544446348,1.2923379099512022,0.9798272013550161,0.28474595,0.7274826097109783
0.0615,1.7054437500000001,1.0,2661.2419556121217,0.4995733840533172,1.2916668896909194,0.9800136995464369,0.2846816375,0.7287322240370697
0.062,1.7039,1.0,2659.019234931185,0.5023803758771548,1.290990177698017,0.9801957418855852,0.2846168,0.7299895296022847
0.0625,1.70234375,1.0,2656.803579423801,0.5051716198725964,1.2903077640068437,0.9803734568907765,0.2845514375,0.7312544711650089
0.063,1.7007750000000001,1.0,2654.59606264369,0.507947205996091,1.2896196386517467,0.9805469682709729,0.28448555,0.7325269926888766
0.0635,1.69919375,1.0,2652.3977563735452,0.5107072242040877,1.2889257916670749,0.9807163951397616,0.28441913750000003,0.7338070373391392
0.064,1.6976,1.0,2650.2097306403393,0.5134517644530353,1.2882262130871758,0.9808818522182713,0.2843522,0.7350945474790369
0.0645,1.69599375,1.0,2648.030457025312,0.5161808729370649,1.287520916909829,0.9810434480918321,0.2842847375,0.7363894207249083
0.065,1.694375,1.0,2645.860900971512,0.5188946731105056,1.2868098941324595,0.9812012917822431,0.28421675,0.7376915963894368
0.0655,1.69274375,1.0,2643.7023754664783,0.5215932732874515,1.286093132528204,0.981355487118154,0.2841482375,0.7390010188781875
0.066,1.6911,1.0,2641.5549329644064,0.5242767538845879,1.2853706314976638,0.9815061328331375,0.2840792,0.7403176105823488
0.0665,1.6894437500000001,1.0,2639.4186258730547,0.5269451953186,1.2846423904414412,0.9816533241609349,0.2840096375,0.7416412932518563
0.067,1.687775,1.0,2637.29350655458,0.5295986780061729,1.2839084087601378,0.9817971529827287,0.28393955,0.7429719879951738
0.0675,1.68609375,1.0,2635.179627327223,0.5322372823639919,1.2831686858543558,0.9819377079672088,0.2838689375,0.7443096152790725
0.068,1.6844000000000001,1.0,2633.077040466548,0.5348610888087424,1.2824232211246966,0.9820750747038272,0.2837978,0.7456540949284143
0.0685,1.68269375,1.0,2630.985798206241,0.5374701777571093,1.2816720139717626,0.982209335829625,0.2837261375,0.7470053461259285
0.069,1.680975,1.0,2628.9059527400073,0.540064629625778,1.2809150637961555,0.9823405711499765,0.28365395,0.7483632874119959
0.0695,1.67924375,1.0,2626.8375562225833,0.5426445248314337,1.280152369998477,0.9824688577535865,0.28358123749999997,0.7497278366844276
0.07,1.6775,1.0,2624.78066077107,0.5452099437907615,1.279383931979329,0.982594270122047,0.283508,0.7510989111982451
0.07050000000000001,1.67574375,1.0,2622.7353184662434,0.5477609669204467,1.2786097491393134,0.98271688023425,0.2834342375,0.7524764275654621
0.07100000000000001,1.673975,1.0,2620.7015813536873,0.5502976746371746,1.2778298208790322,0.982836757665927,0.28335995,0.7538603017548625
0.07150000000000001,1.67219375,1.0,2618.6795014456006,0.5528201473576303,1.2770441465990872,0.9829539696845757,0.2832851375,0.7552504490917842
0.07200000000000001,1.6704,1.0,2616.669130721748,0.5553284654984991,1.2762527257000802,0.9830685813400151,0.2832098,0.7566467842578962
0.0725,1.66859375,1.0,2614.670521130772,0.5578227094764661,1.2754555575826132,0.983180655550799,0.2831339375,0.7580492212909811
0.073,1.6667750000000001,1.0,2612.6837245918696,0.5603029597082166,1.274652641647288,0.9832902531867025,0.28305755,0.7594576735847142
0.0735,1.66494375,1.0,2610.7087929958916,0.5627692966104358,1.2738439772947066,0.9833974331474831,0.2829806375,0.7608720538884446
0.074,1.6631,1.0,2608.7457782066804,0.5652218005998089,1.2730295639254705,0.9835022524381091,0.2829032,0.7622922743069752
0.0745,1.6612437500000001,1.0,2606.7947320625435,0.5676605520930211,1.272209400940182,0.9836047662406364,0.2828252375,0.7637182463003418
0.075,1.659375,1.0,2604.855794951059,0.5700856190002179,1.2713834869153087,0.983705027246336,0.28274675,0.765149882109976
0.0755,1.65749375,1.0,2602.9291703036815,0.5724970434270611,1.2705518198390728,0.9838030850307286,0.2826677375,0.7665870943296106
