Time [s],Phi [rad],STIM [ ],Fsee [N],Gamma [ ],Lcerel [ ],q [ ],Lmtc [m],fisomrel [ ]
0.0,1.8,1.0,18.942812771096044,0.0010083928343757255,1.3792318851895964,0.005261180897851281,0.288653,0.54140043767712
0.0005,1.79999375,1.0,19.54626085443275,0.006611945856831857,1.3791637364829001,0.01594288183802339,0.2886527375,0.5415652453326718
0.001,1.799975,1.0,23.63008397959403,0.012184067378227702,1.3787374059841229,0.04099902065859256,0.28865195,0.5425955909069442
0.0015,1.79994375,1.0,34.77441615453934,0.017724933702254315,1.377739423860561,0.07785632864652918,0.2886506375,0.5450029581042459
0.002,1.7999,1.0,60.59716981975105,0.02323472014796996,1.3759270413253333,0.12322993341949823,0.2886488,0.549358608419583
0.0025,1.79984375,1.0,108.10054382675372,0.028713601048366386,1.3734201585608254,0.17378448025777363,0.28864643749999996,0.5553488047844642
0.003,1.7997750000000001,1.0,174.74034838501248,0.03416174975940953,1.370709057840806,0.22674837491132283,0.28864354999999997,0.5617818700088708
0.0035,1.79969375,1.0,252.98413813053963,0.0395793386634219,1.3681207792142185,0.2800063475696996,0.2886401375,0.5678797573683565
0.004,1.7996,1.0,337.58807111112765,0.04496653917768092,1.3657343238954889,0.3319945628660281,0.2886362,0.5734642995048139
0.0045000000000000005,1.7994937500000001,1.0,425.8584340842566,0.05032352175939679,1.36353723636173,0.3816410358326333,0.2886317375,0.5785735898548332
0.005,1.799375,1.0,516.2469407079944,0.05565045583974759,1.3615035977362213,0.4282919255165538,0.28862675,0.5832753470145673
0.0055,1.79924375,1.0,607.7316660046336,0.06094751017748775,1.359610183533029,0.4716162908463314,0.2886212375,0.5876291961075932
0.006,1.7991000000000001,1.0,699.4242862365198,0.06621485213805925,1.3578409852582183,0.5115165095185971,0.2886152,0.5916767514968992
0.006500000000000001,1.79894375,1.0,790.6426866219325,0.07145264845660826,1.3561826577852039,0.5480498073395366,0.2886086375,0.5954525328222844
0.007,1.798775,1.0,880.8188273031221,0.07666106491700092,1.3546245988984993,0.5813705295296929,0.28860155,0.5989840365308625
0.0075,1.79859375,1.0,969.4697414921058,0.08184026619441266,1.3531582516241911,0.6116879660807126,0.2885939375,0.6022935245846446
0.008,1.7984,1.0,1056.230256841347,0.08699041643863221,1.3517758505613608,0.6392368001143314,0.2885858,0.6054009915874717
0.0085,1.79819375,1.0,1140.7839263127378,0.09211167825431786,1.3504709949394267,0.6642584930491416,0.2885771375,0.6083229646242614
0.009000000000000001,1.797975,1.0,1222.9037958776055,0.09720421370488373,1.3492376611682173,0.6869887998846768,0.28856795,0.6110747959877343
0.0095,1.79774375,1.0,1302.4386726376636,0.10226818446066545,1.3480701756271567,0.7076508094582594,0.2885582375,0.6136707679811234
0.01,1.7975,1.0,1379.2469594798308,0.10730375015751065,1.3469638845851062,0.7264516438159292,0.288548,0.6161226492143276
0.0105,1.79724375,1.0,1453.2469490757758,0.11231107007613071,1.3459142883910076,0.7435804799164052,0.2885372375,0.618441661629282
0.011,1.796975,1.0,1524.4094324290224,0.11729030298735905,1.3449170322106654,0.7592084278699118,0.28852595000000003,0.6206385232493202
0.0115,1.79669375,1.0,1592.7238646374738,0.12224160676873785,1.3439682215812012,0.77348936588589,0.2885141375,0.6227227759638574
0.012,1.7964,1.0,1658.1780145532953,0.12716513733836757,1.3430645509451973,0.7865611027159143,0.28850180000000003,0.624702531520313
0.0125,1.79609375,1.0,1720.799822211034,0.13206105058899295,1.3422027188101207,0.7985464511533045,0.2884889375,0.6265857756344435
0.013000000000000001,1.7957750000000001,1.0,1780.638811103089,0.13692950134807594,1.3413795960626056,0.8095547252583374,0.28847555,0.6283800108167483
0.0135,1.79544375,1.0,1837.766271913721,0.14177064496366026,1.340592173260783,0.8196831162946027,0.2884616375,0.6300923836527319
0.014,1.7951000000000001,1.0,1892.223918737696,0.14658463340664776,1.3398380800555558,0.829018197660185,0.2884472,0.6317285693372245
0.0145,1.79474375,1.0,1944.0765804156554,0.15137161864794008,1.3391149460978264,0.8376368863668987,0.2884322375,0.6332941751692228
0.015,1.794375,1.0,1993.4065033903464,0.15613175235096857,1.338420440511196,0.8456075734379985,0.28841675,0.6347946602175003
0.0155,1.79399375,1.0,2040.3005108585098,0.16086518545652975,1.3377523850399073,0.8529911598185543,0.2884007375,0.6362350969383106
0.016,1.7936,1.0,2084.853067522492,0.1655720690260237,1.3371086961771725,0.8598419214068461,0.2883842,0.6376203028116287
0.0165,1.7931937500000001,1.0,2127.1289656732897,0.17025255058703187,1.336487749211279,0.8662083978541646,0.2883671375,0.6389540645112481
0.017,1.792775,1.0,2167.2048714802017,0.1749067776671357,1.3358879194305129,0.872133934360094,0.28834955,0.6402401325913307
0.0175,1.7923437500000001,1.0,2205.1683316861554,0.17953489779391663,1.3353075821231615,0.8776572952495793,0.2883314375,0.6414822237586714
0.018000000000000002,1.7919,1.0,2241.1043514129638,0.18413705719307474,1.3347452378421032,0.8828132345817494,0.2883128,0.6426837555549547
0.0185,1.79144375,1.0,2275.110310578423,0.18871340343735898,1.3341993504725835,0.88763292249129,0.2882936375,0.6438481956112988
0.019,1.790975,1.0,2307.2609551808746,0.19326408075856236,1.3336686871018604,0.8921444409838183,0.28827395,0.6449783394378852
0.0195,1.79049375,1.0,2337.625212847651,0.19778923196943185,1.3331521358277314,0.8963730911805355,0.2882537375,0.6460767040606531
0.02,1.79,1.0,2366.277658291021,0.20228899988271448,1.3326485847479954,0.9003416798454784,0.288233,0.647145787835318
0.0205,1.78949375,1.0,2393.2980399471203,0.20676352731115724,1.3321569219604503,0.9040707989426024,0.2882117375,0.6481880714086713
0.021,1.788975,1.0,2418.757819832832,0.21121295518307373,1.3316761612260166,0.9075790971205046,0.28818995000000003,0.6492057527881806
0.021500000000000002,1.78844375,1.0,2442.743398820849,0.2156374270486179,1.3312052116976802,0.910883445446136,0.2881676375,0.6502012364295116
0.022,1.7879,1.0,2465.3177474881027,0.22003708218545268,1.3307432439356726,0.913999200922428,0.2881448,0.651176360302641
0.0225,1.78734375,1.0,2486.5378227204237,0.2244120584254543,1.3302895150096,0.9169403327436385,0.28812143749999997,0.6521327687331737
0.023,1.786775,1.0,2506.4632448860416,0.22876249360049905,1.3298432819890686,0.9197195518910675,0.28809755,0.6530720960672186
0.0235,1.78619375,1.0,2525.1560752584505,0.23308852554246315,1.3294038019436851,0.922348441867621,0.28807313749999996,0.6539959670441501
0.024,1.7856,1.0,2542.678296258425,0.23739029162940067,1.3289703536923063,0.9248375779961648,0.2880482,0.6549059515036955
0.0245,1.78499375,1.0,2559.083219071519,0.24166792721939756,1.3285423162540224,0.9271966423138387,0.2880227375,0.6558034006072766
0.025,1.784375,1.0,2574.445444046109,0.24592157148148514,1.328118885247885,0.9294344662649092,0.28799675,0.6566900419122619
0.025500000000000002,1.78374375,1.0,2588.807520434888,0.25015135693987145,1.327699571902446,0.9315591938839924,0.2879702375,0.6575669342313573
0.026000000000000002,1.7831000000000001,1.0,2602.2132350089582,0.2543574161187645,1.3272838874462574,0.9335782985810899,0.2879432,0.658435130797403
0.0265,1.78244375,1.0,2614.7075089081836,0.2585398815423722,1.3268713431078707,0.9354986474059624,0.2879156375,0.6592956793841094
0.027,1.781775,1.0,2626.3362997887684,0.2626988857349027,1.3264614501158378,0.937326558371238,0.28788755,0.6601496224115573
0.0275,1.7810937500000001,1.0,2637.1465092670414,0.2668345612205639,1.3260537196987106,0.9390678516584785,0.2878589375,0.6609979970364627
0.028,1.7804,1.0,2647.178009448985,0.2709470368464783,1.3256477358737297,0.9407279046179553,0.2878298,0.6618416840571223
0.0285,1.77969375,1.0,2656.4823230919014,0.2750364477871451,1.325242981940288,0.9423116708447651,0.2878001375,0.6626817688092778
0.029,1.778975,1.0,2665.092847511302,0.2791029219962743,1.3248391145889538,0.9438237515544025,0.28776995,0.6635189720442111
0.029500000000000002,1.7782437500000001,1.0,2673.04134796004,0.2831465864644233,1.32443581041807,0.9452684075805121,0.2877392375,0.664353969765211
0.03,1.7775,1.0,2680.3600647475146,0.2871675681821495,1.3240327460259806,0.9466495867187502,0.287708,0.6651874346392294
0.0305,1.77674375,1.0,2687.0816698835865,0.2911659941400104,1.3236295980110293,0.9479709506934272,0.2876762375,0.6660200360051645
0.031,1.775975,1.0,2693.2392260413203,0.2951419913285632,1.3232260429715594,0.94923589948277,0.28764395,0.6668524398754707
0.0315,1.7751937500000001,1.0,2698.8655304974945,0.2990956862277475,1.3228217631490657,0.950447593831988,0.2876111375,0.6676852973129097
0.032,1.7744,1.0,2703.984900954827,0.30302719753563756,1.322416521084164,0.9516089819564088,0.2875778,0.6685190909820944
0.0325,1.77359375,1.0,2708.641146159427,0.30693666329550906,1.3220099037459663,0.9527227943588433,0.2875439375,0.6693546616374795
0.033,1.772775,1.0,2712.854510123515,0.3108242039603906,1.3216017155537025,0.953791596807706,0.28750955,0.6701923997223068
0.0335,1.7719437500000002,1.0,2716.6454175498725,0.31468993998331096,1.3211917609266037,0.9548177832905,0.2874746375,0.6710326935997049
0.034,1.7711000000000001,1.0,2720.03445658813,0.3185339918172988,1.3207798442838998,0.9558035895571032,0.2874392,0.6718759295318781
0.0345,1.7702437500000001,1.0,2723.042362439675,0.3223564799153828,1.3203657700448215,0.9567511054431642,0.2874032375,0.6727224916568513
0.035,1.7693750000000001,1.0,2725.6900018101096,0.3261575247305917,1.319949342628599,0.9576622860963033,0.28736675,0.6735727619627785
0.035500000000000004,1.76849375,1.0,2727.998358210458,0.3299372467159541,1.3195303664544629,0.9585389622142672,0.2873297375,0.6744271202598109
0.036000000000000004,1.7676,1.0,2729.988518105727,0.3336957663244987,1.3191086459416437,0.9593828493922614,0.2872922,0.6752859441495239
0.0365,1.76669375,1.0,2731.6816579123843,0.33743320400925425,1.3186839855093713,0.9601955566661744,0.2872541375,0.6761496089919097
0.037,1.765775,1.0,2733.0890631532093,0.3411496741872008,1.3182562801289026,0.9609786020036797,0.28721555,0.6770183040768925
0.0375,1.76484375,1.0,2734.233644848934,0.34484530026550264,1.3178253197193106,0.9617334029496621,0.2871764375,0.6778924303103253
0.038,1.7639,1.0,2735.1359254413646,0.3485202018475335,1.3173909164305733,0.9624612934260738,0.28713679999999997,0.6787723410949007
0.0385,1.76294375,1.0,2735.8076481859125,0.35217449249503097,1.3169529625542369,0.9631635346746722,0.28709663750000003,0.6796582255360093
0.039,1.761975,1.0,2736.26059237123,0.35580828576973256,1.3165113503818477,0.9638413140731583,0.28705595,0.6805502712992959
0.0395,1.7609937500000001,1.0,2736.5065684465444,0.35942169523337586,1.3160659722049524,0.9644957502532182,0.2870147375,0.6814486645859001
0.04,1.76,1.0,2736.5574134048893,0.3630148344476984,1.315616720315097,0.9651278978112633,0.286973,0.6823535901069573
0.0405,1.7589937500000001,1.0,2736.4249864246326,0.36658781697443776,1.3151634870038285,0.9657387516482536,0.2869307375,0.6832652310573586
0.041,1.757975,1.0,2736.1211647674013,0.37014075637533145,1.314706164562693,0.966329250971417,0.28688795,0.6841837690887731
0.0415,1.75694375,1.0,2735.657839933809,0.373673766212117,1.3142446452832368,0.9669002829874528,0.2868446375,0.6851093842819282
0.042,1.7559,1.0,2735.0466908635576,0.3771869590014467,1.3137788234838659,0.9674526863097869,0.28680079999999997,0.6860422510621204
0.0425,1.75484375,1.0,2734.2983192243264,0.3806804412876064,1.3133086033339847,0.967987253966426,0.2867564375,0.6869825225666704
0.043000000000000003,1.753775,1.0,2733.423815110075,0.3841543340643508,1.3128338846130267,0.9685047384485918,0.28671155,0.6879303591770518
0.043500000000000004,1.75269375,1.0,2732.430025715339,0.38760874439638676,1.3123546056662223,0.969005853209057,0.28666613750000003,0.688885842854269
0.044,1.7516,1.0,2731.323801432332,0.3910437793484215,1.3118707048388016,0.9694912742713695,0.2866202,0.6898490544111897
0.0445,1.75049375,1.0,2730.111994411022,0.39445954598516214,1.3113821204759952,0.9699616425596993,0.2865737375,0.6908200734944924
0.045,1.7493750000000001,1.0,2728.801457201744,0.3978561513713158,1.3108887909230333,0.9704175660615634,0.28652675,0.6917989785663727
0.0455,1.74824375,1.0,2727.3990414829846,0.40123370257158947,1.3103906545251467,0.9708596218369285,0.2864792375,0.6927858468860046
0.046,1.7471,1.0,2725.911596873507,0.40459230665069035,1.3098876496275655,0.9712883578859925,0.2864312,0.6937807544907627
0.0465,1.7459437500000001,1.0,2724.3459698283345,0.4079320706733255,1.3093797145755202,0.9717042948868432,0.28638263750000004,0.6947837761771993
0.047,1.744775,1.0,2722.709002618951,0.411253101704202,1.3088667877142413,0.9721079278132205,0.28633355,0.6957949854817789
0.0475,1.74359375,1.0,2720.9971387448495,0.41455547248199426,1.308348902010753,0.9724997297794958,0.28628393750000003,0.6968142685866168
0.048,1.7424,1.0,2719.225053657247,0.4178393197310111,1.3078259244665689,0.9728801474941238,0.2862338,0.6978418374563209
0.0485,1.74119375,1.0,2717.403343703184,0.42110476762348464,1.3072977590916466,0.9732496071527472,0.2861831375,0.6988778292641975
0.049,1.739975,1.0,2715.5348080840295,0.4243519142554154,1.306764380836919,0.9736085163638056,0.28613195,0.6999222405922888
0.0495,1.73874375,1.0,2713.622243511462,0.42758085772280396,1.3062257646533189,0.973957263588934,0.2860802375,0.7009750671635528
0.05,1.7375,1.0,2711.6684439742817,0.43079169612165097,1.3056818854917793,0.9742962192123985,0.286028,0.7020363038335163
0.0505,1.73624375,1.0,2709.6762005192,0.4339845275479569,1.305132718303233,0.974625736541525,0.2859752375,0.7031059445818872
0.051000000000000004,1.734975,1.0,2707.6483010456363,0.4371594500977224,1.304578238038613,0.9749461527431397,0.28592195,0.7041839825041262
0.051500000000000004,1.73369375,1.0,2705.587530114102,0.44031656186694806,1.3040184196488522,0.9752577897206534,0.2858681375,0.7052704098029796
0.052000000000000005,1.7324,1.0,2703.496668768823,0.4434559609516345,1.3034532380848833,0.9755609549360353,0.2858138,0.7063652177799717
0.0525,1.73109375,1.0,2701.378494374339,0.44657774544778217,1.3028826682976393,0.9758559421805919,0.28575893750000003,0.7074683968268565
0.053,1.729775,1.0,2699.235780465587,0.44968201345139175,1.3023066852380534,0.9761430322981535,0.28570355000000003,0.7085799364170298
0.0535,1.72844375,1.0,2697.0712966124242,0.4527688630584638,1.3017252638570578,0.9764224938639926,0.2856476375,0.7096998250969033
0.054,1.7271,1.0,2694.8878082975993,0.45583839236499896,1.301138379105586,0.9766945838225358,0.2855912,0.7108280504772334
0.0545,1.7257437500000001,1.0,2692.6880768089345,0.45889069946699773,1.3005460059345708,0.9769595480867009,0.2855342375,0.7119645992244162
0.055,1.724375,1.0,2690.4748591451885,0.46192588246046073,1.2999481192949447,0.9772176221014679,0.28547675,0.7131094570517399
0.0555,1.72299375,1.0,2688.2509079362544,0.46494403944138857,1.299344694137641,0.9774690313741015,0.2854187375,0.7142626087105937
0.056,1.7216,1.0,2686.0189713764894,0.4679452685057818,1.2987357054135924,0.9777139919732556,0.2853602,0.7154240379816433
0.0565,1.72019375,1.0,2683.7817931729624,0.47092966774964096,1.298121128073732,0.9779527109990304,0.28530113749999997,0.7165937276659615
0.057,1.718775,1.0,2681.5352089423445,0.47389731079307923,1.2975010003784708,0.9781853884591392,0.28524155,0.7177715394572994
0.0575,1.71734375,1.0,2679.284096528821,0.47684830916493515,1.296875277695629,0.9784122148947376,0.2851814375,0.7189574920061965
0.058,1.7159,1.0,2677.033734896092,0.4797827696139217,1.2962439116367157,0.9786333724721731,0.2851208,0.7201516097518424
0.0585,1.71444375,1.0,2674.784768440551,0.48270078077233725,1.2956068962870582,0.9788490368351248,0.2850596375,0.7213538356745295
0.059000000000000004,1.7129750000000001,1.0,2672.5378404756284,0.4856024312724804,1.2949642257319829,0.9790593766475469,0.28499795,0.722564112048252
0.059500000000000004,1.71149375,1.0,2670.293593232656,0.4884878097466495,1.2943158940568176,0.9792645539238445,0.2849357375,0.7237823804385719
0.06,1.71,1.0,2668.052667862896,0.4913570048271431,1.2936618953468888,0.9794647243409386,0.284873,0.7250085817004877
0.0605,1.7084937500000001,1.0,2665.8157044397653,0.4942101051462598,1.2930022236875236,0.9796600375333433,0.2848097375,0.7262426559762959
0.061,1.7069750000000001,1.0,2663.583341962151,0.49704719933629793,1.2923368731640492,0.9798506373723047,0.28474595,0.7274845426934522
0.0615,1.7054437500000001,1.0,2661.356218358252,0.499868376029556,1.2916658378617925,0.9800366622299739,0.2846816375,0.7287341805624318
0.062,1.7039,1.0,2659.1349704909708,0.5026737238583325,1.2909891118660803,0.9802182452295285,0.2846168,0.7299915075745849
0.0625,1.70234375,1.0,2656.9202341627138,0.5054633314549261,1.2903066892622401,0.9803955144820855,0.2845514375,0.731256460999991
0.063,1.7007750000000001,1.0,2654.7126441224027,0.508237287451635,1.2896185641355986,0.9805685933111972,0.28448555,0.732528977385313
0.0635,1.69919375,1.0,2652.5128340723168,0.5109956804807578,1.288924730571483,0.9807376004656716,0.28441913750000003,0.7338089925516452
0.064,1.6976,1.0,2650.3214366758375,0.5137385991745932,1.2882251826552202,0.9809026503213996,0.2843522,0.7350964415923626
0.0645,1.69599375,1.0,2648.1390835665934,0.5164661321654394,1.2875199144721372,0.9810638530728398,0.2842847375,0.736391258870966
0.065,1.694375,1.0,2645.9664053574943,0.5191783680855948,1.286808920107561,0.9812213149147566,0.28421675,0.7376933780189245
0.0655,1.69274375,1.0,2643.803673056044,0.5218753848448249,1.2860921969587182,0.9813751376305306,0.2841482375,0.7390027258907333
0.066,1.6911,1.0,2641.651314359769,0.5245572548804659,1.2853697409712554,0.9815254189262081,0.2840792,0.7403192313073934
0.0665,1.6894437500000001,1.0,2639.510946212554,0.5272240986959643,1.2846415370921447,0.9816722557848417,0.2840096375,0.7416428423527464
0.067,1.687775,1.0,2637.382529328008,0.5298759964099936,1.283907585559685,0.9818157397591989,0.28393955,0.7429734785129787
0.0675,1.68609375,1.0,2635.2660245314696,0.5325130281412273,1.2831678866121763,0.9819559592039988,0.2838689375,0.7443110586466635
0.068,1.6844000000000001,1.0,2633.1613927593326,0.5351352740083386,1.282422440487918,0.9820929994084641,0.2837978,0.7456555009848481
0.0685,1.68269375,1.0,2631.0685950583797,0.537742814130001,1.2816712474252094,0.9822269427224772,0.2837261375,0.747006723131143
0.069,1.680975,1.0,2628.9875925854044,0.540335728624888,1.2809143076623501,0.9823578686766976,0.28365395,0.7483646420618064
0.0695,1.67924375,1.0,2626.918346606481,0.5429140976116729,1.2801516214376398,0.9824858540969615,0.28358123749999997,0.7497291741258334
0.07,1.6775,1.0,2624.860818496783,0.5454780012090292,1.2793831889893776,0.9826109732132805,0.283508,0.7511002350450436
0.07050000000000001,1.67574375,1.0,2622.8149697396298,0.5480275195356302,1.2786090105558634,0.9827332977637201,0.2834342375,0.7524777399141671
0.07100000000000001,1.673975,1.0,2620.7807619262103,0.5505627327101495,1.2778290863753965,0.9828528970934397,0.28335995,0.7538616032009327
0.07150000000000001,1.67219375,1.0,2618.758156754989,0.5530837208512605,1.2770434166862763,0.9829698382491435,0.2832851375,0.7552517387461553
0.07200000000000001,1.6704,1.0,2616.7471160311716,0.5555905640776363,1.2762520017268026,0.9830841860691878,0.2832098,0.7566480597638222
0.0725,1.66859375,1.0,2614.747601666177,0.5580833425079506,1.2754548417352747,0.9831960032695687,0.2831339375,0.7580504788411824
0.073,1.6667750000000001,1.0,2612.7595756771752,0.5605621362608767,1.2746519369499918,0.9833053505260068,0.28305755,0.7594589079388321
0.0735,1.66494375,1.0,2610.7830001864286,0.5630270254550882,1.273843287609254,0.9834122865523276,0.2829806375,0.7608732583908016
0.074,1.6631,1.0,2608.817837420735,0.5654780902092582,1.2730288939513605,0.9835168681753299,0.2829032,0.7622934409046451
0.0745,1.6612437500000001,1.0,2606.864049711162,0.5679154106420605,1.2722087562146107,0.983619150406318,0.2828252375,0.7637193655615262
0.075,1.659375,1.0,2604.924116256966,0.5703390633107547,1.271382851220234,0.9837191852857476,0.28274675,0.7651509823455876
0.0755,1.65749375,1.0,2602.9922407771255,0.5727491216421963,1.270551232782894,0.9838170263794541,0.2826677375,0.7665881072693121
