Time [s],Phi [rad],STIM [ ],Fsee [N],Gamma [ ],Lcerel [ ],q [ ],Lmtc [m],fisomrel [ ]
0.0,1.8,1.0,20.178253589255306,0.001519842985220714,1.3790992150641166,0.005590993678650975,0.288653,0.5417212536280953
0.0005,1.79999375,1.0,20.905525222436225,0.0071205271766982174,1.3790201879432953,0.01765691305947794,0.2886527375,0.5419122995262409
0.001,1.799975,1.0,25.38164487697235,0.012689795958318846,1.3785693527119656,0.04390215089520024,0.28865195,0.5430014196021793
0.0015,1.79994375,1.0,37.48962979430828,0.01822782554565748,1.3775248771171171,0.08167153052852967,0.2886506375,0.5455196656814592
0.002,1.7999,1.0,65.11084671576037,0.023734791165792305,1.3756566321776447,0.1276471636475572,0.2886488,0.5500066795310898
0.0025,1.79984375,1.0,114.57706118724671,0.02921086706331928,1.3731286498236897,0.17852596124241252,0.28864643749999996,0.556042763650352
0.003,1.7997750000000001,1.0,182.49784701684095,0.034656226504690975,1.3704333997502078,0.231597531074202,0.28864354999999997,0.5624333429512205
0.0035,1.79969375,1.0,261.3945818708357,0.04007104178453376,1.3678717247653227,0.2847993231224128,0.2886401375,0.5684642669585034
0.004,1.7996,1.0,346.330759519797,0.04545548422939411,1.365509804446843,0.3366141384488841,0.2886362,0.573987827975863
0.0045000000000000005,1.7994937500000001,1.0,434.7753348144912,0.05080972421786816,1.3633331034905172,0.3860114413743034,0.2886317375,0.579046734400348
0.005,1.799375,1.0,525.2552937316917,0.056133931146533665,1.3613161320735079,0.4323706721961215,0.28862675,0.5837074384676002
0.0055,1.79924375,1.0,616.730268692053,0.06142827349679682,1.3594374774078233,0.4753862212372908,0.2886212375,0.5880251907994277
0.006,1.7991000000000001,1.0,708.3618730745235,0.06669291873195687,1.3576810086469993,0.5149770731912893,0.2886152,0.5920417603739325
0.006500000000000001,1.79894375,1.0,799.4789462248897,0.07192803354376343,1.3560338391402076,0.5512114864397121,0.2886086375,0.5957905146271837
0.007,1.798775,1.0,889.4973297157995,0.0771337833696881,1.3544860755272186,0.5842506112179281,0.28860155,0.5992972648511197
0.0075,1.79859375,1.0,977.9749899900555,0.08231033322590339,1.3530288148003127,0.6143067914353562,0.2885939375,0.6025849997470872
0.008,1.7984,1.0,1064.525089664658,0.08745784666511361,1.3516548839378217,0.6416162704629516,0.2885858,0.6056723297279245
0.0085,1.79819375,1.0,1148.8472409853823,0.09257648643951095,1.3503578242677095,0.6664203348204357,0.2885771375,0.6085758768316225
0.009000000000000001,1.797975,1.0,1230.7358880976717,0.0976664149989886,1.3491314731958917,0.6889537238772565,0.28856795,0.6113112704849055
0.0095,1.79774375,1.0,1310.0126956845043,0.10272779302998405,1.3479706567775416,0.7094384153516188,0.2885582375,0.61389165185525
0.01,1.7975,1.0,1386.5537537145958,0.10776078055110253,1.346870576518635,0.7280798469840846,0.288548,0.6163290916633601
0.0105,1.79724375,1.0,1460.2949718793084,0.11276553690664504,1.3458265965155278,0.7450654710161452,0.2885372375,0.6186350929288467
0.011,1.796975,1.0,1531.2045650132393,0.1177422210119034,1.3448344756990245,0.7605648398513334,0.28852595000000003,0.6208201032186828
0.0115,1.79669375,1.0,1599.2479362059598,0.12269098957882665,1.343890669796577,0.7747304581534962,0.2885141375,0.6228928801876967
0.012,1.7964,1.0,1664.4345895817419,0.12761199920234909,1.3429916556714465,0.7876986105545942,0.28850180000000003,0.6248620029966833
0.0125,1.79609375,1.0,1726.8022603148152,0.13250540569300973,1.342134063890403,0.7995907914785396,0.2884889375,0.6267355941512682
0.013000000000000001,1.7957750000000001,1.0,1786.4094192402779,0.13737136501893052,1.3413147072822857,0.8105151375665298,0.28847555,0.6285212710229835
0.0135,1.79544375,1.0,1843.288450368648,0.14221002994627607,1.340531047145182,0.8205679849994609,0.2884616375,0.6302251464611157
0.014,1.7951000000000001,1.0,1897.4978613715202,0.14702155324121102,1.3397805447771782,0.8298349098593351,0.2884472,0.6318532569863647
0.0145,1.79474375,1.0,1949.116487786603,0.15180608739021195,1.3390606995568444,0.8383919616304165,0.2884322375,0.6334114860204825
0.015,1.794375,1.0,1998.2283624470308,0.15656378411658917,1.3383691848827033,0.8463068117689411,0.28841675,0.6349052765363998
0.0155,1.79399375,1.0,2044.924015084318,0.16129479510598682,1.3377038041194529,0.8536397200232991,0.2884007375,0.6363397343215886
0.016,1.7936,1.0,2089.2665478467034,0.16599926871100637,1.3370628185248048,0.8604445061406306,0.2883842,0.6377189297452631
0.0165,1.7931937500000001,1.0,2131.332445686769,0.1706773532842492,1.3364444893564709,0.8667691704918464,0.2883671375,0.6390468927986721
0.017,1.792775,1.0,2171.2104518050874,0.1753291971783168,1.335847077872163,0.8726565836190795,0.28834955,0.6403276157038562
0.0175,1.7923437500000001,1.0,2208.9846335612224,0.17995494725807215,1.3352690057452348,0.8781451350857293,0.2883314375,0.641564712329725
0.018000000000000002,1.7919,1.0,2244.7554399513897,0.18455475204439092,1.334708627656648,0.8832691990883985,0.2883128,0.6427619087123833
0.0185,1.79144375,1.0,2278.5948618361735,0.18912875606061647,1.334164671453032,0.8880597119030816,0.2882936375,0.643922105716477
0.019,1.790975,1.0,2310.5744714269917,0.19367710300991145,1.3336359400443494,0.8925444922425593,0.28827395,0.6450480213989902
0.0195,1.79049375,1.0,2340.772217807237,0.1981999365954384,1.3331212363405633,0.8967485795876561,0.2882537375,0.6461423529940515
0.02,1.79,1.0,2369.2718889031307,0.20269740052035984,1.332619363251637,0.9006945488626844,0.288233,0.6472077780295777
0.0205,1.78949375,1.0,2396.1442288691746,0.20716963617118753,1.3321293019621403,0.9044028248608879,0.2882117375,0.6482465777364204
0.021,1.788975,1.0,2421.4811862339066,0.21161678827431135,1.3316498721655918,0.9078918481742031,0.28818995000000003,0.6492613593512329
0.021500000000000002,1.78844375,1.0,2445.3424140749635,0.21603899596819243,1.331180246109121,0.9111783960097973,0.2881676375,0.6502539687088715
0.022,1.7879,1.0,2467.7884657919562,0.22043639803077358,1.3307196192853523,0.9142776945341952,0.2881448,0.651226190751759
0.0225,1.78734375,1.0,2488.882909360197,0.22480913323999765,1.3302671871869103,0.9172035795516957,0.28812143749999997,0.652179799322852
0.023,1.786775,1.0,2508.6920732916124,0.22915734037380736,1.329822145306419,0.9199686427165996,0.28809755,0.653116557606733
0.0235,1.78619375,1.0,2527.2774491556374,0.23348115649021176,1.3293837586402133,0.922584372640968,0.28807313749999996,0.654038072525656
0.024,1.7856,1.0,2544.7049251146877,0.23778072060482214,1.3289512714511547,0.9250612530821365,0.2880482,0.654945985365653
0.0245,1.78499375,1.0,2561.032150422664,0.242056169460257,1.3285240243441785,0.9274088828479427,0.2880227375,0.655841726494597
0.025,1.784375,1.0,2576.305979648609,0.24630763658780896,1.3281014749952817,0.9296360665198907,0.28799675,0.6567264735520424
0.025500000000000002,1.78374375,1.0,2590.574692761105,0.2505352555187707,1.3276830810804605,0.9317508739785153,0.2879702375,0.6576013978750521
0.026000000000000002,1.7831000000000001,1.0,2603.8878740236273,0.2547391597844348,1.327268300275712,0.9337607116748532,0.2879432,0.658467664651296
0.0265,1.78244375,1.0,2616.29629741145,0.2589194829160938,1.3268565902570322,0.9356723861185522,0.2879156375,0.6593264330534011
0.027,1.781775,1.0,2627.844835169007,0.2630763564689549,1.326447473392768,0.9374921696269627,0.28788755,0.6601787216692538
0.0275,1.7810937500000001,1.0,2638.5788213272467,0.2672099135101166,1.326040476315676,0.9392258422171209,0.2878589375,0.6610255350887985
0.028,1.7804,1.0,2648.549446169167,0.2713202878716278,1.3256350793237046,0.9408787290310919,0.2878298,0.6618679691130249
0.0285,1.77969375,1.0,2657.7899927190656,0.2754076073480179,1.3252309349512998,0.942455770368458,0.2878001375,0.6627067568581102
0.029,1.778975,1.0,2666.3343338932,0.27947199973381637,1.3248276957329075,0.9439615338144602,0.28776995,0.663542627821587
0.029500000000000002,1.7782437500000001,1.0,2674.216880698825,0.28351359282355254,1.324425014202973,0.9454002471601741,0.2877392375,0.6643763079062526
0.03,1.7775,1.0,2681.4725331099203,0.28753251441175587,1.3240225428959422,0.9467758280223284,0.287708,0.6652085194363753
0.0305,1.77674375,1.0,2688.1366336200886,0.29152889229295587,1.3236199343462611,0.9480919105295531,0.2876762375,0.6660399811662042
0.031,1.775975,1.0,2694.244287351274,0.2955028538484632,1.3232168469081804,0.9493518700024481,0.28764395,0.6668713962842279
0.0315,1.7751937500000001,1.0,2699.8235389267925,0.2994545226784052,1.3228130067095902,0.9505588512800945,0.2876111375,0.6677033249333995
0.032,1.7744,1.0,2704.9104819171826,0.3033840296122048,1.3224080690255526,0.9517157741693503,0.2875778,0.6685364701122911
0.0325,1.77359375,1.0,2709.5276199626637,0.3072914966383916,1.3220018157296411,0.9528253706391685,0.2875439375,0.6693712712589739
0.033,1.772775,1.0,2713.6976671978296,0.3111770457454954,1.3215940286954293,0.953890187598707,0.28750955,0.6702081655211843
0.0335,1.7719437500000002,1.0,2717.443527840336,0.3150407989220459,1.3211844897964908,0.9549126016524596,0.2874746375,0.6710475877365047
0.034,1.7711000000000001,1.0,2720.7882768349837,0.31888287815657285,1.3207729809063993,0.9558948325119525,0.2874392,0.6718899704095116
0.0345,1.7702437500000001,1.0,2723.7551415521784,0.322703405437606,1.3203592838987281,0.9568389552005087,0.2874032375,0.6727357436858868
0.035,1.7693750000000001,1.0,2726.3674845417136,0.32650250275367504,1.3199431806470514,0.9577469111723796,0.28736675,0.6735853353234957
0.035500000000000004,1.76849375,1.0,2728.631692145818,0.33028028141076815,1.3195246084382888,0.9586205322175309,0.2873297375,0.6744388539616015
0.036000000000000004,1.7676,1.0,2730.588919012349,0.3340368758631444,1.319103189312594,0.9594615079192901,0.2872922,0.6752970490131722
0.0365,1.76669375,1.0,2732.257931082268,0.3377724048859414,1.3186787497722616,0.9602714402299992,0.2872541375,0.6761602501389932
0.037,1.765775,1.0,2733.6520400026025,0.34148698361742486,1.31825116650646,0.9610518370766974,0.28721555,0.6770286830908083
0.0375,1.76484375,1.0,2734.784614290535,0.3451807271958604,1.3178203162043571,0.9618041150199287,0.2871764375,0.6779025720910792
0.038,1.7639,1.0,2735.669072662813,0.3488537507595138,1.317386075555121,0.9625296057966627,0.28713679999999997,0.6787821398077776
0.0385,1.76294375,1.0,2736.318877702911,0.3525061694466507,1.3169483212479196,0.963229562325721,0.28709663750000003,0.6796676073282065
0.039,1.761975,1.0,2736.7475298643058,0.35613809839553684,1.316506929971921,0.9639051642252268,0.28705595,0.6805591941318543
0.0395,1.7609937500000001,1.0,2736.9685618124267,0.3597496527444379,1.3160617784162931,0.9645575228865607,0.2870147375,0.6814571180622768
0.04,1.76,1.0,2736.9955331020587,0.3633409476316195,1.315612743270204,0.9651876861448369,0.286973,0.6823615952980111
0.0405,1.7589937500000001,1.0,2736.8420251932566,0.36691209819534737,1.3151597012228218,0.9657966425819201,0.2869307375,0.6832728403225183
0.041,1.757975,1.0,2736.5203872245443,0.3704632170189217,1.3147025403069337,0.9663853260268255,0.28688795,0.6841910431261569
0.0415,1.75694375,1.0,2736.0400940677628,0.3739944118617431,1.3142411747715599,0.9669546200730483,0.2868446375,0.6851163395350446
0.042,1.7559,1.0,2735.4170560514817,0.37750580730397937,1.3137754605334588,0.967505357916979,0.28680079999999997,0.6860489807621678
0.0425,1.75484375,1.0,2734.6586337700846,0.38099751119149183,1.313305331193672,0.9680383312796084,0.2867564375,0.6869890607322178
0.043000000000000003,1.753775,1.0,2733.772194198166,0.38446963137014184,1.3128307203532408,0.9685542894998411,0.28671155,0.6879366722043128
0.043500000000000004,1.75269375,1.0,2732.7651089292794,0.3879222756857907,1.3123515616132067,0.9690539422251909,0.28666613750000003,0.6888919067531607
0.044,1.7516,1.0,2731.644752510759,0.3913555519842996,1.311867788574611,0.9695379619057348,0.2866202,0.6898548547499417
0.0445,1.75049375,1.0,2730.418500878261,0.3947695681115301,1.3113793348384957,0.9700069861075343,0.2865737375,0.6908256053429082
0.045,1.7493750000000001,1.0,2729.0937298863837,0.39816443191334333,1.3108861340059015,0.9704616196602315,0.28652675,0.6918042464377063
0.0455,1.74824375,1.0,2727.677813937658,0.4015402512356007,1.3103881196778702,0.9709024366522169,0.2864792375,0.6927908646774112
0.046,1.7471,1.0,2726.1781247097842,0.4048971339241635,1.3098852254554434,0.9713299822855574,0.2864312,0.6937855454222864
0.0465,1.7459437500000001,1.0,2724.602029979797,0.40823518782489304,1.3093773849396622,0.9717447746017963,0.28638263750000004,0.6947883727292605
0.047,1.744775,1.0,2722.9476626552078,0.4115545023367388,1.3088646157286001,0.972147309734706,0.28633355,0.6957992638738016
0.0475,1.74359375,1.0,2721.2256234514966,0.41485519701612206,1.3083468219723413,0.9725380554333904,0.28628393750000003,0.6968183589909351
0.048,1.7424,1.0,2719.4484226864024,0.41813739151098744,1.3078238903359378,0.9729174555539195,0.2862338,0.6978458307986242
0.0485,1.74119375,1.0,2717.619297053357,0.42140118534058607,1.3072957918321837,0.9732859360238305,0.2861831375,0.6988816847009924
0.049,1.739975,1.0,2715.7414805476556,0.4246466780241689,1.306762497473874,0.9736439025840753,0.28613195,0.6999259252027787
0.0495,1.73874375,1.0,2713.818204168732,0.42787396908098696,1.3062239782738034,0.973991741926462,0.2860802375,0.7009785558997614
0.05,1.7375,1.0,2711.852695640778,0.4310831580302913,1.3056802052447667,0.9743298227570588,0.286028,0.7020395794691241
0.0505,1.73624375,1.0,2709.848179151759,0.434274344391333,1.3051311493995583,0.974658496791006,0.2859752375,0.7031089976597718
0.051000000000000004,1.734975,1.0,2707.8078751113503,0.43744762768336304,1.3045767817509732,0.9749780996837287,0.28592195,0.7041868112825893
0.051500000000000004,1.73369375,1.0,2705.7349999272847,0.44060310742563247,1.304017073311806,0.9752889519031451,0.2858681375,0.7052730202006505
0.052000000000000005,1.7324,1.0,2703.6327658003506,0.44374088313739235,1.3034519950948513,0.9755913595470965,0.2858138,0.7063676233193696
0.0525,1.73109375,1.0,2701.504380538389,0.4468610543378936,1.302881518112904,0.9758856151098833,0.28575893750000003,0.7074706185766025
0.053,1.729775,1.0,2699.3530473881615,0.4499637205463874,1.3023056133787587,0.9761719982014939,0.28570355000000003,0.7085820029326928
0.0535,1.72844375,1.0,2697.1819648868336,0.45304898128212473,1.30172425190521,0.9764507762228221,0.2856476375,0.7097017723604637
0.054,1.7271,1.0,2694.9943267311714,0.4561169360643566,1.3011374047050526,0.9767222049999215,0.2855912,0.7108299218351575
0.0545,1.7257437500000001,1.0,2692.7933216659517,0.4591676844123341,1.3005450427910814,0.9769865293801087,0.2855342375,0.711966445324321
0.055,1.724375,1.0,2690.576196933817,0.4622013122263324,1.2999471915251217,0.9772439857283752,0.28547675,0.7131112318118366
0.0555,1.72299375,1.0,2688.3450505712403,0.4652179204540372,1.2993438318840234,0.9774947992719939,0.2854187375,0.7142642548245841
0.056,1.7216,1.0,2686.1087119199947,0.4682176203256894,1.2987348831370364,0.9777391831594059,0.2853602,0.7154256045825931
0.0565,1.72019375,1.0,2683.8681286073215,0.4712005028780321,1.2981203366676881,0.9779773439952342,0.28530113749999997,0.7165952323505878
0.057,1.718775,1.0,2681.62424670853,0.4741666591478084,1.2975001838595053,0.9782094799031472,0.28524155,0.717773088659313
0.0575,1.71734375,1.0,2679.3780107381335,0.47711618017176144,1.296874416096015,0.9784357809403336,0.2851814375,0.7189591233024557
0.058,1.7159,1.0,2677.1303636438133,0.4800491569866343,1.2962430247607446,0.9786564294885054,0.2851208,0.7201532853335615
0.0585,1.71444375,1.0,2674.8822468013723,0.48296568062917017,1.2956060012372206,0.9788716006229314,0.2850596375,0.7213555230629476
0.059000000000000004,1.7129750000000001,1.0,2672.6346000110752,0.48586584213611206,1.2949633369089704,0.9790814624609027,0.28499795,0.7225657840546086
0.059500000000000004,1.71149375,1.0,2670.388361496514,0.4887497325442032,1.294315023159521,0.9792861764909223,0.2849357375,0.7237840151231205
0.06,1.71,1.0,2668.1444679041433,0.49161744289018655,1.2936610513723994,0.9794858978838367,0.284873,0.7250101623305389
0.0605,1.7084937500000001,1.0,2665.903854305308,0.49446906421080544,1.2930014129311325,0.9796807757870198,0.2848097375,0.7262441709832909
0.061,1.7069750000000001,1.0,2663.66745419907,0.4973046875428028,1.2923360992192476,0.979870953602668,0.28474595,0.7274859856290632
0.0615,1.7054437500000001,1.0,2661.436199517562,0.5001244039229219,1.2916651016202716,0.9800565692511669,0.2846816375,0.7287355500536883
0.062,1.7039,1.0,2659.2110206325256,0.5029283043879057,1.2909884115177317,0.9802377554204458,0.2846168,0.7299928072780205
0.0625,1.70234375,1.0,2656.992846363083,0.5057164799744974,1.2903060202951546,0.9804146398021627,0.2845514375,0.7312576995548128
0.063,1.7007750000000001,1.0,2654.781760882092,0.5084889977129263,1.28961792710666,0.9805873439247053,0.28448555,0.7325301540128872
0.0635,1.69919375,1.0,2652.5793818393836,0.5112459714510881,1.2889241169657693,0.9807559875644349,0.28441913750000003,0.7338101232000973
0.064,1.6976,1.0,2650.386277018373,0.5139874923637731,1.2882245845456552,0.9809206848976332,0.2843522,0.7350975410187641
0.0645,1.69599375,1.0,2648.202716896721,0.5167136435738418,1.2875193272545886,0.9810815454877015,0.2842847375,0.7363923356347857
0.065,1.694375,1.0,2646.0289715303916,0.5194245082041543,1.2868083425008394,0.9812386749320373,0.28421675,0.737694434540565
0.0655,1.69274375,1.0,2643.865310558115,0.522120169377571,1.2860916276926784,0.9813921750326036,0.2841482375,0.7390037645540621
0.066,1.6911,1.0,2641.7120032065145,0.524800710216952,1.285369180238376,0.9815421439579733,0.2840792,0.7403202518178484
0.0665,1.6894437500000001,1.0,2639.569318294994,0.5274662138451576,1.2846409975462025,0.9816886763973282,0.2840096375,0.7416438217981592
0.067,1.687775,1.0,2637.4375242405804,0.530116763385048,1.2839070770244285,0.981831863706865,0.28393955,0.7429743992839453
0.0675,1.68609375,1.0,2635.316889063564,0.5327524419594836,1.2831674160813245,0.981971794049039,0.2838689375,0.744311908385925
0.068,1.6844000000000001,1.0,2633.2076803926366,0.5353733326913244,1.2824220121251606,0.9821085525250345,0.2837978,0.7456562725356366
0.0685,1.68269375,1.0,2631.1101654703457,0.5379795187034309,1.281670862564208,0.9822422213008422,0.2837261375,0.7470074144844869
0.069,1.680975,1.0,2629.0246111592746,0.5405710831186631,1.2809139648067362,0.9823728797272925,0.28365395,0.7483652563028054
0.0695,1.67924375,1.0,2626.9512839472745,0.5431481090598814,1.2801513162610165,0.9825006044543733,0.28358123749999997,0.7497297193788901
0.07,1.6775,1.0,2624.890449953946,0.545710679649946,1.2793829143353188,0.9826254695401377,0.283508,0.751100724418061
0.07050000000000001,1.67574375,1.0,2622.842374936458,0.5482588780117172,1.2786087564379138,0.9827475465545006,0.2834342375,0.7524781914417067
0.07100000000000001,1.673975,1.0,2620.807714302455,0.5507927630459895,1.2778288363592967,0.9828669030373306,0.28335995,0.7538620461965535
0.07150000000000001,1.67219375,1.0,2618.78650860354,0.553312392566822,1.2770431535868587,0.9829836044978808,0.2832851375,0.7552522036053834
0.07200000000000001,1.6704,1.0,2616.777170406243,0.5558179170152182,1.2762517227211796,0.9830977205030652,0.2832098,0.7566485513188155
0.0725,1.66859375,1.0,2614.7795767691537,0.5583094103239534,1.275454544785421,0.983209313185312,0.2831339375,0.7580510005008178
0.073,1.6667750000000001,1.0,2612.793604988902,0.5607869464258034,1.2746516208027445,0.9833184426620514,0.28305755,0.7594594617041628
0.0735,1.66494375,1.0,2610.8191325975044,0.5632505992535435,1.2738429517963117,0.9834251671127293,0.2829806375,0.7608738448708001
0.074,1.6631,1.0,2608.8560373602754,0.5657004427399492,1.2730285387892841,0.9835295428523861,0.2829032,0.7622940593322334
0.0745,1.6612437500000001,1.0,2606.904197273581,0.5681365508177961,1.2722083828048236,0.9836316244019708,0.2828252375,0.7637200138098935
0.075,1.659375,1.0,2604.9634905625694,0.5705589974198596,1.2713824848660917,0.9837314645555595,0.28274675,0.765151616415515
0.0755,1.65749375,1.0,2603.03379567903,0.5729678564789152,1.27055084599625,0.9838291144446304,0.2826677375,0.7665887746515097
