Time [s],Phi [rad],STIM [ ],Fsee [N],Gamma [ ],Lcerel [ ],q [ ],Lmtc [m],fisomrel [ ]
0.0,1.8,1.0,18.501097998677132,0.0007444654191524176,1.3792803650380876,0.005142730295907532,0.288653,0.5412831782416296
0.0005,1.79999375,1.0,19.03407429318158,0.006349498865725294,1.3792191170151986,0.015104661711568577,0.2886527375,0.5414313178897102
0.001,1.799975,1.0,22.921260637927823,0.011923092506257517,1.378807178897769,0.039537936197794304,0.28865195,0.5424270446923267
0.0015,1.79994375,1.0,33.59289326747561,0.017465422693947324,1.377835394079537,0.07591319768976497,0.2886506375,0.5447717314437533
0.002,1.7999,1.0,58.51259936421201,0.02297666479128816,1.3760553221940341,0.12096507588911004,0.2886488,0.5490510033467513
0.0025,1.79984375,1.0,104.98208687339344,0.02845699317788941,1.373563634716847,0.17134363295126676,0.28864643749999996,0.5550070497995476
0.003,1.7997750000000001,1.0,170.9199293495469,0.033906581256291285,1.3708470629836036,0.2242455046950775,0.28864354999999997,0.5614555353202652
0.0035,1.79969375,1.0,248.79288949681052,0.03932560145408374,1.3682464383883686,0.27752777360389674,0.2886401375,0.5675846958363567
0.004,1.7996,1.0,333.201635642429,0.04471422523361314,1.3658480665205313,0.32960230965316545,0.2886362,0.573198954793332
0.0045000000000000005,1.7994937500000001,1.0,421.36532765855173,0.05007262309589022,1.363640905990762,0.3793754804169126,0.2886317375,0.5783331999050314
0.005,1.799375,1.0,511.7043563214818,0.055400964534705464,1.3615987502290308,0.4261758432765978,0.28862675,0.5830559433443974
0.0055,1.79924375,1.0,603.1727735534892,0.060699418300983105,1.3596981683138543,0.4696595200798059,0.2886212375,0.5874273842846243
0.006,1.7991000000000001,1.0,694.8848447016541,0.06596815186159598,1.3579226295531,0.5097196994855406,0.2886152,0.5914904057837831
0.006500000000000001,1.79894375,1.0,786.149880503961,0.07120733197187849,1.3562586437202604,0.5464077782342002,0.2886086375,0.595279906806762
0.007,1.798775,1.0,876.3947207113104,0.07641712448014851,1.3546954776453544,0.5798746017638325,0.28860155,0.5988237185520853
0.0075,1.79859375,1.0,965.1281768693943,0.0815976940356283,1.3532245424701104,0.6103276580719016,0.2885939375,0.6021442047091237
0.008,1.7984,1.0,1051.9888244477688,0.08674920492372844,1.3518378884879705,0.638000838569262,0.2885858,0.6052617991847145
0.0085,1.79819375,1.0,1136.659122723649,0.09187181979854812,1.3505290422448912,0.6631355967031347,0.2885771375,0.6081932096392835
0.009000000000000001,1.797975,1.0,1218.9008036068437,0.09696570066949206,1.349292065291942,0.6859682021589636,0.28856795,0.6109536132783473
0.0095,1.79774375,1.0,1298.5571930689935,0.10203100919389456,1.3481212884621945,0.7067224476618084,0.2885582375,0.6135572975746861
0.01,1.7975,1.0,1375.4954019154982,0.1070679053114432,1.3470118881618167,0.7256061837759127,0.288548,0.6160164205177641
0.0105,1.79724375,1.0,1449.6286807446195,0.11207654823379079,1.3459593896864808,0.7428094576983719,0.2885372375,0.61834215780535
0.011,1.796975,1.0,1520.920523616746,0.11705709648876891,1.3449594917119276,0.7585042441315141,0.28852595000000003,0.6205451182329353
0.0115,1.79669375,1.0,1589.3671527089575,0.12200970838254448,1.3440081847768661,0.7728451619118,0.2885141375,0.6226351046126453
0.012,1.7964,1.0,1654.954440471786,0.1269345397819013,1.3431021624477173,0.7859707577826008,0.28850180000000003,0.62462023636384
0.0125,1.79609375,1.0,1717.7080329850396,0.1318317465093921,1.3422381289211769,0.7980045187731771,0.2884889375,0.6265084920680227
0.013000000000000001,1.7957750000000001,1.0,1777.6684803167286,0.13670148336221313,1.3414130375437985,0.80905639677047,0.28847555,0.6283071996017757
0.0135,1.79544375,1.0,1834.9198363418543,0.14154390593699914,1.340623716904626,0.8192240571661003,0.2884616375,0.6300238631443789
0.014,1.7951000000000001,1.0,1889.5038394573457,0.1463591663370619,1.339867785690225,0.8285945537987711,0.2884472,0.6316641844707376
0.0145,1.79474375,1.0,1941.4794701195283,0.15114741637785467,1.3391429272894086,0.8372452517410005,0.2884322375,0.6332336571096011
0.015,1.794375,1.0,1990.9266522741834,0.15590880787483077,1.3384468250909898,0.8452449241397735,0.28841675,0.6347377123272608
0.0155,1.79399375,1.0,2037.925076292625,0.16064349141150783,1.3377773660412966,0.8526548247988268,0.2884007375,0.6361812850452933
0.016,1.7936,1.0,2082.578913914631,0.16535161826566616,1.337132354716492,0.8595294849402694,0.2883842,0.6375694368728108
0.0165,1.7931937500000001,1.0,2124.955580750675,0.17003333626101347,1.3365101332317524,0.8659176945875598,0.2883671375,0.6389060275266207
0.017,1.792775,1.0,2165.1305236355597,0.17468879295869716,1.3359090846578352,0.8718630315715593,0.28834955,0.6401947922332121
0.0175,1.7923437500000001,1.0,2203.190078387761,0.17931813591986465,1.335327592065498,0.8774044653789433,0.2883314375,0.6414394323965403
0.018000000000000002,1.7919,1.0,2239.2156318641487,0.1839215113544144,1.3347641881096033,0.8825769377540122,0.2883128,0.6426432983396625
0.0185,1.79144375,1.0,2273.3085715160387,0.1884990668853596,1.3342172921916369,0.8874117645003321,0.2882936375,0.6438099540819198
0.019,1.790975,1.0,2305.539943027644,0.19305094628293212,1.333685704923431,0.8919371761177503,0.28827395,0.644942124775998
0.0195,1.79049375,1.0,2335.980775032673,0.19757729268779575,1.3331682903377395,0.8961785918903752,0.2882537375,0.6460423798259811
0.02,1.79,1.0,2364.7078342877617,0.20207824924061427,1.3326639124673163,0.9001589235082089,0.288233,0.6471132695852606
0.0205,1.78949375,1.0,2391.8004194607156,0.2065539586162252,1.3321714617698786,0.9038988618884394,0.2882117375,0.648157270362443
0.021,1.788975,1.0,2417.333907265232,0.21100456263646547,1.3316899123576362,0.9074171353380066,0.28818995000000003,0.6491766646689527
0.021500000000000002,1.78844375,1.0,2441.38849640941,0.2154302041018823,1.3312182318691599,0.9107307057032663,0.2881676375,0.6501737336653937
0.022,1.7879,1.0,2464.0222126151707,0.21983102138315957,1.3307556363835762,0.9138550081437482,0.2881448,0.6511502200270903
0.0225,1.78734375,1.0,2485.2960862491873,0.22420715285098142,1.3303013419800123,0.9168040652852334,0.28812143749999997,0.6521078555044739
0.023,1.786775,1.0,2505.2739031144024,0.2285587368760317,1.3298545647375952,0.9195906360374964,0.28809755,0.6530483613576901
0.0235,1.78619375,1.0,2524.0219688672387,0.23288591182899443,1.329414520735452,0.9222263469738454,0.28807313749999996,0.6539734487520169
0.024,1.7856,1.0,2541.5969461915192,0.23718881290708865,1.328980538531187,0.9247218272173292,0.2880482,0.6548845831241397
0.0245,1.78499375,1.0,2558.0684368423317,0.24146758095536086,1.3285518433619947,0.927086775291568,0.2880227375,0.655783438212485
0.025,1.784375,1.0,2573.4838373515063,0.24572234982582836,1.328127886098831,0.9293301025098745,0.28799675,0.6566712065188538
0.025500000000000002,1.78374375,1.0,2587.8894408476513,0.24995325258005474,1.3277081414193075,0.9314599786586373,0.2879702375,0.6575490243861708
0.026000000000000002,1.7831000000000001,1.0,2601.3328377731086,0.2541604222796038,1.3272920840010363,0.9334839004520118,0.2879432,0.6584180221628145
0.0265,1.78244375,1.0,2613.8628041280963,0.258343991986039,1.3268791885216296,0.935408756065441,0.2879156375,0.6592793243349521
0.027,1.781775,1.0,2625.5291958336666,0.2625040947609243,1.326468929658699,0.9372408826946481,0.28788755,0.660134049641274
0.0275,1.7810937500000001,1.0,2636.372060141271,0.2666408605728913,1.326060881875406,0.9389861317111178,0.2878589375,0.6609831036691087
0.028,1.7804,1.0,2646.440033002033,0.27075442363883157,1.3256545477786459,0.9406498907700105,0.2878298,0.661827536706268
0.0285,1.77969375,1.0,2655.7803379569177,0.2748449164048351,1.3252494502457712,0.9422371369532526,0.2878001375,0.6626683517692079
0.029,1.778975,1.0,2664.424552393564,0.27891246593416635,1.324845262487936,0.9437524903958455,0.28776995,0.6635062354564538
0.029500000000000002,1.7782437500000001,1.0,2672.4047798968368,0.2829571992900897,1.3244416577162943,0.9452002268261791,0.2877392375,0.6643418709767313
0.03,1.7775,1.0,2679.7536039391443,0.2869792435358696,1.3240383091419996,0.9465843076438538,0.287708,0.6651759381645214
0.0305,1.77674375,1.0,2686.5040439392574,0.29097872573477057,1.3236348899762065,0.947908407013721,0.2876762375,0.6660091134888033
0.031,1.775975,1.0,2692.6895136883886,0.2949557729500568,1.3232310734300685,0.9491759363045413,0.28764395,0.6668420700549925
0.0315,1.7751937500000001,1.0,2698.3437821439534,0.2989105122449929,1.3228265327147397,0.950390066161307,0.2876111375,0.6676754776000609
0.032,1.7744,1.0,2703.493620832366,0.3028430661985221,1.3224210078578837,0.9515537532439868,0.2875778,0.6685098650889875
0.0325,1.77359375,1.0,2708.172491860743,0.30675356472043785,1.3220141801923762,0.9526697461586923,0.2875439375,0.6693458793208926
0.033,1.772775,1.0,2712.404842125574,0.3106421311660012,1.3216058155560448,0.9537406150403746,0.28750955,0.6701839904353676
0.0335,1.7719437500000002,1.0,2716.211995033243,0.3145088865008216,1.321195710040799,0.9547687606683503,0.2874746375,0.6710246041179433
0.034,1.7711000000000001,1.0,2719.61544175822,0.31835395169050856,1.3207836597385474,0.9557564250471047,0.2874392,0.671868123867168
0.0345,1.7702437500000001,1.0,2722.6368240532524,0.3221774477006716,1.3203694607411995,0.9567057037783724,0.2874032375,0.6727149509706409
0.035,1.7693750000000001,1.0,2725.2979179807276,0.3259794954969203,1.3199529091406645,0.9576185573310444,0.28736675,0.6735654844783983
0.035500000000000004,1.76849375,1.0,2727.620618566546,0.32976021604486416,1.3195338010288513,0.9584968213186106,0.2873297375,0.6744201211736431
0.036000000000000004,1.7676,1.0,2729.6269253752994,0.3335197303101127,1.3191119324976692,0.9593422158818542,0.2872922,0.6752792555408259
0.0365,1.76669375,1.0,2731.3248767188784,0.3372581459089579,1.3186872273261827,0.9601563641857302,0.2872541375,0.6761430202141261
0.037,1.765775,1.0,2732.7522473184213,0.3409756009578468,1.3182593397409874,0.9609407696199137,0.28721555,0.6770120939656593
0.0375,1.76484375,1.0,2733.921633347769,0.34467220990565667,1.31782815341076,0.9616968616874938,0.2871764375,0.6778866865417932
0.038,1.7639,1.0,2734.8451569282547,0.34834808669657413,1.3173935567522395,0.9624259845060334,0.28713679999999997,0.6787669965949074
0.0385,1.76294375,1.0,2735.534982834723,0.35200334527478583,1.3169554381821655,0.9631294025156661,0.28709663750000003,0.6796532213225492
0.039,1.761975,1.0,2736.0033131046157,0.35563809958447845,1.3165136861172773,0.9638083060652217,0.28705595,0.6805455564427733
0.0395,1.7609937500000001,1.0,2736.262381923441,0.3592524635698386,1.316068188974314,0.9644638165487415,0.2870147375,0.6814441961686778
0.04,1.76,1.0,2736.3244507856684,0.36284655117505293,1.3156188351700153,0.9650969911329876,0.286973,0.6823493331821515
0.0405,1.7589937500000001,1.0,2736.2018039322757,0.36642047634430813,1.3151655131211204,0.9657088271125174,0.2869307375,0.6832611586068269
0.041,1.757975,1.0,2735.9067440638128,0.3699743530217908,1.3147081112443688,0.9663002659252771,0.28688795,0.684179861980236
0.0415,1.75694375,1.0,2735.451588329924,0.37350829515168765,1.3142465179564995,0.9668721968584487,0.2868446375,0.6851056312251769
0.042,1.7559,1.0,2734.848118639975,0.3770224156052926,1.3137806266319205,0.9674254607079451,0.28680079999999997,0.6860386426992324
0.0425,1.75484375,1.0,2734.1030343358084,0.38051681680691524,1.3133103768733114,0.9679608548130652,0.2867564375,0.6869789787739272
0.043000000000000003,1.753775,1.0,2733.2339544812403,0.38399162573414447,1.3128356091652398,0.9684791296448646,0.28671155,0.6879269184892007
0.043500000000000004,1.75269375,1.0,2732.247212056924,0.38744694894911613,1.3123562665098998,0.9689810008275015,0.28666613750000003,0.6888825343494785
0.044,1.7516,1.0,2731.149143408056,0.3908828930139661,1.311872291909486,0.9694671464243886,0.2866202,0.6898458977650648
0.0445,1.75049375,1.0,2729.9460869285217,0.3942995644908305,1.311383628366193,0.9699382092773673,0.2865737375,0.69081707903541
0.045,1.7493750000000001,1.0,2728.6443818161556,0.39769706994184506,1.310890218882215,0.9703947991780181,0.28652675,0.69179614733217
0.0455,1.74824375,1.0,2727.2503669003568,0.4010755159291458,1.310392006459746,0.9708374948846855,0.2864792375,0.6927831706820566
0.046,1.7471,1.0,2725.7703795419284,0.40443500901486856,1.3098889341009812,0.9712668459975636,0.2864312,0.6937782159494826
0.0465,1.7459437500000001,1.0,2724.2107546044263,0.4077756557611493,1.3093809448081144,0.9716833747031021,0.28638263750000004,0.6947813488190002
0.047,1.744775,1.0,2722.577823498158,0.411097562730124,1.3088679815833402,0.9720875773980019,0.28633355,0.6957926337775302
0.0475,1.74359375,1.0,2720.8779132959517,0.41440083648392845,1.308349987428853,0.972479926202171,0.28628393750000003,0.6968121340963848
0.048,1.7424,1.0,2719.116151937953,0.4176855778755319,1.3078269162203986,0.9728608704162697,0.2862338,0.6978398904663257
0.0485,1.74119375,1.0,2717.2955606578766,0.42095187635657616,1.3072987409867223,0.9732308377371998,0.2861831375,0.6988759049361459
0.049,1.739975,1.0,2715.4277989950015,0.42419986892764994,1.306765356016584,0.9735902359418821,0.28613195,0.699920332742406
0.0495,1.73874375,1.0,2713.515746067838,0.4274296538938272,1.3062267355122428,0.9739394543352826,0.2860802375,0.7009731711017695
0.05,1.7375,1.0,2711.562278171984,0.43064132956018186,1.305682853675958,0.974278864097249,0.286028,0.7020344163537082
0.0505,1.73624375,1.0,2709.5702685531405,0.43383499423178795,1.3051336847099886,0.9746088192860303,0.2859752375,0.7031040639518664
0.051000000000000004,1.734975,1.0,2707.5425871950774,0.4370107462137194,1.3045792028165935,0.9749296577775879,0.28592195,0.7041821084553841
0.051500000000000004,1.73369375,1.0,2705.4821006221323,0.4401686838110501,1.3040193821980322,0.9752417021453381,0.2858681375,0.7052685435201749
0.052000000000000005,1.7324,1.0,2703.3916717165557,0.44330890532885403,1.3034541970565634,0.9755452604845906,0.2858138,0.706363361890167
0.0525,1.73109375,1.0,2701.2741595507796,0.44643150907220513,1.3028836215944466,0.9758406271856183,0.28575893750000003,0.7074665553884951
0.053,1.729775,1.0,2699.1324192338852,0.4495365933461774,1.3023076300139405,0.976128083658971,0.28570355000000003,0.7085781149086559
0.0535,1.72844375,1.0,2696.96930177374,0.45262425645584475,1.3017261965173044,0.9764078990163717,0.2856476375,0.7096980304056155
0.054,1.7271,1.0,2694.787653953044,0.4556945967062811,1.3011392953067973,0.9766803307102669,0.2855912,0.7108262908868799
0.0545,1.7257437500000001,1.0,2692.5903182204547,0.45874771240256046,1.3005469005846784,0.9769456251348768,0.2855342375,0.7119628844035187
0.055,1.724375,1.0,2690.3801325965364,0.46178370184975676,1.2999489865532068,0.9772040181913592,0.28547675,0.7131077980411485
0.0555,1.72299375,1.0,2688.159930594527,0.46480266335294396,1.2993455274146413,0.9774557358195191,0.2854187375,0.7142610179108746
0.056,1.7216,1.0,2685.9318666927393,0.4678046866112111,1.2987365035513736,0.977700994061003,0.2853602,0.715422517365753
0.0565,1.72019375,1.0,2683.6959575859128,0.4707898440909351,1.2981219149104732,0.9779399995671623,0.28530113749999997,0.7165922316648997
0.057,1.718775,1.0,2681.456937359241,0.47375827689358374,1.2975017181775772,0.9781729542191301,0.28524155,0.717770177555451
0.0575,1.71734375,1.0,2679.2156820343635,0.47671007410131777,1.2968759053620416,0.9784000489660056,0.2851814375,0.718956303620753
0.058,1.7159,1.0,2676.9730661829094,0.4796453247962978,1.2962444684732222,0.9786214670421707,0.2851208,0.7201505577137056
0.0585,1.71444375,1.0,2674.7299629220574,0.4825641180606846,1.2956073995204755,0.97883738433831,0.2850596375,0.7213528869538965
0.059000000000000004,1.7129750000000001,1.0,2672.48724391137,0.48546654297663894,1.2949646905131575,0.9790479697517466,0.28499795,0.722563237724736
0.059500000000000004,1.71149375,1.0,2670.2457793512863,0.4883526886263214,1.2943163334606242,0.9792533855173975,0.2849357375,0.7237815556705824
0.06,1.71,1.0,2668.0064379828536,0.49122264409189276,1.2936623203722322,0.9794537875205636,0.284873,0.7250077856938664
0.0605,1.7084937500000001,1.0,2665.770087089049,0.49407649845551377,1.2930026432573372,0.9796493255926854,0.2848097375,0.7262418719522119
0.061,1.7069750000000001,1.0,2663.5375924972477,0.4969143407993451,1.2923372941252955,0.9798401437911134,0.28474595,0.72748375785555
0.0615,1.7054437500000001,1.0,2661.309818583372,0.4997362602055474,1.291666264985463,0.9800263806638742,0.2846816375,0.7287333860632322
0.062,1.7039,1.0,2659.0876282775835,0.5025423457562815,1.2909895478471964,0.980208169500343,0.2846168,0.7299906984811357
0.0625,1.70234375,1.0,2656.871883070615,0.505332686533708,1.2903071347198514,0.9803856385686724,0.2845514375,0.7312556362587694
0.063,1.7007750000000001,1.0,2654.663443022551,0.5081073716199878,1.289619017612784,0.9805589113407747,0.28448555,0.732528139786371
0.0635,1.69919375,1.0,2652.4631667724443,0.5108664900972812,1.2889251885353508,0.9807281067055907,0.28441913750000003,0.7338081486920026
0.064,1.6976,1.0,2650.2719115491873,0.5136101310477493,1.2882256394969076,0.9808933391713451,0.2843522,0.7350956018386436
0.0645,1.69599375,1.0,2648.0905331844738,0.5163383835535528,1.2875203625068106,0.9810547190574233,0.2842847375,0.7363904373212763
0.065,1.694375,1.0,2645.9198861264044,0.5190513366968522,1.286809349574416,0.9812123526764845,0.28421675,0.7376925924639683
0.0655,1.69274375,1.0,2643.7588170062772,0.5217490389420745,1.2860926112403177,0.9813663405886625,0.2841482375,0.7390019700054096
0.066,1.6911,1.0,2641.6080531243447,0.5244316065173439,1.2853701406861464,0.9815167836213409,0.2840792,0.7403185038417379
0.0665,1.6894437500000001,1.0,2639.468794618141,0.5270991489407989,1.284641926712273,0.9816637783159057,0.2840096375,0.7416421350686384
0.067,1.687775,1.0,2637.341066528631,0.5297517457172792,1.2839079689676607,0.981807416291267,0.28393955,0.742972784300567
0.0675,1.68609375,1.0,2635.2248939003216,0.5323894763516248,1.283168267101272,0.9819477859656482,0.2838689375,0.7443103715142303
0.068,1.6844000000000001,1.0,2633.1203017817384,0.5350124203486754,1.2824228207620703,0.982084972689222,0.2837978,0.7456548160484552
0.0685,1.68269375,1.0,2631.0273152260384,0.5376206572132708,1.2816716295990185,0.9822190588703512,0.2837261375,0.7470060366040604
0.069,1.680975,1.0,2628.945959292171,0.5402142664502508,1.2809146932610798,0.9823501240957818,0.28365395,0.7483639512437292
0.0695,1.67924375,1.0,2626.8762590453634,0.5427933275644553,1.280152011397217,0.9824782452451205,0.28358123749999997,0.7497284773918802
0.07,1.6775,1.0,2624.818239558095,0.545357920060724,1.279383583656393,0.9826034965999021,0.283508,0.7510995318345386
0.07050000000000001,1.67574375,1.0,2622.7719259106525,0.5479081234438969,1.278609409687571,0.9827259499475395,0.2834342375,0.7524770307192066
0.07100000000000001,1.673975,1.0,2620.7373431920796,0.5504440172188138,1.2778294891397144,0.9828456746804279,0.28335995,0.7538608895547364
0.07150000000000001,1.67219375,1.0,2618.714516500994,0.5529656808903142,1.2770438216617856,0.9829627378904596,0.2832851375,0.7552510232112013
0.07200000000000001,1.6704,1.0,2616.7034709463146,0.5554731939632382,1.276252406902748,0.9830772044591899,0.2832098,0.7566473459197656
0.0725,1.66859375,1.0,2614.704231647928,0.5579666359424255,1.2754552445115646,0.9831891371438837,0.2831339375,0.758049771272558
0.073,1.6667750000000001,1.0,2612.716823737803,0.560446086332716,1.2746523341371983,0.9832985966596552,0.28305755,0.7594582122225408
0.0735,1.66494375,1.0,2610.7412723605366,0.5629116246389495,1.273843675428612,0.9834056417578998,0.2829806375,0.7608725810833834
0.074,1.6631,1.0,2608.7776026740216,0.5653633303659658,1.273029268034769,0.9835103293012136,0.2829032,0.7622927895293312
0.0745,1.6612437500000001,1.0,2606.8258398507055,0.5678012830186046,1.2722091116046321,0.9836127143349758,0.2828252375,0.7637187485950796
0.075,1.659375,1.0,2604.8860090780427,0.5702255621017058,1.2713832057871646,0.983712850155759,0.28274675,0.7651503686756425
0.0755,1.65749375,1.0,2602.958135559367,0.5726362471201093,1.2705515502313294,0.9838107883767392,0.2826677375,0.7665875595262259
