Time [s],Phi [rad],STIM [ ],Fsee [N],Gamma [ ],Lcerel [ ],q [ ],Lmtc [m],fisomrel [ ]
0.0,1.8,1.0,17.967560883366595,1.2594463947361377e-05,1.3793397011023378,0.005000042198292576,0.288653,0.541139640202771
0.0005,1.79999375,1.0,18.277729670220225,0.005621733127759982,1.3793022783184299,0.012947718041492771,0.2886527375,0.5412301711175012
0.001,1.799975,1.0,21.621260564273395,0.011199408958578147,1.3789380080753517,0.035622096428398135,0.28865195,0.5421109248593261
0.0015,1.79994375,1.0,31.076125058670527,0.016745798438881476,1.3780456168377277,0.0706202115717967,0.2886506375,0.5442650242021108
0.002,1.7999,1.0,53.59721034026769,0.022261077059494982,1.376367170145984,0.11473975449707044,0.2886488,0.5483027845545404
0.0025,1.79984375,1.0,97.14382698948326,0.027745419327169025,1.3739339679783578,0.16459851980315765,0.28864643749999996,0.5541243226784456
0.003,1.7997750000000001,1.0,160.990693099034,0.033198998772274516,1.3712131263282257,0.21730482940284176,0.28864354999999997,0.5605893330408953
0.0035,1.79969375,1.0,237.72015555451196,0.03862198794841152,1.3685836000001177,0.2706371331448339,0.2886401375,0.5667925057747234
0.004,1.7996,1.0,321.50600975088895,0.04401455844318713,1.3661550531522162,0.32293927769776315,0.2886362,0.5724823885557964
0.0045000000000000005,1.7994937500000001,1.0,409.30844552318604,0.04937688088340125,1.3639218589298039,0.3730567931894124,0.2886317375,0.5776813794422064
0.005,1.799375,1.0,499.45506376625485,0.054709124926139864,1.3618574592271686,0.42026831150414584,0.28862675,0.5824591173522258
0.0055,1.79924375,1.0,590.8323895347104,0.060011459306153724,1.3599380150137126,0.46419300361372784,0.2886212375,0.5868769940943508
0.006,1.7991000000000001,1.0,682.5601644286518,0.06528405177924179,1.358145650291208,0.5046977044865151,0.2886152,0.59098116446903
0.006500000000000001,1.79894375,1.0,773.9255006018388,0.07052706917934326,1.3564664983754566,0.5418169576603586,0.2886086375,0.5948075112753208
0.007,1.798775,1.0,864.3293389966698,0.07574067739039861,1.3548896918918873,0.5756915448360921,0.28860155,0.5983842684594429
0.0075,1.79859375,1.0,953.2855369525241,0.08092504139045062,1.3534061282493184,0.6065233494709474,0.2885939375,0.6017350399101605
0.008,1.7984,1.0,1040.4011136794131,0.08608032520407455,1.3520080182819139,0.6345442554241545,0.2885858,0.6048799587539535
0.0085,1.79819375,1.0,1125.3562275313761,0.09120669179980768,1.350688646938215,0.6599955146797035,0.2885771375,0.6078363294280738
0.009000000000000001,1.797975,1.0,1207.9244487791486,0.09630430381671247,1.3494417034561677,0.6831143896322808,0.28856795,0.6106202037170019
0.0095,1.79774375,1.0,1287.9149691896164,0.10137332226654718,1.3482618225831806,0.704126757852925,0.2885582375,0.6132452261831672
0.01,1.7975,1.0,1365.1930807900449,0.10641390728223206,1.3471440507053951,0.7232426505769665,0.288548,0.6157238777418689
0.0105,1.79724375,1.0,1439.6817561723954,0.11142621848446652,1.34608366782534,0.7406543569249034,0.2885372375,0.6180679045426011
0.011,1.796975,1.0,1511.34576707564,0.11641041509385365,1.3450762659354283,0.756536143778888,0.28852595000000003,0.6202881718369311
0.0115,1.79669375,1.0,1580.1456913527577,0.12136665410812474,1.344118188232446,0.7710450149543451,0.2885141375,0.6223937261722541
0.012,1.7964,1.0,1646.0835976579058,0.12629509229959257,1.3432058537639675,0.784321443177953,0.28850180000000003,0.6243933097644967
0.0125,1.79609375,1.0,1709.1888070981583,0.13119588560919485,1.342335864419033,0.7964907489792717,0.2884889375,0.6262951400907952
0.013000000000000001,1.7957750000000001,1.0,1769.5163384889884,0.13606919015875346,1.3415049622987516,0.8076644977207759,0.28847555,0.6281070176190314
0.0135,1.79544375,1.0,1827.100457547122,0.1409151591628243,1.340710495876858,0.8179420770639704,0.2884616375,0.6298353252530149
0.014,1.7951000000000001,1.0,1882.0000343097092,0.14573394566887615,1.3399498448110883,0.8274117879474214,0.2884472,0.6314862978728222
0.0145,1.79474375,1.0,1934.290225558814,0.15052570210683222,1.3392204817602278,0.8361521130090767,0.2884322375,0.6330658952626242
0.015,1.794375,1.0,1984.058569735822,0.15529058121823855,1.338519984516164,0.8442328523038497,0.28841675,0.6345797834284953
0.0155,1.79399375,1.0,2031.3812502990895,0.16002873389387892,1.337846258877926,0.8517162072573092,0.2884007375,0.6360328614865732
0.016,1.7936,1.0,2076.3243125110316,0.16474030893093106,1.3371974894632876,0.8586576546914985,0.2883842,0.6374293785065562
0.0165,1.7931937500000001,1.0,2118.9678661980774,0.16942545512657262,1.3365718608900214,0.8651066560898691,0.2883671375,0.6387735409981763
0.017,1.792775,1.0,2159.4041760581154,0.17408432120226366,1.3359675650778657,0.8711073727846326,0.28834955,0.6400695000499046
0.0175,1.7923437500000001,1.0,2197.717675269975,0.178717054177154,1.3353829920200855,0.8766993443682364,0.2883314375,0.6413209459937987
0.018000000000000002,1.7919,1.0,2234.0109066067034,0.18332380285767008,1.3348164505652855,0.8819179567657672,0.2883128,0.6425317105576012
0.0185,1.79144375,1.0,2268.349775116604,0.1879047114202877,1.3342667086353033,0.8867950635665407,0.2882936375,0.6437046157465602
0.019,1.790975,1.0,2300.807418074872,0.19245992404148274,1.3337325341519766,0.8913592768906594,0.28827395,0.6448424606138387
0.0195,1.79049375,1.0,2331.4636086899563,0.19698958489773105,1.3332126950371428,0.8956363393166974,0.2882537375,0.6459480225321559
0.02,1.79,1.0,2360.3996396154557,0.20149383745227079,1.3327060037242406,0.8996494596312817,0.288233,0.6470239639217015
0.0205,1.78949375,1.0,2387.6961886435024,0.20597282491281307,1.3322113314833048,0.9034196005563631,0.2882117375,0.6480728036801332
0.021,1.788975,1.0,2413.4342881747616,0.2104266905424544,1.3317275928440042,0.9069657241536464,0.28818995000000003,0.6490969519959267
0.021500000000000002,1.78844375,1.0,2437.673919584954,0.2148555736148155,1.3312539462861672,0.9103050506578353,0.2881676375,0.6500982878502585
0.022,1.7879,1.0,2460.478516179973,0.21925961340351727,1.3307895502896223,0.9134531971687395,0.2881448,0.6510786779948643
0.0225,1.78734375,1.0,2481.9146774244814,0.22363894918218052,1.3303335633341982,0.9164243490599043,0.28812143749999997,0.6520399774710819
0.023,1.786775,1.0,2502.051898871204,0.22799372022442604,1.3298851438997237,0.9192314110668056,0.28809755,0.6529840300837328
0.0235,1.78619375,1.0,2520.949054973224,0.23232406281348444,1.3294435759073395,0.9218861625491618,0.28807313749999996,0.6539124052722737
0.024,1.7856,1.0,2538.6800723094398,0.2366301182808435,1.329008022303908,0.9243993317665576,0.2880482,0.6548269172821146
0.0245,1.78499375,1.0,2555.29456836311,0.24091202139925022,1.3285778949945983,0.9267807625192194,0.2880227375,0.6557288485998685
0.025,1.784375,1.0,2570.8407511541523,0.2451699061476997,1.3281526346360861,0.929039466127582,0.28799675,0.6566194144814903
0.025500000000000002,1.78374375,1.0,2585.368313862948,0.24940390650518707,1.3277316818850466,0.9311836989990006,0.2879702375,0.6574998236249956
0.026000000000000002,1.7831000000000001,1.0,2598.9283079326588,0.2536141564507074,1.3273144773981551,0.9332210361253049,0.2879432,0.6583712783340964
0.0265,1.78244375,1.0,2611.573023108487,0.25780078996325567,1.3269004618320868,0.9351584365278102,0.2879156375,0.6592349746618891
0.027,1.781775,1.0,2623.344949875599,0.26196393757226094,1.3264891771325238,0.9370023158217404,0.28788755,0.6600918916305087
0.0275,1.7810937500000001,1.0,2634.2992892290667,0.2661037355707232,1.3260800562285322,0.9387585687248308,0.2878589375,0.6609432300063689
0.028,1.7804,1.0,2644.4782043044916,0.27022031524325696,1.3256726610937093,0.9404326481035037,0.2878298,0.6617899165055547
0.0285,1.77969375,1.0,2653.915771661657,0.274313804756843,1.3252666350812672,0.942029598649992,0.2878001375,0.6626327044097888
0.029,1.778975,1.0,2662.6466819005695,0.2783843322784621,1.3248616215444189,0.9435540830446406,0.28776995,0.6634723432638099
0.029500000000000002,1.7782437500000001,1.0,2670.706185607056,0.28243202597509504,1.324457263836377,0.9450104158163724,0.2877392375,0.6643095789024607
0.03,1.7775,1.0,2678.1300421178407,0.28645701401372253,1.3240532053103542,0.94640259379734,0.287708,0.6651451534696602
0.0305,1.77674375,1.0,2684.9544711068015,0.29045942456132545,1.323649089319563,0.9477343235514101,0.2876762375,0.6659798054292653
0.031,1.775975,1.0,2691.2109009561295,0.29443938403818465,1.323244606873515,0.9490090516274926,0.28764395,0.6668141713239372
0.0315,1.7751937500000001,1.0,2696.928956397049,0.2983970191170656,1.3228394686737934,0.9502299834538736,0.2876111375,0.6676488439618073
0.032,1.7744,1.0,2702.147597823492,0.3023324583331086,1.3224333029349222,0.9514000913010808,0.2875778,0.6684845827757547
0.0325,1.77359375,1.0,2706.889733255216,0.3062458239882891,1.3220258871916128,0.9525221589431263,0.2875439375,0.6693218366659905
0.033,1.772775,1.0,2711.178489080815,0.3101372383845826,1.3216169989785762,0.9535987809292245,0.28750955,0.6701610521939239
0.0335,1.7719437500000002,1.0,2715.0371889277944,0.3140068238239647,1.3212064158305237,0.9546323777212943,0.2874746375,0.6710026735628467
0.034,1.7711000000000001,1.0,2718.489333629803,0.3178547026084109,1.320793915282166,0.9556252094488321,0.2874392,0.6718471425954673
0.0345,1.7702437500000001,1.0,2721.5585822912767,0.3216809970398968,1.3203792748682146,0.9565793884220734,0.2874032375,0.6726948987082813
0.035,1.7693750000000001,1.0,2724.268734449247,0.3254858294203979,1.3199622721233806,0.9574968905285941,0.28736675,0.6735463788827927
0.035500000000000004,1.76849375,1.0,2726.64116887668,0.3292693172124262,1.3195427077226338,0.9583795669003157,0.2873297375,0.674401970476044
0.036000000000000004,1.7676,1.0,2728.698960633368,0.33303158640935,1.3191203678673875,0.959229152574353,0.2872922,0.6752620880490539
0.0365,1.76669375,1.0,2730.457529098356,0.33677275395476797,1.3186951091799224,0.9600472796384496,0.2872541375,0.6761270005892773
0.037,1.765775,1.0,2731.932221507175,0.3404929365540369,1.3182667895879983,0.9608354798643128,0.28721555,0.6769969727211379
0.0375,1.76484375,1.0,2733.138448073046,0.3441922509125136,1.317835267019376,0.9615951919217367,0.2871764375,0.6778722673428634
0.038,1.7639,1.0,2734.0916740706143,0.34787081373555484,1.3174003994018155,0.9623277680661497,0.28713679999999997,0.6787531455981122
0.0385,1.76294375,1.0,2734.807412366767,0.35152874172851745,1.3169620446630774,0.9630344802750865,0.28709663750000003,0.6796398668463053
0.039,1.761975,1.0,2735.301216399012,0.35516615159675813,1.316520060730922,0.9637165258845047,0.28705595,0.6805326886316756
0.0395,1.7609937500000001,1.0,2735.577213746021,0.3587831420857426,1.3160744095829917,0.9643750388297452,0.2870147375,0.6814316569093215
0.04,1.76,1.0,2735.6609087362276,0.36237984765748715,1.315624859355886,0.9650110773408308,0.286973,0.6823372071319427
0.0405,1.7589937500000001,1.0,2735.569169896176,0.36595639075451647,1.3151712568108886,0.9656256442998817,0.2869307375,0.6832496137762911
0.041,1.757975,1.0,2735.3103040374867,0.36951288032842405,1.3147135266025294,0.9662196906775317,0.28688795,0.6841689928998694
0.0415,1.75694375,1.0,2734.8926322377547,0.37304942533080354,1.3142515933853365,0.9667941147061989,0.2868446375,0.6850954593583455
0.042,1.7559,1.0,2734.324487368463,0.37656613471324846,1.3137853818138394,0.9673497653456341,0.28680079999999997,0.6860291267855325
0.0425,1.75484375,1.0,2733.614211748998,0.3800631174273523,1.3133148165425672,0.9678874454864869,0.2867564375,0.6869701075730148
0.043000000000000003,1.753775,1.0,2732.770154925679,0.3835404824247088,1.3128398222260484,0.9684079149141595,0.28671155,0.6879185128494082
0.043500000000000004,1.75269375,1.0,2731.800671577994,0.38699833865691136,1.3123603235188126,0.9689118930531311,0.28666613750000003,0.6888744524592562
0.044,1.7516,1.0,2730.7141195494614,0.3904367950755535,1.3118762450753882,0.9694000615100502,0.2866202,0.68983803494157
0.0445,1.75049375,1.0,2729.5188580051745,0.39385596063222905,1.3113875115503049,0.969873066432209,0.2865737375,0.6908093675079998
0.045,1.7493750000000001,1.0,2728.22324571485,0.39725594427853134,1.310894047598091,0.9703315206964941,0.28652675,0.6917885560206503
0.0455,1.74824375,1.0,2726.8356394616485,0.400636854966054,1.310395777873276,0.9707760059425338,0.2864792375,0.6927757049695278
0.046,1.7471,1.0,2725.364392577287,0.4039988016463907,1.3098926270303888,0.971207074462548,0.2864312,0.6937709174496313
0.0465,1.7459437500000001,1.0,2723.8178536026207,0.4073418932711348,1.3093845197239582,0.9716252509592753,0.28638263750000004,0.6947742951376777
0.047,1.744775,1.0,2722.1977062762917,0.4106662178616785,1.308871441215557,0.9720310358151218,0.28633355,0.695785818882094
0.0475,1.74359375,1.0,2720.513662894705,0.41397190332914674,1.30835330368009,0.9724249049073243,0.28628393750000003,0.6968056125943054
0.048,1.7424,1.0,2718.7710972943078,0.4172590571739764,1.3078300587194351,0.9728073111466401,0.2862338,0.6978337211377204
0.0485,1.74119375,1.0,2716.973500196899,0.42052777961026344,1.3073016750482553,0.973178685976303,0.2861831375,0.6988701546955883
0.049,1.739975,1.0,2715.1243595591645,0.4237781708521042,1.3067681213812135,0.9735394403368983,0.28613195,0.6999149225262791
0.0495,1.73874375,1.0,2713.2271602327264,0.42701033111359465,1.3062293664329725,0.9738899658246383,0.2860802375,0.7009680329529983
0.05,1.7375,1.0,2711.285383645495,0.43022436060883107,1.3056853789181952,0.9742306357740498,0.286028,0.7020294933534419
0.0505,1.73624375,1.0,2709.3025075041655,0.4334203595519094,1.3051361275515447,0.9745618062706405,0.2859752375,0.7030993101493859
0.051000000000000004,1.734975,1.0,2707.2820055193342,0.4365984281569259,1.3045815810476837,0.9748838170986637,0.28592195,0.7041774887962158
0.051500000000000004,1.73369375,1.0,2705.227347151594,0.43975866663797664,1.304021708121275,0.9751969926286737,0.2858681375,0.7052640337723923
0.052000000000000005,1.7324,1.0,2703.141997379594,0.4429011752091578,1.3034564774869817,0.975501642649199,0.2858138,0.7063589485688552
0.0525,1.73109375,1.0,2701.029416489994,0.44602605408456536,1.3028858578594662,0.9757980631465063,0.28575893750000003,0.707462235678365
0.053,1.729775,1.0,2698.8930598885668,0.4491334034782956,1.302309817953392,0.9760865370361197,0.28570355000000003,0.7085738965847799
0.0535,1.72844375,1.0,2696.736377933815,0.45222332360444456,1.3017283264834216,0.9763673348494671,0.2856476375,0.7096939317522759
0.054,1.7271,1.0,2694.562815791605,0.45529591467710845,1.301141352164218,0.9766407153787697,0.2855912,0.7108223406144978
0.0545,1.7257437500000001,1.0,2692.370258376278,0.4583512404504147,1.3005489145496514,0.9769069257829391,0.2855342375,0.7119590241167932
0.055,1.724375,1.0,2690.167728486795,0.46138944332109627,1.299950931250645,0.9771662042529713,0.28547675,0.7131040779396391
0.0555,1.72299375,1.0,2687.956950395152,0.46441061877070905,1.2993473865957579,0.977418778302218,0.2854187375,0.7142574685532204
0.056,1.7216,1.0,2685.7390236225383,0.4674148581272088,1.2987382706130772,0.9776648658630112,0.2853602,0.715419150736951
0.0565,1.72019375,1.0,2683.515045932799,0.470402252718551,1.2981235733306906,0.9779046758266547,0.28530113749999997,0.7165890785221312
0.057,1.718775,1.0,2681.2861133173715,0.47337289387269144,1.2975032847766856,0.9781384084899344,0.28524155,0.7177672051884002
0.0575,1.71734375,1.0,2679.053319982205,0.4763268729175856,1.2968773949791497,0.9783662559760747,0.2851814375,0.7189534832601848
0.058,1.7159,1.0,2676.8177583368188,0.47926428118118913,1.29624589396617,0.9785884026318078,0.2851208,0.7201478645031401
0.0585,1.71444375,1.0,2674.5805189860193,0.4821852099914577,1.2956087717658342,0.9788050254020765,0.2850596375,0.7213502999205834
0.059000000000000004,1.7129750000000001,1.0,2672.3426907231724,0.4850897506763469,1.2949660184062297,0.9790162941838115,0.28499795,0.7225607397499227
0.059500000000000004,1.71149375,1.0,2670.105360526167,0.4879779945638124,1.2943176239154441,0.9792223721600962,0.2849357375,0.7237791334590791
0.06,1.71,1.0,2667.8696135554223,0.49085003298180974,1.2936635783215646,0.9794234161159568,0.284873,0.7250054297429027
0.0605,1.7084937500000001,1.0,2665.6365331540665,0.49370595725829464,1.2930038716526788,0.9796195767369192,0.2848097375,0.7262395765195808
0.061,1.7069750000000001,1.0,2663.407200850354,0.49654585872122264,1.292338493936874,0.9798109988914002,0.28474595,0.7274815209270417
0.0615,1.7054437500000001,1.0,2661.182696362056,0.4993698286985494,1.291667435202238,0.9799978218979231,0.2846816375,0.7287312093193506
0.062,1.7039,1.0,2658.964097604004,0.5021779585182305,1.2909906854768576,0.9801801797780861,0.2846168,0.7299885872631012
0.0625,1.70234375,1.0,2656.752480696175,0.5049703395082218,1.2903082347888208,0.9803582014961381,0.2845514375,0.7312535995337974
0.063,1.7007750000000001,1.0,2654.5376196092684,0.5077470620246446,1.2896201773223832,0.9805320164809223,0.28448555,0.7325259977287988
0.0635,1.69919375,1.0,2652.3313750695493,0.5105082111711206,1.2889264037588568,0.980701738585701,0.28441913750000003,0.7338059094737693
0.064,1.6976,1.0,2650.162675370118,0.5132538738142929,1.288226647154861,0.980867469580934,0.2843522,0.735093749585036
0.0645,1.69599375,1.0,2648.01107356889,0.515984135667434,1.2875210957882313,0.9810293302654519,0.2842847375,0.7363890927191796
0.065,1.694375,1.0,2645.8561562239424,0.5186990824438167,1.2868099379368036,0.9811874371015962,0.28421675,0.7376915162649453
0.0655,1.6927486215863226,1.0,2643.9157550273912,0.5213987998567138,1.2860933618784138,0.9813419024071193,0.28414844210662554,0.7390006004116931
0.066,1.6911221574215,1.0,2642.537977405014,0.5240833736193977,1.2853715558908978,0.9814928345373608,0.284080130611703,0.7403159282155873
0.0665,1.6894956932566776,1.0,2641.707990517071,0.5267528887221458,1.2846446916872913,0.9816403372003917,0.2840118191167805,0.7416371157342055
0.067,1.687869229091855,1.0,2641.3703167352915,0.5294074302868798,1.2839132794953165,0.9817845269185582,0.28394350762185794,0.7429631687698159
0.0675,1.6862427649270326,1.0,2641.473057370107,0.5320470832437113,1.2831777979759516,0.9819255147703034,0.28387519612693535,0.7442931592266938
0.068,1.6846163007622101,1.0,2641.9855001976925,0.5346719300092234,1.2824385311141702,0.9820633986724613,0.2838068846320128,0.745626518310172
0.0685,1.6829898365973877,1.0,2642.877021322725,0.5372820529999993,1.281695762894946,0.9821982732736656,0.2837385731370903,0.7469626822928394
0.069,1.6813633724325652,1.0,2644.1170622386185,0.5398775346326222,1.2809497773032519,0.9823302300937755,0.28367026164216774,0.7483010925805267
0.0695,1.6797369082677427,1.0,2645.6751086755708,0.5424584573236751,1.280200858324062,0.9824593576564912,0.2836019501472452,0.749641195773147
0.07,1.6781104441029202,1.0,2647.5232038796903,0.5450249027400288,1.279449266567892,0.9825857404817243,0.2835336386523226,0.7509824853784032
0.07050000000000001,1.6764839799380975,1.0,2649.634874315571,0.5475769528256991,1.2786952490661805,0.9827094597597167,0.2834653271574001,0.7523244838901136
0.07100000000000001,1.674857515773275,1.0,2651.9858471253924,0.5501146891159413,1.277939032549815,0.9828305931323787,0.28339701566247755,0.7536667544173242
0.07150000000000001,1.6732310516084525,1.0,2654.5589661837853,0.5526381908574458,1.2771807780704765,0.9829492126471675,0.283328704167555,0.7550089804472107
0.07200000000000001,1.67160458744363,1.0,2657.3370706209294,0.5551475372969031,1.276420646679846,0.9830653880720138,0.2832603926726325,0.7563508484983921
0.0725,1.6699781232788076,1.0,2660.302987833407,0.5576428076810034,1.2756587994296047,0.9831791869866061,0.2831920811777099,0.7576920481410363
0.073,1.668351659113985,1.0,2663.43952706952,0.5601240812564371,1.2748953973714334,0.983290674869483,0.28312376968278735,0.7590322720153115
0.0735,1.6667251949491626,1.0,2666.7340903344757,0.562591434491925,1.2741305591015524,0.9833999131306563,0.2830554581878648,0.7603712900722905
0.074,1.6650987307843401,1.0,2670.169962015848,0.565044947274755,1.2733644408976623,0.9835069631556079,0.2829871466929423,0.7617088088415449
