Time [s],Phi [rad],STIM [ ],Fsee [N],Gamma [ ],Lcerel [ ],q [ ],Lmtc [m],fisomrel [ ]
0.0,1.8,1.0,17.987277648785277,0.0001518956389616372,1.379337492795637,0.005006018493308069,0.288653,0.5411449826515308
0.0005,1.79999375,1.0,18.343463873084758,0.005760252933378287,1.3792949832779808,0.01333914209552391,0.2886527375,0.5412478177938655
0.001,1.799975,1.0,21.79063087717255,0.011337151777618132,1.3789207442856144,0.03635183170276436,0.28865195,0.5421526452488394
0.0015,1.79994375,1.0,31.467995906589152,0.01688276862966788,1.3780123390676238,0.07161663190589411,0.2886506375,0.5443452535479076
0.002,1.7999,1.0,54.43229371992457,0.02239727895569958,1.376313211099217,0.1159182485280454,0.2886488,0.5484322932149115
0.0025,1.79984375,1.0,98.53908291169256,0.027880857238515366,1.3738669822071952,0.16587963141969178,0.28864643749999996,0.5542840548956787
0.003,1.7997750000000001,1.0,162.80046486808766,0.033333676984003635,1.3711455809887587,0.2186258651910465,0.28864354999999997,0.5607492273996071
0.0035,1.79969375,1.0,239.76184552549873,0.03875591072177995,1.3685208498655772,0.2719506231730059,0.2886401375,0.5669399974947472
0.004,1.7996,1.0,323.6763241486912,0.04414773001564336,1.3660976699991374,0.32421079433822725,0.2886362,0.572616377618631
0.0045000000000000005,1.7994937500000001,1.0,411.55460429181176,0.04950930546886191,1.3638692077775714,0.3742635876382714,0.2886317375,0.577803570252942
0.005,1.799375,1.0,501.7460615378072,0.054840806715987275,1.3618088334380418,0.4213972159632689,0.28862675,0.5825713266779442
0.0055,1.79924375,1.0,593.1427306039216,0.06014240246267717,1.35989292219404,0.46523810387700804,0.2886212375,0.5869804992175853
0.006,1.7991000000000001,1.0,684.8716595941868,0.06541426044757119,1.35810367026755,0.5056580957274641,0.2886152,0.5910770450921871
0.006500000000000001,1.79894375,1.0,776.2203037362254,0.07065654746953481,1.3564273546952514,0.5426950693197319,0.2886086375,0.5948964949775046
0.007,1.798775,1.0,866.595470335624,0.07586942943080109,1.3548531114923672,0.5764917658608671,0.28860155,0.5984670576026327
0.0075,1.79859375,1.0,955.5064806171063,0.08105307110855525,1.3533719884717756,0.6072512067943282,0.2885939375,0.6018119826642323
0.008,1.7984,1.0,1042.5808544206038,0.08620763691479431,1.351975943440207,0.6352055499844297,0.2885858,0.6049519618602558
0.0085,1.79819375,1.0,1127.491341229369,0.09133328959065719,1.350658436465032,0.6605961846024809,0.2885771375,0.6079038932904945
0.009000000000000001,1.797975,1.0,1209.99307267434,0.09643019121722461,1.3494134505445132,0.6836603188763366,0.28856795,0.6106831651102584
0.0095,1.79774375,1.0,1289.9223552282715,0.10149850344627027,1.348235270074814,0.7046232715678806,0.2885582375,0.6133041985839331
0.01,1.7975,1.0,1367.1433183250433,0.1065383865188453,1.3471189940655581,0.7236946818260712,0.288548,0.6157793493587852
0.0105,1.79724375,1.0,1441.5661578478012,0.1115499996344245,1.3460600909869462,0.7410664858292066,0.2885372375,0.6181199407720233
0.011,1.796975,1.0,1513.1446824881657,0.11653350119859832,1.3450542981120048,0.7569125664923199,0.28852595000000003,0.6203365157985705
0.0115,1.79669375,1.0,1581.8844047317968,0.12148905016615173,1.3440974224935662,0.7713892507792245,0.2885141375,0.6224392979377684
0.012,1.7964,1.0,1647.7656912734992,0.1264168022869857,1.3431861703380277,0.7846367591218677,0.28850180000000003,0.6244363918645353
0.0125,1.79609375,1.0,1710.8055883079485,0.13131691312460106,1.3423172974529523,0.7967801187041519,0.2884889375,0.6263356755883515
0.013000000000000001,1.7957750000000001,1.0,1771.0533794211872,0.13618953791136634,1.3414876142256311,0.8079305906013463,0.28847555,0.6281448001609903
0.0135,1.79544375,1.0,1828.5733640011401,0.14103483148852677,1.3406941354801412,0.8181871382218311,0.2884616375,0.6298708738821404
0.014,1.7951000000000001,1.0,1883.4262801599466,0.14585294747469552,1.3399342352856132,0.8276378111506149,0.2884472,0.6315201392882187
0.0145,1.79474375,1.0,1935.6657256366152,0.15064403730755863,1.3392056323231263,0.8363609564903951,0.2884322375,0.633098019771263
0.015,1.794375,1.0,1985.3662470183701,0.15540825242480222,1.3385060452737587,0.8444262146335924,0.28841675,0.6346098766362245
0.0155,1.79399375,1.0,2032.6124463315905,0.16014574353894426,1.3378332884867166,0.8518955695966579,0.2884007375,0.6360608073668717
0.016,1.7936,1.0,2077.498802646593,0.16485666177396802,1.337185250975625,0.8588242463802844,0.2883842,0.6374556968255892
0.0165,1.7931937500000001,1.0,2120.1076643098754,0.16954115639607822,1.3365601039382784,0.8652615706121488,0.2883671375,0.6387987769038752
0.017,1.792775,1.0,2160.5079229831795,0.17419937440107344,1.3359562870170758,0.871251657865327,0.28834955,0.6400936645845032
0.0175,1.7923437500000001,1.0,2198.779241158319,0.17883146278475218,1.3353722398544163,0.8768339516250193,0.2883314375,0.6413439436703822
0.018000000000000002,1.7919,1.0,2235.011145925257,0.1834375685429129,1.3348064020926989,0.8820437726661502,0.2883128,0.6425531668295347
0.0185,1.79144375,1.0,2269.2853111242057,0.18801783696600105,1.3342573815037517,0.8869128428217076,0.2882936375,0.6437244990760695
0.019,1.790975,1.0,2301.700137392893,0.19257241537581127,1.3337236968426684,0.8914696379130982,0.28827395,0.6448612696609144
0.0195,1.79049375,1.0,2332.3247930969846,0.19710144671272517,1.3332042260959651,0.8957398647219037,0.2882537375,0.645966019489123
0.02,1.79,1.0,2361.2284185093404,0.20160507323186772,1.332697903534842,0.899746702690434,0.288233,0.647041151095411
0.0205,1.78949375,1.0,2388.4852724425855,0.20608343718836392,1.3322036634304997,0.9035110747506783,0.2882117375,0.6480890497555973
0.021,1.788975,1.0,2414.1743007758423,0.21053668083733873,1.3317204400541383,0.9070518977192532,0.28818995000000003,0.6491120843440334
0.021500000000000002,1.78844375,1.0,2438.3632552443605,0.21496494418705928,1.3312473164985197,0.9103863323847008,0.2881676375,0.6501122937261783
0.022,1.7879,1.0,2461.138290481912,0.21936837058625225,1.3307832342641284,0.9135299160233376,0.2881448,0.6510920023270497
0.0225,1.78734375,1.0,2482.557669161379,0.22374709813721746,1.330327434593873,0.9164968198575674,0.28812143749999997,0.6520528888859395
0.023,1.786775,1.0,2502.6771384924386,0.2281012640797761,1.32987920838231,0.9192999449210202,0.28809755,0.6529965174651162
0.0235,1.78619375,1.0,2521.55485407655,0.2324310056537493,1.3294378465239969,0.9219510450830476,0.28807313749999996,0.6539244428495902
0.024,1.7856,1.0,2539.2511776591746,0.23673646009895824,1.3290026399134902,0.9244608449011992,0.2880482,0.6548382108735789
0.0245,1.78499375,1.0,2555.8248683417864,0.24101776395416552,1.3285729134276496,0.9268391496158104,0.2880227375,0.6557392875053134
0.025,1.784375,1.0,2571.328786601345,0.24527505242758985,1.3281480639589174,0.9290949431271734,0.28799675,0.6566289799745353
0.025500000000000002,1.78374375,1.0,2585.833968910128,0.24950846365761414,1.3277273330701,0.931236432459252,0.2879702375,0.6575089131338001
0.026000000000000002,1.7831000000000001,1.0,2599.3816162195876,0.2537181295400778,1.327310254943927,0.9332711931651198,0.2879432,0.6583800925017267
0.0265,1.78244375,1.0,2612.0140461752976,0.2579041819708201,1.3268963637631273,0.9352061846996603,0.2879156375,0.659243518362389
0.027,1.781775,1.0,2623.774599494768,0.2620667528456805,1.3264851937104298,0.9370478087858163,0.28788755,0.6601001858669104
0.0275,1.7810937500000001,1.0,2634.707551155933,0.26620597406049834,1.3260762789685636,0.9388019615412844,0.2878589375,0.6609510851212228
0.028,1.7804,1.0,2644.858026396635,0.2703219775111129,1.3256691537202578,0.9404740801000131,0.2878298,0.6617972012599843
0.0285,1.77969375,1.0,2654.2641734905424,0.27441489153528253,1.3252634235660528,0.942069193237536,0.2878001375,0.6626393663587071
0.029,1.778975,1.0,2662.9755937704185,0.27848485046717086,1.3248585946536944,0.9435919374924742,0.28776995,0.6634786144120749
0.029500000000000002,1.7782437500000001,1.0,2671.0248004782216,0.2825319818319163,1.3244543361307186,0.9450466233918652,0.2877392375,0.6643156370088479
0.03,1.7775,1.0,2678.4421592906847,0.28655641199438103,1.3240503412869744,0.9464372469328962,0.287708,0.665151072422817
0.0305,1.77674375,1.0,2685.2584616201707,0.29055826731942724,1.3236463034123112,0.9477675139149978,0.2876762375,0.6659855557638592
0.031,1.775975,1.0,2691.5048854760344,0.29453767417191706,1.3232419157965782,0.9490408646658938,0.28764395,0.6668197189800951
0.0315,1.7751937500000001,1.0,2697.2129584117793,0.2984947589167126,1.3228368717296246,0.9502604963705333,0.2876111375,0.6676541908540494
0.032,1.7744,1.0,2702.4143693076167,0.30242964779032633,1.3224308659012458,0.9514293833930789,0.2875778,0.6684895941140716
0.0325,1.77359375,1.0,2707.1316315705503,0.30634245799325455,1.3220236793127735,0.9525503030688298,0.2875439375,0.6693263710518622
0.033,1.772775,1.0,2711.4086260431322,0.31023332760869343,1.3216149001088497,0.9536258274862132,0.28750955,0.6701653572320618
0.0335,1.7719437500000002,1.0,2715.2644939856377,0.3141023764986007,1.321204344261079,0.9546583773525399,0.2874746375,0.6710069171805173
0.034,1.7711000000000001,1.0,2718.7185368036617,0.3179497245249341,1.320791827741066,0.9556502130497507,0.2874392,0.6718514134392419
0.0345,1.7702437500000001,1.0,2721.7902006396384,0.3217754915496514,1.320377166520415,0.9566034471440491,0.2874032375,0.6726992065444846
0.035,1.7693750000000001,1.0,2724.499061714481,0.3255797974347104,1.3199601765707305,0.9575200557798527,0.28736675,0.673550655002637
0.035500000000000004,1.76849375,1.0,2726.8648124208053,0.3293627620420688,1.3195406738636175,0.9584018890692169,0.2873297375,0.6744061152639835
0.036000000000000004,1.7676,1.0,2728.9072481664416,0.3331245052336845,1.3191184743706805,0.9592506805757431,0.2872922,0.6752659416942899
0.0365,1.76669375,1.0,2730.646254969337,0.33686514687151503,1.3186933940635241,0.9600680559812439,0.2872541375,0.6761304865442326
0.037,1.765775,1.0,2732.1017978028704,0.34058480681751835,1.3182652489137527,0.9608555410139893,0.28721555,0.6770000999166679
0.0375,1.7648468004038764,1.0,2733.455537069472,0.3442835991700089,1.3178337644046005,0.9616145586267039,0.2871765656169628,0.6778753131517885
0.038,1.7639180331066031,1.0,2735.1124727152624,0.3479616462675914,1.3173992733713298,0.9623465065624847,0.2871375573904773,0.6787554249469129
0.0385,1.7629892658093298,1.0,2737.062241333565,0.3516190675156724,1.31696212876279,0.9630527003161568,0.28709854916399186,0.6796396968436242
0.039,1.7620604985120563,1.0,2739.2849980291785,0.3552559759219827,1.31652251347358,0.9637343606562285,0.28705954093750635,0.6805277374501509
0.0395,1.761131731214783,1.0,2741.760907867921,0.3588724844942532,1.3160806103982985,0.9643926373023628,0.2870205327110209,0.6814191573030581
0.04,1.7602029639175094,1.0,2744.470136228162,0.3624687062402146,1.315636602431544,0.9650286138248921,0.2869815244845354,0.6823135688949982
0.0405,1.759274196620236,1.0,2747.392839895055,0.3660447541675978,1.3151906724679152,0.9656433121569216,0.2869425162580499,0.6832105867003297
0.041,1.7583454293229628,1.0,2750.509158895824,0.36960074128413367,1.3147430034020107,0.9662376967533809,0.28690350803156445,0.684109827198603
0.0415,1.7574166620256892,1.0,2753.799209076331,0.37313678059755295,1.3142937781284292,0.9668126784280283,0.28686449980507894,0.6850109088959111
0.042,1.756487894728416,1.0,2757.2430754204834,0.3766529851155866,1.3138431795417693,0.9673691178963962,0.2868254915785935,0.6859134523441095
0.0425,1.7555591274311426,1.0,2760.8213527738135,0.38014946745425265,1.3133913855959283,0.9679078285783277,0.286786483352108,0.6868170900327303
0.043000000000000003,1.754630360133869,1.0,2764.5231092180547,0.3836263362758429,1.3129384973495142,0.9684295732512108,0.2867474751256225,0.6877216099382274
0.043500000000000004,1.7537015928365958,1.0,2768.3315088773625,0.3870837058399373,1.312484668954119,0.9689350792871497,0.28670846689913704,0.6886266953719218
0.044,1.7527728255393225,1.0,2772.237758213053,0.39052168352734856,1.3120299816604597,0.9694250289704348,0.28666945867265153,0.6895321764826952
0.0445,1.751844058242049,1.0,2776.2330435215117,0.3939403767188899,1.3115745167192538,0.9699000691243815,0.2866304504461661,0.6904378843468222
0.045,1.7509152909447756,1.0,2780.308529459557,0.3973398927953741,1.3111183553812185,0.9703608133052514,0.2865914422196806,0.6913436509722126
0.0455,1.749986523647502,1.0,2784.4553577171228,0.40072033913761435,1.3106615788970708,0.9708078438398813,0.2865524339931951,0.6922493093022292
0.046,1.7490577563502288,1.0,2788.664645835855,0.40408182312642343,1.310204268517528,0.9712417137195561,0.2865134257667096,0.6931546932190862
0.0465,1.7481289890529554,1.0,2792.92748617401,0.40742445214261436,1.3097465054933068,0.9716629483615571,0.2864744175402241,0.6940596375468266
0.047,1.747200221755682,1.0,2797.2431658292403,0.4107483208151104,1.3092882972613735,0.9720720402293006,0.2864354093137386,0.694964123651659
0.0475,1.7462714544584086,1.0,2801.5945686975465,0.41405355336544697,1.3088297984154946,0.9724694721284501,0.28639640108725317,0.6958678431461893
0.048,1.7453426871611353,1.0,2805.9776389434046,0.4173402521843091,1.3083710459926003,0.9728556923663754,0.28635739286076767,0.6967707206423137
0.0485,1.7444139198638617,1.0,2810.3890680947784,0.42060851839659796,1.3079120702234188,0.9732311271851756,0.28631838463428216,0.6976726945495166
0.049,1.7434851525665884,1.0,2814.825537444435,0.42385845312721443,1.3074529013386784,0.9735961826519268,0.2862793764077967,0.6985737036301942
0.0495,1.742556385269315,1.0,2819.283717910409,0.4270901575010596,1.3069935695691073,0.9739512457988526,0.2862403681813112,0.6994736870000564
0.05,1.7416276179720416,1.0,2823.7602699169292,0.4303037326430345,1.3065341051454336,0.9742966856890837,0.28620135995482576,0.7003725841284703
0.0505,1.7406988506747683,1.0,2828.2518432951415,0.4334992796780401,1.3060745382983856,0.9746328544134949,0.28616235172834026,0.7012703348387439
0.051000000000000004,1.7397700833774947,1.0,2832.755077204428,0.4366768997309774,1.3056148992586918,0.9749600880236584,0.28612334350185475,0.7021668793083535
0.051500000000000004,1.7388413160802214,1.0,2837.266600074085,0.4398366939267474,1.3051552182570798,0.975278707405533,0.2860843352753693,0.7030621580691134
0.052000000000000005,1.737912548782948,1.0,2841.7830295645367,0.44297876339025116,1.3046955255242785,0.9755890190981504,0.2860453270488838,0.7039561120072824
0.0525,1.7369837814856746,1.0,2846.300972550006,0.44610320924638963,1.3042358512910155,0.9758913160612103,0.28600631882239835,0.7048486823636196
0.053,1.7360550141884012,1.0,2850.820317648211,0.4492101162229358,1.303776196503907,0.9761858748839808,0.28596731059591285,0.7057398674668995
0.0535,1.7351262468911277,1.0,2855.3373072590457,0.45229959587937846,1.3033165945107799,0.9764729648874828,0.28592830236942735,0.7066296029795381
0.054,1.7341974795938544,1.0,2859.848192007365,0.4553717583046082,1.3028570784810727,0.9767528435926598,0.2858892941429419,0.707517825299456
0.0545,1.733268712296581,1.0,2864.3522536827145,0.45842669678952236,1.3023976545842113,0.9770257542309772,0.2858502859164564,0.7084045232843368
0.055,1.7323399449993075,1.0,2868.848771941629,0.4614645046250184,1.3019383289896205,0.9772919297601893,0.28581127768997094,0.709289685864017
0.0555,1.7314111777020342,1.0,2873.3370243198156,0.4644852751019938,1.3014791078667263,0.9775515933841419,0.28577226946348544,0.7101733020404427
0.056,1.730482410404761,1.0,2877.8162862465956,0.46748910151134593,1.3010199973849537,0.977804959042121,0.28573326123699994,0.7110553608876355
0.0565,1.7295536431074874,1.0,2882.2858310594124,0.4704760771439722,1.300561003713728,0.9780522318697679,0.2856942530105145,0.7119358515516465
0.057,1.728624875810214,1.0,2886.7449300192206,0.47344629529077015,1.3001021330224751,0.9782936086334353,0.285655244784029,0.7128147632505123
0.0575,1.7276961085129408,1.0,2891.19285232729,0.4763998492426371,1.29964339148062,0.9785292781397147,0.28561623655754353,0.7136920852742088
0.058,1.7267673412156672,1.0,2895.6288651419086,0.4793368322904705,1.2991847852575884,0.9787594216217453,0.28557722833105803,0.7145678069846004
0.0585,1.725838573918394,1.0,2900.05223359708,0.4822573377251679,1.2987263205228055,0.978984213103795,0.2855382201045725,0.7154419178153895
0.059000000000000004,1.7249098066211204,1.0,2904.4622208209807,0.4851614588376265,1.2982680034456966,0.9792038197455013,0.285499211878087,0.7163144072720597
0.059500000000000004,1.723981039323847,1.0,2908.858087956042,0.48804928891874394,1.2978098401956875,0.9794184021670533,0.2854602036516016,0.7171852649318211
0.06,1.7230522720265737,1.0,2913.2390941792937,0.4909209212594175,1.2973518369422032,0.9796281147565196,0.2854211954251161,0.7180544804435504
0.0605,1.7221235047293002,1.0,2917.6044967238668,0.49377644915054475,1.2968939998546694,0.9798331059604228,0.2853821871986306,0.7189220435277284
0.061,1.7211947374320269,1.0,2921.955446993793,0.49661592287301526,1.2964363184450012,0.9800335143068462,0.2853431789721451,0.719787975468029
0.0615,1.7202659701347536,1.0,2926.2902304397862,0.4994394845566796,1.2959788074170662,0.9802294815671709,0.2853041707456596,0.7206522498723573
0.062,1.71933720283748,1.0,2930.608659236996,0.5022472251427854,1.295521468040055,0.9804211395092486,0.28526516251917416,0.7215148658400852
0.0625,1.7184084355402067,1.0,2934.9107777162358,0.5050392290406486,1.295064299546104,0.9806086144004235,0.28522615429268866,0.7223758263181348
0.063,1.7174796682429334,1.0,2939.1966306604095,0.5078155806595851,1.2946073011673491,0.9807920278539242,0.2851871460662032,0.7232351342439122
0.0635,1.7165509009456599,1.0,2943.466263300928,0.510576364408911,1.2941504721359267,0.9809714970351444,0.2851481378397177,0.724092792545317
0.064,1.7156221336483866,1.0,2947.7197213152617,0.513321664697942,1.293693811683973,0.9811471348573095,0.2851091296132322,0.7249488041407496
0.0645,1.714693366351113,1.0,2951.9570508239312,0.5160515659359944,1.2932373190436244,0.9813190501671518,0.28507012138674676,0.7258031719391188
0.065,1.7137645990538397,1.0,2956.17829838757,0.518766152532384,1.292780993447017,0.9814873479211713,0.28503111316026125,0.7266558988398528
0.0655,1.7128358317565664,1.0,2960.3835110042487,0.5214655088964267,1.2923248341262872,0.9816521293530271,0.2849921049337758,0.727506987732904
0.066,1.7119070644592929,1.0,2964.572736106364,0.5241497194374386,1.2918688403135712,0.9818134921325643,0.2849530967072903,0.7283564414987599
0.0665,1.7109782971620195,1.0,2968.746021558189,0.5268188685647355,1.2914130112410052,0.9819715305169501,0.2849140884808048,0.7292042630084496
0.067,1.710049529864746,1.0,2972.90341565279,0.5294730406876335,1.2909573461407255,0.9821263354943676,0.28487508025431935,0.7300504551235524
0.0675,1.7091207625674727,1.0,2977.044967109124,0.5321123202154484,1.2905018442448686,0.9822779949206811,0.28483607202783384,0.7308950206962057
0.068,1.7081919952701994,1.0,2981.170725069734,0.5347367915574962,1.2900465047855705,0.9824265936494626,0.2847970638013484,0.7317379625691136
0.0685,1.7072632279729258,1.0,2985.280739097396,0.537346539123093,1.2895913269949675,0.9825722136557496,0.2847580555748629,0.7325792835755542
0.069,1.7063344606756525,1.0,2989.375059172733,0.5399416473215547,1.2891363101051958,0.9827149341538741,0.2847190473483774,0.7334189865393879
0.0695,1.7054056933783792,1.0,2993.453735691544,0.5425222005621972,1.2886814533483917,0.9828548317096876,0.28468003912189194,0.7342570742750649
0.07,1.7044769260811057,1.0,2997.5168194615503,0.5450882832543366,1.2882267559566916,0.9829919803474848,0.28464103089540643,0.7350935495876332
0.07050000000000001,1.7035481587838324,1.0,3001.5643351596677,0.5476399241958958,1.287772217392283,0.9831264483067041,0.284602022668921,0.7359284148505377
0.07100000000000001,1.702619391486559,1.0,3005.596644602625,0.5501772497875715,1.2873178341999274,0.9832583073356997,0.2845630144424355,0.736761677776349
0.07150000000000001,1.7016906241892855,1.0,3009.6139526330567,0.5527003691576227,1.2868636042938806,0.9833876258530146,0.28452400621595,0.7375933435316451
