Time [s],Phi [rad],STIM [ ],Fsee [N],Gamma [ ],Lcerel [ ],q [ ],Lmtc [m],fisomrel [ ]
0.0,1.8,1.0,17.97614325287347,9.269766986142106e-05,1.379338739715499,0.005002250247602927,0.288653,0.5411419660429111
0.0005,1.79999375,1.0,18.312811606784987,0.005701387018058557,1.3792983833712926,0.01317169162536758,0.2886527375,0.5412395930227166
0.001,1.799975,1.0,21.71587073965265,0.011278616053534309,1.3789283562289445,0.03604080130922127,0.28865195,0.5421342501455043
0.0015,1.79994375,1.0,31.29815053264206,0.016824561244693125,1.3780267367889414,0.07119252242013396,0.2886506375,0.54431054296143
0.002,1.7999,1.0,54.073367965153075,0.0223393980681769,1.3763363520603218,0.11541702602297162,0.2886488,0.5483767542025815
0.0025,1.79984375,1.0,97.94223606419246,0.027823301016968914,1.3738955781979958,0.16533501460659042,0.28864643749999996,0.5542158692729159
0.003,1.7997750000000001,1.0,162.0282514713581,0.03327644360736268,1.371174355821405,0.21806444231748895,0.28864354999999997,0.5606811147339449
0.0035,1.79969375,1.0,238.89173593738806,0.03869899837916126,1.3685475593714262,0.2713925255116329,0.2886401375,0.5668772209227202
0.004,1.7996,1.0,322.75198851996987,0.04409113690628465,1.366122085857414,0.3236706156831241,0.2886362,0.5725593694114044
0.0045000000000000005,1.7994937500000001,1.0,410.5983432564569,0.04945302980200663,1.3638916054351247,0.3737509639743021,0.2886317375,0.5777515927737485
0.005,1.799375,1.0,500.7709768724722,0.05478484671048674,1.3618295157399103,0.42091771863819516,0.28862675,0.5825236018476467
0.0055,1.79924375,1.0,592.1595985742412,0.06008675634977282,1.35991210003398,0.46479422868394793,0.2886212375,0.5869364803862577
0.006,1.7991000000000001,1.0,683.8884905549994,0.0653589264656301,1.3581215173373151,0.5052502115730274,0.2886152,0.591036284502612
0.006500000000000001,1.79894375,1.0,775.2435840011941,0.07060152387718734,1.356444008041994,0.5423221484766124,0.2886086375,0.5948586388104559
0.007,1.798775,1.0,865.6166278169229,0.07581471418934078,1.3548689063125259,0.5761520744892016,0.28860155,0.5984313116471676
0.0075,1.79859375,1.0,954.5677331181373,0.08099866320723788,1.3533864138118774,0.6069420451641216,0.2885939375,0.6017794723634584
0.008,1.7984,1.0,1041.6623101859843,0.08615353422052224,1.3519894557087897,0.634924638215168,0.2885858,0.6049216296869578
0.0085,1.79819375,1.0,1126.5811551814659,0.09127949015361188,1.3506713115059752,0.6603411104159939,0.2885771375,0.6078750997661968
0.009000000000000001,1.797975,1.0,1209.1095003776152,0.09637669360578117,1.3494255152668724,0.6834285022706343,0.28856795,0.6106562795933698
0.0095,1.79774375,1.0,1289.066671442924,0.10144530597871795,1.348246586022661,0.7044124244157172,0.2885582375,0.6132790667205403
0.01,1.7975,1.0,1366.312467338239,0.10648548729154392,1.3471296666474089,0.7235027193458953,0.288548,0.615755722363708
0.0105,1.79724375,1.0,1440.7617457809697,0.11149739692832811,1.3460701535650386,0.7408914762575094,0.2885372375,0.6180977321794344
0.011,1.796975,1.0,1512.3856536980227,0.11648119432132738,1.3450635655539152,0.7567526668264287,0.28852595000000003,0.620316121579142
0.0115,1.79669375,1.0,1581.146048209447,0.12143703639442587,1.3441062394116905,0.771243047772922,0.2885141375,0.6224199489730369
0.012,1.7964,1.0,1647.0447152096363,0.12636507977708028,1.3431946057832689,0.7845028708327606,0.28850180000000003,0.6244179290856717
0.0125,1.79609375,1.0,1710.1075160924424,0.1312654804323389,1.3423253129730888,0.7966572698257625,0.2884889375,0.6263181763325154
0.013000000000000001,1.7957750000000001,1.0,1770.397494277365,0.13613839452136992,1.3414950160633787,0.8078175865613145,0.28847555,0.628128679859288
0.0135,1.79544375,1.0,1827.9523840516463,0.14098397547502253,1.340701032248461,0.8180830326570907,0.2884616375,0.6298558884720447
0.014,1.7951000000000001,1.0,1882.821763366365,0.14580237608101665,1.3399408506883395,0.8275418045947772,0.2884472,0.6315057973000259
0.0145,1.79474375,1.0,1935.0789786497078,0.1505937490722064,1.3392119660011363,0.8362722604599679,0.2884322375,0.6330843179899359
0.015,1.794375,1.0,1984.8075728985166,0.1553582461221261,1.3385119999227997,0.8443440950174298,0.28841675,0.6345970213911558
0.0155,1.79399375,1.0,2032.093229653269,0.16009601902696913,1.337838757846076,0.851819371884545,0.2884007375,0.63604902326856
0.016,1.7936,1.0,2077.0028212206976,0.16480721656291225,1.3371904188068648,0.858753475977126,0.2883842,0.637444583752714
0.0165,1.7931937500000001,1.0,2119.6172795750736,0.16949198750613226,1.3365651618410666,0.865195787859079,0.2883671375,0.63878792039189
0.017,1.792775,1.0,2160.0237991990393,0.1741504799678312,1.335961233428047,0.8711904145061066,0.28834955,0.6400830664333714
0.0175,1.7923437500000001,1.0,2198.313934275516,0.17878284208545966,1.3353769524374883,0.8767768137138667,0.2883314375,0.6413338640744346
0.018000000000000002,1.7919,1.0,2234.583572543763,0.18338922201159955,1.3348106972489187,0.8819903359210034,0.2883128,0.6425439955602454
0.0185,1.79144375,1.0,2268.8981977141293,0.18796976384787895,1.3342612407240082,0.886862786551857,0.2882936375,0.643716272160863
0.019,1.790975,1.0,2301.3305067804854,0.19252461169592613,1.3337273557244276,0.8914227350845506,0.28827395,0.6448534822741754
0.0195,1.79049375,1.0,2331.959816073263,0.19705390965736916,1.3332078151118474,0.8956958862943808,0.2882537375,0.6459583926925667
0.02,1.79,1.0,2360.87150070042,0.20155780183383618,1.3327013917479378,0.8997054055014507,0.288233,0.6470337497735499
0.0205,1.78949375,1.0,2388.136961135166,0.2060364297993202,1.3322070480472676,0.9034722449348883,0.2882117375,0.6480818789149247
0.021,1.788975,1.0,2413.849684674665,0.2104899383824614,1.33172357758296,0.9070153126431537,0.28818995000000003,0.6491054466695216
0.021500000000000002,1.78844375,1.0,2438.0688100327225,0.21491846675330828,1.3312501482542174,0.9103518077522373,0.2881676375,0.6501063114845631
0.022,1.7879,1.0,2460.8561862566035,0.21932215397934235,1.3307859347468696,0.9134973298440409,0.2881448,0.651086305400637
0.0225,1.78734375,1.0,2482.2767876318844,0.22370113912804518,1.3303301117467454,0.9164660485994237,0.28812143749999997,0.6520472489584908
0.023,1.786775,1.0,2502.3984492999975,0.2280555612668983,1.329881853939674,0.9192708546689642,0.28809755,0.652990951662384
0.0235,1.78619375,1.0,2521.2830484634733,0.2323855573206431,1.3294404170576444,0.9219235068584859,0.28807313749999996,0.6539190421201702
0.024,1.7856,1.0,2538.9973809685453,0.23669126731831988,1.329005031749246,0.9244347314953508,0.2880482,0.6548331922311152
0.0245,1.78499375,1.0,2555.59533375722,0.24097282724697536,1.3285750695813423,0.9268143526486583,0.2880227375,0.6557347692908676
0.025,1.784375,1.0,2571.1253770460953,0.2452303709582661,1.328149968930544,0.9290713697805362,0.28799675,0.6566249932744994
0.025500000000000002,1.78374375,1.0,2585.6374677042704,0.24946403230384873,1.3277291681734613,0.93121402861292,0.2879702375,0.6575050775775865
0.026000000000000002,1.7831000000000001,1.0,2599.18292192018,0.25367394513537983,1.3273121056867048,0.9332498944952123,0.2879432,0.6583762291802788
0.0265,1.78244375,1.0,2611.814294862168,0.25786024330451596,1.326898219846885,0.9351859177351074,0.2879156375,0.6592396487912552
0.027,1.781775,1.0,2623.574659889723,0.2620230574244742,1.3264870473753028,0.9370285056943491,0.28788755,0.6600963261994797
0.0275,1.7810937500000001,1.0,2634.5154273205053,0.2661625231774432,1.3260780564715353,0.9387835514482815,0.2878589375,0.6609473886726602
0.028,1.7804,1.0,2644.681841865175,0.27027877298944436,1.325670780621551,0.9404564976439439,0.2878298,0.6617938222236912
0.0285,1.77969375,1.0,2654.1076898927013,0.2743719348417451,1.325264865982047,0.9420523836561444,0.2878001375,0.6626363742272992
0.029,1.778975,1.0,2662.8273684561327,0.2784421367156128,1.32485995870972,0.9435758673246717,0.28776995,0.6634757883517824
0.029500000000000002,1.7782437500000001,1.0,2670.875831713855,0.28248950659231475,1.3244557049612669,0.9450312587660199,0.2877392375,0.6643128045857378
0.03,1.7775,1.0,2678.2885401268722,0.2865141724531184,1.3240517508933844,0.946422550784851,0.287708,0.6651481592567983
0.0305,1.77674375,1.0,2685.101412432197,0.29051626227929117,1.3236477426627697,0.9477534462641464,0.2876762375,0.6659825850423902
0.031,1.775975,1.0,2691.3507803922344,0.29449590405210047,1.3232433264261192,0.9490273828670563,0.28764395,0.6668168109725043
0.0315,1.7751937500000001,1.0,2697.065449040551,0.29845322029803356,1.3228382205536995,0.9502475626396011,0.2876111375,0.6676514137427325
0.032,1.7744,1.0,2702.2817108081213,0.30238834331744113,1.3224320777594794,0.9514169592883475,0.2875778,0.6684871021419166
0.0325,1.77359375,1.0,2707.0225107208867,0.30630139544608775,1.3220246752794476,0.9525383537607934,0.2875439375,0.6693243256095867
0.033,1.772775,1.0,2711.3105429790403,0.31019249864159315,1.3216157946242948,0.9536143383997128,0.28750955,0.6701635224750747
0.0335,1.7719437500000002,1.0,2715.168697227925,0.3140617748615772,1.3212052173047106,0.9546473316397245,0.2874746375,0.671005128750745
0.034,1.7711000000000001,1.0,2718.6200389010382,0.31790934606365956,1.320792724831386,0.9556395917455097,0.2874392,0.6718495781098682
0.0345,1.7702437500000001,1.0,2721.6877906221152,0.3217353342054599,1.3203780987150104,0.9565932293100669,0.2874032375,0.6726973018614637
0.035,1.7693750000000001,1.0,2724.3953146649255,0.3255398612445981,1.3199611204662747,0.9575102186379609,0.28736675,0.6735487289220857
0.035500000000000004,1.76849375,1.0,2726.7584069502236,0.32932304240185284,1.3195416415257977,0.9583924138814239,0.2873297375,0.6744041432748681
0.036000000000000004,1.7676,1.0,2728.800642945666,0.333085000794412,1.3191194434865514,0.9592415470036879,0.2872922,0.6752639693521483
0.0365,1.76669375,1.0,2730.5521135926183,0.33682586628357125,1.3186942496008167,0.9600592377784408,0.2872541375,0.67612874767657
0.037,1.765775,1.0,2732.025839227487,0.34054575364562684,1.3182659390244655,0.9608470185884362,0.28721555,0.676998699160954
0.0375,1.76484375,1.0,2733.2348984494424,0.3442447776568749,1.3178343909133698,0.9616063286910006,0.2871764375,0.6778740432166046
0.038,1.7639,1.0,2734.192421507752,0.34792305309361143,1.3173994844234016,0.9623385209061134,0.28713679999999997,0.6787549977288229
0.0385,1.76294375,1.0,2734.9115840129575,0.35158069473213266,1.3169610987104332,0.9630448677535712,0.28709663750000003,0.6796417790314893
0.039,1.761975,1.0,2735.405600971594,0.3552178173487347,1.3165191129303362,0.9637265670901141,0.28705595,0.6805346018807178
0.0395,1.7609937500000001,1.0,2735.6877211452875,0.35883453571971363,1.3160734062389832,0.9643847472922235,0.2870147375,0.6814336794275724
0.04,1.76,1.0,2735.7712217328617,0.3624309646213656,1.3156238577922457,0.9650204720256786,0.286973,0.6823392231898606
0.0405,1.7589937500000001,1.0,2735.6694033767917,0.36600721882998666,1.3151703467459959,0.9656347446388714,0.2869307375,0.683251443022987
0.041,1.757975,1.0,2735.395585493167,0.3695634131218731,1.3147127522561057,0.9662285122132105,0.28688795,0.684170547089882
0.0415,1.75694375,1.0,2734.963463902793,0.37309966218357843,1.3142509501914967,0.9668026690050762,0.2868446375,0.6850967484175429
0.042,1.7559,1.0,2734.3863219701584,0.37661607725757634,1.313784820259918,0.9673580599596309,0.28680079999999997,0.6860302505562849
0.0425,1.75484375,1.0,2733.6680957039957,0.38011276846144043,1.3133143271289027,0.9678954910246377,0.2867564375,0.6869710855094482
0.043000000000000003,1.753775,1.0,2732.818189097422,0.3835898457796801,1.3128393858768088,0.9684157207952344,0.28671155,0.6879193834318276
0.043500000000000004,1.75269375,1.0,2731.8460103275606,0.3870474191968044,1.3123599115819942,0.9689194675736424,0.28666613750000003,0.6888752730755383
0.044,1.7516,1.0,2730.7413647311955,0.3904855976934937,1.3118759974826595,0.969407425813335,0.2866202,0.6898385274049623
0.0445,1.75049375,1.0,2729.557300826054,0.39390449182227444,1.3113871621220272,0.969880209307902,0.2865737375,0.6908100614336428
0.045,1.749375303549391,1.0,2728.2978055335457,0.3973042091369859,1.3108935068104055,0.9703384446658389,0.2865267627490744,0.6917896282625267
0.0455,1.748253058315221,1.0,2727.3492364898143,0.4006848563749535,1.3103953111653734,0.9707827398396771,0.28647962844923924,0.6927766288474203
0.046,1.7471308130810508,1.0,2726.869331407876,0.4040465402735028,1.3098928548045106,0.9712136719750013,0.28643249414940414,0.6937704672867046
0.0465,1.7460085678468806,1.0,2726.8272193000594,0.4073893675699593,1.3093864173453957,0.9716317892742045,0.286385359849569,0.6947705508998107
0.047,1.7448863226127105,1.0,2727.19325704513,0.4107134438210448,1.3088762682537793,0.9720376118394348,0.28633822554973387,0.695776310298531
0.0475,1.7437640773785403,1.0,2727.925594571519,0.414018875772025,1.3083627887864644,0.9724316423768172,0.2862910912498987,0.6967869594765126
0.048,1.7426418321443702,1.0,2728.9963838971917,0.41730576726949936,1.3078462334347203,0.9728143498083541,0.28624395695006355,0.6978019660716063
0.0485,1.7415195869102,1.0,2730.380282056578,0.42057422153915164,1.307326834328916,0.9731861788714408,0.2861968226502284,0.6988208447109919
0.049,1.7403973416760299,1.0,2732.0519770252617,0.42382434180666556,1.3068048235994194,0.9735475531376133,0.2861496883503932,0.6998431129340853
0.0495,1.7392750964418597,1.0,2733.986173681472,0.427056231297725,1.3062804333765996,0.9738988762194194,0.2861025540505581,0.7008682912329156
0.05,1.7381528512076896,1.0,2736.167896481861,0.4302699881733979,1.305753802140878,0.9742405260312362,0.28605541975072296,0.7018960857027958
0.0505,1.7370306059735194,1.0,2738.561711491376,0.4334657220385787,1.3052252541186826,0.9745728766675277,0.2860082854508878,0.702925842628143
0.051000000000000004,1.7359083607393493,1.0,2741.150627576199,0.4366435334479859,1.3046949459367883,0.9748962730911783,0.2859611511510527,0.7039572382671482
0.051500000000000004,1.7347861155051791,1.0,2743.921598703174,0.4398035209458427,1.304162998359459,0.9752110421172036,0.28591401685121753,0.7049900205005861
0.052000000000000005,1.733663870271009,1.0,2746.861570714704,0.4429457830763723,1.3036295321509592,0.975517495924188,0.2858668825513824,0.706023938793972
0.0525,1.7325416250368388,1.0,2749.9574771006064,0.4460704183837979,1.3030946680755533,0.9758159328404524,0.2858197482515472,0.7070587442097263
0.053,1.7314193798026687,1.0,2753.1962350937783,0.44917752541234285,1.302558526897505,0.9761066380814799,0.28577261395171205,0.7080941894184047
0.0535,1.7302971345684985,1.0,2756.5647420889795,0.4522672027062303,1.3020212293810791,0.9763898844420154,0.28572547965187695,0.7091300287089974
0.054,1.7291748893343284,1.0,2760.049872384802,0.4553395488096834,1.3014828962905398,0.9766659329459834,0.2856783453520418,0.7101660179983024
0.0545,1.7280526441001582,1.0,2763.6384742498108,0.45839466226692555,1.300943648390151,0.9769350334571324,0.2856312110522066,0.7112019148393658
0.055,1.726930398865988,1.0,2767.325066858127,0.4614326350701195,1.3004035369381002,0.9771974204708717,0.2855840767523715,0.7122376115914525
0.0555,1.725808153631818,1.0,2771.0935827802064,0.46445357192566644,1.2998627086058405,0.977453325497289,0.28553694245253636,0.7132728188379107
0.056,1.7246859083976478,1.0,2774.9381272157184,0.46745756622346724,1.2993212179962084,0.9777029639602974,0.2854898081527012,0.7143074249275074
0.0565,1.7235636631634776,1.0,2778.8529195397177,0.4704447112203577,1.2987791185600266,0.9779465423338407,0.28544267385286604,0.7153413211495332
0.057,1.7224414179293075,1.0,2782.8321650199005,0.47341510017317356,1.2982364637481174,0.9781842586633014,0.28539553955303093,0.7163743995249294
0.0575,1.7213191726951373,1.0,2786.8700541267312,0.4763688263387507,1.2976933070113035,0.978416302979185,0.28534840525319577,0.7174065528082711
0.058,1.7201969274609672,1.0,2790.9607619071476,0.4793059829739249,1.2971497018004075,0.9786428576873081,0.2853012709533606,0.7184376744895693
0.0585,1.719074682226797,1.0,2795.098447421272,0.482226663335532,1.2966057015662518,0.9788640979369982,0.2852541366535255,0.7194676587958916
0.059000000000000004,1.717952436992627,1.0,2799.277253242409,0.4851309606804078,1.2960613597596586,0.979080191968711,0.28520700235369034,0.7204964006927996
0.059500000000000004,1.7168301917584567,1.0,2803.4928360921326,0.48801896434693526,1.295516716099474,0.9792913003690709,0.2851598680538552,0.7215238217658893
0.06,1.7157079465242866,1.0,2807.7434855133397,0.490890759158705,1.2949717865955244,0.9794975758539172,0.28511273375402,0.722549888752055
0.0605,1.7145857012901164,1.0,2812.0182487297543,0.4937464555288519,1.2944266699815588,0.9796991717588017,0.28506559945418486,0.723574413276691
0.061,1.7134634560559463,1.0,2816.31509287082,0.4965861404492484,1.2938813848750672,0.9798962294417444,0.28501846515434975,0.7245973584946194
0.0615,1.7123412108217761,1.0,2820.631978918378,0.4994099009117672,1.2933359498935395,0.9800888849209706,0.2849713308545146,0.7256186878190526
0.062,1.711218965587606,1.0,2824.9668616413946,0.5022178239082807,1.2927903836544654,0.9802772691177377,0.28492419655467943,0.7266383649217824
0.0625,1.7100967203534359,1.0,2829.317689537603,0.5050099964306618,1.2922447047753347,0.9804615080863539,0.2848770622548443,0.7276563537333465
0.063,1.7089744751192657,1.0,2833.6824047829678,0.5077865054707826,1.2916989318736374,0.980641723232162,0.28482992795500917,0.7286726184431731
0.0635,1.7078522298850956,1.0,2838.058943189695,0.5105474380205162,1.2911530835668628,0.9808180315181976,0.284782793655174,0.7296871234997049
0.064,1.7067299846509254,1.0,2842.445234170536,0.5132928810717348,1.2906071784725013,0.980990545661192,0.28473565935533884,0.7306998336104968
0.0645,1.7056077394167553,1.0,2846.839200712033,0.516022921616311,1.2900612352080423,0.9811593743175441,0.2846885250555037,0.7317107137422985
0.065,1.704485494182585,1.0,2851.238759354792,0.5187376466461175,1.2895152723909755,0.9813246222598413,0.2846413907556686,0.7327197291211073
0.0655,1.703363248948415,1.0,2855.6418201812307,0.5214371431530269,1.288969308638791,0.9814863905444795,0.2845942564558334,0.7337268452322039
0.066,1.7022410037142448,1.0,2860.0462868117875,0.5241214981289116,1.2884233625689785,0.981644776670885,0.2845471221559983,0.7347320278201646
0.0665,1.7011187584800747,1.0,2864.4504535310057,0.526790795011886,1.287877449275387,0.9817998743225304,0.28449998785616315,0.7357352493580898
0.067,1.6999965132459045,1.0,2868.8561123121704,0.5294450921519813,1.2873315527946239,0.9819517707780588,0.284452853556328,0.7367365394407853
0.0675,1.6988742680117344,1.0,2873.257702045993,0.5320845177502374,1.2867857223555645,0.982100558037701,0.28440571925649283,0.73773580820471
0.068,1.6977520227775642,1.0,2877.6547795966076,0.5347091510929797,1.28623996172939,0.9822463195944802,0.28435858495665767,0.7387330494552211
0.0685,1.6966297775433943,1.0,2882.0469005572054,0.5373190714665338,1.285694274687281,0.9823891361178773,0.28431145065682256,0.7397282570500906
0.069,1.695507532309224,1.0,2886.433619255694,0.5399143581572251,1.2851486650004185,0.9825290855691007,0.2842643163569874,0.7407214248994871
0.0695,1.694385287075054,1.0,2890.814488761513,0.5424950904513793,1.284603136439983,0.9826662433108888,0.2842171820571523,0.741712546965958
0.07,1.6932630418408836,1.0,2895.1890608916174,0.5450613476353218,1.2840576927771556,0.9828006822121391,0.28417004775731713,0.7427016172644103
0.07050000000000001,1.6921407966067137,1.0,2899.5568862179607,0.547613208995378,1.2835123377831172,0.9829324727476437,0.284122913457482,0.7436886298620906
0.07100000000000001,1.6910185513725433,1.0,2903.917514074545,0.5501507538178736,1.2829670752290485,0.9830616830931893,0.2840757791576468,0.744673578878565
0.07150000000000001,1.6898963061383734,1.0,2908.2704925649978,0.552674061389134,1.2824219088861302,0.9831883792162687,0.28402864485781165,0.7456564584856964
0.07200000000000001,1.688774060904203,1.0,2912.615368570318,0.5551832109954846,1.2818768425255433,0.983312624962631,0.2839815105579765,0.7466372629076213
0.0725,1.687651815670033,1.0,2916.951687757487,0.5576782819232511,1.2813318799184688,0.983434482138893,0.2839343762581414,0.7476159864207279
