Time [s],Phi [rad],STIM [ ],Fsee [N],Gamma [ ],Lcerel [ ],q [ ],Lmtc [m],fisomrel [ ]
0.0,1.8,1.0,17.967702249044805,1.0000065378603772e-05,1.3793396852648627,0.005000026652115614,0.288653,0.5411396785177134
0.0005,1.79999375,1.0,18.276983877178345,0.005619153281714459,1.3793023611601316,0.012940513598346956,0.2886527375,0.5412299707217765
0.001,1.799975,1.0,21.618573453208064,0.011196843583429325,1.3789382825144505,0.03560857507976418,0.28865195,0.542110261623082
0.0015,1.79994375,1.0,31.069332970552477,0.016743247453457625,1.3780461954677876,0.07060170241906953,0.2886506375,0.5442636291209544
0.002,1.7999,1.0,53.58222544057548,0.022258540383084634,1.3763681422225729,0.11471783321291663,0.2886488,0.5483004512752844
0.0025,1.79984375,1.0,97.11839510890943,0.027742896879506,1.3739351934031887,0.16457467063970324,0.28864643749999996,0.5541214003014027
0.003,1.7997750000000001,1.0,160.95746123745903,0.03319649047354876,1.371214370166959,0.21728022464059807,0.28864354999999997,0.5605863883340176
0.0035,1.79969375,1.0,237.68252874491634,0.038619493719260045,1.3685847589614788,0.27061266021665364,0.2886401375,0.5667897814454993
0.004,1.7996,1.0,321.4659304541191,0.04401207820469001,1.3661561146680063,0.3229155806092086,0.2886362,0.5724799097296869
0.0045000000000000005,1.7994937500000001,1.0,409.2669097397572,0.04937441455707618,1.3639228339092264,0.3730342980020314,0.2886317375,0.5776791165799668
0.005,1.799375,1.0,499.4126592124065,0.054706672433930965,1.3618583603020522,0.4202472652825697,0.28862675,0.5824570378810912
0.0055,1.79924375,1.0,590.7895833762269,0.060009020570528794,1.3599388513276836,0.4641735180012324,0.2886212375,0.5868750743141191
0.006,1.7991000000000001,1.0,682.5172841449304,0.06528162672301213,1.358146429728858,0.5046797973831397,0.2886152,0.5909793841596692
0.006500000000000001,1.79894375,1.0,773.8805284081385,0.07052465772404003,1.3564672660695187,0.5418006099602213,0.2886086375,0.5948057660105961
0.007,1.798775,1.0,864.2850451799325,0.07573827946637264,1.3548904073701094,0.5756766457839216,0.28860155,0.5983826490965491
0.0075,1.79859375,1.0,953.2425539486695,0.08092265691260937,1.3534067893651154,0.6065097934517594,0.2885939375,0.6017335498426051
0.008,1.7984,1.0,1040.3437369524138,0.08607795367810801,1.3520088630329485,0.6345320708218285,0.2885858,0.6048780623286061
0.0085,1.79819375,1.0,1125.3137351966034,0.09120433389724562,1.3506892484678983,0.6599843366700202,0.2885771375,0.6078349840848876
0.009000000000000001,1.797975,1.0,1207.8999581855385,0.0963019595178076,1.3494420380893517,0.683104104173259,0.28856795,0.6106194579590564
0.0095,1.79774375,1.0,1287.8924424596714,0.10137099103681758,1.3482621206707286,0.7041173947543224,0.2885582375,0.6132445641132873
0.01,1.7975,1.0,1365.1670721253795,0.1064115889512993,1.347144384985448,0.7232341536215126,0.288548,0.6157231376692444
0.0105,1.79724375,1.0,1439.6585694726678,0.1114239132391443,1.3460839580236068,0.7406465988618343,0.2885372375,0.6180672640265126
0.011,1.796975,1.0,1511.321280349323,0.11640812268204223,1.3450765650502596,0.7565290728261629,0.28852595000000003,0.6202875135622256
0.0115,1.79669375,1.0,1580.1204155758105,0.12136437445751407,1.344118490189419,0.7710385577240464,0.2885141375,0.6223930634877384
0.012,1.7964,1.0,1646.0571856563727,0.12629282522761612,1.3432061629105787,0.784315538396808,0.28850180000000003,0.624392633100119
0.0125,1.79609375,1.0,1709.1738527625585,0.1311936317455782,1.3423360361942203,0.7964852811666048,0.2884889375,0.6262947650600431
0.013000000000000001,1.7957750000000001,1.0,1769.5063043590335,0.13606694892560117,1.3415050755754092,0.8076594523965807,0.28847555,0.6281067709063586
0.0135,1.79544375,1.0,1827.0909378324413,0.140912930254595,1.3407106016391035,0.8179374310635011,0.2884616375,0.6298350954423473
0.014,1.7951000000000001,1.0,1881.9917980149287,0.1457317292194696,1.3399499349702615,0.8274074994371926,0.2884472,0.631486102403428
0.0145,1.79474375,1.0,1934.2800515091897,0.15052349818839822,1.3392205916155198,0.8361481601797256,0.2884322375,0.6330656576020943
0.015,1.794375,1.0,1984.053930890054,0.15528839020074534,1.3385200339723158,0.8442291764870776,0.28841675,0.6345796766561931
0.0155,1.79399375,1.0,2031.3735983112908,0.16002655487431386,1.3378463395022966,0.8517128109865841,0.2884007375,0.6360326877707237
0.016,1.7936,1.0,2076.3120621757093,0.1647381416429348,1.3371976171331532,0.8586545170877758,0.2883842,0.6374291039531996
0.0165,1.7931937500000001,1.0,2118.956728282431,0.1694232999404391,1.336571975792577,0.8651037362445939,0.2883671375,0.6387732943593145
0.017,1.792775,1.0,2159.3905186417273,0.17408217767328207,1.3359677046470841,0.8711046616820846,0.28834955,0.6400692010018165
0.0175,1.7923437500000001,1.0,2197.720246079705,0.17871492422178029,1.3353829659782712,0.8766967723190404,0.2883314375,0.6413210016952098
0.018000000000000002,1.7919,1.0,2234.0139269714,0.1833216848052965,1.3348164202191097,0.8819155532050674,0.2883128,0.6425317753560604
0.0185,1.79144375,1.0,2268.3460812571043,0.1879026044899388,1.3342667454662527,0.886792832255392,0.2882936375,0.6437045372302279
0.019,1.790975,1.0,2300.798765355785,0.19245782834181532,1.3337326198163528,0.8913571992736232,0.28827395,0.6448422782860769
0.0195,1.79049375,1.0,2331.452573349452,0.19698750033082937,1.3332128035695188,0.8956343965894236,0.2882537375,0.6459477918920322
0.02,1.79,1.0,2360.3968739996812,0.20149176544897981,1.3327060307567633,0.8996476176284122,0.288233,0.6470239065627541
0.0205,1.78949375,1.0,2387.7066172721657,0.2059707662993541,1.332211230133113,0.9034178410358347,0.2882117375,0.6480730184102163
0.021,1.788975,1.0,2413.445000335582,0.21042464325400945,1.3317274892949251,0.9069640666363763,0.28818995000000003,0.6490971710653232
0.021500000000000002,1.78844375,1.0,2437.679164533951,0.21485353668500312,1.3312538958385558,0.9103034985398304,0.2881676375,0.6500983944253165
0.022,1.7879,1.0,2460.479866684838,0.2192575869643923,1.330789537360362,0.9134517396152317,0.2881448,0.6510787052707834
0.0225,1.78734375,1.0,2481.9150954629636,0.22363693317336653,1.3303335593493646,0.9164229734547212,0.28812143749999997,0.6520399858660071
0.023,1.786775,1.0,2502.055322938262,0.22799171542045515,1.3298851113923913,0.9192301047250678,0.28809755,0.6529840984745842
0.0235,1.78619375,1.0,2520.966067195152,0.23232207271578798,1.3294434150037806,0.9218849037448831,0.28807313749999996,0.6539127433375217
0.024,1.7856,1.0,2538.698417966543,0.23662814032372909,1.329007849395593,0.9243981367405898,0.2880482,0.6548272800895625
0.0245,1.78499375,1.0,2555.305342368693,0.2409100535086426,1.3285777937798893,0.9267796406511695,0.2880227375,0.6557290606975146
0.025,1.784375,1.0,2570.841527091578,0.24516794753489263,1.3281526273687299,0.9290384160889837,0.28799675,0.6566194296906873
0.025500000000000002,1.78374375,1.0,2585.363229133792,0.24940195766684328,1.3277317293741757,0.9311827098707474,0.2879702375,0.6574997243667476
0.026000000000000002,1.7831000000000001,1.0,2598.9191932454,0.25361221689698804,1.3273145623029818,0.9332201009533596,0.2879432,0.658371101098238
0.0265,1.78244375,1.0,2611.563893914146,0.25779886101442656,1.3269005466659265,0.9351575465491927,0.2879156375,0.6592347977982093
0.027,1.781775,1.0,2623.3487564325837,0.26196202410856084,1.3264891418392573,0.9370014516861283,0.28788755,0.6600919651181931
0.0275,1.7810937500000001,1.0,2634.3108130640767,0.26610183582171776,1.3260799496054143,0.9387577351992645,0.2878589375,0.6609434517389365
0.028,1.7804,1.0,2644.4878795583795,0.2702184257962244,1.325672571746837,0.9404318548430224,0.2878298,0.6617901020784482
0.0285,1.77969375,1.0,2653.9184875326846,0.2743119236744076,1.325266610045965,0.9420288492596526,0.2878001375,0.662632756343132
0.029,1.778975,1.0,2662.6418203688554,0.2783824590985945,1.324861666285238,0.943553375621621,0.28776995,0.6634722505688097
0.029500000000000002,1.7782437500000001,1.0,2670.6976526263,0.2824301617111119,1.3244573422470958,0.9450097434408942,0.2877392375,0.6643094166516293
0.03,1.7775,1.0,2678.119928446086,0.2864551587785184,1.3240532981173707,0.9464019519573792,0.287708,0.665144961668541
0.0305,1.77674375,1.0,2684.946614292758,0.2904575801349074,1.323649161325069,0.9477337065321851,0.2876762375,0.6659796568035061
0.031,1.775975,1.0,2691.2126044106117,0.2944375536173527,1.3232445912800017,0.9490084505092443,0.28764395,0.6668142034701041
0.0315,1.7751937500000001,1.0,2696.9438792495102,0.2983952031860687,1.322839332214264,0.9502293932120291,0.2876111375,0.6676491249217096
0.032,1.7744,1.0,2702.166707348996,0.30233065280126975,1.3224331283599506,0.9513995200244437,0.2875778,0.6684849417602539
0.0325,1.77359375,1.0,2706.9076179587005,0.30624402642317033,1.3220257239491562,0.9525216107596527,0.2875439375,0.6693221719229014
0.033,1.772775,1.0,2711.193375108397,0.3101354480119847,1.3216168632139758,0.9535982563107889,0.28750955,0.6701613306645497
0.0335,1.7719437500000002,1.0,2715.0509531294683,0.31400504152792735,1.3212062903865036,0.9546318737626016,0.2874746375,0.6710029305361643
0.034,1.7711000000000001,1.0,2718.4973269207267,0.31785292684267624,1.3207938424792354,0.9556247294421512,0.2874392,0.6718472915414782
0.0345,1.7702437500000001,1.0,2721.5629793136445,0.32167923009400057,1.3203792348426902,0.9565789296303632,0.2874032375,0.6726949804898354
0.035,1.7693750000000001,1.0,2724.2770719867417,0.325484074970408,1.3199621962656456,0.9574964454545977,0.28736675,0.6735465336762261
0.035500000000000004,1.76849375,1.0,2726.6558226810785,0.3292675793697396,1.3195425744554592,0.9583791335291463,0.2873297375,0.6744022420611522
0.036000000000000004,1.7676,1.0,2728.715542841449,0.33302986118983646,1.3191202171194891,0.9592287334539024,0.2872922,0.6752623948520731
0.0365,1.76669375,1.0,2730.47262753518,0.3367710383285396,1.3186949719650929,0.9600468765192415,0.2872541375,0.6761272794775787
0.037,1.765775,1.0,2731.943545884099,0.34049122868369025,1.3182666866996289,0.9608350936691269,0.28721555,0.6769971815600775
0.0375,1.76484375,1.0,2733.1448320119102,0.3441905501531294,1.3178352090304548,0.9615948227932171,0.2871764375,0.6778723848870125
0.038,1.7639,1.0,2734.0930765048447,0.3478691206346981,1.3174003866649286,0.9623274154113143,0.28713679999999997,0.6787531713805924
0.0385,1.76294375,1.0,2734.804918386991,0.3515270580262375,1.3169620673104083,0.9630341428069102,0.28709663750000003,0.6796398210660466
0.039,1.761975,1.0,2735.2967795702452,0.35516447321949274,1.3165201010172463,0.9637162005042005,0.28705595,0.6805326073087763
0.0395,1.7609937500000001,1.0,2735.5842105051706,0.35878149041823426,1.3160743460558177,0.9643747180276593,0.2870147375,0.6814317849661582
0.04,1.76,1.0,2735.677778721845,0.3623782218311102,1.3156247061870934,0.9650107618912058,0.286973,0.6823375154474203
0.0405,1.7589937500000001,1.0,2735.5879894434743,0.36595477918789726,1.3151710859384755,0.965625338103517,0.2869307375,0.6832499572332974
0.041,1.757975,1.0,2735.325366362417,0.36951127421837215,1.3147133898373653,0.9662193962539838,0.28688795,0.6841692674013857
0.0415,1.75694375,1.0,2734.9004482171345,0.37304781865231174,1.314251522411165,0.9667938332607944,0.2868446375,0.6850956016016104
0.042,1.7559,1.0,2734.3237855718335,0.37656452421949266,1.313785388187276,0.9673494968326048,0.28680079999999997,0.6860291140311239
0.0425,1.75484375,1.0,2733.6059377974707,0.3800615026496917,1.3133148916931006,0.9678871886684108,0.2867564375,0.6869699574086119
0.043000000000000003,1.753775,1.0,2732.75747025486,0.3835388656726856,1.3128399374560398,0.9684076674178806,0.28671155,0.6879182829480266
0.043500000000000004,1.75269375,1.0,2731.777656978925,0.3869966984274338,1.3123605326251535,0.9689116555216755,0.28666613750000003,0.6888740358996506
0.044,1.7516,1.0,2730.677200679289,0.3904351163014289,1.3118765805804908,0.9693998339436699,0.2866202,0.6898373676193259
0.0445,1.75049375,1.0,2729.481677175177,0.3938542718633941,1.3113878495099829,0.9698728431683861,0.2865737375,0.6908086963569778
0.045,1.7493750000000001,1.0,2728.1955151009392,0.3972542674693579,1.310894299718506,0.9703312979855553,0.28652675,0.6917880561305476
0.0455,1.74824375,1.0,2726.823143666815,0.400635205475349,1.3103958915109355,0.9707757818761809,0.2864792375,0.6927754800163635
0.046,1.7471,1.0,2725.368991949052,0.4039971882373959,1.3098925851921475,0.9712068489056267,0.2864312,0.6937710001368866
0.0465,1.7459437500000001,1.0,2723.837488214824,0.40734031811152727,1.3093843410670174,0.971625025484728,0.28638263750000004,0.6947746476483656
0.047,1.744775,1.0,2722.23305928219,0.41066469745377177,1.3088711194404214,0.9720308120092944,0.28633355,0.695786452728383
0.0475,1.74359375,1.0,2720.5601299154087,0.413970428620158,1.3083528806172349,0.9724246843874753,0.28628393750000003,0.6968064445633078
0.048,1.7424,1.0,2718.823122254113,0.41725761396671457,1.3078295849023336,0.9728070954636359,0.2862338,0.697834651335641
0.0485,1.74119375,1.0,2717.0264552789563,0.42052635584947,1.3073011926005935,0.9731784763466543,0.2861831375,0.6988711002112657
0.049,1.739975,1.0,2715.1745443104255,0.4237767566244531,1.3067676640168904,0.9735392376498831,0.28613195,0.6999158173265952
0.0495,1.73874375,1.0,2713.271800544231,0.42700891864769236,1.3062289594560998,0.9738897706494014,0.2860802375,0.7009688277756199
0.05,1.7375,1.0,2711.3226306206457,0.4302229442752164,1.3056850392230976,0.9742304483666379,0.286028,0.7020301555968536
0.0505,1.73624375,1.0,2709.331436228913,0.43341893586305386,1.3051358636227595,0.974561626580942,0.2859752375,0.7030998237601809
0.051000000000000004,1.734975,1.0,2707.302613747015,0.4365969957672334,1.3045813929599615,0.9748836447772216,0.28592195,0.7041778541536019
0.051500000000000004,1.73369375,1.0,2705.240553915822,0.4397572263437835,1.3040215875395789,0.9751968270333516,0.2858681375,0.7052642675698795
0.052000000000000005,1.7324,1.0,2703.1496415485017,0.44289972994873295,1.3034564076664878,0.9755014828516796,0.2858138,0.7063590836930814
0.0525,1.73109375,1.0,2701.034255274901,0.4460246089381102,1.302885813645564,0.9757979079386077,0.28575893750000003,0.7074623210850275
0.053,1.729775,1.0,2698.8987673206298,0.449131965667944,1.3023097657816831,0.9760863849359144,0.28570355000000003,0.7085739971716323
0.0535,1.72844375,1.0,2696.7439605203267,0.4522218992086414,1.301728257143204,0.9763671857981884,0.2856476375,0.709694065182795
0.054,1.7271,1.0,2694.5718882854276,0.45529450139837185,1.301141269165853,0.9766405692492004,0.2855912,0.7108225000165155
0.0545,1.7257437500000001,1.0,2692.385081906514,0.45834986862230853,1.3005487788836478,0.9769067830858285,0.2855342375,0.7119592841567224
0.055,1.724375,1.0,2690.1851338594897,0.46138809748798715,1.2999507718902772,0.9771660650793903,0.28547675,0.7131043827883512
0.0555,1.72299375,1.0,2687.9737191670315,0.4644092842514669,1.2993472330008553,0.9774186428752693,0.2854187375,0.7142577617816699
0.056,1.7216,1.0,2685.7547556640825,0.4674135248523783,1.298738126454688,0.9776647333466042,0.2853602,0.7154194253901238
0.0565,1.72019375,1.0,2683.5284395977715,0.4704009139142139,1.2981234505488184,0.9779045462112118,0.28530113749999997,0.7165893119670479
0.057,1.718775,1.0,2681.2946365712733,0.47337154594718517,1.2975032066101475,0.9781382827144557,0.28524155,0.7177673534970659
0.0575,1.7173443627861305,1.0,2679.0860084713395,0.476325515058612,1.296877371811773,0.9783661344737437,0.2851814632370175,0.7189535271241527
0.058,1.7159107768189945,1.0,2677.3241412429297,0.4792629150261728,1.296246113233942,0.9785882960109954,0.28512125262639776,0.7201474502352756
0.0585,1.7144771908518583,1.0,2676.1111419967015,0.4821838383562472,1.2956098211957352,0.9788049664004789,0.28506104201577803,0.7213483214688312
0.059000000000000004,1.7130436048847224,1.0,2675.4041039426143,0.48508837744610883,1.294968886202951,0.9790163368438523,0.2850008314051583,0.7225553449368323
0.059500000000000004,1.7116100189175865,1.0,2675.173219157831,0.4879766214597992,1.294323580094414,0.9792225842874147,0.28494062079453863,0.7237679534451757
0.06,1.7101764329504505,1.0,2675.3551800734804,0.49084866807264826,1.2936744835365515,0.9794238962584372,0.2848804101839189,0.7249850054832263
0.0605,1.7087428469833146,1.0,2675.9238160173436,0.4937046062774074,1.2930218371665445,0.9796204341122497,0.2848201995732992,0.7262060042842573
0.061,1.7073092610161784,1.0,2676.8530329082346,0.4965445250668281,1.2923658816215748,0.9798123530514287,0.2847599889626795,0.7274304568355845
0.0615,1.7058756750490425,1.0,2678.116794958689,0.4993685134336616,1.2917068575388242,0.9799998024140203,0.2846997783520598,0.7286578739311994
0.062,1.7044420890819065,1.0,2679.689107662081,0.5021766603706594,1.2910450055554739,0.9801829259462254,0.28463956774144006,0.7298877702207085
0.0625,1.7030085031147704,1.0,2681.54400206237,0.5049690548705729,1.2903805663087056,0.9803618620604896,0.28457935713082033,0.7311196642545774
0.063,1.7015749171476344,1.0,2683.655520308787,0.5077457859261533,1.2897137804357008,0.9805367440798768,0.28451914652020066,0.7323530785256841
0.0635,1.7001413311804985,1.0,2686.000802805923,0.5105069411924431,1.2890448601656919,0.9807076989191867,0.28445893590958093,0.7335875918743484
0.064,1.6987077452133625,1.0,2688.5600762800086,0.513252608354089,1.2883739893879336,0.9808748474726309,0.2843987252989612,0.7348228387898214
0.0645,1.6972741592462266,1.0,2691.3099250363234,0.5159828771821121,1.2877013852308659,0.9810383081198899,0.2843385146883415,0.736058395842605
0.065,1.6958405732790904,1.0,2694.2376400388343,0.5186978324020538,1.287027166624051,0.981198189779818,0.2842783040777218,0.7372940230222236
0.0655,1.6944069873119545,1.0,2697.33050221139,0.5213975587394555,1.2863514524970507,0.9813545975229137,0.2842180934671021,0.738529482311318
0.066,1.6929734013448186,1.0,2700.575778337854,0.5240821409198586,1.2856743617794277,0.981507632738005,0.28415788285648236,0.7397645376974382
0.0665,1.6915398153776824,1.0,2703.960717275509,0.5267516636688047,1.2849960134007434,0.9816573932905974,0.2840976722458627,0.740998955183939
0.067,1.6901062294105464,1.0,2707.472546481377,0.529406211711835,1.2843165262905605,0.9818039736733619,0.28403746163524296,0.742232502799965
0.0675,1.6886726434434105,1.0,2711.098468853509,0.5320458697744911,1.2836360193784409,0.9819474651492041,0.28397725102462323,0.7434649506095432
0.068,1.6872390574762746,1.0,2714.8306442944527,0.5346707181651157,1.2829545661652852,0.9820879534310045,0.28391704041400356,0.7446961526983904
0.0685,1.6858054715091384,1.0,2718.655313354034,0.5372808445713688,1.2822722939189997,0.982225524367237,0.2838568298033838,0.7459258676202356
0.069,1.6843718855420025,1.0,2722.561473282714,0.5398763342483921,1.281589304505397,0.9823602595923348,0.2837966191927641,0.7471539017479809
0.0695,1.6829382995748665,1.0,2726.5435258652656,0.5424572672841929,1.2809056503805354,0.9824922354019452,0.2837364085821444,0.7483801517356137
0.07,1.6815047136077306,1.0,2730.595859132533,0.5450237237667782,1.280221384000473,0.9826215255760471,0.28367619797152466,0.7496045151430467
0.07050000000000001,1.6800711276405944,1.0,2734.712846618688,0.5475757837841553,1.2795365578212679,0.9827482014803309,0.283615987360905,0.7508268904382557
0.07100000000000001,1.6786375416734585,1.0,2738.888846679177,0.5501135274243312,1.2788512242989785,0.9828723321628503,0.28355577675028526,0.7520471769992373
0.07150000000000001,1.6772039557063225,1.0,2743.1182018709737,0.552637034775313,1.2781654358896626,0.9829939844461956,0.28349556613966553,0.7532652751157973
0.07200000000000001,1.6757703697391864,1.0,2747.3952383923474,0.555146385925108,1.2774792450493788,0.983113223015425,0.2834353555290458,0.7544810859911568
0.0725,1.6743367837720506,1.0,2751.71426558474,0.5576416609617233,1.2767927042341851,0.983230110501977,0.28337514491842614,0.7556945117433894
0.073,1.6729031978049145,1.0,2756.0695754948733,0.5601229399731661,1.2761058659001396,0.9833447075637678,0.2833149343078064,0.7569054554066776
0.0735,1.6714696118377785,1.0,2760.4606017928286,0.5625902912950846,1.2754187358709719,0.9834570702175729,0.2832547236971867,0.758113902841951
