Time [s],Phi [rad],STIM [ ],Fsee [N],Gamma [ ],Lcerel [ ],q [ ],Lmtc [m],fisomrel [ ]
0.0,1.8,1.0,19.704099478460243,0.0013466819001939656,1.3791496392833826,0.00546455902292351,0.288653,0.5415993336456659
0.0005,1.79999375,1.0,20.39111514923865,0.006948337388474458,1.3790739483942769,0.01706343177164645,0.2886527375,0.5417823394412409
0.001,1.799975,1.0,24.73242502716751,0.012518572019319055,1.378630944589052,0.042908756042990284,0.28865195,0.5428527034426089
0.0015,1.79994375,1.0,36.50707941173481,0.018057562036834895,1.3776015886346207,0.08037259649400977,0.2886506375,0.5453349498106208
0.002,1.7999,1.0,63.51335011924822,0.023565482700685418,1.3757512317893725,0.12614753102804252,0.2886488,0.54978001214531
0.0025,1.79984375,1.0,112.32271214098274,0.029042508284639362,1.3732291604232587,0.17691898165625103,0.28864643749999996,0.5558035516892519
0.003,1.7997750000000001,1.0,179.82268995264695,0.034488812085676515,1.3705277858727276,0.22995590994542292,0.28864354999999997,0.5622103313018307
0.0035,1.79969375,1.0,258.5052149529113,0.039904566429203134,1.367956828167999,0.2831780950878917,0.2886401375,0.5682645810093929
0.004,1.7996,1.0,343.337084430306,0.04528994267291637,1.3655863620051345,0.3350524882303566,0.2886362,0.5738093492214629
0.0045000000000000005,1.7994937500000001,1.0,431.72021713665026,0.050645111192094756,1.3634028059054561,0.3845347810033395,0.2886317375,0.5788852061863564
0.005,1.799375,1.0,522.182020489616,0.05597024150866684,1.3613799055360412,0.43099288367623356,0.28862675,0.5835604715394196
0.0055,1.79924375,1.0,613.6457937854532,0.06126550197991249,1.3594965335430014,0.47411325396116927,0.2886212375,0.5878898034775693
0.006,1.7991000000000001,1.0,705.3074735550173,0.0665310603028309,1.357735566158329,0.5138086750129434,0.2886152,0.5919172981676653
0.006500000000000001,1.79894375,1.0,796.4557534662864,0.07176708293287445,1.3560846622049718,0.5501441673168291,0.2886086375,0.5956751063213366
0.007,1.798775,1.0,886.5378364209137,0.07697373568000157,1.3545332377327544,0.5832783311419615,0.28860155,0.5991906356592165
0.0075,1.79859375,1.0,975.0772695990114,0.082151183202625,1.3530728502098959,0.6134227200651943,0.2885939375,0.6024858496322081
0.008,1.7984,1.0,1061.688651446251,0.08729958917135426,1.351696195568751,0.6408131028775783,0.2885858,0.6055796748165398
0.0085,1.79819375,1.0,1146.102487103849,0.09241911699509932,1.3503963028686699,0.6656905227288262,0.2885771375,0.6084898945662225
0.009000000000000001,1.797975,1.0,1228.0736483379278,0.09750992817948896,1.349167529994178,0.6882903478446775,0.28856795,0.6112309821357294
0.0095,1.79774375,1.0,1307.4294452869103,0.10257218372313597,1.3480045669804541,0.7088349456834461,0.2885582375,0.613816394645238
0.01,1.7975,1.0,1384.0672509390797,0.10760604417510616,1.346902301604542,0.7275301312535581,0.288548,0.6162589067011204
0.0105,1.79724375,1.0,1457.9073587242194,0.11261166887300557,1.3458562795758953,0.7445640193955184,0.2885372375,0.6185696233352047
0.011,1.796975,1.0,1528.894771019172,0.11758921569264692,1.3448625176284688,0.7601068298608923,0.28852595000000003,0.6207584309150322
0.0115,1.79669375,1.0,1597.0158487357594,0.12253884196039957,1.3439171848376925,0.7743114421147361,0.2885141375,0.6228347256802182
0.012,1.7964,1.0,1662.3031785682024,0.12746070544407603,1.3430164733022403,0.787314499493369,0.28850180000000003,0.6248077137860124
0.0125,1.79609375,1.0,1724.7760256937722,0.13235496151519682,1.3421572262746586,0.7992380348997924,0.2884889375,0.6266850526404084
0.013000000000000001,1.7957750000000001,1.0,1784.4600434520282,0.13722176422900786,1.3413366156979747,0.8101907195452006,0.28847555,0.6284735803056541
0.0135,1.79544375,1.0,1841.4114720283976,0.14206126764075497,1.340551813515216,0.8202691171979046,0.2884616375,0.630180045636153
0.014,1.7951000000000001,1.0,1895.6970655809534,0.14687362496325174,1.3398001812858817,0.8295590791426426,0.2884472,0.6318107040755163
0.0145,1.79474375,1.0,1947.4084031618245,0.15165898971686276,1.3390790764902836,0.8381368860867926,0.2884322375,0.6333717470870421
0.015,1.794375,1.0,1996.609504656055,0.1564175125367647,1.3383863861920235,0.8460705330601552,0.28841675,0.6348681557394857
0.0155,1.79399375,1.0,2043.3683342850966,0.1611493433038328,1.3377201441138467,0.8534205672754192,0.2884007375,0.6363045416445238
0.016,1.7936,1.0,2087.7686111293565,0.16585463189894215,1.3370783839784979,0.8602409206204764,0.2883842,0.6376854689236109
0.0165,1.7931937500000001,1.0,2129.8929943843796,0.17053352713360329,1.336459298573696,0.8665797408390138,0.2883671375,0.6390151160819402
0.017,1.792775,1.0,2169.8450392079285,0.17518617860976204,1.3358609956089187,0.8724800051798828,0.28834955,0.6402978049380929
0.0175,1.7923437500000001,1.0,2207.698633938183,0.17981273262069583,1.3352820013080813,0.8779802687496941,0.2883314375,0.6415369247412239
0.018000000000000002,1.7919,1.0,2243.5280866072203,0.18441333479058775,1.33472093124659,0.8831150909565102,0.2883128,0.6427356447239018
0.0185,1.79144375,1.0,2277.415977416819,0.18898813074362078,1.3341764009998514,0.8879154773663283,0.2882936375,0.6438971078277633
0.019,1.790975,1.0,2309.444684208293,0.19353726512543318,1.33364710294728,0.8924093088055859,0.28827395,0.6450242687974717
0.0195,1.79049375,1.0,2339.7040563626233,0.1980608834345134,1.3331317219638932,0.8966216792776177,0.2882537375,0.6461200759610057
0.02,1.79,1.0,2368.2691186859975,0.202559128712208,1.332629147496522,0.9005752584386961,0.288233,0.647187022435386
0.0205,1.78949375,1.0,2395.2055236408255,0.2070321420700379,1.3321384095354925,0.9042905467462784,0.2882117375,0.6482272860689844
0.021,1.788975,1.0,2420.583288538139,0.21148006461952396,1.3316585380711312,0.9077860847746757,0.28818995000000003,0.649243029733801
0.021500000000000002,1.78844375,1.0,2444.4764299973253,0.2159030374721871,1.331188563093765,0.9110786675072359,0.2881676375,0.6502364020277017
0.022,1.7879,1.0,2466.951803615373,0.22030119972640808,1.330727618002949,0.9141835526788673,0.2881448,0.6512093198026003
0.0225,1.78734375,1.0,2488.088789147271,0.22467469358095044,1.3302747469126865,0.9171145887595858,0.28812143749999997,0.6521638761216864
0.023,1.786775,1.0,2507.9469624352605,0.22902365691868137,1.3298292103824787,0.9198844181913847,0.28809755,0.653101696359919
0.0235,1.78619375,1.0,2526.5794672922857,0.23334822582849277,1.329390352429184,0.9225045776148287,0.28807313749999996,0.6540242210668943
0.024,1.7856,1.0,2544.041520508871,0.2376485363992765,1.3289575170696604,0.9249855964215027,0.2880482,0.6549328825362376
0.0245,1.78499375,1.0,2560.390237385289,0.2419247247199245,1.3285300483207663,0.9273370985576284,0.2880227375,0.655829105071285
0.025,1.784375,1.0,2575.6844668043664,0.24617692687932863,1.3281072901993598,0.929567892803515,0.28799675,0.6567143052233199
0.025500000000000002,1.78374375,1.0,2589.972771330563,0.2504052755285506,1.3276886974329147,0.9316860697600783,0.2879702375,0.6575896606336724
0.026000000000000002,1.7831000000000001,1.0,2603.3195998520587,0.25460990935918676,1.327273589084346,0.9336990354550856,0.2879432,0.6584566259178913
0.0265,1.78244375,1.0,2615.767532262302,0.2587909602912377,1.326861499660022,0.9356136271288961,0.2879156375,0.6593161991071472
0.027,1.781775,1.0,2627.3557046980022,0.26294855886293106,1.3264520047932677,0.9374361415209116,0.28788755,0.6601692875205878
0.0275,1.7810937500000001,1.0,2638.1241252876976,0.26708283561249446,1.326044680117407,0.9391723794825435,0.2878589375,0.6610167939003115
0.028,1.7804,1.0,2648.113598621917,0.2711939210781555,1.3256391012657642,0.9408276915760907,0.2878298,0.6618596164758461
0.0285,1.77969375,1.0,2657.365654216172,0.27528194579814175,1.3252348438716637,0.9424070189289685,0.2878001375,0.6626986490171383
0.029,1.778975,1.0,2665.9223465009754,0.2793470402270354,1.3248314847867664,0.9439149300271392,0.28776995,0.6635347783521198
0.029500000000000002,1.7782437500000001,1.0,2673.817871144025,0.2833893290736131,1.3244286784822072,0.9453556619908453,0.2877392375,0.6643687263338285
0.03,1.7775,1.0,2681.100339417493,0.2874089487159604,1.3240259562770587,0.9467331287176108,0.287708,0.6652014657485258
0.0305,1.77674375,1.0,2687.796344579964,0.29140602366621915,1.3236230512501799,0.9480509830982297,0.2876762375,0.6660335481489906
0.031,1.775975,1.0,2693.932830256515,0.2953806784365309,1.3232196964804293,0.9493126170378481,0.28764395,0.6668655223440663
0.0315,1.7751937500000001,1.0,2699.53705890191,0.2993330375390373,1.3228156250466656,0.9505211833497039,0.2876111375,0.6676979343932736
0.032,1.7744,1.0,2704.636581843742,0.30326322548588014,1.3224105700277478,0.951679615557369,0.2875778,0.6685313275968838
0.0325,1.77359375,1.0,2709.2592109055204,0.307171366789201,1.3220042645025345,0.9527906458278047,0.2875439375,0.669366242481447
0.033,1.772775,1.0,2713.432991608655,0.3110575859611415,1.3215964415498846,0.9538568212317053,0.28750955,0.670203216780777
0.0335,1.7719437500000002,1.0,2717.182911022958,0.31492200463954295,1.321186864011053,0.9548805211123176,0.2874746375,0.6710427244475301
0.034,1.7711000000000001,1.0,2720.5300391068035,0.3187647415826995,1.320775332000447,0.9558639711186939,0.2874392,0.67188516065052
0.0345,1.7702437500000001,1.0,2723.51134301207,0.3225859319893918,1.32036150232074,0.9568092403158976,0.2874032375,0.6727312111951482
0.035,1.7693750000000001,1.0,2726.1430844628503,0.32638569328813427,1.3199452215724161,0.9577182804742288,0.28736675,0.6735811708959744
0.035500000000000004,1.76849375,1.0,2728.4416278397234,0.3301641429074415,1.3195263363559588,0.958592919201856,0.2873297375,0.6744353328282483
0.036000000000000004,1.7676,1.0,2730.4234295767305,0.3339213982758279,1.3191046932718518,0.9594348692644613,0.2872922,0.6752939883031805
0.0365,1.76669375,1.0,2732.1050280808076,0.337657576821808,1.318680138920579,0.9602457371039264,0.2872541375,0.676157426841711
0.037,1.765775,1.0,2733.503034172442,0.3413727959738964,1.3182525199026234,0.9610270306331049,0.28721555,0.6770259361467803
0.0375,1.76484375,1.0,2734.6341220485606,0.34506717316060753,1.3178216828184692,0.9617801663755716,0.2871764375,0.6778998020740955
0.038,1.7639,1.0,2735.515020766676,0.3487408258104559,1.3173874742686,0.9625064760120172,0.28713679999999997,0.6787793086013991
0.0385,1.76294375,1.0,2736.1625062511275,0.352393871351956,1.3169497408534996,0.9632072123885659,0.28709663750000003,0.6796647377962355
0.039,1.761975,1.0,2736.593393820514,0.3560264272136223,1.3165083291736515,0.9638835550366147,0.28705595,0.6805563697822178
0.0395,1.7609937500000001,1.0,2736.8132450857543,0.3596386014467761,1.3160631882791338,0.9645366227701953,0.2870147375,0.6814542761952449
0.04,1.76,1.0,2736.8441047430165,0.36323051858657085,1.315614117829746,0.9651674601100779,0.286973,0.6823588285285433
0.0405,1.7589937500000001,1.0,2736.7002085303957,0.3668022938453863,1.3151609885691566,0.9657770570365956,0.2869307375,0.6832702528192345
0.041,1.757975,1.0,2736.39030566179,0.37035403730539745,1.3147037211955632,0.96636635156765,0.28688795,0.6841886730410243
0.0415,1.75694375,1.0,2735.9231590233026,0.3738858590487793,1.3142422364071638,0.9669362298278464,0.2868446375,0.6851142119190823
0.042,1.7559,1.0,2735.307542593005,0.37739786915770696,1.3137764549021553,0.9674875294504743,0.28680079999999997,0.6860469909089149
0.0425,1.75484375,1.0,2734.552239000599,0.3808901777143554,1.313306297378736,0.968021042722882,0.2867564375,0.6869871301748314
0.043000000000000003,1.753775,1.0,2733.6660372256774,0.38436289480089975,1.3128316845351033,0.968537519497007,0.28671155,0.6879347485680153
0.043500000000000004,1.75269375,1.0,2732.65773043674,0.387816130499515,1.3123525370694549,0.9690376698848026,0.28666613750000003,0.6888899636041927
0.044,1.7516,1.0,2731.5361139680967,0.39124999489237616,1.3118687756799885,0.9695221667564415,0.2866202,0.6898528914408961
0.0445,1.75049375,1.0,2730.3099834377053,0.3946645980616584,1.3113803210649018,0.9699916480575552,0.2865737375,0.6908236468543326
0.045,1.7493750000000001,1.0,2728.9874736505567,0.39806004713319765,1.3108870999162217,0.9704467189936745,0.28652675,0.6918023313318917
0.0455,1.74824375,1.0,2727.5755762063336,0.40143644674291645,1.310389049299277,0.9708879544394674,0.2864792375,0.6927890244741424
0.046,1.7471,1.0,2726.0825948420465,0.4047939145090467,1.3098860943223276,0.9713159012431977,0.2864312,0.6937838282705787
0.0465,1.7459437500000001,1.0,2724.5133592795896,0.4081325536270118,1.3093781916535092,0.9717310793297721,0.28638263750000004,0.6947867810242492
0.047,1.744775,1.0,2722.872697129169,0.4114524672922349,1.3088652979609565,0.9721339829864278,0.28633355,0.6957979200111275
0.0475,1.74359375,1.0,2721.1654332400367,0.4147537587001394,1.3083473699128045,0.9725250823646125,0.28628393750000003,0.6968172814663778
0.048,1.7424,1.0,2719.396389092426,0.41803653104614863,1.3078243641771885,0.9729048248803165,0.2862338,0.6978449005705027
0.0485,1.74119375,1.0,2717.5703822321366,0.42130088752568584,1.3072962374222437,0.9732736365205956,0.2861831375,0.6988808114353701
0.049,1.739975,1.0,2715.692225745636,0.4245469313341743,1.3067629463161048,0.9736319230633841,0.28613195,0.6999250470901232
0.0495,1.73874375,1.0,2713.7667277776404,0.4277747656670374,1.306224447526907,0.9739800712170884,0.2860802375,0.7009776394669663
0.05,1.7375,1.0,2711.798691089935,0.43098449371969844,1.3056806977227855,0.9743184496859216,0.286028,0.7020386193868338
0.0505,1.73624375,1.0,2709.7929126617564,0.4341762186875807,1.3051316535718753,0.9746474101664393,0.2859752375,0.7031080165449397
0.051000000000000004,1.734975,1.0,2707.7437360108156,0.4373500119186236,1.3045773670851621,0.974967290961345,0.28592195,0.7041856742967807
0.051500000000000004,1.73369375,1.0,2705.66430380694,0.44050600960661235,1.304017718732917,0.9752784111596008,0.2858681375,0.7052717688024012
0.052000000000000005,1.7324,1.0,2703.560890205412,0.4436443211898151,1.3034526515391287,0.9755810765462742,0.2858138,0.7063663529141331
0.0525,1.73109375,1.0,2701.435297653766,0.4467650413470446,1.3028821492995182,0.9758755803039356,0.28575893750000003,0.7074693993485471
0.053,1.729775,1.0,2699.2893261184167,0.4498682647571137,1.302306195809806,0.9761622027130225,0.28570355000000003,0.7085808800223315
0.0535,1.72844375,1.0,2697.124773012043,0.4529540860988353,1.3017247748657135,0.9764412118275269,0.2856476375,0.7097007660466662
0.054,1.7271,1.0,2694.943433127035,0.4560226000510222,1.3011378702629608,0.9767128641097409,0.2855912,0.7108290277215823
0.0545,1.7257437500000001,1.0,2692.7470985743894,0.4590739012924872,1.300545465797269,0.9769774050268598,0.2855342375,0.7119656345303016
0.055,1.724375,1.0,2690.5375587285043,0.4621080845020431,1.299947545264359,0.9772350696120425,0.28547675,0.7131105551335629
0.0555,1.72299375,1.0,2688.3166001782115,0.4651252443585028,1.299344092459951,0.9774860829923173,0.2854187375,0.7142637573639294
0.056,1.7216,1.0,2686.086006682884,0.46812547554067907,1.2987350911797666,0.9777306608855559,0.2853602,0.7154252082200783
0.0565,1.72019375,1.0,2683.8475591352126,0.4711088727273848,1.2981205252195258,0.9779690100685628,0.28530113749999997,0.7165948738610781
0.057,1.718775,1.0,2681.6030355292505,0.4740755305974327,1.2975003783749497,0.9782013288181828,0.28524155,0.7177727196006434
0.0575,1.71734375,1.0,2679.354210933951,0.4770255438296357,1.2968746344417592,0.9784278073271856,0.2851814375,0.718958709901377
0.058,1.7159,1.0,2677.1028574738025,0.4799590071028066,1.296243277215675,0.9786486280965606,0.2851208,0.720152808368995
0.0585,1.71444375,1.0,2674.8507443138815,0.4828760150957583,1.2956062904924175,0.97886396630574,0.2850596375,0.7213549777465322
0.059000000000000004,1.7129750000000001,1.0,2672.5996376513767,0.48577666248730345,1.2949636580677077,0.9790739901621518,0.28499795,0.7225651799085344
0.059500000000000004,1.71149375,1.0,2670.3513007131355,0.488661043956255,1.2943153637372669,0.9792788612314137,0.2849357375,0.7237833758552306
0.06,1.71,1.0,2668.10330728411,0.491529224543062,1.293661429785611,0.9794787344183102,0.284873,0.725009453623312
0.0605,1.7084937500000001,1.0,2665.8601587402877,0.494381326437022,1.2930018148184264,0.9796737598332175,0.2848097375,0.726243420003535
0.061,1.7069750000000001,1.0,2663.6232862246734,0.4972174434963717,1.2923365056220169,0.9798640810029421,0.28474595,0.7274852279359327
0.0615,1.7054437500000001,1.0,2661.3930970824736,0.5000376615273604,1.2916654983848685,0.9800498358301161,0.2846816375,0.7287348120277622
0.062,1.7039,1.0,2659.1699979829573,0.5028420663362371,1.2909887892954672,0.9802311569941625,0.2846168,0.7299921062001218
0.0625,1.70234375,1.0,2656.9543949237636,0.5056307437292511,1.290306374542299,0.9804081721866564,0.2845514375,0.731257043686564
0.063,1.7007750000000001,1.0,2654.746693236112,0.5084037795126516,1.2896182503138498,0.9805810043343718,0.28448555,0.73252955703171
0.0635,1.69919375,1.0,2652.547297590206,0.5111612594926876,1.2889244127986055,0.9807497718107467,0.28441913750000003,0.733809578089863
0.064,1.6976,1.0,2650.356612000247,0.5139032694756085,1.2882248581850522,0.9809145886364476,0.2843522,0.7350970380236179
0.0645,1.69599375,1.0,2648.1750398310633,0.5166298952676632,1.2875195826616757,0.9810755646696689,0.2842847375,0.7363918673024741
0.065,1.694375,1.0,2646.002983803929,0.5193412226751011,1.2868085824169622,0.9812328057867656,0.28421675,0.7376939957014433
0.0655,1.69274375,1.0,2643.8408460031624,0.5220373375041711,1.2860918536393975,0.9813864140537751,0.2841482375,0.7390033522996606
0.066,1.6911,1.0,2641.6890278831356,0.5247183255611226,1.2853693925174676,0.9815364878893504,0.2840792,0.7403198654789908
0.0665,1.6894437500000001,1.0,2639.5479302754834,0.5273842726522048,1.2846411952396586,0.9816831222195895,0.2840096375,0.7416434629226357
0.067,1.687775,1.0,2637.417953396405,0.5300352645836667,1.2839072579944562,0.9818264086252241,0.28393955,0.7429740716137414
0.0675,1.68609375,1.0,2635.299496854773,0.5326713871617574,1.2831675769703466,0.9819664354815889,0.2838689375,0.7443116178340015
0.068,1.6844000000000001,1.0,2633.192959660274,0.5352927261927264,1.2824221483558156,0.9821032880917792,0.2837978,0.7456560271622631
0.0685,1.68269375,1.0,2631.0972129415877,0.537899332433975,1.281670982479056,0.9822370472183105,0.2837261375,0.7470071990729699
0.069,1.680975,1.0,2629.013317676469,0.5404913156244567,1.28091406940354,0.9823677937014974,0.28365395,0.7483650689130841
0.0695,1.67924375,1.0,2626.942211001427,0.5430687794556297,1.2801514003250187,0.9824956052749622,0.28358123749999997,0.7497295691834538
0.07,1.6775,1.0,2624.883738007899,0.5456318009286286,1.2793829765482294,0.9826205558295066,0.283508,0.751100613568404
0.07050000000000001,1.67574375,1.0,2622.8377440886306,0.5481804570445884,1.2786087993779083,0.9827427167798236,0.2834342375,0.7524781151441341
0.07100000000000001,1.673975,1.0,2620.804074934268,0.5507148248046441,1.2778288701187919,0.9828621571626712,0.28335995,0.7538619863791948
0.07150000000000001,1.67219375,1.0,2618.782576530373,0.5532349812099303,1.2770431900756167,0.9829789437305084,0.2832851375,0.7552521391349671
0.07200000000000001,1.6704,1.0,2616.773095154575,0.555741003261582,1.2762517605531192,0.9830931410408338,0.2832098,0.7566484846661419
0.0725,1.66859375,1.0,2614.7754773730217,0.5582329679607341,1.275454582856036,0.9832048115414517,0.2831339375,0.7580509336211965
0.073,1.6667750000000001,1.0,2612.789570037857,0.5607109523085214,1.2746516582891037,0.9833140156518728,0.28305755,0.7594593960428745
0.0735,1.66494375,1.0,2610.8152202840097,0.5631750333060788,1.2738429881570585,0.9834208118410539,0.2829806375,0.7608737813686642
0.074,1.6631,1.0,2608.8522755262657,0.5656252879545413,1.2730285737646374,0.9835252567016596,0.2829032,0.7622939984312753
0.0745,1.6612437500000001,1.0,2606.9005834564473,0.5680617932550435,1.2722084164165766,0.9836274050210221,0.2828252375,0.7637199554591189
0.075,1.659375,1.0,2604.959992040823,0.5704846262087203,1.2713825174176125,0.983727309848971,0.28274675,0.7651515600767833
0.0755,1.65749375,1.0,2603.030349516721,0.5728938638167068,1.2705508780724821,0.9838250225626846,0.2826677375,0.7665887193055131
