Time [s],Phi [rad],STIM [ ],Fsee [N],Gamma [ ],Lcerel [ ],q [ ],Lmtc [m],fisomrel [ ]
0.0,1.8,1.0,17.965873547376567,1.1456429134318208e-05,1.379339890142718,0.005000034942890774,0.288653,0.5411391828651486
0.0005,1.79999375,1.0,18.27581483661883,0.005620601476422444,1.379302491019007,0.012944560951114025,0.2886527375,0.541229656590485
0.001,1.799975,1.0,21.61858940283145,0.011198283654909422,1.3789382808854387,0.03561617645409944,0.28865195,0.5421102655599119
0.0015,1.79994375,1.0,31.071664118685824,0.01674467944727666,1.3780459968660064,0.07061211195656726,0.2886506375,0.5442641079514907
0.002,1.7999,1.0,53.58912675455918,0.022259964344548713,1.3763676945146217,0.11473016291939889,0.2886488,0.5483015259111875
0.0025,1.79984375,1.0,97.13118771374644,0.027744312853673417,1.3739345769766704,0.16458808270758782,0.28864643749999996,0.5541228703484649
0.003,1.7997750000000001,1.0,160.97474451265066,0.03319789850522034,1.3712137232534678,0.21729405839716984,0.28864354999999997,0.5605879198606436
0.0035,1.79969375,1.0,237.70242303190207,0.0386208938529858,1.3685841461766008,0.27062641695331746,0.2886401375,0.5667912218981701
0.004,1.7996,1.0,321.48733841062216,0.04401347048477183,1.366155547661705,0.322928899035129,0.2886362,0.5724812337900409
0.0045000000000000005,1.7994937500000001,1.0,409.2892547630743,0.04937579902757132,1.363922309392978,0.37304693931218247,0.2886317375,0.5776803339479644
0.005,1.799375,1.0,499.43560236888374,0.054708049138667926,1.361857872767069,0.42025909102998343,0.28862675,0.5824581629990171
0.0055,1.79924375,1.0,590.8128368402294,0.06001038955299685,1.3599383970155379,0.464184465976069,0.2886212375,0.5868761171998885
0.006,1.7991000000000001,1.0,682.5406678588562,0.06528298802655348,1.3581460046785643,0.5046898576207961,0.2886152,0.5909803550152481
0.006500000000000001,1.79894375,1.0,773.9061930334248,0.07052601139343988,1.356466827960952,0.5418097822420309,0.2886086375,0.5948067620008198
0.007,1.798775,1.0,864.3103536211878,0.07573962553798741,1.3548899985604985,0.5756850049081683,0.28860155,0.5983835743677595
0.0075,1.79859375,1.0,953.2668179155527,0.08092399543813107,1.3534064161624744,0.606517401903265,0.2885939375,0.6017343909923341
0.008,1.7984,1.0,1040.3831881746155,0.08607928511438952,1.352008282194583,0.6345388477949626,0.2885858,0.6048793662832235
0.0085,1.79819375,1.0,1125.3457909227686,0.09120565770055766,1.3506887946798065,0.6599905450621603,0.2885771375,0.6078359989988027
0.009000000000000001,1.797975,1.0,1207.9105467587608,0.0963032753384011,1.3494418934093892,0.6831099014858478,0.28856795,0.6106197803905008
0.0095,1.79774375,1.0,1287.9008554574582,0.10137229951377028,1.3482620093444615,0.70412268036963,0.2885582375,0.6132448113755045
0.01,1.7975,1.0,1365.1804214143588,0.10641289032702439,1.3471442134114195,0.7232389317050781,0.288548,0.6157235175222155
0.0105,1.79724375,1.0,1439.6659331688531,0.11142520701895209,1.3460838658613858,0.7406509882476019,0.2885372375,0.6180674674439997
0.011,1.796975,1.0,1511.3331867560864,0.11640940949595087,1.345076419608594,0.7565330527946953,0.28852595000000003,0.6202878336419437
0.0115,1.79669375,1.0,1580.1355418601097,0.12136565436821345,1.3441183094830311,0.771042178039947,0.2885141375,0.6223934600718777
0.012,1.7964,1.0,1646.0710735033674,0.12629409813505488,1.3432060003561053,0.7843188586733081,0.28850180000000003,0.6243929889016744
0.0125,1.79609375,1.0,1709.1743397816354,0.13119489691774755,1.3423360305999918,0.7964883888090477,0.2884889375,0.6262947772737291
0.013000000000000001,1.7957750000000001,1.0,1769.4981550081702,0.1360682065398584,1.3415051675747756,0.8076623464581298,0.28847555,0.6281065705348357
0.0135,1.79544375,1.0,1827.0918333431807,0.14091418136314665,1.3407105916901354,0.8179400581195926,0.2884616375,0.6298351170604524
0.014,1.7951000000000001,1.0,1882.000452386906,0.1457329737418247,1.3399498402345826,0.8274098909913796,0.2884472,0.6314863077949036
0.0145,1.79474375,1.0,1934.2931209854792,0.15052473603010486,1.3392204504966292,0.8361503519181347,0.2884322375,0.6330659628981631
0.015,1.794375,1.0,1984.0511336835843,0.1552896198493617,1.3385200637942163,0.8442312592308415,0.28841675,0.6345796122728309
0.0155,1.79399375,1.0,2031.3663954011995,0.1600277772371585,1.337846415395145,0.8517147561789729,0.2884007375,0.6360325242495253
0.016,1.7936,1.0,2076.3155820727425,0.16473935800764267,1.337197580449647,0.8586562891393557,0.2883842,0.6374291828408924
0.0165,1.7931937500000001,1.0,2118.9681329398454,0.1694245101524708,1.3365718581382255,0.8651053596317546,0.2883671375,0.6387735469049177
0.017,1.792775,1.0,2159.405882291897,0.1740833816632994,1.335967547641384,0.8711061613821939,0.28834955,0.6400695374101864
0.0175,1.7923437500000001,1.0,2197.7209135906255,0.17871612040983273,1.335382959216515,0.8766982107449083,0.2883314375,0.6413210161580787
0.018000000000000002,1.7919,1.0,2233.9968204203474,0.18332287261617164,1.3348165920921378,0.8819169433754506,0.2883128,0.6425314083539766
0.0185,1.79144375,1.0,2268.334275717837,0.18790378632946028,1.3342668631778127,0.8867941202683026,0.2882936375,0.6437042862923005
0.019,1.790975,1.0,2300.798449594063,0.1924590048716323,1.3337326229424864,0.8913583786595974,0.28827395,0.6448422716324241
0.0195,1.79049375,1.0,2331.4608818941797,0.19698867156462121,1.3332127218551064,0.8956354830537983,0.2882537375,0.6459479655418097
0.02,1.79,1.0,2360.398958212051,0.20149292973036062,1.3327060103846196,0.8996486514488291,0.288233,0.6470239497893795
0.0205,1.78949375,1.0,2387.6929190342867,0.20597192226138664,1.3322113632589108,0.9034188465052376,0.2882117375,0.6480727363573215
0.021,1.788975,1.0,2413.417201802103,0.2104257908144603,1.3317277580098636,0.9069650423865216,0.28818995000000003,0.6490966025693539
0.021500000000000002,1.78844375,1.0,2437.6551601126453,0.21485467874811856,1.3312541267212676,0.9103044122205038,0.2881676375,0.6500979066649566
0.022,1.7879,1.0,2460.464727939674,0.2192587244210101,1.3307896822936072,0.9134525863453832,0.2881448,0.6510783995156073
0.0225,1.78734375,1.0,2481.9068835289618,0.22363806619178375,1.3303336376273656,0.9164237618658294,0.28812143749999997,0.6520398209562256
0.023,1.786775,1.0,2502.045397429764,0.2279928424190882,1.3298852056230268,0.9192308539099476,0.28809755,0.6529839002265732
0.0235,1.78619375,1.0,2520.946594262042,0.23232319146157224,1.329443599181075,0.9218856291381062,0.28807313749999996,0.6539123563731482
0.024,1.7856,1.0,2538.6684430395026,0.2366292491730088,1.3290081319104154,0.9243988407885974,0.2880482,0.6548266872985289
0.0245,1.78499375,1.0,2555.2778577827744,0.24091115533593335,1.3285780519799517,0.9267803047679507,0.2880227375,0.6557285196334827
0.025,1.784375,1.0,2570.826852545969,0.24516904517969695,1.3281527648093188,0.929039027691119,0.28799675,0.6566191420535712
0.025500000000000002,1.78374375,1.0,2585.3608817991158,0.24940305169077856,1.3277317512972624,0.9311832733373954,0.2879702375,0.6574996785447365
0.026000000000000002,1.7831000000000001,1.0,2598.9267036259253,0.25361330785565706,1.327314492342528,0.9332206233271721,0.2879432,0.6583712471382437
0.0265,1.78244375,1.0,2611.572268552255,0.25779994666081135,1.3269004688438613,0.9351580426436957,0.2879156375,0.6592349600435705
0.027,1.781775,1.0,2623.3466143500027,0.2619631010927205,1.3264891617000079,0.9370019380623702,0.28788755,0.660091923764114
0.0275,1.7810937500000001,1.0,2634.2949272439632,0.2661029026629666,1.3260800965874189,0.9387582164809667,0.2878589375,0.660943146076338
0.028,1.7804,1.0,2644.4580878289926,0.27021948243699623,1.325672846861365,0.9404323317097116,0.2878298,0.6617895306671362
0.0285,1.77969375,1.0,2653.8902850493673,0.27431297524465226,1.3252668700212675,0.9420293036083047,0.2878001375,0.6626322170490047
0.029,1.778975,1.0,2662.6229602418175,0.27838350820442564,1.3248618398559264,0.9435537997294099,0.28776995,0.6634718909611684
0.029500000000000002,1.7782437500000001,1.0,2670.6880862318326,0.2824312084348071,1.324457430154142,0.9450101390470682,0.2877392375,0.6643092347505422
0.03,1.7775,1.0,2678.118120837458,0.2864562030542876,1.3240533147047144,0.9464023224512152,0.287708,0.6651449273880335
0.0305,1.77674375,1.0,2684.945962732213,0.29045861918135796,1.3236491672964439,0.9477340602122692,0.2876762375,0.6659796444780564
0.031,1.775975,1.0,2691.2049096674987,0.294438583934509,1.3232446617181304,0.9490087967497629,0.28764395,0.6668140582612611
0.0315,1.7751937500000001,1.0,2696.928619054092,0.2983962244322316,1.322839471758574,0.9502297329988911,0.2876111375,0.6676488376104747
0.032,1.7744,1.0,2702.1443333845855,0.30233166343069456,1.3224333327572488,0.9513998528239387,0.2875778,0.6684845214510626
0.0325,1.77359375,1.0,2706.8868826466637,0.30624503097059796,1.3220259132105645,0.9525219288225234,0.2875439375,0.669321783229917
0.033,1.772775,1.0,2711.179951018121,0.310136449872749,1.3216169856452957,0.9535985553131074,0.28750955,0.6701610795421992
0.0335,1.7719437500000002,1.0,2715.0451386517398,0.31400604136175436,1.3212063433783836,0.9546321544845221,0.2874746375,0.6710028219817855
0.034,1.7711000000000001,1.0,2718.504216745065,0.3178539266622207,1.3207937797267693,0.9556249880686736,0.2874392,0.6718474199254243
0.0345,1.7702437500000001,1.0,2721.5791100028887,0.32168022699875465,1.3203790880073936,0.9565791698636934,0.2874032375,0.6726952805087716
0.035,1.7693750000000001,1.0,2724.291880046404,0.32548506359596274,1.3199620615371976,0.9574966771397426,0.28736675,0.6735468085997021
0.035500000000000004,1.76849375,1.0,2726.66470977023,0.32926855767845176,1.3195424936331228,0.9583793610388548,0.2873297375,0.6744024067688956
0.036000000000000004,1.7676,1.0,2728.714333798366,0.3330308249191784,1.3191202281108148,0.9592289599987559,0.2872922,0.6752623724824667
0.0365,1.76669375,1.0,2730.461562738453,0.3367719864606767,1.3186950725221014,0.960047101813642,0.2872541375,0.6761270750960859
0.037,1.765775,1.0,2731.9334770711653,0.34049217109068386,1.3182667781804789,0.9608353102333588,0.28721555,0.6769969958756947
0.0375,1.76484375,1.0,2733.1428055102147,0.34419149308913943,1.317835227438307,0.96159502610138,0.2871764375,0.6778723475741062
0.038,1.7639,1.0,2734.102327463124,0.347870066735983,1.3174003026479448,0.962327603716578,0.28713679999999997,0.6787533414508706
0.0385,1.76294375,1.0,2734.824866954087,0.35152800631115405,1.3169618861617527,0.9630343169787418,0.28709663750000003,0.6796401872473984
0.039,1.761975,1.0,2735.3232868528858,0.3551654260945922,1.3165198603320896,0.9637163650333423,0.28705595,0.680533093161207
0.0395,1.7609937500000001,1.0,2735.610483411696,0.35878244036623685,1.3160741075113154,0.9643748774613118,0.2870147375,0.6814322658192776
0.04,1.76,1.0,2735.699381107952,0.3623791634060277,1.3156245100517894,0.9650109190549936,0.286973,0.6823379102505355
0.0405,1.7589937500000001,1.0,2735.602927794446,0.3659557094939042,1.3151709503058717,0.9656254942173148,0.2869307375,0.6832502298574418
0.041,1.757975,1.0,2735.334090156267,0.36951219290980597,1.3147133106259214,0.9662195510175614,0.28688795,0.6841694263867102
0.0415,1.75694375,1.0,2734.9058494743877,0.3730487279336725,1.3142514733642985,0.9667939849338802,0.2868446375,0.6850956998991313
0.042,1.7559,1.0,2734.3270556119146,0.37656542172957586,1.3137853584900865,0.9673496442780012,0.28680079999999997,0.686029173460612
0.0425,1.75484375,1.0,2733.608630667017,0.3800623902868687,1.3133148672343296,0.9678873312329117,0.2867564375,0.6869700062816788
0.043000000000000003,1.753775,1.0,2732.762599498276,0.383539750706416,1.312839890860973,0.968407804242221,0.28671155,0.687918375912291
0.043500000000000004,1.75269375,1.0,2731.795831278682,0.38699760988531345,1.3123603674967932,0.9689117835955795,0.28666613750000003,0.6888743648509832
0.044,1.7516,1.0,2730.715198692722,0.3904360747206566,1.3118762352685653,0.9693999517264773,0.2866202,0.6898380544474059
0.0445,1.75049375,1.0,2729.5275764727853,0.39385525210954136,1.3113874323030659,0.9698729555728159,0.2865737375,0.690809524884259
0.045,1.7493750000000001,1.0,2728.239840019688,0.3972552489490632,1.3108938967270702,0.9703314087678621,0.28652675,0.6917888551589852
0.0455,1.74824375,1.0,2726.8588641084107,0.40063617213631797,1.3103955666673546,0.9707758936753168,0.2864792375,0.6927761230652163
0.046,1.7471,1.0,2725.3915216789756,0.40399812856840117,1.3098923802506945,0.9712069632809907,0.2864312,0.6937714051739763
0.0465,1.7459437500000001,1.0,2723.844682711447,0.40734122514240856,1.3093842756038663,0.9716251429524781,0.28638263750000004,0.6947747768146394
0.047,1.744775,1.0,2722.225213186501,0.41066556875543575,1.3088711908536454,0.9720309320772105,0.28633355,0.6957863120556471
0.0475,1.74359375,1.0,2720.539974130874,0.41397126630457853,1.308353064126808,0.9724248055883722,0.28628393750000003,0.6968060836849765
0.048,1.7424,1.0,2718.7870006162184,0.4172584055540235,1.307829913879517,0.9728072186401829,0.2862338,0.6978340054876566
0.0485,1.74119375,1.0,2716.9773350964983,0.42052710828732665,1.3073016401102164,0.9731786005454139,0.2861831375,0.698870223168275
0.049,1.739975,1.0,2715.1205841674227,0.4237774892710875,1.3067681557888378,0.9735393601780015,0.28613195,0.6999148552101893
0.0495,1.73874375,1.0,2713.219578308631,0.42700964719052076,1.3062294355562045,0.9738898893960907,0.2860802375,0.7009678979557665
0.05,1.7375,1.0,2711.2771452643838,0.43022368073084116,1.3056854540531397,0.9742305617895434,0.286028,0.7020293468760389
0.0505,1.73624375,1.0,2709.2961098201313,0.43341968857726354,1.3051361859204669,0.974561733692747,0.2859752375,0.703099196562214
0.051000000000000004,1.734975,1.0,2707.2792935940274,0.43659776941500256,1.3045816057990092,0.9748837451325348,0.28592195,0.7041774407171459
0.051500000000000004,1.73369375,1.0,2705.229514842542,0.439758021929273,1.30402168832959,0.9751969207159114,0.2858681375,0.7052640721467653
0.052000000000000005,1.7324,1.0,2703.1495882799986,0.4429005448052896,1.3034564081530327,0.975501570461906,0.2858138,0.7063590827514671
0.0525,1.73109375,1.0,2701.0423249129326,0.44602543672826706,1.3028857399101605,0.9757979905815266,0.28575893750000003,0.7074624635174572
0.053,1.729775,1.0,2698.910531888145,0.4491327963834203,1.3023096582417968,0.976086464209471,0.28570355000000003,0.7085742045080614
0.0535,1.72844375,1.0,2696.7570123555784,0.4522227224559639,1.3017281377887646,0.9763672620909725,0.2856476375,0.7096942948549881
0.054,1.7271,1.0,2694.584565344886,0.45529531363111264,1.3011411531918875,0.9766406432268908,0.2855912,0.710822722749554
0.0545,1.7257437500000001,1.0,2692.3959856566917,0.4583506685940813,1.3005486790919887,0.9769068554799161,0.2855342375,0.7119594754338674
0.055,1.724375,1.0,2690.194063767745,0.46138888603008466,1.2999506901298916,0.9771661361445384,0.28547675,0.7131045391919699
0.0555,1.72299375,1.0,2687.9815857508256,0.46441006462433737,1.2993471609464193,0.9774187124832359,0.2854187375,0.7142578993409392
0.056,1.7216,1.0,2685.7583324237276,0.4674142786535259,1.2987380936796038,0.9776648015712199,0.2853602,0.7154194878337892
0.0565,1.72019375,1.0,2683.5296111780885,0.4704016500129984,1.2981234398087689,0.9779046129370019,0.28530113749999997,0.7165893323870771
0.057,1.718775,1.0,2681.2972462489056,0.4733722761569054,1.2975031826768872,0.9781383470440806,0.28524155,0.7177673989066411
0.0575,1.71734375,1.0,2679.0621534552242,0.476326247314074,1.2968773139338505,0.9783661959944819,0.2851814375,0.7189536367073405
0.058,1.7159,1.0,2676.8252471068363,0.47926365371333135,1.296245825229551,0.9785883441176054,0.2851208,0.7201479943688212
0.0585,1.71444375,1.0,2674.587439998775,0.4821845855835044,1.2956087082138803,0.9788049683446103,0.2850596375,0.7213504197325287
0.059000000000000004,1.7129750000000001,1.0,2672.3496434071662,0.48508913315342034,1.2949659545367302,0.9790162385618926,0.28499795,0.7225608598987104
0.059500000000000004,1.71149375,1.0,2670.112767087333,0.48797738665190615,1.2943175558479927,0.9792223179449839,0.2849357375,0.7237792612234175
0.06,1.71,1.0,2667.8777192724447,0.4908494363077889,1.29366350379756,0.9794233632740926,0.284873,0.7250055693154991
0.0605,1.7084937500000001,1.0,2665.6454066748142,0.4937053723498957,1.2930037900353233,0.9796195252324349,0.2848097375,0.7262397290335976
0.061,1.7069750000000001,1.0,2663.4167344877983,0.49654528500705364,1.292338406211175,0.9798109486884192,0.28474595,0.7274816844831318
0.0615,1.7054437500000001,1.0,2661.192606389701,0.4993692645080898,1.2916673439750066,0.9799977729626737,0.2846816375,0.7287313790132819
0.062,1.7039,1.0,2658.9739245494807,0.5021774010818312,1.2909905949767104,0.9801801320808379,0.2846168,0.729988755213967
0.0625,1.70234375,1.0,2656.7615896330935,0.504969784957105,1.290308150866178,0.9803581550129836,0.2845514375,0.7312537549128203
0.063,1.7007750000000001,1.0,2654.556500812425,0.5077465063627382,1.2896200032933014,0.980531965900461,0.28448555,0.7325263191721559
0.0635,1.69919375,1.0,2652.3595557753715,0.5105076555275578,1.2889261439079722,0.9807016842709223,0.28441913750000003,0.7338063882859367
0.064,1.6976,1.0,2650.135763898563,0.5132533185073672,1.2882268954050913,0.980867441725805,0.2843522,0.7350932932561944
0.0645,1.69599375,1.0,2647.963593709528,0.5159835825718772,1.2875215339544082,0.9810293125734411,0.2842847375,0.7363882892618117
0.065,1.694375,1.0,2645.8326794689046,0.5186985332522802,1.2868101546789126,0.9811874089927662,0.28421675,0.7376911198120479
0.0655,1.69274375,1.0,2643.714713736728,0.5213982552711918,1.2860930185728146,0.9813418473038671,0.2841482375,0.7390012267981352
0.066,1.6911014455319269,1.0,2641.652089486451,0.5240828333512272,1.285370386630324,0.981492739738415,0.2840792607123409,0.7403180562323322
0.0665,1.6894574570457273,1.0,2640.074361867835,0.5267523522150018,1.2846425198456515,0.9816401946198099,0.28401021319592057,0.741641058341575
0.067,1.6878134685595276,1.0,2639.0351344063865,0.5294068965851311,1.2839096792130062,0.9817843165342606,0.2839411656795002,0.7429696876567854
0.0675,1.686169480073328,1.0,2638.5058584783355,0.5320465511842302,1.2831721257265989,0.9819252064933146,0.2838721181630798,0.7443034030978293
0.068,1.6845254915871284,1.0,2638.4580822496855,0.5346713981328093,1.2824301210081654,0.9820629619475347,0.2838030706466594,0.7456416669238298
0.0685,1.6828815031009288,1.0,2638.824967236066,0.5372815238389406,1.2816842828193622,0.9821976942582308,0.283734023130239,0.7469833061624412
0.069,1.681237514614729,1.0,2639.5765545974514,0.539877009890123,1.2809348888729928,0.9823294948534262,0.2836649756138186,0.7483277685392832
0.0695,1.6795935261285293,1.0,2640.6859118305765,0.5424579373144829,1.2801821895759051,0.9824584508503272,0.2835959280973982,0.7496745556264399
0.07,1.6779495376423297,1.0,2642.1261601416445,0.545024387140147,1.2794264353349472,0.9825846465305017,0.28352688058097786,0.7510231735841983
0.07050000000000001,1.67630554915613,1.0,2643.8704567901846,0.5475764403952418,1.278667876556967,0.9827081634580827,0.28345783306455746,0.7523731332118335
0.07100000000000001,1.6746615606699304,1.0,2645.8919788240464,0.550114178107894,1.2779067636488122,0.9828290805923281,0.28338878554813707,0.7537239499943982
0.07150000000000001,1.6730175721837308,1.0,2648.1639082034008,0.55263768130623,1.2771433470173308,0.9829474743948508,0.2833197380317167,0.7550751441455082
0.07200000000000001,1.6713735836975312,1.0,2650.668125890898,0.5551470283369215,1.2763777967524086,0.9830634151302882,0.2832506905152963,0.7564263822139169
0.0725,1.6697295952113316,1.0,2653.376936240757,0.5576423020610448,1.2756103712047193,0.9831769751048685,0.28318164299887594,0.7577771788405512
0.073,1.668085606725132,1.0,2656.275805361936,0.5601235802202423,1.274841207160997,0.9832882186592763,0.28311259548245554,0.7591272667292283
0.0735,1.6664416182389323,1.0,2659.3508491437096,0.5625909403092572,1.2740704353210779,0.9833972078585334,0.28304354796603515,0.7604763918460296
0.074,1.6647976297527327,1.0,2662.588168806169,0.565044459822832,1.2732981863847983,0.9835040028621324,0.28297450044961475,0.7618243026746814
