Time [s],Phi [rad],STIM [ ],Fsee [N],Gamma [ ],Lcerel [ ],q [ ],Lmtc [m],fisomrel [ ]
0.0,1.8,1.0,18.15749874562789,0.00044347741468125923,1.379318477889176,0.005050866004277318,0.288653,0.5411909832010162
0.0005,1.79999375,1.0,18.60402003432293,0.006050199165940681,1.379266195112625,0.014187637912734297,0.2886527375,0.5413174529489548
0.001,1.799975,1.0,22.267315675451382,0.011625471641094893,1.378872513103372,0.03790312270667405,0.28865195,0.5422691926490278
0.0015,1.79994375,1.0,32.42294553675505,0.017169471246650667,1.3779321019487802,0.07371919798277231,0.2886506375,0.5445386681013291
0.002,1.7999,1.0,56.335855359015966,0.02268237339753176,1.3761917386173375,0.11839486255128469,0.2886488,0.5487237748599008
0.0025,1.79984375,1.0,101.60975078051615,0.028164352526395795,1.3737212110949513,0.16856540553831936,0.28864643749999996,0.5546315573269225
0.003,1.7997750000000001,1.0,166.71633654536305,0.033615582086951014,1.3710007038992444,0.2213910337948594,0.28864354999999997,0.5610920845225291
0.0035,1.79969375,1.0,244.138679597531,0.03903623456046416,1.3683872245163755,0.2746970139011318,0.2886401375,0.5672539949398009
0.004,1.7996,1.0,328.3068806164157,0.044426481459451286,1.365975877625468,0.326867262748229,0.2886362,0.5729006919523867
0.0045000000000000005,1.7994937500000001,1.0,416.33173290926703,0.04978649333186932,1.3637577049809944,0.3767833428345137,0.2886317375,0.5780622833767854
0.005,1.799375,1.0,506.6096913521594,0.05511643978138588,1.361705970894133,0.4237532979814022,0.28862675,0.5828086435571831
0.0055,1.79924375,1.0,598.0428593719428,0.0604164894481717,1.3597975721118305,0.4674185704996593,0.2886212375,0.5871993211174493
0.006,1.7991000000000001,1.0,689.7685989728208,0.06568681001885693,1.3580149682979827,0.5076613966681958,0.2886152,0.5912795997276608
0.006500000000000001,1.79894375,1.0,781.0815056907287,0.07092756824644926,1.3563446252380995,0.5445264381425917,0.2886086375,0.5950845282650461
0.007,1.798775,1.0,871.3991413390928,0.07613893001793233,1.3547757273750245,0.5781604757199484,0.28860155,0.5986421660252625
0.0075,1.79859375,1.0,960.2257802615925,0.0813210600051454,1.353299576086742,0.6087688176566436,0.2885939375,0.6019751579621444
0.008,1.7984,1.0,1047.196915957562,0.08647412258078381,1.3519081286881884,0.6365844727366792,0.2885858,0.6051041739897238
0.0085,1.79819375,1.0,1131.9914107994568,0.09159828049356249,1.350594856936382,0.6618488663881161,0.2885771375,0.6080460659749933
0.009000000000000001,1.797975,1.0,1214.3661649749806,0.09669369572230763,1.3493538029807994,0.6847987666596168,0.28856795,0.610816072521852
0.0095,1.79774375,1.0,1294.1618159419472,0.10176052986217783,1.34817926081811,0.7056587385467387,0.2885582375,0.6134285788780438
0.01,1.7975,1.0,1371.2484840405125,0.1067989432517402,1.3470663092579938,0.7246375140898594,0.288548,0.6158959725064881
0.0105,1.79724375,1.0,1445.5320113438363,0.11180909485542541,1.3460105221910421,0.7419261412747508,0.2885372375,0.6182293320570229
0.011,1.796975,1.0,1516.9657045764804,0.11679114306744748,1.345007680203477,0.7576975913671827,0.28852595000000003,0.6204390963029828
0.0115,1.79669375,1.0,1585.5589075557716,0.1217452466853627,1.3440535748146454,0.7721072965575192,0.2885141375,0.622535515488722
0.012,1.7964,1.0,1651.303808461193,0.12667156187174225,1.3431448009668796,0.7852946080020621,0.28850180000000003,0.6245269310248743
0.0125,1.79609375,1.0,1714.2091695682739,0.13157024385664481,1.3422782396931954,0.797383861990768,0.2884889375,0.6264209395169882
0.013000000000000001,1.7957750000000001,1.0,1774.319815025168,0.13644144787012902,1.341450772026608,0.8084856727187744,0.28847555,0.6282250327883718
0.0135,1.79544375,1.0,1831.695640339379,0.1412853281059997,1.3406594763825341,0.8186984194951037,0.2884616375,0.6299461771389594
0.014,1.7951000000000001,1.0,1886.4132936631,0.14610203888836146,1.339901563101984,0.8281095495032311,0.2884472,0.6315909674771303
0.0145,1.79474375,1.0,1938.5252662985292,0.15089173158645094,1.3391747785580486,0.8367969453879385,0.2884322375,0.6331647627235291
0.015,1.794375,1.0,1988.1024460525994,0.1556545574209091,1.3384768934862867,0.8448298449596395,0.28841675,0.6346728079587785
0.0155,1.79399375,1.0,2035.2286520132568,0.16039066711221386,1.337805740345984,0.852269865600039,0.2884007375,0.6361201587669059
0.016,1.7936,1.0,2079.995846423071,0.1651002113181686,1.337159242631538,0.8591719133212529,0.2883842,0.6375116234315298
0.0165,1.7931937500000001,1.0,2122.4921610363203,0.16978333976800786,1.3365355182093641,0.8655850067006593,0.2883671375,0.6388515465036824
0.017,1.792775,1.0,2162.785543809398,0.17444019934870558,1.3359330234419273,0.8715530106624567,0.28834955,0.6401435068914717
0.0175,1.7923437500000001,1.0,2200.954595148577,0.17907093694723572,1.3353502146916925,0.8771151474926109,0.2883314375,0.6413910507214151
0.018000000000000002,1.7919,1.0,2237.0876745410287,0.18367569945057224,1.3347855483211248,0.882306542580631,0.2883128,0.6425976933524356
0.0185,1.79144375,1.0,2271.266712750941,0.18825463213362123,1.334237633619481,0.88715874101906,0.2882936375,0.6437665952565357
0.019,1.790975,1.0,2303.5901221910385,0.19280788223527226,1.3337049929417972,0.891700062737383,0.28827395,0.6449010768039384
0.0195,1.79049375,1.0,2334.1281781903704,0.19733559281175397,1.3331864965582088,0.8959560736626286,0.2882537375,0.6460036942323557
0.02,1.79,1.0,2362.9493482162443,0.20183790601907228,1.3326810883208364,0.8999498321823466,0.288233,0.647076828678775
0.0205,1.78949375,1.0,2390.1271695256046,0.20631496401323307,1.332187712081802,0.9037021536464257,0.2882117375,0.6481228442023528
0.021,1.788975,1.0,2415.7398228645143,0.21076690895024222,1.331705311693227,0.9072318591148116,0.28818995000000003,0.6491440886304183
0.021500000000000002,1.78844375,1.0,2439.8559961110445,0.21519388092979116,1.331232963053644,0.9105560205172601,0.2881676375,0.6501426153912735
0.022,1.7879,1.0,2462.560302408583,0.2195960230131896,1.3307696242088354,0.9136901005329691,0.2881448,0.6511207133314599
0.0225,1.78734375,1.0,2483.9128197029013,0.2239734736052196,1.3303145204389129,0.9166481974459804,0.28812143749999997,0.652080094346974
0.023,1.786775,1.0,2503.968702081603,0.22832636983516214,1.329866949673276,0.9194431512199223,0.28809755,0.6530223071213278
0.0235,1.78619375,1.0,2522.7854883403706,0.23265484883229814,1.3294262098413243,0.9220866609541837,0.28807313749999996,0.6539488911657518
0.024,1.7856,1.0,2540.4229023165913,0.2369590477259085,1.3289915988724574,0.9245894020088375,0.2880482,0.6548613771407655
0.0245,1.78499375,1.0,2556.9415717369448,0.24123910337311288,1.3285624249552885,0.9269611313690802,0.2880227375,0.6557612656489171
0.025,1.784375,1.0,2572.3929507105304,0.24549514988824417,1.3281380990748013,0.9292107940510752,0.28799675,0.6566498339782395
0.025500000000000002,1.78374375,1.0,2586.8476298286732,0.24972732637751954,1.3277178677085504,0.9313465615614465,0.2879702375,0.6575286963793402
0.026000000000000002,1.7831000000000001,1.0,2600.346888667471,0.25393576461978007,1.327301264897102,0.9333759758944639,0.2879432,0.6583988584080263
0.0265,1.78244375,1.0,2612.9331186580303,0.25812059639386664,1.3268878246810225,0.9353059661502654,0.2879156375,0.6592613203932051
0.027,1.781775,1.0,2624.6497296864713,0.26228195347862027,1.326477081100878,0.9371429065561684,0.28788755,0.6601170775377895
0.0275,1.7810937500000001,1.0,2635.541061507705,0.266419967652882,1.3260685681972348,0.9388926682892816,0.2878589375,0.6609671200057564
0.028,1.7804,1.0,2645.6522999729477,0.27053477069549275,1.3256618200106594,0.9405606658295451,0.2878298,0.6618124329953601
0.0285,1.77969375,1.0,2655.0194005268277,0.27462648984552074,1.3252564627213486,0.9421519099269183,0.2878001375,0.6626538056696301
0.029,1.778975,1.0,2663.6924726197694,0.27869526083284435,1.3248519980510136,0.9436710181599502,0.28776995,0.6634922811296692
0.029500000000000002,1.7782437500000001,1.0,2671.706584776354,0.28274121227497323,1.324448071900621,0.9451222810207979,0.2877392375,0.6643285989794943
0.03,1.7775,1.0,2679.091498072588,0.28676446996153804,1.3240443834136557,0.946509679508247,0.287708,0.6651633851341316
0.0305,1.77674375,1.0,2685.877392730351,0.2907651596821694,1.3236406317336031,0.9478369057180246,0.2876762375,0.6659972624077624
0.031,1.775975,1.0,2692.0948298801627,0.2947434072264981,1.323236516003948,0.9491073874414389,0.28764395,0.6668308505153999
0.0315,1.7751937500000001,1.0,2697.774715329951,0.2986993383841547,1.3228317353681758,0.9503243103808835,0.2876111375,0.6676647660687887
0.032,1.7744,1.0,2702.9482653413497,0.3026330789447698,1.3224259889697716,0.9514906382388431,0.2875778,0.668499622566533
0.0325,1.77359375,1.0,2707.646974412612,0.3065447546979742,1.3220189759522203,0.9526091309068747,0.2875439375,0.6693360303784546
0.033,1.772775,1.0,2711.8901919836135,0.3104344841057808,1.3216105084724872,0.9536823720738299,0.28750955,0.6701743649236871
0.0335,1.7719437500000002,1.0,2715.715659579319,0.31430240008206656,1.3212002327710544,0.9547127572366515,0.2874746375,0.6710153395019787
0.034,1.7711000000000001,1.0,2719.1449485788394,0.3181486240528611,1.320787944293775,0.9557025370823812,0.2874392,0.6718593584048911
0.0345,1.7702437500000001,1.0,2722.196476336105,0.3219732752168819,1.320373468539267,0.9566538179474093,0.2874032375,0.6727067622962989
0.035,1.7693750000000001,1.0,2724.888785474402,0.3257764727728464,1.3199566310061472,0.9575685702312404,0.28736675,0.673557889908151
0.035500000000000004,1.76849375,1.0,2727.240530846052,0.329558335919472,1.3195372571930333,0.9584486387426767,0.2873297375,0.6744130780151573
0.036000000000000004,1.7676,1.0,2729.2704671663164,0.33331898385547615,1.3191151725985424,0.959295752144842,0.2872922,0.6752726614075335
0.0365,1.76669375,1.0,2730.9974373230966,0.3370585357795763,1.3186902027212926,0.9601115315868414,0.2872541375,0.6761369728618032
0.037,1.765775,1.0,2732.44036136134,0.34077711089048995,1.3182621730599007,0.9608974986004509,0.28721555,0.6770063431096616
0.0375,1.76484375,1.0,2733.618226142886,0.3444748283869345,1.3178309091129843,0.9616550823319173,0.2871764375,0.6778811008048913
0.038,1.7639,1.0,2734.5428319935027,0.3481518005096094,1.3173963021607622,0.9623856310430109,0.28713679999999997,0.6787614393325068
0.0385,1.76294375,1.0,2735.237170079768,0.35180815207771393,1.3169581422734995,0.9630904060297841,0.28709663750000003,0.6796477552504212
0.039,1.761975,1.0,2735.7146470024973,0.3554439982152494,1.3165163069319543,0.9637706008219434,0.28705595,0.6805402660910616
0.0395,1.7609937500000001,1.0,2735.9862742572122,0.3590594515815334,1.3160706956487362,0.9644273413037897,0.2870147375,0.681439143342232
0.04,1.76,1.0,2736.0630896324215,0.3626546248358837,1.3156212079364553,0.965061688838634,0.286973,0.6823445570814185
0.0405,1.7589937500000001,1.0,2735.9561531572167,0.36622963063761776,1.3151677433077211,0.9656746446461868,0.2869307375,0.6832566759512704
0.041,1.757975,1.0,2735.676543272488,0.3697845816460535,1.3147102012751437,0.9662671538385987,0.28688795,0.6841756671344341
0.0415,1.75694375,1.0,2735.2353532259885,0.3733195905205084,1.3142484813513329,0.9668401091450523,0.2868446375,0.6851016963277455
0.042,1.7559,1.0,2734.6436876914777,0.3768347699203002,1.3137824830488984,0.9673943543519234,0.28680079999999997,0.6860349277157773
0.0425,1.75484375,1.0,2733.9126596118435,0.3803302325047465,1.3133121058804502,0.967930687482936,0.2867564375,0.6869755239437423
0.043000000000000003,1.753775,1.0,2733.0470452448826,0.3838060763910478,1.312837306967715,0.9684498661158422,0.28671155,0.6879235311517463
0.043500000000000004,1.75269375,1.0,2732.0631558026334,0.38726242979321035,1.3123579386985678,0.9689526039492843,0.28666613750000003,0.6888792032269828
0.044,1.7516,1.0,2730.969579134167,0.39069940421715027,1.3118739236148524,0.9694395801116144,0.2866202,0.6898426523248635
0.0445,1.75049375,1.0,2729.772263211128,0.3941171049675597,1.3113852082541542,0.9699114393636745,0.2865737375,0.6908139415832815
0.045,1.7493750000000001,1.0,2728.4771570146145,0.39751563734913054,1.3108917391540578,0.9703687933062684,0.28652675,0.6917931330540986
0.0455,1.74824375,1.0,2727.090209446917,0.4008951066665549,1.310393462852148,0.9708122224045349,0.2864792375,0.6927802876870286
0.046,1.7471,1.0,2725.61736830653,0.4042556182245248,1.3098903258860102,0.9712422778698363,0.2864312,0.6937754653133368
0.0465,1.7459437500000001,1.0,2724.064579326669,0.4075972773277323,1.3093822747932287,0.9716594834104608,0.28638263750000004,0.6947787246293595
0.047,1.744775,1.0,2722.4377852768616,0.41092018928086943,1.3088692561113884,0.9720643368614494,0.28633355,0.6957901231798392
0.0475,1.74359375,1.0,2720.7429251283997,0.41422445938862823,1.3083512163780746,0.9724573117029588,0.28628393750000003,0.6968097173410772
0.048,1.7424,1.0,2718.985933282611,0.4175101929557007,1.3078281021308715,0.9728388584757593,0.2862338,0.6978375623039086
0.0485,1.74119375,1.0,2717.1727388629215,0.4207774952867789,1.3072998599073646,0.9732094061017305,0.2861831375,0.6988737120564862
0.049,1.739975,1.0,2715.3092650699996,0.4240264716865549,1.3067664362451386,0.9735693631165455,0.28613195,0.699918219366892
0.0495,1.73874375,1.0,2713.3945378846593,0.427257214091073,1.306227840501349,0.973919121499402,0.2860802375,0.7009710130799757
0.05,1.7375,1.0,2711.4324464972105,0.43046982937116285,1.30568403770797,0.9742590537511718,0.286028,0.7020321080693637
0.0505,1.73624375,1.0,2709.4360240232213,0.4336644378404491,1.305134909436578,0.9745895111539763,0.2859752375,0.7031016806222299
0.051000000000000004,1.734975,1.0,2707.4075515162863,0.4368411364261892,1.3045804352222325,0.9749108326560173,0.28592195,0.7041797145402915
0.051500000000000004,1.73369375,1.0,2705.3493072940796,0.4400000220556404,1.3040205945999932,0.9752233418517404,0.2858681375,0.7052661927903909
0.052000000000000005,1.7324,1.0,2703.2635668072976,0.4431411916560602,1.303455367104919,0.9755273478092586,0.2858138,0.7063610974975092
0.0525,1.73109375,1.0,2701.1526025179855,0.44626474215470574,1.3028847322720696,0.9758231458462168,0.28575893750000003,0.7074644099377447
0.053,1.729775,1.0,2699.01868378672,0.44937077047883456,1.3023086696365045,0.9761110182577196,0.28570355000000003,0.7085761105312717
0.0535,1.72844375,1.0,2696.8640767694756,0.452459373555704,1.301727158733283,0.9763912349996813,0.2856476375,0.7096961788352686
0.054,1.7271,1.0,2694.6910443238057,0.45553064831257134,1.3011401790974648,0.9766640543306763,0.2855912,0.7108245935368203
0.0545,1.7257437500000001,1.0,2692.5018459238872,0.45858469167669397,1.300547710264109,0.976929723415145,0.2855342375,0.7119613324457947
0.055,1.724375,1.0,2690.2987375850767,0.4616216005753293,1.2999497317682753,0.9771884788905845,0.28547675,0.7131063724876903
0.0555,1.72299375,1.0,2688.0839717981144,0.46464147193573463,1.2993462231450232,0.9774405474011587,0.2854187375,0.7142596896964604
0.056,1.7216,1.0,2685.8597974719905,0.4676444026851673,1.2987371639294119,0.9776861460999752,0.2853602,0.7154212592073077
0.0565,1.72019375,1.0,2683.62845988646,0.4706304897508848,1.298122533656501,0.9779254831221141,0.28530113749999997,0.716591055249453
0.057,1.718775,1.0,2681.3922006540024,0.47359983006014433,1.2975023118613498,0.9781587580303327,0.28524155,0.7177690511388781
0.0575,1.71734375,1.0,2679.15027208087,0.4765525001110402,1.2968765054708906,0.9783861619859743,0.2851814375,0.7189551674087764
0.058,1.7159,1.0,2676.9070030247512,0.4794886138953264,1.2962450748288155,0.9786078790900774,0.2851208,0.7201494121162932
0.0585,1.71444375,1.0,2674.6643894956073,0.48240826935148223,1.2956080016333953,0.9788240858219971,0.2850596375,0.7213517518185923
0.059000000000000004,1.7129750000000001,1.0,2672.4231163278887,0.4853115552402167,1.2949652795969002,0.979034951512467,0.28499795,0.7225621295673549
0.059500000000000004,1.71149375,1.0,2670.1838672084264,0.48819856032223874,1.2943169024316,0.9792406388109094,0.2849357375,0.72378048770111
0.06,1.71,1.0,2667.9473246769307,0.4910693733582573,1.2936628638497647,0.9794413039992429,0.284873,0.7250067678429674
0.0605,1.7084937500000001,1.0,2665.7141701284336,0.4939240831089814,1.2930031575636645,0.9796370972885956,0.2848097375,0.7262409108983496
0.061,1.7069750000000001,1.0,2663.4850838154402,0.49676277833511995,1.2923377772855695,0.9798281630999739,0.28474595,0.7274828570527192
0.0615,1.7054437500000001,1.0,2661.260744851774,0.49958554779738196,1.2916667167277494,0.980014640329879,0.2846816375,0.7287325457693075
0.062,1.7039,1.0,2659.0418312171255,0.5023924802564763,1.2909899696024745,0.9801966626017757,0.2846168,0.7299899157868335
0.0625,1.70234375,1.0,2656.8290197621645,0.505183664473112,1.2903075296220146,0.9803743585042769,0.2845514375,0.7312549051172295
0.063,1.7007750000000001,1.0,2654.6229862147484,0.507959189207998,1.2896193904986397,0.9805478518168321,0.28448555,0.732527451043356
0.0635,1.69919375,1.0,2652.4244051873984,0.5107191432218433,1.2889255459446203,0.9807172617236702,0.28441913750000003,0.7338074901167191
0.064,1.6976,1.0,2650.233950184584,0.5134636152753568,1.288225989672226,0.980882703016682,0.2843522,0.7350949581551848
0.0645,1.69599375,1.0,2648.052293612306,0.5161926941292475,1.2875207153937267,0.981044286287898,0.2842847375,0.7363897902406875
0.065,1.694375,1.0,2645.8803952388816,0.5189064684598006,1.2868097141583674,0.9812021179733365,0.28421675,0.7376919255879961
0.0655,1.69274375,1.0,2643.7221317241947,0.5216050227297987,1.2860929500609362,0.9813562990407546,0.2841482375,0.7390013518030316
0.066,1.6911,1.0,2641.5750817020344,0.5242884404606368,1.285370445329863,0.981506929629815,0.2840792,0.7403179494012615
0.0665,1.6894437500000001,1.0,2639.4377093057624,0.5269568061710953,1.284642214045352,0.9816541060032248,0.2840096375,0.7416416134673471
0.067,1.687775,1.0,2637.308718733017,0.5296102043444031,1.283908268090966,0.9817979209256719,0.28393955,0.7429722426963911
0.0675,1.68609375,1.0,2635.1935215823437,0.5322487191016866,1.2831685573206697,0.9819384609115046,0.2838689375,0.7443098474009266
0.068,1.6844000000000001,1.0,2633.090867200103,0.5348724341094881,1.2824230931645824,0.9820758123611456,0.2837978,0.7456543254060894
0.0685,1.68269375,1.0,2630.9987132091073,0.5374814319908001,1.2816718944017977,0.9822100589761155,0.2837261375,0.7470055609186942
0.069,1.6809750374474473,1.0,2628.916956855121,0.540075795348982,1.280914978789054,0.9823412815449344,0.2836539515727928,0.7483634397064585
0.0695,1.6792510050145923,1.0,2627.1839968497056,0.5426556063979362,1.2801524366027675,0.9824695614788904,0.2835815422106129,0.7497277176834578
0.07,1.6775269725817374,1.0,2626.0166032406532,0.5452209469939705,1.279384658332122,0.9825949913986641,0.283509132848433,0.7510976169918477
0.07050000000000001,1.6758029401488825,1.0,2625.371061785524,0.5477718979068126,1.2786120456330743,0.9827176614052554,0.28343672348625304,0.7524723470285515
0.07100000000000001,1.6740789077160276,1.0,2625.2040387077773,0.550308539864143,1.2778349983567303,0.9828376586623387,0.28336431412407315,0.7538511278320015
0.07150000000000001,1.6723548752831727,1.0,2625.4879813579496,0.5528309502744969,1.2770537714350418,0.9829550607955949,0.28329190476189325,0.7552334430281237
0.07200000000000001,1.6706308428503178,1.0,2626.157866174172,0.5553392152309927,1.276268968098657,0.9830699592914803,0.28321949539971336,0.7566181673013497
0.0725,1.6689068104174631,1.0,2627.1890229484666,0.5578334123564224,1.2754808182827952,0.9831824255726865,0.28314708603753347,0.7580048429790865
0.073,1.6671827779846082,1.0,2628.5568400075854,0.5603136192735775,1.2746895519226764,0.9832925288528568,0.2830746766753536,0.7593930167873701
0.0735,1.6654587455517533,1.0,2630.236747738658,0.56277991360525,1.27389539895352,0.9834003362253301,0.2830022673131736,0.7607822398982529
0.074,1.6637347131188984,1.0,2632.204203287546,0.5652323729742317,1.2730985893105458,0.9835059127478261,0.28292985795099374,0.7621720679738198
0.0745,1.6620106806860435,1.0,2634.4346764284987,0.5676710750033143,1.272299352928973,0.9836093215232761,0.28285744858881384,0.7635620612068323
