Time [s],Phi [rad],STIM [ ],Fsee [N],Gamma [ ],Lcerel [ ],q [ ],Lmtc [m],fisomrel [ ]
0.0,1.8,1.0,17.968196295707795,1.025251618542128e-05,1.3793396299163327,0.00500002800924692,0.288653,0.5411398124200884
0.0005,1.79999375,1.0,18.27751726561063,0.005619404316471809,1.37930230191188,0.012941213469808751,0.2886527375,0.5412301140444804
0.001,1.799975,1.0,21.619268045250625,0.011197093210080302,1.3789382115729816,0.03560988733349119,0.28865195,0.5421104330671884
0.0015,1.79994375,1.0,31.070423713893707,0.0167434956799004,1.378046102541161,0.07060349767214932,0.2886506375,0.5442638531678508
0.002,1.7999,1.0,53.58412161776294,0.022258787217173285,1.37636801920927,0.11471995915954922,0.2886488,0.5483007465449318
0.0025,1.79984375,1.0,97.1213000624495,0.027743142329050646,1.3739350534210666,0.1645769841862414,0.28864643749999996,0.5541217341294136
0.003,1.7997750000000001,1.0,160.96109275891013,0.03319673454631554,1.3712142342361238,0.2172826124645962,0.28864354999999997,0.5605867101418631
0.0035,1.79969375,1.0,237.68654624364984,0.03861973642297157,1.3685846352122042,0.27061503611560334,0.2886401375,0.5667900723389234
0.004,1.7996,1.0,321.4701468860571,0.0440123195470256,1.3661560029910493,0.32291788184479164,0.2886362,0.5724801705153657
0.0045000000000000005,1.7994937500000001,1.0,409.2712332474481,0.049374654545672275,1.363922732420185,0.3730364830028035,0.2886317375,0.5776793521295485
0.005,1.799375,1.0,499.4170352099749,0.0547069110763794,1.361858267312592,0.42024930993160037,0.28862675,0.5824572524793644
0.0055,1.79924375,1.0,590.793973831021,0.06000925787438367,1.3599387655489428,0.46417541129693346,0.2886212375,0.5868752712216301
0.006,1.7991000000000001,1.0,682.5216560754108,0.06528186269578075,1.358146350258878,0.504681537556861,0.2886152,0.590979565676802
0.006500000000000001,1.79894375,1.0,773.8848549419484,0.07052489237318804,1.3564671922128162,0.54180220125836,0.2886086375,0.594805933915533
0.007,1.798775,1.0,864.289309592824,0.07573851279932281,1.3548903384862312,0.5756780960453175,0.28860155,0.5983828050035978
0.0075,1.79859375,1.0,953.2467381004349,0.08092288893674317,1.3534067250085855,0.6065111125437059,0.2885939375,0.601733694893833
0.008,1.7984,1.0,1040.3474994214944,0.08607818438608507,1.3520088076378298,0.6345332722386695,0.2885858,0.6048781866881165
0.0085,1.79819375,1.0,1125.3172806277335,0.09120456330693101,1.3506891982776572,0.6599854290812598,0.2885771375,0.6078350963372896
0.009000000000000001,1.797975,1.0,1207.9038930720299,0.09630218766103678,1.3494419843238439,0.6831050932737078,0.28856795,0.6106195777800205
0.0095,1.79774375,1.0,1287.8967500600431,0.10137121791910891,1.348262063669709,0.7041182909024742,0.2885582375,0.6132446907159299
0.01,1.7975,1.0,1365.1710228050943,0.106411814551854,1.3471443342085716,0.7232349710137306,0.288548,0.6157232500857384
0.0105,1.79724375,1.0,1439.6613744674698,0.11142413755956805,1.34608392291695,0.7406473503771791,0.2885372375,0.618067341512802
0.011,1.796975,1.0,1511.3235996528288,0.11640834574107138,1.3450765367189665,0.7565297612351637,0.28852595000000003,0.6202875759121294
0.0115,1.79669375,1.0,1580.122999226526,0.12136459627573859,1.3441184593237347,0.7710391853654728,0.2885141375,0.6223931312265916
0.012,1.7964,1.0,1646.0603432145485,0.12629304584188072,1.343206125951931,0.784316109988533,0.28850180000000003,0.6243927139957502
0.0125,1.79609375,1.0,1709.1765679374364,0.1311938510977572,1.342336005005907,0.7964858072092247,0.2884889375,0.6262948331524095
0.013000000000000001,1.7957750000000001,1.0,1769.5085880210988,0.13606716701255894,1.3415050497948093,0.807659937373884,0.28847555,0.6281068270556276
0.0135,1.79544375,1.0,1827.0927180991007,0.1409131471011725,1.3407105818606537,0.817937879387316,0.2884616375,0.6298351384189247
0.014,1.7951000000000001,1.0,1881.9929147844339,0.14573194487848445,1.339949922745455,0.8274079154265572,0.2884472,0.6314861289073954
0.0145,1.79474375,1.0,1934.283317475346,0.15052371266335993,1.3392205563509005,0.8361485360672574,0.2884322375,0.6330657338934487
0.015,1.794375,1.0,1984.058057568792,0.15528860350290868,1.3385199899765299,0.8442295208861216,0.28841675,0.6345797716399557
0.0155,1.79399375,1.0,2031.376386468879,0.16002676693882567,1.3378463101251477,0.8517131344139388,0.2884007375,0.636032751067674
0.016,1.7936,1.0,2076.3128862960803,0.16473835247627153,1.337197608544369,0.8586548235332299,0.2883842,0.6374291224233368
0.0165,1.7931937500000001,1.0,2118.956036332804,0.1694235095626136,1.3365719829309766,0.8651040258351256,0.2883671375,0.6387732790367042
0.017,1.792775,1.0,2159.3904152078535,0.1740823860316233,1.3359677057041073,0.8711049295109672,0.28834955,0.6400691987369846
0.0175,1.7923437500000001,1.0,2197.721941001564,0.17871513152102939,1.3353829488090432,0.8766970170724331,0.2883314375,0.641321038418848
0.018000000000000002,1.7919,1.0,2234.016660998742,0.1833218910498281,1.3348163927498369,0.8819157789556207,0.2883128,0.6425318340114381
0.0185,1.79144375,1.0,2268.348832846595,0.1879028096370157,1.334266718030541,0.8867930432425708,0.2882936375,0.6437045957177641
0.019,1.790975,1.0,2300.8002462358354,0.19245803230158848,1.333732605155208,0.891357399870842,0.28827395,0.6448423094908099
0.0195,1.79049375,1.0,2331.4533245278058,0.196987703223285,1.3332127961816849,0.895634586457203,0.2882537375,0.6459478075917824
0.02,1.79,1.0,2360.3937677960544,0.2014919667691413,1.3327060611183825,0.8996478044155413,0.288233,0.647023842139959
0.0205,1.78949375,1.0,2387.7030717348857,0.20597096648617663,1.3322112645902442,0.903418017772466,0.2882117375,0.6480729454060931
0.021,1.788975,1.0,2413.442532801237,0.21042484253858956,1.33172751314732,0.9069642310327616,0.28818995000000003,0.6490971206029803
0.021500000000000002,1.78844375,1.0,2437.6773449744396,0.2148537350905786,1.33125391333966,0.9103036524230942,0.2881676375,0.650098357452682
0.022,1.7879,1.0,2460.476277986164,0.2192577843063423,1.3307895717173135,0.9134518884316309,0.2881448,0.651078632790422
0.0225,1.78734375,1.0,2481.910822204646,0.22363713025123108,1.3303336000830075,0.916423116049521,0.28812143749999997,0.6520399000516571
0.023,1.786775,1.0,2502.0399837659497,0.22799191021508322,1.3298852570192614,0.9192302594574677,0.28809755,0.6529837920960965
0.0235,1.78619375,1.0,2520.948533278806,0.23232226599945255,1.3294435808415943,0.9218850544444288,0.28807313749999996,0.653912394905191
0.024,1.7856,1.0,2538.684445289691,0.23662833260924038,1.329007981088394,0.9243982740305529,0.2880482,0.6548270037631985
0.0245,1.78499375,1.0,2555.2975165765474,0.24091024504934797,1.3285778672980475,0.9267797612127897,0.2880227375,0.6557289066386056
0.025,1.784375,1.0,2570.839216561039,0.24516813832467665,1.328152649008943,0.9290385220063947,0.28799675,0.6566193844018287
0.025500000000000002,1.78374375,1.0,2585.362545451809,0.24940214744012768,1.3277317357594676,0.9311828080477667,0.2879702375,0.6574997110206842
0.026000000000000002,1.7831002045518631,1.0,2598.9319328928764,0.25361240693819787,1.3273145360093506,0.9332201896346868,0.2879432085911783,0.6583711559852792
0.0265,1.7824524659223717,1.0,2611.9780042152142,0.25779904896213024,1.3269006348817969,0.9351576486742438,0.2879160035687396,0.65923461388354
0.027,1.7818047272928805,1.0,2624.70795243341,0.2619622103536355,1.3264899666428867,0.9370016635331165,0.287888798546301,0.6600902477089502
0.0275,1.7811569886633891,1.0,2637.127259943387,0.266102020682918,1.326082457101848,0.9387581946397566,0.2878615935238623,0.6609382371505789
0.028,1.780509250033898,1.0,2649.241552211879,0.2702186095201822,1.3256780320679076,0.940432737013693,0.28783438850142373,0.6617787609323181
0.0285,1.7798615114044065,1.0,2661.056592640383,0.2743121064356325,1.3252766173502937,0.9420303627005666,0.28780718347898504,0.6626119968276487
0.029,1.779213772774915,1.0,2672.5782775536654,0.2783826409994732,1.3248781387582338,0.9435557588298693,0.28777997845654646,0.6634381216740619
0.029500000000000002,1.778566034145424,1.0,2683.8126313078833,0.2824303427819087,1.324482522100955,0.9450132617942616,0.28775277343410777,0.6642573113871275
0.03,1.7779182955159325,1.0,2694.7628180038873,0.2864553241844481,1.3240897204809705,0.9464068855866676,0.2877255684116692,0.6650696845617552
0.0305,1.777270556886441,1.0,2705.4394731797843,0.2904577285102518,1.3236996196542727,0.9477403541269352,0.2876983633892305,0.6658754982005075
0.031,1.77662281825695,1.0,2715.8527957769024,0.2944376965339255,1.3233121107110193,0.9490171235810004,0.2876711583667919,0.6666749970267398
0.0315,1.7759750796274585,1.0,2726.0093222289097,0.29839534943600193,1.3229271193059327,0.950240403282826,0.2876439533443532,0.6674683533698085
0.032,1.775327340997967,1.0,2735.9156929344244,0.3023308083970138,1.3225445710937351,0.951413178494691,0.28761674832191464,0.6682557387052246
0.0325,1.7746796023684759,1.0,2745.5786481675636,0.3062441945974939,1.322164391729149,0.9525382288024502,0.287589543299476,0.669037323666414
0.033,1.7740318637389845,1.0,2755.0050241125427,0.31013562921797505,1.3217865068668968,0.9536181447896431,0.28756233827703737,0.6698132780561243
0.0335,1.773384125109493,1.0,2764.2017490201033,0.3140052334389899,1.3214108421617003,0.9546553431698597,0.2875351332545987,0.6705837708574827
0.034,1.7727363864800019,1.0,2773.1758394867147,0.3178531284410712,1.3210373232682824,0.9556520805363065,0.2875079282321601,0.6713489702446951
0.0345,1.7720886478505105,1.0,2781.9343968559647,0.32167943540475186,1.3206658758413652,0.9566104658695566,0.28748072320972146,0.6721090435933998
0.035,1.7714409092210193,1.0,2790.484603743248,0.32548427551056447,1.3202964255356708,0.9575324719287153,0.2874535181872828,0.6728641574906649
0.035500000000000004,1.7707931705915279,1.0,2798.833720682252,0.3292677699390419,1.3199288980059216,0.9584199456373731,0.2874263131648442,0.673614477744632
0.036000000000000004,1.7701454319620364,1.0,2806.989082894277,0.33303003987071683,1.3195632189068403,0.9592746175635182,0.28739910814240555,0.6743601693938104
0.0365,1.7694976933325453,1.0,2814.958097180276,0.336771206486122,1.3191993138931486,0.9600981105818348,0.2873719031199669,0.6751013967160179
0.037,1.7688499547030538,1.0,2822.7482389350394,0.3404913909657903,1.3188371086195694,0.9608919477973151,0.2873446980975283,0.6758383232369672
0.0375,1.7682022160735624,1.0,2830.3571994774516,0.3441906782708677,1.318476616662124,0.9616575606602358,0.28731749307508964,0.6765709331615004
0.038,1.7675544774440712,1.0,2837.801062168426,0.34786922158738215,1.3181176877411223,0.9623962934470097,0.287290288052651,0.6772995431959242
0.0385,1.7669067388145798,1.0,2845.089216729764,0.3515271505985466,1.317760232113028,0.9631094113835073,0.28726308303021236,0.6780243459422022
0.039,1.7662590001850886,1.0,2852.225812300042,0.3551645756466852,1.317404207226371,0.9637981060286107,0.2872358780077737,0.6787454376116038
0.0395,1.7656112615555972,1.0,2859.2150358697286,0.3587816070741221,1.3170495705296812,0.96446349997099,0.2872086729853351,0.6794629139889818
0.04,1.7649635229261058,1.0,2866.0611109515175,0.36237835522318146,1.316696279471488,0.9651066515613049,0.28718146796289645,0.680176870436598
0.0405,1.7643157842966146,1.0,2872.768296290605,0.36595493043618754,1.3163442915003218,0.9657285592713799,0.2871542629404578,0.6808874018978297
0.041,1.7636680456671232,1.0,2879.340884615549,0.36951144305546446,1.3159935640647118,0.9663301657133923,0.2871270579180192,0.6815946029007682
0.0415,1.7630203070376318,1.0,2885.7832014285323,0.37304800342333644,1.3156440546131882,0.96691236134887,0.28709985289558054,0.6822985675616922
0.042,1.7623725684081406,1.0,2892.0996038366097,0.3765647218821276,1.3152957205942806,0.9674759879144228,0.2870726478731419,0.6829993895884354
0.0425,1.7617248297786492,1.0,2898.294479422465,0.3800617087741621,1.3149485194565187,0.9680218415885326,0.28704544285070327,0.6836971622836316
0.043000000000000003,1.7610770911491578,1.0,2904.3722451556746,0.38353907444176427,1.3146024086484323,0.9685506759214325,0.28701823782826463,0.6843919785478471
0.043500000000000004,1.7604293525196666,1.0,2910.337346343752,0.3869969292272581,1.3142573456185513,0.9690632045480199,0.286991032805826,0.6850839308825969
0.044,1.7597816138901752,1.0,2916.1942556239064,0.39043538347296786,1.3139132878154056,0.9695601037018965,0.28696382778338736,0.6857731113932473
0.0445,1.7591338752606838,1.0,2921.947471994442,0.39385454752121773,1.3135701926875247,0.9700420145469536,0.2869366227609487,0.6864596117918005
0.045,1.7584861366311926,1.0,2927.6015198863306,0.3972545317143319,1.3132280176834386,0.9705095453414289,0.2869094177385101,0.6871435233995649
0.0455,1.7578383980017012,1.0,2933.160948275307,0.4006354463946345,1.312886720251677,0.9709632734479892,0.28688221271607145,0.6878249371497094
0.046,1.75719065937221,1.0,2938.630329833764,0.40399740190444977,1.3125462578407696,0.9714037472022039,0.2868550076936328,0.688503943589704
0.0465,1.7565429207427186,1.0,2944.008470866649,0.4073404767076813,1.3122066385680216,0.9718314870731191,0.2868278026711942,0.6891805319963544
0.047,1.7558951821132271,1.0,2949.303330839579,0.41066480978100234,1.3118677905236504,0.9722469902054865,0.28680059764875554,0.6898548508733945
0.0475,1.755247443483736,1.0,2954.5185613501117,0.4139705105091252,1.3115296797290152,0.9726507282538428,0.2867733926263169,0.6905269727293917
0.048,1.7545997048542445,1.0,2959.656312583419,0.4172576790363214,1.3111922854638236,0.9730431498619965,0.28674618760387827,0.6911969434560017
0.0485,1.7539519662247531,1.0,2964.718746451202,0.4205264155068625,1.3108555870077843,0.9734246822553064,0.28671898258143963,0.6918648087565238
0.049,1.753304227595262,1.0,2969.708036267375,0.42377682006502004,1.3105195636406046,0.9737957324601955,0.286691777559001,0.6925306141468384
0.0495,1.7526564889657705,1.0,2974.626366432968,0.4270089928550657,1.3101841946419932,0.974156688443456,0.28666457253656236,0.6931944049563077
0.05,1.7520087503362791,1.0,2979.475932130818,0.43022303402127104,1.3098494592916583,0.9745079201773061,0.2866373675141237,0.6938562263286575
0.0505,1.751361011706788,1.0,2984.258939029847,0.4334190437079075,1.3095153368693075,0.9748497806356623,0.2866101624916851,0.6945161232228287
0.051000000000000004,1.7507132730772965,1.0,2988.977602998623,0.43659712205924683,1.3091818066546492,0.9751826067266491,0.28658295746924645,0.6951741404137982
0.051500000000000004,1.7500655344478053,1.0,2993.634149828434,0.4397573692195605,1.3088488479273914,0.9755067201659607,0.2865557524468078,0.6958303224933771
0.052000000000000005,1.749417795818314,1.0,2998.230814966128,0.4428998853331201,1.3085164399672424,0.975822428295314,0.2865285474243692,0.6964847138709787
0.0525,1.7487700571888225,1.0,3002.7698432563984,0.4460247705441971,1.30818456205391,0.976130024849897,0.28650134240193054,0.6971373587743611
0.053,1.7481223185593313,1.0,3007.253488693347,0.4491321249970633,1.3078531934671025,0.9764297906784106,0.2864741373794919,0.6977883012503405
0.0535,1.74747457992984,1.0,3011.684014181676,0.4522220488359901,1.3075223134865281,0.9767219944190129,0.28644693235705326,0.6984375851654767
0.054,1.7468268413003485,1.0,3016.063691307904,0.45529464220524907,1.3071919013918947,0.9770068931342254,0.2864197273346146,0.6990852542067362
0.0545,1.7461791026708573,1.0,3020.394772901425,0.45835000492785516,1.3068619366981016,0.9772847328905634,0.286392522312176,0.6997313514218441
0.055,1.7455313640413659,1.0,3024.6748461988736,0.4613881858909707,1.3065324392766846,0.9775557468778316,0.28636531728973735,0.7003758407879007
0.0555,1.7448836254118745,1.0,3028.9108463595494,0.46440934772742565,1.30620334829489,0.9778201645429443,0.2863381122672987,0.7010188440465506
0.056,1.7442358867823833,1.0,3033.103795846505,0.4674135808004868,1.3058746540839845,0.9780782019463832,0.2863109072448601,0.7016603826179937
0.0565,1.7435881481528919,1.0,3037.2547212883933,0.4704009754734211,1.305546346975234,0.978330066261733,0.28628370222242144,0.702300477838297
0.057,1.7429404095234007,1.0,3041.3646533954106,0.4733716221094953,1.3052184172999055,0.9785759562134341,0.2862564971999828,0.7029391509596326
0.0575,1.7422926708939093,1.0,3045.4346268774575,0.47632561107197624,1.304890855389265,0.9788160624895496,0.28622929217754417,0.7035764231505175
0.058,1.7416449322644179,1.0,3049.4656803641906,0.47926303272413084,1.3045636515745793,0.9790505681311658,0.28620208715510553,0.7042123154960404
0.0585,1.7409971936349267,1.0,3053.458856327085,0.482183977429226,1.3042367961871149,0.9792796488999238,0.2861748821326669,0.7048468489980866
0.059000000000000004,1.7403494550054353,1.0,3057.4152010040516,0.4850885355505284,1.3039102795581379,0.9795034736250732,0.28614767711022826,0.7054800445755565
0.059500000000000004,1.7397017163759438,1.0,3061.335764325402,0.48797679745130496,1.3035840920189148,0.9797222045313416,0.2861204720877896,0.7061119230645762
0.06,1.7390539777464527,1.0,3065.221599842572,0.4908488534948225,1.3032582239007124,0.9799359975488255,0.286093267065351,0.7067425052187033
0.0605,1.7384062391169612,1.0,3069.0737646583375,0.4937047940443479,1.3029326655347968,0.9801450026060152,0.28606606204291235,0.7073718117091292
0.061,1.7377585004874698,1.0,3072.8933193595826,0.4965447094631481,1.3026074072524347,0.9803493639069977,0.2860388570204737,0.7079998631248696
0.0615,1.7371107618579786,1.0,3076.681327951937,0.4993686901144898,1.3022824393848926,0.9805492201938074,0.28601165199803513,0.708626679972955
0.062,1.7364630232284872,1.0,3080.4388577962004,0.50217682636164,1.3019577522634367,0.9807447049948267,0.28598444697559644,0.709252282678613
0.0625,1.735815284598996,1.0,3084.166979547684,0.5049692085678653,1.3016333362193335,0.9809359468600749,0.28595724195315786,0.7098766915854416
0.063,1.7351675459695046,1.0,3087.866767096225,0.5077459270964327,1.3013091815838496,0.9811230695841774,0.28593003693071917,0.7104999269555828
0.0635,1.7345198073400132,1.0,3091.5392975102272,0.5105070723106091,1.3009852786882512,0.9813061924177398,0.2859028319082806,0.7111220089698844
0.064,1.733872068710522,1.0,3095.1856509803,0.5132527345736614,1.300661617863805,0.9814854302678185,0.2858756268858419,0.7117429577280588
0.0645,1.7332243300810306,1.0,3098.805321347235,0.5159829684807702,1.3003382030008193,0.9816608920567169,0.2858484218634033,0.7123627672775468
0.065,1.7325765914515392,1.0,3102.400173706263,0.5186978940427345,1.300015017766906,0.9818326863670205,0.2858212168409646,0.7129814703900608
0.0655,1.731928852822048,1.0,3105.971318491493,0.5213976080201513,1.2996920523010944,0.9820009166078286,0.28579401181852604,0.7135990873327746
0.066,1.7312811141925566,1.0,3109.5192390583497,0.5240821914885403,1.2993693021081638,0.9821656817331464,0.28576680679608735,0.7142156280461447
0.0665,1.7306333755630652,1.0,3113.04442028007,0.5267517255234211,1.2990467626928937,0.982327077239583,0.28573960177364877,0.7148311024327173
0.067,1.729985636933574,1.0,3116.547348525633,0.5294062912003136,1.2987244295600635,0.9824851953117082,0.2857123967512101,0.7154455203571897
0.0675,1.7293378983040826,1.0,3120.0285116400273,0.5320459695947374,1.2984022982144527,0.982640124960312,0.2856851917287715,0.7160588916464694
0.068,1.7286901596745912,1.0,3123.488398922828,0.5346708417822122,1.298080364160841,0.9827919521539588,0.2856579867063328,0.7166712260897337
0.0685,1.7280424210451,1.0,3126.9275011093273,0.5372809888382579,1.2977586229040077,0.9829407599442063,0.2856307816838942,0.7172825334384851
0.069,1.7273946824156086,1.0,3130.346310350077,0.539876491838394,1.297437069948732,0.9830866285848375,0.2856035766614555,0.7178928234066105
0.0695,1.7267469437861174,1.0,3133.745320193058,0.5424574318581405,1.2971157007997938,0.9832296356454273,0.28557637163901695,0.7185021056704319
0.07,1.726099205156626,1.0,3137.125025563799,0.5450238899730169,1.2967945109619723,0.9833698561195542,0.28554916661657825,0.7191103898687619
0.07050000000000001,1.7254514665271345,1.0,3140.4859227486895,0.5475759472585431,1.296473495940047,0.9835073625279399,0.2855219615941397,0.7197176856029558
