Time [s],Phi [rad],STIM [ ],Fsee [N],Gamma [ ],Lcerel [ ],q [ ],Lmtc [m],fisomrel [ ]
0.0,1.8,1.0,18.063749794309167,0.0003163807048757048,1.379328939232371,0.005025958784315751,0.288653,0.5411656755766714
0.0005,1.79999375,1.0,18.47170289118486,0.005923815368164194,1.3792807891135288,0.013812945002528148,0.2886527375,0.5412821524535041
0.001,1.799975,1.0,22.040762282693247,0.011499796756486614,1.3788953708234526,0.03722297960704487,0.28865195,0.5422139603589233
0.0015,1.79994375,1.0,31.98642165241432,0.017044501298846278,1.3779686309976495,0.07279990109331763,0.2886506375,0.5444506185642941
0.002,1.7999,1.0,55.48210013735489,0.022558104432378243,1.376245961567123,0.117313693293927,0.2886488,0.5485936747590274
0.0025,1.79984375,1.0,100.2483306133199,0.02804078061152173,1.3737855648590875,0.16739399676987632,0.28864643749999996,0.5544781616803982
0.003,1.7997750000000001,1.0,164.98919579256903,0.03349270331330187,1.3710643915489078,0.22018572670974218,0.28864354999999997,0.5609413817743585
0.0035,1.79969375,1.0,242.21544056233296,0.03891404503904576,1.368445792488916,0.27350037407541106,0.2886401375,0.5671163839196898
0.004,1.7996,1.0,326.2753732542757,0.04430497732439077,1.3660292036472514,0.3257101645035542,0.2886362,0.5727762183589251
0.0045000000000000005,1.7994937500000001,1.0,414.23842986439826,0.049665670744751936,1.3638064855276741,0.3756860400669204,0.2886317375,0.5779491106122521
0.005,1.799375,1.0,504.47833921377145,0.05499629490689852,1.3617509865250708,0.4227274641686545,0.28862675,0.5827047951152362
0.0055,1.79924375,1.0,595.8952338149179,0.06029701848703695,1.3598393138193443,0.46646932974016203,0.2886212375,0.5871035338967585
0.006,1.7991000000000001,1.0,687.6237052210844,0.06556800919891566,1.3580537814993596,0.5067893496721824,0.2886152,0.5911909743431405
0.006500000000000001,1.79894375,1.0,778.9514667066583,0.07080943379873693,1.356380843127677,0.5437292935729336,0.2886086375,0.5950022150880298
0.007,1.798775,1.0,869.2938939415677,0.07602145821105748,1.3548096152626774,0.577434166265478,0.28860155,0.5985654876184657
0.0075,1.79859375,1.0,958.1599344415617,0.08120424716318526,1.3533312522358552,0.6081082671401314,0.2885939375,0.6019037825045999
0.008,1.7984,1.0,1045.1759243725412,0.08635796493342149,1.3519378007274312,0.6359842957465536,0.2885858,0.6050375778671522
0.0085,1.79819375,1.0,1130.021544320643,0.09148277437515649,1.3506226727432955,0.6613036327369397,0.2885771375,0.6079838691273849
0.009000000000000001,1.797975,1.0,1212.4528830485112,0.09657883746691806,1.349379886289487,0.6843032418638829,0.28856795,0.61075795617457
0.0095,1.79774375,1.0,1292.308115732658,0.10164631596590623,1.3482037395088613,0.705208023671412,0.2885582375,0.6133742212756539
0.01,1.7975,1.0,1369.4520825502,0.10668536997798263,1.3470893541677154,0.7242271230886446,0.288548,0.6158449624471883
0.0105,1.79724375,1.0,1443.7951803432923,0.11169615861238148,1.3460322222840528,0.7415519556512558,0.2885372375,0.6181814449654333
0.011,1.796975,1.0,1515.2911652391576,0.1166788403761288,1.3450281029784588,0.7573558891086936,0.28852595000000003,0.6203941586577999
0.0115,1.79669375,1.0,1583.9462983392903,0.1216335739891673,1.344072811745892,0.7717947530233554,0.2885141375,0.6224933042642729
0.012,1.7964,1.0,1649.7486425829038,0.12656051544681832,1.3431629792513067,0.7850082707944495,0.28850180000000003,0.6244871481867579
0.0125,1.79609375,1.0,1712.7123172627341,0.13145982021110775,1.3422954120245347,0.7971210713600488,0.2884889375,0.6263834531471748
0.013000000000000001,1.7957750000000001,1.0,1772.8840246730072,0.13633164348525034,1.3414669621568551,0.8082440522063649,0.28847555,0.6281897760056405
0.0135,1.79544375,1.0,1830.3288426664876,0.14117614002328596,1.3406746449997662,0.818475834616059,0.2884616375,0.6299132214741177
0.014,1.7951000000000001,1.0,1885.1078347778855,0.14599346326690396,1.339915839127265,0.8279041651635538,0.2884472,0.6315600201224723
0.0145,1.79474375,1.0,1937.2759341890305,0.15078376478777528,1.3391882557538237,0.8366071186924492,0.2884322375,0.6331356095621131
0.015,1.794375,1.0,1986.909003677884,0.15554719615757098,1.3384896060939149,0.8446540951093,0.28841675,0.6346453653264872
0.0155,1.79399375,1.0,2034.0854630714146,0.16028390785356544,1.337817775725445,0.8521068916387273,0.2884007375,0.6360942296043142
0.016,1.7936,1.0,2078.9090378950423,0.16499405156982977,1.3371705605333835,0.8590205169445349,0.2883842,0.6374872867015434
0.0165,1.7931937500000001,1.0,2121.4517824597556,0.1696777754682526,1.3365462434973026,0.86544416684832,0.2883671375,0.6388285267469845
0.017,1.792775,1.0,2161.786504089136,0.17433522685196493,1.3359432261054887,0.8714217994225697,0.28834955,0.6401216480670808
0.0175,1.7923437500000001,1.0,2199.9969036137772,0.17896655302409778,1.3353599098462283,0.8769927194678973,0.2883314375,0.6413703152676327
0.018000000000000002,1.7919,1.0,2236.1718469891434,0.18357190073129992,1.3347947444285404,0.8821921380697861,0.2883128,0.6425780583642484
0.0185,1.79144375,1.0,2270.400953009306,0.18815141643350095,1.3342462612609447,0.8870516588707545,0.2882936375,0.6437482041871183
0.019,1.790975,1.0,2302.7703597698232,0.19270524591239738,1.3337131046332455,0.8915997019389306,0.28827395,0.6448838131251291
0.0195,1.79049375,1.0,2333.3468801383233,0.19723353187044285,1.3331941768570004,0.8958619005117557,0.2882537375,0.645987374070746
0.02,1.79,1.0,2362.202989515536,0.20173641701009107,1.3326883802437677,0.8998613559603987,0.288233,0.6470613573047777
0.0205,1.78949375,1.0,2389.4163555110076,0.20621404403379573,1.3321946171051047,0.9036189219565561,0.2882117375,0.648108215454059
0.021,1.788975,1.0,2415.0607748660127,0.21066655421726013,1.331711873044586,0.9071534710749858,0.28818995000000003,0.6491302081672591
0.021500000000000002,1.78844375,1.0,2439.218316419907,0.2150940904978161,1.3312390941232426,0.9104820871544856,0.2881676375,0.6501296636620333
0.022,1.7879,1.0,2461.9577805110875,0.2194967932659221,1.3307753904571884,0.9136202982721223,0.2881448,0.6511085493236434
0.0225,1.78734375,1.0,2483.3360198739006,0.22387480027201934,1.3303200167276703,0.9165822375971853,0.28812143749999997,0.6520685157813508
0.023,1.786775,1.0,2503.412583223855,0.22822824926654905,1.329872227615936,0.9193807629379307,0.28809755,0.6530112035959824
0.0235,1.78619375,1.0,2522.24949047967,0.23255727799995243,1.3294312778032327,0.9220275894740624,0.28807313749999996,0.6539382436381675
0.024,1.7856,1.0,2539.911020301602,0.23686202422267072,1.3289964219708075,0.9245334070894443,0.2880482,0.6548512574311429
0.0245,1.78499375,1.0,2556.4525186619458,0.2411426224209161,1.3285670180324114,0.9269080008143633,0.2880227375,0.6557516411393145
0.025,1.784375,1.0,2571.9403771258612,0.2453992127078898,1.3281423367437655,0.9291603125033495,0.28799675,0.6566409656771085
0.025500000000000002,1.78374375,1.0,2586.420347669207,0.24963192824556468,1.3277218573571752,0.9312985675717609,0.2879702375,0.6575203578136586
0.026000000000000002,1.7831000000000001,1.0,2599.937107260508,0.25384090138710286,1.3273050811846878,0.9333303162074574,0.2879432,0.658390892317235
0.0265,1.78244375,1.0,2612.536492855146,0.2580262644856664,1.3268915095383498,0.9352624949501221,0.2879156375,0.6592536383665146
0.027,1.781775,1.0,2624.265400790645,0.2621881498944174,1.326480643730208,0.9371014847965462,0.28788755,0.6601096596604243
0.0275,1.7810937500000001,1.0,2635.171691695334,0.26632668996651787,1.3260719850723095,0.9388531630963111,0.2878589375,0.6609600145121288
0.028,1.7804,1.0,2645.2926717025907,0.2704420139762286,1.3256651404043356,0.940522964261306,0.2878298,0.661805536751991
0.0285,1.77969375,1.0,2654.6741792218104,0.2745342550890497,1.3252596444653695,0.9421158968741443,0.2878001375,0.6626472056194561
0.029,1.778975,1.0,2663.365745913568,0.27860354589336284,1.3248550044269674,0.9436365866287912,0.28776995,0.6634860526108259
0.029500000000000002,1.7782437500000001,1.0,2671.397034155951,0.2826500126640841,1.3244509159508133,0.945089337866427,0.2877392375,0.6643227140901731
0.03,1.7775,1.0,2678.7981696225365,0.28667378167612956,1.324047074698591,0.9464781381193548,0.287708,0.6651578232757837
0.0305,1.77674375,1.0,2685.5997004962087,0.29067497920441526,1.3236431763319847,0.9478066854476187,0.2876762375,0.6659920102479078
0.031,1.775975,1.0,2691.832558736092,0.2946537315238572,1.323238916512678,0.9490784130941463,0.28764395,0.6668259019506055
0.0315,1.7751937500000001,1.0,2697.528023398201,0.2986101649093716,1.322833990902355,0.9502965117504982,0.2876111375,0.6676601221876856
0.032,1.7744,1.0,2702.7176860095014,0.30254440563587437,1.3224280951626992,0.9514639496906244,0.2875778,0.668495291612734
0.0325,1.77359375,1.0,2707.4251650450046,0.30645657684162614,1.3220210002767432,0.9525834990695096,0.2875439375,0.6693318730254011
0.033,1.772775,1.0,2711.68092971457,0.3103468049471567,1.3216124167900019,0.953657737607789,0.28750955,0.6701704507860144
0.0335,1.7719437500000002,1.0,2715.5176444296317,0.314215215632099,1.321202037248944,0.9546890679812191,0.2874746375,0.6710116430711992
0.034,1.7711000000000001,1.0,2718.9547567837176,0.31806192895093427,1.3207896763842386,0.9556797461145559,0.2874392,0.6718558148128044
0.0345,1.7702437500000001,1.0,2722.0118581925763,0.32188706495814395,1.3203751489265547,0.9566318804606654,0.2874032375,0.6727033289231119
0.035,1.7693750000000001,1.0,2724.708669224543,0.32569074370820933,1.3199582696065617,0.9575474433640935,0.28736675,0.6735545462703277
0.035500000000000004,1.76849375,1.0,2727.0650256923373,0.3294730852556118,1.3195388531549286,0.9584282814231099,0.2873297375,0.6744098256518909
0.036000000000000004,1.7676,1.0,2729.1008655055607,0.33323420965483264,1.3191167143023246,0.9592761249488988,0.2872922,0.6752695237655886
0.0365,1.76669375,1.0,2730.836216284586,0.3369742369603531,1.318691667779419,0.9600925966098984,0.2872541375,0.6761339951784837
0.037,1.765775,1.0,2732.28498840003,0.3406932841266554,1.3182635846013944,0.9608792242638922,0.28721555,0.6770034780506093
0.0375,1.76484375,1.0,2733.4670616474905,0.3443914715724723,1.3178322821247221,0.9616374384377525,0.2871764375,0.67787831772765
0.038,1.7639,1.0,2734.403857664428,0.34806891856351374,1.3173975642356255,0.9623685822606776,0.28713679999999997,0.6787588846214668
0.0385,1.76294375,1.0,2735.1076775794304,0.35172573924025163,1.3169593180902426,0.9630739260285206,0.28709663750000003,0.679645378430384
0.039,1.761975,1.0,2735.5908598115648,0.35536204774315755,1.3165174308447116,0.9637546655365572,0.28705595,0.6805379973579821
0.0395,1.7609937500000001,1.0,2735.8657749157755,0.3589779582127034,1.3160717896551704,0.9644119272487991,0.2870147375,0.6814369380873015
0.04,1.76,1.0,2735.9448207096248,0.3625735847893608,1.3156222816777574,0.9650467730553519,0.286973,0.6823423957542295
0.0405,1.7589937500000001,1.0,2735.840417683142,0.3661490416136016,1.3151687940686105,0.9656602046546727,0.2869307375,0.6832545639200822
0.041,1.757975,1.0,2735.565004690248,0.36970444282589754,1.3147112139838681,0.9662531675939485,0.28688795,0.6841736345433672
0.0415,1.75694375,1.0,2735.1266699702037,0.37323989660981016,1.3142494682145944,0.9668265573548792,0.2868446375,0.6850997185167239
0.042,1.7559,1.0,2734.538748229178,0.3767555200543386,1.3137834360206018,0.9673812178293516,0.28680079999999997,0.686033020660411
0.0425,1.75484375,1.0,2733.8146658338687,0.3802514298084653,1.3133129958957108,0.9679179469746275,0.2867564375,0.686973745544816
0.043000000000000003,1.753775,1.0,2732.961659075734,0.3837277335619081,1.3128380825979782,0.968437503056892,0.28671155,0.6879219836620554
0.043500000000000004,1.75269375,1.0,2731.9869692483107,0.38718453900438443,1.3123586308854598,0.9689406040882842,0.28666613750000003,0.6888778243346974
0.044,1.7516,1.0,2730.8978409981532,0.39062195382561204,1.3118745755162122,0.9694279303617498,0.2866202,0.6898413556970104
0.0445,1.75049375,1.0,2729.7015207719824,0.3940400857153087,1.3113858512482919,0.9699001268020071,0.2865737375,0.6908126646759459
0.045,1.7493750000000001,1.0,2728.4052553567344,0.397439042363192,1.310892392839755,0.9703578051476526,0.28652675,0.691791836971848
0.0455,1.74824375,1.0,2727.0162905147995,0.40081893145897957,1.3103941350486576,0.970801545978064,0.2864792375,0.6927789570388894
0.046,1.7471,1.0,2725.5418697134387,0.4041798606923891,1.3098910126330565,0.9712319005975428,0.2864312,0.6937741080652385
0.0465,1.7459437500000001,1.0,2723.9892329484123,0.4075219377531383,1.3093829603510079,0.9716493927880289,0.28638263750000004,0.6947773719529551
0.047,1.744775,1.0,2722.3627362155794,0.41084526430271007,1.308869939167928,0.9720545215447165,0.28633355,0.695788777673471
0.0475,1.74359375,1.0,2720.6637605504397,0.4141499383095505,1.308351937116512,0.9724477629173394,0.28628393750000003,0.6968082999888222
0.048,1.7424,1.0,2718.9085803789426,0.41743608837914115,1.3078288066026624,0.9728295642093505,0.2862338,0.6978361792907546
0.0485,1.74119375,1.0,2717.1004898300025,0.42070381442623717,1.3073005181161566,0.9732003558512757,0.2861831375,0.6988724220839979
0.049,1.739975,1.0,2715.242780366333,0.42395321636559397,1.3067670421467716,0.9735605478303954,0.28613195,0.6999170339684976
0.0495,1.73874375,1.0,2713.3387404757377,0.4271843941119668,1.3062283491842852,0.97391053084506,0.2860802375,0.7009700196296795
0.05,1.7375,1.0,2711.391655381278,0.43039744758011095,1.3056844097184748,0.9742506773837195,0.286028,0.7020313828286596
0.0505,1.73624375,1.0,2709.4048067706162,0.4335924766847817,1.3051351942391172,0.9745813427342055,0.2859752375,0.7031011263923987
0.051000000000000004,1.734975,1.0,2707.381472545066,0.4367695813407343,1.3045806732359901,0.9749028659283645,0.28592195,0.7041792522037978
0.051500000000000004,1.73369375,1.0,2705.324926587454,0.4399288614627241,1.3040208171988712,0.9752155706267123,0.2858681375,0.7052657611917428
0.052000000000000005,1.7324,1.0,2703.2384385496857,0.44307041696550636,1.3034555966175372,0.9755197659474195,0.2858138,0.7063606533210924
0.0525,1.73109375,1.0,2701.125273659617,0.4461943477638364,1.302884981981766,0.9758157472435826,0.28575893750000003,0.707463927582606
0.053,1.729775,1.0,2698.9886925467476,0.4493007537724695,1.3023089437813349,0.9761037968324284,0.28570355000000003,0.7085755819828243
0.0535,1.72844375,1.0,2696.831951088033,0.45238973490616086,1.301727452506021,0.9763841846798146,0.2856476375,0.7096956135338868
0.054,1.7271,1.0,2694.658300272326,0.45546139107966593,1.3011404786456018,0.9766571690431206,0.2855912,0.7108240182432968
0.0545,1.7257437500000001,1.0,2692.4649546719,0.45851580750231635,1.3005480478888432,0.9769229989709567,0.2855342375,0.7119606853004007
0.055,1.724375,1.0,2690.2560877792657,0.4615530892465393,1.299950122254667,0.9771819110395714,0.28547675,0.7131056255083237
0.0555,1.72299375,1.0,2688.0397039010263,0.4645733464743108,1.2993466286130766,0.9774341302125208,0.2854187375,0.714258915618574
0.056,1.7216,1.0,2685.816832744358,0.46757667088595267,1.2987375576240576,0.9776798740155103,0.2853602,0.715420509135245
0.0565,1.72019375,1.0,2683.5885023632086,0.4705631541817867,1.2981228999475964,0.9779193509529778,0.28530113749999997,0.716590358822817
0.057,1.718775,1.0,2681.3557391453223,0.47353288806213456,1.2975026462436787,0.9781527609535199,0.28524155,0.7177684167028334
0.0575,1.71734375,1.0,2679.1195678007043,0.47648596422731815,1.296876787172291,0.9783802957898367,0.2851814375,0.7189546340505684
0.058,1.7159,1.0,2676.8810113528707,0.47942247437765917,1.2962453133934189,0.9786021394748446,0.2851208,0.7201489613916934
0.0585,1.71444375,1.0,2674.6410911313455,0.4823425102134794,1.2956082155670485,0.9788184686354933,0.2850596375,0.7213513484989329
0.059000000000000004,1.7129750000000001,1.0,2672.4008267662916,0.4852461634351007,1.2949654843531662,0.9790294528657033,0.28499795,0.7225617443887185
0.059500000000000004,1.71149375,1.0,2670.1612361852644,0.4881335257428447,1.2943171104117577,0.9792352550597473,0.2849357375,0.7237800973178357
0.06,1.71,1.0,2667.923335611582,0.49100468883703324,1.293663084402809,0.979436031727303,0.284873,0.725006354780066
0.0605,1.7084937500000001,1.0,2665.688139564881,0.49385974441798813,1.2930033969863064,0.9796319332913179,0.2848097375,0.7262404635028219
0.061,1.7069750000000001,1.0,2663.456660863455,0.49669878418603114,1.2923380388222359,0.9798231043697511,0.28474595,0.7274823694437784
0.0615,1.7054437500000001,1.0,2661.2299106285477,0.49952189984148404,1.2916670005705833,0.9800096840421756,0.2846816375,0.7287320177874981
0.062,1.7039,1.0,2659.008898290947,0.5023291830846686,1.2909902728913347,0.9801918061021724,0.2846168,0.7299893529420489
0.0625,1.70234375,1.0,2656.796131594204,0.5051206980155869,1.2903078326247857,0.9803695964840293,0.2845514375,0.7312543441221284
0.063,1.7007750000000001,1.0,2654.591616316423,0.5078965659163788,1.2896196796334272,0.9805431819074837,0.28448555,0.7325269169930837
0.0635,1.69919375,1.0,2652.3955117417827,0.5106568750051874,1.2889258123643534,0.9807126818305716,0.28441913750000003,0.7338069992015257
0.064,1.6976,1.0,2650.2081377380737,0.5134017089762186,1.2882262277810543,0.9808782109062976,0.2843522,0.735094520469081
0.0645,1.69599375,1.0,2648.029813663888,0.5161311515236785,1.287520922847019,0.9810398796001317,0.2842847375,0.7363894098380055
0.065,1.694375,1.0,2645.8608583729965,0.518845286341773,1.2868098945257367,0.9811977943717766,0.28421675,0.7376915956700759
0.0655,1.69274375,1.0,2643.7015902196417,0.521544197124708,1.286093139780697,0.9813520578477654,0.2841482375,0.7390010056454803
0.066,1.6911,1.0,2641.5523270641665,0.5242279675666895,1.2853706555753888,0.981502768985414,0.2840792,0.7403175667617119
0.0665,1.6894437500000001,1.0,2639.413386278326,0.5268966813619237,1.2846424388733018,0.9816500232286206,0.2840096375,0.7416412053324575
0.067,1.687775,1.0,2637.28508475094,0.5295504222046162,1.2839084866379251,0.9817939126559694,0.28393955,0.7429718469864894
0.0675,1.68609375,1.0,2635.1677388943544,0.5321892737889734,1.283168795832748,0.9819345261215728,0.2838689375,0.7443094166665545
0.068,1.6844000000000001,1.0,2633.0616646501817,0.5348133198092009,1.2824233634212603,0.9820719493890557,0.2837978,0.7456538386282613
0.0685,1.68269375,1.0,2630.9671774958474,0.5374226439595049,1.281672186366951,0.982206265259059,0.2837261375,0.7470050364389722
0.069,1.680975,1.0,2628.8845924512525,0.5400173299340914,1.280915261633309,0.9823375536906199,0.28365395,0.7483629329766885
0.0695,1.67924375,1.0,2626.814224085381,0.5425974614271661,1.2801525861838245,0.9824658919167633,0.28358123749999997,0.7497274504289374
0.07,1.6775,1.0,2624.7563865236557,0.5451631221329353,1.2793841569819864,0.9825913545546147,0.283508,0.7510985102916607
0.07050000000000001,1.67574375,1.0,2622.7122844057094,0.5477143954617549,1.2786099627296512,0.9827140133112001,0.2834342375,0.7524760480477755
0.07100000000000001,1.673975,1.0,2620.681745337861,0.5502513600270266,1.277830004885827,0.9828339377855919,0.28335995,0.7538599757179251
0.07150000000000001,1.67219375,1.0,2618.6607429422843,0.5527740945604499,1.2770443206775992,0.9829511969083822,0.2832851375,0.7552501415187742
0.07200000000000001,1.6704,1.0,2616.6508811693475,0.5552826783747795,1.2762528951205756,0.9830658550211258,0.2832098,0.7566464857700901
0.0725,1.66859375,1.0,2614.6537615457205,0.5577771907827693,1.2754557132303646,0.9831779743525054,0.2831339375,0.7580489478595381
0.073,1.6667750000000001,1.0,2612.6697272885926,0.5602577108084176,1.2746527716908669,0.9832876156055731,0.28305755,0.7594574457988665
0.0735,1.66494375,1.0,2610.697703363922,0.5627243174463449,1.2738440803631597,0.9833948381034485,0.2829806375,0.7608718738841052
0.074,1.6631,1.0,2608.7380144049057,0.5651770885305639,1.2730296361103541,0.9834996986237977,0.2829032,0.7622921486143099
0.0745,1.6612437500000001,1.0,2606.790032225891,0.5676161012838539,1.2722094446538168,0.983602252484276,0.2828252375,0.7637181704121832
0.075,1.659375,1.0,2604.8531296323745,0.5700414329289938,1.271383511714915,0.9837025532481316,0.28274675,0.7651498391877569
