Time [s],Phi [rad],STIM [ ],Fsee [N],Gamma [ ],Lcerel [ ],q [ ],Lmtc [m],fisomrel [ ]
0.0,1.8,1.0,17.96685899512503,1.0000013377720602e-05,1.3793397797371807,0.0050000266518459265,0.288653,0.5411394499647553
0.0005,1.79999375,1.0,18.276218583592453,0.00561915323000557,1.3793024461696846,0.012940515156787437,0.2886527375,0.541229765081931
0.001,1.799975,1.0,21.61785407409722,0.011196843532010232,1.3789383559887234,0.03560858035277568,0.28865195,0.5421100840579196
0.0015,1.79994375,1.0,31.068618853867545,0.016743247402327258,1.3780462563083318,0.07060171153486386,0.2886506375,0.5442634824338493
0.002,1.7999,1.0,53.581497361155954,0.022258540332240784,1.376368189456846,0.11471784451789559,0.2886488,0.5483003378985194
0.0025,1.79984375,1.0,97.11767975331435,0.027742896828947504,1.373935227874627,0.1645746819415162,0.28864643749999996,0.5541213180942306
0.003,1.7997750000000001,1.0,160.95679967978506,0.03319649042327377,1.3712143949297722,0.21728023471088523,0.28864354999999997,0.5605863297095764
0.0035,1.79969375,1.0,237.68193639502874,0.03861949366926683,1.3685847772074646,0.27061266881541673,0.2886401375,0.5667897385552413
0.004,1.7996,1.0,321.4654040416895,0.0440120781549771,1.366156128610685,0.32291558786222657,0.2886362,0.5724798771710318
0.0045000000000000005,1.7994937500000001,1.0,409.26644086604887,0.0493744145076426,1.3639228449154939,0.37303430409888155,0.2886317375,0.5776790910351193
0.005,1.799375,1.0,499.41224354525076,0.05470667238478087,1.361858369134954,0.42024727034942794,0.28862675,0.5824570174967838
0.0055,1.79924375,1.0,590.7892086249135,0.06000902052164456,1.3599388586494217,0.4641735222652988,0.2886212375,0.5868750575068612
0.006,1.7991000000000001,1.0,682.5169521427247,0.06528162667439817,1.3581464357637787,0.504679800887121,0.2886152,0.5909793703753239
0.006500000000000001,1.79894375,1.0,773.8804103258068,0.07052465767545231,1.3564672680852625,0.5418006109080008,0.2886086375,0.594805761428028
0.007,1.798775,1.0,864.284579333271,0.0757382794181613,1.35489041489503,0.5756766502105823,0.28860155,0.5983826320651577
0.0075,1.79859375,1.0,953.2415687974503,0.08092265686509595,1.3534068045177685,0.6065098025030023,0.2885939375,0.6017335156904967
0.008,1.7984,1.0,1040.3538793877094,0.08607795400374704,1.3520087137053305,0.6345319831083396,0.2885858,0.6048783975622407
0.0085,1.79819375,1.0,1125.3183295528572,0.09120433413756962,1.3506891834287578,0.6599843000968691,0.2885771375,0.6078351295474207
0.009000000000000001,1.797975,1.0,1207.8815635998706,0.0963019592118268,1.3494422894304787,0.6831042436806642,0.28856795,0.6106188978239335
0.0095,1.79774375,1.0,1287.87031421194,0.10137099057539863,1.3482624134878527,0.7041175509820335,0.2885582375,0.6132439137487753
0.01,1.7975,1.0,1365.162911335659,0.10641158896061037,1.347144438462884,0.7232341814264428,0.288548,0.6157230192738808
0.0105,1.79724375,1.0,1439.6585893671643,0.11142391335277006,1.3460839577746118,0.7406465991271811,0.2885372375,0.6180672645760865
0.011,1.796975,1.0,1511.3054541145411,0.11640812216115422,1.3450767583751269,0.7565291637235332,0.28852595000000003,0.6202870881036808
0.0115,1.79669375,1.0,1580.1099969108316,0.12136437417402002,1.3441186146566637,0.7710386140491363,0.2885141375,0.622392790327738
0.012,1.7964,1.0,1646.0657400960135,0.12629282574831002,1.3432060627824913,0.7843154957016605,0.28850180000000003,0.624392852261928
0.0125,1.79609375,1.0,1709.1796754614463,0.13119363215664231,1.3423359693108392,0.7964852539419319,0.2884889375,0.6262949110842098
0.013000000000000001,1.7957750000000001,1.0,1769.4952119110078,0.136066948671635,1.3415052007999373,0.8076595025148756,0.28847555,0.6281064981715387
0.0135,1.79544375,1.0,1827.0708043636148,0.14091292953948675,1.3407108253190756,0.8179375164180933,0.2884616375,0.6298346094081453
0.014,1.7951000000000001,1.0,1881.9841957071546,0.1457317291868904,1.3399500181896276,0.8274075303808147,0.2884472,0.6314859219798211
0.0145,1.79474375,1.0,1934.286923214934,0.15052349904391166,1.3392205174175758,0.8361481351917499,0.2884322375,0.6330658181216589
0.015,1.794375,1.0,1984.0487691661722,0.15528839037804176,1.3385200890030986,0.8442291956883098,0.28841675,0.6345795578486422
0.0155,1.79399375,1.0,2031.3535222070504,0.1600265540288222,1.3378465510327942,0.8517128794741727,0.2884007375,0.6360322320001455
0.016,1.7936,1.0,2076.2922873188986,0.1647381405839953,1.337197823222454,0.8586545809305478,0.2883842,0.637428660759052
0.0165,1.7931937500000001,1.0,2118.954238468273,0.16942329993213898,1.3365720014783944,0.865103744073921,0.2883671375,0.6387732392245781
0.017,1.792775,1.0,2159.407217706686,0.17408217903048054,1.3359675339944104,0.8711046132819742,0.28834955,0.640069566650876
0.0175,1.7923437500000001,1.0,2197.729823170504,0.17871492483624726,1.3353828689642953,0.8766967456033475,0.2883314375,0.641321209200505
0.018000000000000002,1.7919,1.0,2234.010506837513,0.18332168430666645,1.3348164545818437,0.881915562013741,0.2883128,0.6425317019810082
0.0185,1.79144375,1.0,2268.33065332491,0.1879026027277895,1.3342668992963023,0.886792870844448,0.2882936375,0.6437042092947567
0.019,1.790975,1.0,2300.789732107272,0.19245782748478515,1.3337327092482498,0.891357221115688,0.28827395,0.6448420879394872
0.0195,1.79049375,1.0,2331.4573240637046,0.19698750159067444,1.333212756846298,0.8956343863277884,0.2882537375,0.6459478911826848
0.02,1.79,1.0,2360.4022659011157,0.2014917672895898,1.332705978053615,0.8996476067894214,0.288233,0.6470240183909038
0.0205,1.78949375,1.0,2387.698519251356,0.20597076682566376,1.3322113088333705,0.9034178594986245,0.2882117375,0.6480728516684278
0.021,1.788975,1.0,2413.424739262967,0.21042464244302878,1.331727685148733,0.9069641093687395,0.28818995000000003,0.6490967567151247
0.021500000000000002,1.78844375,1.0,2437.649449143475,0.21485353426270662,1.3312541816514845,0.9103035579849545,0.2881676375,0.650097790619915
0.022,1.7879,1.0,2460.457873467432,0.2192575854867753,1.3307897479161612,0.9134517822779039,0.2881448,0.6510782610764111
0.0225,1.78734375,1.0,2481.909496030857,0.22363693444519817,1.330333612724396,0.9164229850635474,0.28812143749999997,0.6520398734197982
0.023,1.786775,1.0,2502.0598421858695,0.22799171835802165,1.3298850684876917,0.9192300982573454,0.28809755,0.6529841887400221
0.0235,1.78619375,1.0,2520.966848137539,0.23232207444529224,1.3294434076175503,0.9218849034139307,0.28807313749999996,0.653912758856303
0.024,1.7856,1.0,2538.690658842125,0.23662813992705636,1.3290079225254745,0.9243981499483844,0.2880482,0.6548271266437224
0.0245,1.78499375,1.0,2555.2911716832386,0.24091005154033518,1.32857792690422,0.9267796633124584,0.2880227375,0.6557287817325418
0.025,1.784375,1.0,2570.820119199637,0.2451679439869908,1.3281528278734185,0.9290384489738645,0.28799675,0.6566190100723169
0.025500000000000002,1.78374375,1.0,2585.3491174001306,0.2494019559265252,1.3277318611717928,0.931182731212046,0.2879702375,0.6574994488930892
0.026000000000000002,1.7831000000000001,1.0,2598.9194495965944,0.253612219235091,1.327314559915026,0.9332201017056562,0.2879432,0.658371106083013
0.0265,1.78244375,1.0,2611.5735195568645,0.25779886578884065,1.3269004572188012,0.9351575345001029,0.2879156375,0.6592349842797791
0.027,1.781775,1.0,2623.3547575421744,0.2619620274639269,1.3264890861988023,0.9370014445387905,0.28788755,0.660092080972803
0.0275,1.7810937500000001,1.0,2634.3075311777516,0.26610183613650223,1.326079979970712,0.9387577399352751,0.2878589375,0.6609433885915182
0.028,1.7804,1.0,2644.47706115583,0.2702184236827193,1.3256726716502139,0.9404318687231856,0.2878298,0.6617898945797577
0.0285,1.77969375,1.0,2653.90451838321,0.27431191911940594,1.325266738815795,0.942028865995981,0.2878001375,0.6626324892223768
0.029,1.778975,1.0,2662.6323312406093,0.2783824556597619,1.324861753614081,0.9435533865788306,0.28776995,0.6634720696389801
0.029500000000000002,1.7782437500000001,1.0,2670.693952947331,0.28243016111326913,1.324457376243987,0.9450097478827696,0.2877392375,0.6643093463037877
0.03,1.7775,1.0,2678.121543716358,0.2864551620172884,1.3240532832950058,0.9464019511154156,0.287708,0.6651449923014244
0.0305,1.77674375,1.0,2684.947701989102,0.29045758490918033,1.3236491513566295,0.9477337068502865,0.2876762375,0.6659796773792523
0.031,1.775975,1.0,2691.2054230765566,0.2944375563263057,1.3232446570183507,0.949008459795543,0.28764395,0.6668140679499006
0.0315,1.7751937500000001,1.0,2696.9280601199166,0.2983952028060252,1.3228394768696619,0.9502294111607951,0.2876111375,0.6676488270871273
0.032,1.7744,1.0,2702.1400033804734,0.30233064563795875,1.3224333723140884,0.9513995476429905,0.2875778,0.6684844401089427
0.0325,1.77359375,1.0,2706.873269615219,0.30624401347356633,1.322026037463803,0.9525216444190034,0.2875439375,0.6693215280464326
0.033,1.772775,1.0,2711.1643771641134,0.3101354369924378,1.32161712768342,0.9535982841128581,0.28750955,0.6701607882036564
0.0335,1.7719437500000002,1.0,2715.032795682928,0.3140050361519785,1.3212064558696943,0.9546318912359766,0.2874746375,0.6710025915421879
0.034,1.7711000000000001,1.0,2718.4981569445595,0.3178529309095938,1.3207938349193806,0.9556247296749054,0.2874392,0.6718473070080268
0.0345,1.7702437500000001,1.0,2721.5802391187262,0.32167924122268915,1.3203790777292341,0.95657891522796,0.2874032375,0.6726953015094559
0.035,1.7693750000000001,1.0,2724.2989518273434,0.3254840870486699,1.3199619971960097,0.9574964270234465,0.28736675,0.673546939892668
0.035500000000000004,1.76849375,1.0,2726.6743219765362,0.3292675883449413,1.3195424062164625,0.9583791179309219,0.2873297375,0.6744025849151571
0.036000000000000004,1.7676,1.0,2728.7264803645553,0.3330298650689089,1.3191201176873475,0.9592287240647726,0.2872922,0.6752625972168798
0.0365,1.76669375,1.0,2730.475649065966,0.33677103717797796,1.3186949445054195,0.9600468734686206,0.2872541375,0.6761273352891825
0.037,1.765775,1.0,2731.9421295918128,0.34049122462955395,1.3182666995674337,0.9608350940595886,0.28721555,0.6769971554414953
0.0375,1.76484375,1.0,2733.13939614036,0.34419054160682605,1.317835258407541,0.9615948257992709,0.2871764375,0.6778722847991443
0.038,1.7639,1.0,2734.086365639097,0.3478691093002034,1.317400447612941,0.9623274189158555,0.28713679999999997,0.678753048007349
0.0385,1.76294375,1.0,2734.8035316177866,0.3515270491427216,1.3169620799033865,0.963034142203802,0.28709663750000003,0.679639795610074
0.039,1.761975,1.0,2735.302053266051,0.35516447393042416,1.3165200531321881,0.9637161962024,0.28705595,0.6805327039706531
0.0395,1.7609937500000001,1.0,2735.593121034705,0.35878149645935453,1.3160742651526558,0.9643747118052525,0.2870147375,0.6814319480491347
0.04,1.76,1.0,2735.6879522527183,0.3623782295255562,1.3156246138181003,0.9650107550418051,0.286973,0.6823377013781093
0.0405,1.7589937500000001,1.0,2735.5977869767075,0.3659547859250726,1.3151709969818315,0.9656253314817219,0.2869307375,0.6832501360378775
0.041,1.757975,1.0,2735.3338840709303,0.36951127845394727,1.3147133124971602,0.9662193902955195,0.28688795,0.6841694226309465
0.0415,1.75694375,1.0,2734.90751751915,0.37304781990822367,1.3142514582173963,0.966793828001597,0.2868446375,0.6850957302558675
0.042,1.7559,1.0,2734.3299729674777,0.3765645230839452,1.3137853319958506,0.9673494919268925,0.28680079999999997,0.6860292264804013
0.0425,1.75484375,1.0,2733.6125444990303,0.3800615007771555,1.3133148316858332,0.9678871834057682,0.2867564375,0.6869700773140244
0.043000000000000003,1.753775,1.0,2732.760997423815,0.38353885976376806,1.3128399054145312,0.9684076638725693,0.28671155,0.6879183468757244
0.043500000000000004,1.75269375,1.0,2731.7873987581415,0.3869967151971296,1.3123604441130627,0.9689116510301777,0.28666613750000003,0.6888742122241398
0.044,1.7516,1.0,2730.70376709614,0.3904351802710132,1.3118763391544446,0.9693998245698306,0.2866202,0.6898378478176719
0.0445,1.75049375,1.0,2729.516155197835,0.39385436104762817,1.3113875361177232,0.9698728319754376,0.2865737375,0.6908093187198139
0.045,1.7493750000000001,1.0,2728.2306168149667,0.3972543635891837,1.3108939805819457,0.9703312873996045,0.28652675,0.6917886888964055
0.0455,1.74824375,1.0,2726.853205581143,0.400635293957889,1.3103956181261585,0.9707757737003618,0.2864792375,0.6927760211992348
0.046,1.7471,1.0,2725.3899739675853,0.40399725821595317,1.309892394329408,0.971206844334406,0.2864312,0.6937713773494473
0.0465,1.7459437500000001,1.0,2723.8469723045164,0.40734036242558547,1.3093842547707413,0.9716250251182392,0.28638263750000004,0.6947748179207687
0.047,1.744775,1.0,2722.2302478682022,0.41066471264899507,1.3088711450292048,0.972030815867604,0.28633355,0.6957864023225382
0.0475,1.74359375,1.0,2720.5458440340894,0.4139704149483912,1.308353010683845,0.9724246919246973,0.28628393750000003,0.6968061887825528
0.048,1.7424,1.0,2718.79979949436,0.41725757538598307,1.307829797313709,0.9728071055818241,0.2862338,0.6978342343297221
0.0485,1.74119375,1.0,2716.9959334317145,0.4205262895623994,1.3073014706695318,0.973178487521141,0.2861831375,0.6988705552434402
0.049,1.739975,1.0,2715.1406458086935,0.4237766709835556,1.3067679729542,0.9735392485263892,0.28613195,0.6999152129131734
0.0495,1.73874375,1.0,2713.2391030497015,0.42700882844595606,1.306229257552349,0.9738897801934144,0.2860802375,0.7009682455961004
0.05,1.7375,1.0,2711.294536872166,0.43022286096694917,1.3056852954398919,0.9742304558678793,0.286028,0.702029656096384
0.0505,1.73624375,1.0,2709.310175538476,0.43341886756388304,1.305136057592742,0.9745616316508253,0.2859752375,0.7030994462906851
0.051000000000000004,1.734975,1.0,2707.2892436089774,0.43659694725410597,1.3045815149868125,0.9748836473459266,0.28592195,0.7041776171184251
0.051500000000000004,1.73369375,1.0,2705.2349617136524,0.43975719905496613,1.3040216385980166,0.9751968273465903,0.2858681375,0.705264168571993
0.052000000000000005,1.7324,1.0,2703.1505463422714,0.44289972198381183,1.3034563994022674,0.9755014814672205,0.2858138,0.7063590996868991
0.0525,1.73109375,1.0,2701.039209653425,0.4460246150579912,1.3028857683754784,0.975797905722619,0.28575893750000003,0.7074624085318751
0.053,1.729775,1.0,2698.904159302165,0.44913197729485255,1.3023097164935626,0.9760863830591764,0.28570355000000003,0.7085740921989214
0.0535,1.72844375,1.0,2696.748598286323,0.4522219077117441,1.3017282147324332,0.9763671840412284,0.2856476375,0.7096941467932995
0.054,1.7271,1.0,2694.5757248116365,0.455294505326014,1.3011412340680035,0.9766405674956851,0.2855912,0.7108225674234692
0.0545,1.7257437500000001,1.0,2692.388732175161,0.45834986915501064,1.3005487454761866,0.9769067811178005,0.2855342375,0.7119593481909771
0.055,1.724375,1.0,2690.1863689901134,0.46138807388120456,1.2999507605816694,0.9771660621288034,0.28547675,0.7131044044211674
0.0555,1.72299375,1.0,2687.9720852941728,0.464409230114133,1.2993472479664232,0.9774186386364393,0.2854187375,0.7142577332108697
0.056,1.7216,1.0,2685.7518116247425,0.4674134583815947,1.2987381534319535,0.9776647287420708,0.2853602,0.7154193739925593
0.0565,1.72019375,1.0,2683.5264775325313,0.47040084900726387,1.2981234685353658,0.9779045413160087,0.28530113749999997,0.7165892777692691
0.057,1.718775,1.0,2681.2970110632996,0.4733714923148144,1.2975031848337655,0.9781382766378834,0.28524155,0.7177673948143061
0.0575,1.71734375,1.0,2679.064338748096,0.47632547862792046,1.2968772938842583,0.9783661268172801,0.2851814375,0.7189536746682389
0.058,1.7159,1.0,2676.829385595828,0.479262898270256,1.29624578724395,0.9785882761905067,0.2851208,0.7201480661358813
0.0585,1.71444375,1.0,2674.5930750866933,0.4821838415654951,1.2956086564699458,0.978804901695029,0.2850596375,0.7213505172832704
0.059000000000000004,1.7129750000000001,1.0,2672.356329167584,0.48508839883731186,1.2949658931193515,0.9790161732229982,0.28499795,0.7225609754346407
0.059500000000000004,1.71149375,1.0,2670.1200682488106,0.48797666040938026,1.2943174887492728,0.979222253955189,0.2849357375,0.7237793871693932
0.06,1.71,1.0,2667.8852112026016,0.4908487166053744,1.293663434916815,0.9794233006765827,0.284873,0.7250056983190611
0.0605,1.7084937500000001,1.0,2665.6526753632147,0.49370465774896827,1.2930037231790836,0.9796194640747347,0.2848097375,0.7262398539642696
0.061,1.7069750000000001,1.0,2663.4233765283066,0.49654457416383596,1.2923383450931847,0.9798108890219912,0.28474595,0.7274817984316904
0.0615,1.7054437500000001,1.0,2661.198228962206,0.49936855617365156,1.2916672922162233,0.9799977148425494,0.2846816375,0.7287314752909955
0.062,1.7039,1.0,2658.9781454009603,0.5021766941020891,1.2909905561053052,0.9801800755652779,0.2846168,0.7299888273518024
0.0625,1.70234375,1.0,2656.764037058122,0.5049690782728226,1.2903081283175362,0.9803581001631623,0.2845514375,0.7312537966606153
0.063,1.7007750000000001,1.0,2654.556813633055,0.507745799009526,1.2896200004100216,0.9805319127801777,0.28448555,0.7325263244977651
0.0635,1.69919375,1.0,2652.357383320528,0.5105069466358736,1.288926163939867,0.9807016329463342,0.28441913750000003,0.7338063513743402
0.064,1.6976,1.0,2650.1666528211795,0.5132526114755392,1.2882266104641782,0.9808673757815978,0.2843522,0.7350938170291164
0.0645,1.69599375,1.0,2647.9835863061744,0.5159828358300326,1.2875213494529691,0.9810292496403953,0.2842847375,0.7363886275789018
0.065,1.694375,1.0,2645.8117561494696,0.5186977640318046,1.2868103478480029,0.9811873641100866,0.28421675,0.737690766477384
0.0655,1.69274375,1.0,2643.651361179711,0.5213974805819843,1.2860936036953627,0.9813418221041941,0.2841482375,0.7390001591983442
0.066,1.6911,1.0,2641.5024367573383,0.5240820665391707,1.2853711165489254,0.9814927226917824,0.2840792,0.7403167278049094
0.0665,1.6894437500000001,1.0,2639.365018227879,0.5267516029619621,1.2846428859625674,0.9816401614274379,0.2840096375,0.7416403937209849
0.067,1.687775,1.0,2637.2391409223715,0.5294061709089573,1.2839089114901654,0.9817842304992983,0.28393955,0.7429710777310887
0.0675,1.68609375,1.0,2635.12484015911,0.5320458514387548,1.2831691926855961,0.981925018869834,0.2838689375,0.7443086999801904
0.068,1.6844000000000001,1.0,2633.0221512440144,0.5346707256099533,1.282423729102736,0.9820626124097778,0.2837978,0.7456531799735471
0.0685,1.68269375,1.0,2630.9311094718373,0.5372808744811514,1.281672520295462,0.9821970940255865,0.2837261375,0.7470044365765388
0.069,1.680975,1.0,2628.851750127343,0.5398763791109477,1.2809155658176505,0.9823285437807857,0.28365395,0.7483623880145065
0.0695,1.67924375,1.0,2626.784108485821,0.5424573205579407,1.2801528652231782,0.9824570390115321,0.28358123749999997,0.7497269518725886
0.07,1.6775,1.0,2624.7282198146254,0.5450237798807291,1.2793844180659217,0.9825826544367066,0.283508,0.7510980450955558
0.07050000000000001,1.67574375,1.0,2622.684119373791,0.5475758381379117,1.2786102238997579,0.9827054622628311,0.2834342375,0.7524755839876492
0.07100000000000001,1.673975,1.0,2620.651842417167,0.5501135763880867,1.2778302822785632,0.9828255322840871,0.28335995,0.7538594842124168
0.07150000000000001,1.67219375,1.0,2618.6314241934597,0.552637075689853,1.2770445927562142,0.9829429319776924,0.2832851375,0.7552496607925493
0.07200000000000001,1.6704,1.0,2616.6228999471823,0.5551464171018092,1.2762531548865879,0.9830577265948849,0.2832098,0.7566460281097159
0.0725,1.66859375,1.0,2614.6263049197664,0.5576416816825538,1.2754559682235604,0.9831699792477394,0.2831339375,0.7580484999044033
0.073,1.6667750000000001,1.0,2612.641674350525,0.5601229504906855,1.2746530323210088,0.9832797509920369,0.28305755,0.759456989275749
0.0735,1.66494375,1.0,2610.669043477582,0.562590304584803,1.2738443467328096,0.9833871009063884,0.2829806375,0.76087140868138
0.074,1.6631,1.0,2608.7074698959996,0.5650438239850146,1.2730299201026527,0.9834920865110824,0.2829032,0.7622916541094996
0.0745,1.6612437500000001,1.0,2606.754935433432,0.5674835828407807,1.272209771093721,0.983594763599378,0.2828252375,0.7637176037025001
0.075,1.659375,1.0,2604.8145886619764,0.5699096586444995,1.2713838703229443,0.9836951842842159,0.28274675,0.765149218522128
0.0755,1.65749375,1.0,2602.886102478783,0.5723221267962959,1.2705522207158864,0.9837934003116786,0.2826677375,0.7665864026329794
