Time [s],Phi [rad],STIM [ ],Fsee [N],Gamma [ ],Lcerel [ ],q [ ],Lmtc [m],fisomrel [ ]
0.0,1.8,1.0,17.96801110441238,1.000256546827347e-05,1.3793396506634052,0.005000026665388782,0.288653,0.5411397622275691
0.0005,1.79999375,1.0,18.277265013116526,0.005619155767780492,1.379302329931726,0.012940519915429868,0.2886527375,0.5412300462639161
0.001,1.799975,1.0,21.618839620249343,0.011196846055550581,1.378938255329609,0.035608586076879264,0.28865195,0.5421103273206379
0.0015,1.79994375,1.0,31.069601131976643,0.016743249911712128,1.3780461726214401,0.07060171677831419,0.2886506375,0.5442636842036999
0.002,1.7999,1.0,53.58250655246201,0.022258542827550375,1.3763681239854788,0.11471785003336861,0.2886488,0.5483004950499084
0.0025,1.79984375,1.0,97.1186815508111,0.02774289931026017,1.3739351796002086,0.1645746893052103,0.28864643749999996,0.5541214332186216
0.003,1.7997750000000001,1.0,160.95773542576225,0.033196492890668346,1.371214359903812,0.21728024448017794,0.28864354999999997,0.5605864126313875
0.0035,1.79969375,1.0,237.68278177582584,0.03861949612282158,1.3685847511674463,0.27061268046954934,0.2886401375,0.5667897997666828
0.004,1.7996,1.0,321.4661616693738,0.04401208059476952,1.3661561085439904,0.32291560061339714,0.2886362,0.572479924030362
0.0045000000000000005,1.7994937500000001,1.0,409.2671212655154,0.04937441693374907,1.363922828943906,0.3730343172805402,0.2886317375,0.5776791281041598
0.005,1.799375,1.0,499.4128520713951,0.05470667479727032,1.3618583562038116,0.42024728355289676,0.28862675,0.5824570473388886
0.0055,1.79924375,1.0,590.7897616266298,0.060009022920615274,1.3599388478451009,0.4641735350733214,0.2886212375,0.5868750823084863
0.006,1.7991000000000001,1.0,682.5174467940616,0.0652816290599179,1.3581464267723282,0.5046798132242939,0.2886152,0.5909793909126702
0.006500000000000001,1.79894375,1.0,773.880675514001,0.07052466004783767,1.3564672635583241,0.541800624582954,0.2886086375,0.5948057717195162
0.007,1.798775,1.0,864.2851872086288,0.07573828177713246,1.35489040507589,0.575676659131859,0.28860155,0.5983826542891284
0.0075,1.79859375,1.0,953.2426908071702,0.08092265921040187,1.3534067872600894,0.6065098056114255,0.2885939375,0.6017335545870597
0.008,1.7984,1.0,1040.3432221200917,0.08607795593400837,1.3520088706128717,0.6345320874348124,0.2885858,0.6048780453120235
0.0085,1.79819375,1.0,1125.3129872436007,0.09120433613190299,1.3506892590561668,0.6599843537401883,0.2885771375,0.6078349604038162
0.009000000000000001,1.797975,1.0,1207.9001773598432,0.09630196177986355,1.349442035094595,0.6831041126005352,0.28856795,0.6106194646331244
0.0095,1.79774375,1.0,1287.8935944150471,0.1013709933236086,1.3482621054272832,0.7041173958659956,0.2885582375,0.6132445979698848
0.01,1.7975,1.0,1365.1677126203424,0.10641159120885677,1.3471443767533575,0.7232341577901201,0.288548,0.6157231558945249
0.0105,1.79724375,1.0,1439.657178236775,0.11142391545477168,1.3460839754360014,0.7406466151423328,0.2885372375,0.6180672255944297
0.011,1.796975,1.0,1511.3190201731638,0.11640812487775974,1.3450765926593076,0.7565290929514419,0.28852595000000003,0.6202874528017932
0.0115,1.79669375,1.0,1580.1188557062933,0.12136437666122599,1.3441185088244734,0.7710385726560351,0.2885141375,0.6223930225906278
0.012,1.7964,1.0,1646.0570317962438,0.1262928274929157,1.3432061647114846,0.7843155452259558,0.28850180000000003,0.6243926291582695
0.0125,1.79609375,1.0,1709.1730230783787,0.13119363395079076,1.3423360457245324,0.7964852906107096,0.2884889375,0.6262947442528408
0.013000000000000001,1.7957750000000001,1.0,1769.504595976629,0.13606695105588448,1.3415050948616025,0.8076594650435348,0.28847555,0.6281067289016833
0.0135,1.79544375,1.0,1827.0886142867068,0.1409129323442527,1.340710627453303,0.817937445481879,0.2884616375,0.6298350393506907
0.014,1.7951000000000001,1.0,1881.9887228123544,0.14573173127876157,1.339949968633231,0.8274075159955746,0.2884472,0.6314860294204887
0.0145,1.79474375,1.0,1934.2816504526022,0.1505235003375264,1.3392205743507533,0.8361481578977451,0.2884322375,0.633065694952631
0.015,1.794375,1.0,1984.0568748417693,0.15528839239691358,1.3385200025859403,0.8442291694077845,0.28841675,0.6345797444171397
0.0155,1.79399375,1.0,2031.3743694865639,0.16002655700069446,1.3378463313768818,0.8517128116450348,0.2884007375,0.6360327052780044
0.016,1.7936,1.0,2076.3099868535237,0.1647381436926403,1.3371976387616682,0.8586545269566114,0.2883842,0.6374290574411847
0.0165,1.7931937500000001,1.0,2118.9526458181253,0.16942330187108742,1.3365720179087537,0.8651037517478419,0.2883671375,0.6387732039567271
0.017,1.792775,1.0,2159.3880067109717,0.1740821795369376,1.335967730317303,0.8711046716175455,0.28834955,0.6400691459994898
0.0175,1.7923437500000001,1.0,2197.7203214064652,0.17871492622694007,1.3353829652152256,0.8766967745175428,0.2883314375,0.6413210033273049
0.018000000000000002,1.7919,1.0,2234.015532592387,0.18332168694596368,1.3348164040871398,0.8819155512258996,0.2883128,0.642531809802797
0.0185,1.79144375,1.0,2268.347791098368,0.1879026066988772,1.334266728417664,0.8867928301204723,0.2882936375,0.6437045735744633
0.019,1.790975,1.0,2300.79877797526,0.19245783049054957,1.333732619691416,0.8913572013944286,0.28827395,0.6448422785519918
0.0195,1.79049375,1.0,2331.4518901233814,0.19698750261918624,1.333212810289043,0.8956344003982591,0.2882537375,0.6459477776124943
0.02,1.79,1.0,2360.3910460142674,0.20149176716259704,1.3327060877224828,0.8996476326475666,0.288233,0.6470237856900498
0.0205,1.78949375,1.0,2387.6996541010158,0.20597076796119565,1.332211297804376,0.9034178579312387,0.2882117375,0.6480728750354979
0.021,1.788975,1.0,2413.4388331809714,0.21042464514437717,1.3317275489096834,0.9069640813498291,0.28818995000000003,0.6490970449437935
0.021500000000000002,1.78844375,1.0,2437.673594455826,0.21485353884153668,1.3312539494133655,0.9103035116580516,0.2881676375,0.6500982812437739
0.022,1.7879,1.0,2460.472520481364,0.21925758918206928,1.330789607690383,0.9134517558119899,0.2881448,0.651078556900646
0.0225,1.78734375,1.0,2481.907461742888,0.2236369362953701,1.3303336321156962,0.9164229902276905,0.28812143749999997,0.6520398325677674
0.023,1.786775,1.0,2502.0372142973592,0.22799171723066317,1.3298852833120602,0.9192301394479365,0.28809755,0.652983736779725
0.0235,1.78619375,1.0,2520.9463077952464,0.23232207403401947,1.329443601890517,0.9218849399424244,0.28807313749999996,0.653912350680493
0.024,1.7856,1.0,2538.6828927766787,0.2366281417367856,1.3290079957208871,0.9243981644658306,0.2880482,0.6548269730603467
0.0245,1.78499375,1.0,2555.296588830806,0.24091005530343393,1.3285778760136147,0.92677965633824,0.2880227375,0.6557288883749416
0.025,1.784375,1.0,2570.8386858917384,0.245167949698437,1.3281526539791435,0.9290384218640355,0.28799675,0.656619374000142
0.025500000000000002,1.78374375,1.0,2585.36200276592,0.24940195988626726,1.3277317408279181,0.9311827129383746,0.2879702375,0.6574997004269845
0.026000000000000002,1.7831000000000001,1.0,2598.9203814393245,0.25361222067415823,1.3273145512347495,0.9332201009854888,0.2879432,0.6583711242027888
0.0265,1.78244375,1.0,2611.5609058835603,0.25779886330269886,1.326900574432495,0.935157552055596,0.2879156375,0.6592347399097728
0.027,1.781775,1.0,2623.34225519004,0.2619620255981257,1.3264892021168637,0.9370014617287548,0.28788755,0.6600918396080795
0.0275,1.7810937500000001,1.0,2634.301420994543,0.2661018370321679,1.32608003650457,0.9387577488859468,0.2878589375,0.6609432710241656
0.028,1.7804,1.0,2644.476177292437,0.2702184270765545,1.325672679812328,0.9404318713296591,0.2878298,0.6617898776270948
0.0285,1.77969375,1.0,2653.9050129437196,0.27431192520301473,1.3252667342568523,0.9420288677514818,0.2878001375,0.6626324986794715
0.029,1.778975,1.0,2662.6270676864183,0.2783824608832776,1.3248618020548568,0.9435533953737683,0.28776995,0.6634719692782878
0.029500000000000002,1.7782437500000001,1.0,2670.6820716575503,0.28243016358907236,1.3244574854230562,0.9450097637583484,0.2877392375,0.6643091203856737
0.03,1.7775,1.0,2678.1018570682595,0.2864551589688504,1.324053463947854,0.9464019742228948,0.287708,0.6651446189521584
0.0305,1.77674375,1.0,2684.9228571376834,0.29045757668256994,1.3236493790533999,0.9477337338288307,0.2876762375,0.6659792073926936
0.031,1.775975,1.0,2691.1893032521853,0.2944375497518855,1.3232448045804786,0.9490084764981112,0.28764395,0.6668137637491334
0.0315,1.7751937500000001,1.0,2696.925108692808,0.29839520112724477,1.3228395038585428,0.9502294140020319,0.2876111375,0.6676487715190369
0.032,1.7744,1.0,2702.1544631117627,0.30233065375909546,1.3224332402170456,0.9513995339802074,0.2875778,0.668484711744697
0.0325,1.77359375,1.0,2706.9018073425427,0.30624403059788524,1.3220257769854393,0.9525216183258062,0.2875439375,0.6693220630003958
0.033,1.772775,1.0,2711.1918094509897,0.3101354545940619,1.3216168774931774,0.9535982598512673,0.28750955,0.6701613013760797
0.0335,1.7719437500000002,1.0,2715.049342029353,0.3140050486980731,1.3212063050697125,0.9546318774136784,0.2874746375,0.6710029004574707
0.034,1.7711000000000001,1.0,2718.4994607312356,0.31785293586036656,1.3207938230444973,0.955624729658557,0.2874392,0.6718473313026012
0.0345,1.7702437500000001,1.0,2721.567384049275,0.32167923903139006,1.3203791947469847,0.956578927522858,0.2874032375,0.6726950624147756
0.035,1.7693750000000001,1.0,2724.276890790614,0.32548407962030446,1.3199621979142278,0.9574964467900995,0.28736675,0.6735465303121702
0.035500000000000004,1.76849375,1.0,2726.6466255849464,0.32926757496751974,1.3195426580972471,0.9583791412984163,0.2873297375,0.6744020716076079
0.036000000000000004,1.7676,1.0,2728.7042738711757,0.33302985378095956,1.3191203195649988,0.9592287423294807,0.2872922,0.6752621863543784
0.0365,1.76669375,1.0,2730.464296867444,0.33677103220416704,1.3186950476742842,0.9600468828212294,0.2872541375,0.6761271255991252
0.037,1.765775,1.0,2731.941225467822,0.34049122638068535,1.318266707781906,0.9608350952640011,0.28721555,0.6769971387680705
0.0375,1.76484375,1.0,2733.149652347986,0.34419055245405755,1.3178351652446658,0.9615948189997195,0.2871764375,0.67787247364125
0.038,1.7639,1.0,2734.1042244727087,0.34786912656782676,1.3174002854193663,0.9623274069129516,0.28713679999999997,0.6787533763255894
0.0385,1.76294375,1.0,2734.8196360055586,0.35152706486553614,1.3169619336628096,0.9630341315706237,0.28709663750000003,0.6796400912268263
0.039,1.761975,1.0,2735.3106216197807,0.3551644834907287,1.3165199753317973,0.9637161908613378,0.28705595,0.6805328610202757
0.0395,1.7609937500000001,1.0,2735.591950212242,0.3587814985869477,1.316074275783132,0.9643747131800406,0.2870147375,0.6814319266204355
0.04,1.76,1.0,2735.6809450745855,0.36237822461067276,1.3156246774386673,0.965010759830845,0.286973,0.6823375733154886
0.0405,1.7589937500000001,1.0,2735.616551172153,0.3659547637751782,1.3151708266128768,0.9656253124671618,0.2869307375,0.6832504784826402
0.041,1.7579795506401557,1.0,2735.5781106870113,0.36951125235620313,1.314713150115398,0.9662193716291712,0.28688814112688654,0.684169748547331
0.0415,1.756965216754907,1.0,2735.9305283902345,0.37304779898575685,1.3142518641646308,0.9667938590346723,0.2868455391037061,0.6850949166742808
0.042,1.7559508828696584,1.0,2736.6567538018517,0.3765645122958485,1.3137871849789757,0.9673496456404979,0.2868029370805256,0.6860255183130424
0.0425,1.75493654898441,1.0,2737.7331124318107,0.3800615009184872,1.313319328776833,0.9678875549629568,0.2867603350573452,0.6869610912462846
0.043000000000000003,1.7539222150991614,1.0,2739.135981341082,0.38353887348568244,1.3128485117766029,0.9684083661489549,0.28671773303416476,0.6879011756350918
0.043500000000000004,1.7529078812139127,1.0,2740.8417744304147,0.3869967386294432,1.3123749501966853,0.9689128168188155,0.28667513101098435,0.6888453140612831
0.044,1.751893547328664,1.0,2742.8269287639487,0.39043520498177886,1.3118988602554804,0.9694016056998699,0.2866325289878039,0.6897930515667484
0.0445,1.7508792134434155,1.0,2745.0678919310544,0.39385438117469856,1.3114204581713889,0.9698753950681229,0.28658992696462343,0.6907439356898031
0.045,1.7498648795581668,1.0,2747.5411104435234,0.39725437584021156,1.3109399601628104,0.9703348130137185,0.28654732494144297,0.6916975164985646
0.0455,1.7488505456729184,1.0,2750.223019169676,0.40063529761032707,1.3104575824481455,0.9707804555445045,0.28650472291826257,0.6926533466213424
0.046,1.7478362117876698,1.0,2753.090031805065,0.4039972551170543,1.3099735412457942,0.9712128885407081,0.28646212089508216,0.6936109812740494
0.0465,1.7468218779024212,1.0,2756.1185323796335,0.4073403569924025,1.3094880527741568,0.9716326495725804,0.2864195188719017,0.6945699782846324
0.047,1.7458075440171725,1.0,2759.30375772474,0.41066470127314797,1.3090011624788882,0.9720402358230126,0.28637691684872124,0.6955302346514532
0.0475,1.744793210131924,1.0,2762.6200430142003,0.4139704050117191,1.3085131046669722,0.9724361361685595,0.2863343148255408,0.6964912763033988
0.048,1.7437788762466755,1.0,2766.058070357599,0.41725757039344824,1.3080239655744523,0.9728208033954142,0.2862917128023604,0.6974529229329993
0.0485,1.7427645423614269,1.0,2769.6092149337,0.4205262990687858,1.30753382504317,0.9731946680947766,0.2862491107791799,0.6984150078262655
0.049,1.7417502084761782,1.0,2773.2648362634636,0.42377669268818213,1.3070427629149668,0.9735581404427788,0.2862065087559995,0.6993773652472688
0.0495,1.7407358745909296,1.0,2777.016276507757,0.4270088529020877,1.306550859031684,0.9739116113569857,0.28616390673281905,0.7003398304430375
0.05,1.739721540705681,1.0,2780.854858906827,0.4302228813609529,1.3060581932351636,0.9742554535773009,0.2861213047096386,0.7013022396480462
0.0505,1.7387072068204326,1.0,2784.771886360854,0.4334188797152282,1.3055648453672466,0.9745900226768536,0.2860787026864582,0.7022644300882994
0.051000000000000004,1.737692872935184,1.0,2788.758640151635,0.43659694961536394,1.3050708952697745,0.9749156580079865,0.2860361006632777,0.7032262399850073
0.051500000000000004,1.7366785390499353,1.0,2792.8063788060736,0.4397571927118106,1.304576422784589,0.9752326835880551,0.28599349864009727,0.7041875085578548
0.052000000000000005,1.7356642051646867,1.0,2796.906577701558,0.442899710244888,1.3040815055930763,0.9755414087474886,0.28595089661691686,0.7051480802176272
0.0525,1.734649871279438,1.0,2801.056930864718,0.4460245952497241,1.3035861653637197,0.9758421247031112,0.2859082945937364,0.7061079088002302
0.053,1.7336355373941896,1.0,2805.245984439473,0.4491319584071334,1.303090505732311,0.9761351168437139,0.28586569257055594,0.7070667899710841
0.0535,1.732621203508941,1.0,2809.4704191837322,0.4522218953105987,1.3025945571521709,0.9764206520594748,0.28582309054737554,0.7080246619320204
0.054,1.7316068696236924,1.0,2813.7269062256964,0.45529450155360274,1.3020983500766201,0.9766989857491357,0.2857804885241951,0.7089814632684435
0.0545,1.7305925357384437,1.0,2818.012106879703,0.4583498727296284,1.3016019149589795,0.9769703624128457,0.2857378865010146,0.7099371329498614
0.055,1.729578201853195,1.0,2822.322672481509,0.46138810443215844,1.3011052822525702,0.9772350162096178,0.2856952844778342,0.7108916103303573
0.0555,1.7285638679679465,1.0,2826.655244244696,0.4644092922546757,1.3006084824107127,0.9774931714817913,0.28565268245465375,0.7118448351490059
0.056,1.727549534082698,1.0,2831.0064531375747,0.4674135317906629,1.300111545886728,0.9777450432487088,0.2856100804314733,0.7127967475302243
0.0565,1.7265352001974494,1.0,2835.372919780818,0.47040091863360295,1.2996145031339368,0.9779908376716575,0.2855674784082929,0.7137472879840695
0.057,1.7255208663122008,1.0,2839.751254364918,0.47337154837697853,1.29911738460566,0.9782307524919639,0.2855248763851124,0.7146963974064721
0.0575,1.7245065324269522,1.0,2844.138806984384,0.47632551292621195,1.2986202140732874,0.9784649767411336,0.28548227436193196,0.7156440298049235
0.058,1.7234921985417035,1.0,2848.5364560676117,0.47926288998130884,1.2981229838411399,0.9786936888770664,0.28543967233875156,0.7165901993165034
0.0585,1.722477864656455,1.0,2852.936052064341,0.4821838045661494,1.2976257665034696,0.9789170687771787,0.2853970703155711,0.7175347675804279
0.059000000000000004,1.7214635307712065,1.0,2857.336686348065,0.4850883450904045,1.2971285701026622,0.9791352825403961,0.28535446829239064,0.7184777194794238
0.059500000000000004,1.7204491968859579,1.0,2861.7374475052047,0.4879765999637451,1.2966314026811037,0.9793484897783763,0.28531186626921023,0.7194190399982172
0.06,1.7194348630007092,1.0,2866.1374213392883,0.4908486575958422,1.2961342722811797,0.9795568439198451,0.2852692642460298,0.7203587142235208
0.0605,1.7184205291154606,1.0,2870.535690877108,0.4937046063963667,1.2956371869452759,0.9797604924983779,0.2852266622228493,0.721296727344018
0.061,1.717406195230212,1.0,2874.9313363759024,0.49654453477498967,1.295140154715778,0.9799595774246475,0.2851840601996689,0.7222330646503401
0.0615,1.7163918613449636,1.0,2879.323435331837,0.49936853114138197,1.2946431836350718,0.9801542352440941,0.28514145817648845,0.7231677115350426
0.062,1.715377527459715,1.0,2883.7110624908005,0.5021766839052146,1.2941462817455434,0.9803445973808951,0.28509885615330804,0.7241006534925747
0.0625,1.7143631935744663,1.0,2888.0932898594856,0.5049690814761585,1.2936494570895782,0.9805307903690696,0.2850562541301276,0.7250318761192474
0.063,1.7133488596892177,1.0,2892.4691867187444,0.5077458122638847,1.2931527177095623,0.9807129360714801,0.2850136521069471,0.7259613651131942
0.0635,1.712334525803969,1.0,2896.837819637913,0.510506964678064,1.2926560716478812,0.9808911518874569,0.28497105008376666,0.726889106274331
0.064,1.7113201919187206,1.0,2901.198252490933,0.5132526271283674,1.2921595269469208,0.9810655509497118,0.28492844806058626,0.7278150855043095
0.0645,1.710305858033472,1.0,2905.549546473439,0.515982888024466,1.2916630916490666,0.9812362423111721,0.28488584603740585,0.7287392888064674
0.065,1.7092915241482234,1.0,2909.8907601215838,0.5186978357760306,1.2911667737967047,0.9814033311223158,0.2848432440142254,0.7296617022857735
0.0655,1.7082771902629748,1.0,2914.221461217951,0.5213975479655873,1.290670576929253,0.981566917831352,0.28480064199104493,0.730582320496222
0.066,1.7072628563777261,1.0,2918.5422991459363,0.5240820920629266,1.2901744950688412,0.9817270982100573,0.2847580399678645,0.7315011556490532
0.0665,1.7062485224924777,1.0,2922.8511504825815,0.5267515970606189,1.289678546611953,0.9818839700140138,0.28471543794468407,0.7324181748494472
0.067,1.705234188607229,1.0,2927.147938870293,0.5294061428982967,1.2891827319339209,0.9820376234407617,0.2846728359215036,0.733333378671027
0.0675,1.7042198547219805,1.0,2931.4325879449125,0.5320458095155922,1.2886870514100774,0.9821881455896784,0.2846302338983232,0.7342467676918218
0.068,1.7032055208367318,1.0,2935.7050213364246,0.5346706768521376,1.2881915054157551,0.9823356205902735,0.28458763187514274,0.7351583424942627
0.0685,1.7021911869514832,1.0,2939.9651626705845,0.5372808248475653,1.287696094326286,0.982480129724311,0.2845450298519623,0.7360681036651808
0.069,1.7011768530662348,1.0,2944.2129355695283,0.5398763334415075,1.287200818517003,0.9826217515420977,0.2845024278287819,0.7369760517958021
0.0695,1.7001625191809862,1.0,2948.4482636530347,0.5424572825735966,1.286705678363238,0.9827605619732518,0.2844598258056014,0.7378821874817458
0.07,1.6991481852957375,1.0,2952.6710705398546,0.5450237521834647,1.2862106742403239,0.9828966344322554,0.28441722378242096,0.7387865113230205
0.07050000000000001,1.698133851410489,1.0,2956.8812798488093,0.5475758222107441,1.2857158065235925,0.9830300399190622,0.28437462175924055,0.7396890239240212
0.07100000000000001,1.6971195175252403,1.0,2961.07881519948,0.5501135725950671,1.2852210755883768,0.9831608471150317,0.2843320197360601,0.740589725893525
0.07150000000000001,1.6961051836399916,1.0,2965.263600213958,0.552637083276066,1.2847264818100088,0.983289122474431,0.28428941771287963,0.7414886178446898
