Time [s],Phi [rad],STIM [ ],Fsee [N],Gamma [ ],Lcerel [ ],q [ ],Lmtc [m],fisomrel [ ]
0.0,1.8,1.0,17.96607127003273,1.1619906103963496e-05,1.3793398679904372,0.005000035943216574,0.288653,0.5411392364572631
0.0005,1.79999375,1.0,18.276049358184643,0.005620764036415562,1.3793024649676473,0.01294501451520622,0.2886527375,0.5412297196092688
0.001,1.799975,1.0,21.618934994443947,0.011198445303069557,1.378938245588653,0.035617027111721475,0.28865195,0.5421103508615872
0.0015,1.79994375,1.0,31.072267073767662,0.01674484018871843,1.3780459454985603,0.07061327593309624,0.2886506375,0.5442642317987869
0.002,1.7999,1.0,53.59024934332098,0.02226012418435802,1.3763676216918082,0.11473154134206859,0.2886488,0.5483017007080739
0.0025,1.79984375,1.0,97.13296540937388,0.027744471796907838,1.3739344913195548,0.16458958259663922,0.28864643749999996,0.5541230746224037
0.003,1.7997750000000001,1.0,160.9770004664412,0.03319805655690889,1.3712136388156144,0.2172956061929648,0.28864354999999997,0.5605881197617046
0.0035,1.79969375,1.0,237.7049389322569,0.03862105101812931,1.3685840686835318,0.2706279568011977,0.2886401375,0.566791404058334
0.004,1.7996,1.0,321.48999267299877,0.04401362676834312,1.3661554773628266,0.32293039032831744,0.2886362,0.572481397950257
0.0045000000000000005,1.7994937500000001,1.0,409.2919866908585,0.04937595443451552,1.3639222452660114,0.37304835516009377,0.2886317375,0.5776804827823505
0.005,1.799375,1.0,499.43837599781705,0.05470820367390206,1.3618578138290702,0.42026041583536633,0.28862675,0.5824582990141771
0.0055,1.79924375,1.0,590.8156257462559,0.06001054322141028,1.3599383425281755,0.4641856926493148,0.2886212375,0.5868762422770084
0.006,1.7991000000000001,1.0,682.5434509702599,0.06528314083300853,1.3581459540898946,0.504690985023703,0.2886152,0.5909804705645381
0.006500000000000001,1.79894375,1.0,773.9089536891522,0.07052616334276947,1.3564667808355486,0.541810813127607,0.2886086375,0.5948068691350159
0.007,1.798775,1.0,864.3130797742041,0.0757397766350143,1.3548899545250517,0.5756859443771075,0.28860155,0.5983836740344604
0.0075,1.79859375,1.0,953.269486510452,0.08092414568762554,1.353406375117264,0.6065182564620625,0.2885939375,0.6017344835027923
0.008,1.7984,1.0,1040.3856238844796,0.0860794345190821,1.3520082463341097,0.6345396258130833,0.2885858,0.6048794467882168
0.0085,1.79819375,1.0,1125.3483498440548,0.09120580627172506,1.3506887584554181,0.659991250358383,0.2885771375,0.6078360800159356
0.009000000000000001,1.797975,1.0,1207.9117562950285,0.09630342305853852,1.3494418768825889,0.6831105521511938,0.28856795,0.6106198172218547
0.0095,1.79774375,1.0,1287.9041504212487,0.10137244642089441,1.3482619657434536,0.704123257001774,0.2885582375,0.6132449082158979
0.01,1.7975,1.0,1365.1864803294743,0.10641303641588064,1.3471441355384497,0.7232394376363586,0.288548,0.6157236899274952
0.0105,1.79724375,1.0,1439.6735785960607,0.11142535242633343,1.346083770173338,0.7406514390031731,0.2885372375,0.6180676786435212
0.011,1.796975,1.0,1511.3362423734031,0.11640955394995631,1.3450763822830616,0.7565334895178293,0.28852595000000003,0.6202879157858239
0.0115,1.79669375,1.0,1580.1352483192322,0.121365797886898,1.3441183129898133,0.771042594900541,0.2885141375,0.6223934523757808
0.012,1.7964,1.0,1646.0720016975954,0.12629424085692484,1.3432059894918018,0.7843192341884307,0.28850180000000003,0.6243930126816111
0.0125,1.79609375,1.0,1709.1737518607079,0.1311950388396119,1.342336037353247,0.7964887405234566,0.2884889375,0.6262947625295802
0.013000000000000001,1.7957750000000001,1.0,1769.5016630188072,0.136068348017425,1.3415051279722388,0.8076626518049299,0.28847555,0.6281066567878344
0.0135,1.79544375,1.0,1827.094801787115,0.14091432191590209,1.3407105587112584,0.8179403408745003,0.2884616375,0.6298351887202236
0.014,1.7951000000000001,1.0,1882.0015251730622,0.14573311326251498,1.3399498284912699,0.8274101586820772,0.2884472,0.6314863332549625
0.0145,1.79474375,1.0,1934.2944419668113,0.15052487478473567,1.3392204362332367,0.8361505981524701,0.2884322375,0.6330659937555249
0.015,1.794375,1.0,1984.0526178323032,0.1552897580514223,1.3385200479712358,0.8442314867249074,0.28841675,0.6345796464335212
0.0155,1.79399375,1.0,2031.372146466833,0.16002791510567385,1.3378463547995212,0.8517149527476069,0.2884007375,0.6360326548108293
0.016,1.7936,1.0,2076.3174068454387,0.16473949473087163,1.3371975614323242,0.8586564835955002,0.2883842,0.6374292237375445
0.0165,1.7931937500000001,1.0,2118.96513943615,0.16942464559511033,1.336571889020204,0.8651055547598584,0.2883671375,0.6387734806166181
0.017,1.792775,1.0,2159.403449696521,0.17408351622268087,1.3359675725007605,0.871106341449024,0.28834955,0.6400694841452368
0.0175,1.7923437500000001,1.0,2197.718554579479,0.17871625382622264,1.3353829831128456,0.8766983781538846,0.2883314375,0.641320965045691
0.018000000000000002,1.7919,1.0,2234.012248291213,0.1833230070051842,1.3348164370851248,0.8819170530758202,0.2883128,0.6425317393419092
0.0185,1.79144375,1.0,2268.350969136966,0.18790391998586878,1.3342666967299017,0.8867942186472653,0.2882936375,0.6437046411265304
0.019,1.790975,1.0,2300.8084071885132,0.19245913699457975,1.3337325243594806,0.8913584859898449,0.28827395,0.6448424814561501
0.0195,1.79049375,1.0,2331.464905183859,0.19698880225762042,1.3332126822861654,0.8956355968233091,0.2882537375,0.6459480496290146
0.02,1.79,1.0,2360.4005470403117,0.2014930590691314,1.332705994854616,0.8996487631520871,0.288233,0.6470239827417099
0.0205,1.78949375,1.0,2387.6989193603918,0.2059720511212194,1.3322113049449253,0.903418941839251,0.2882117375,0.6480728599068553
0.021,1.788975,1.0,2413.4384726394837,0.210425921152761,1.3317275523948577,0.9069651009086261,0.28818995000000003,0.649097037570526
0.021500000000000002,1.78844375,1.0,2437.679118955379,0.21485480850189909,1.331253896276945,0.9103044609956127,0.2881676375,0.6500983934991806
0.022,1.7879,1.0,2460.4842220423347,0.21925885250677662,1.3307894956637194,0.9134526395487134,0.2881448,0.6510787932351473
0.0225,1.78734375,1.0,2481.9203116343906,0.22363819250553663,1.3303335096277131,0.9164238222452641,0.28812143749999997,0.6520400906155535
0.023,1.786775,1.0,2502.0568134871614,0.227992967836322,1.329885097241458,0.9192309140857102,0.28809755,0.6529841282461537
0.0235,1.78619375,1.0,2520.9513990395944,0.23232331472064682,1.329443553736857,0.9218856966126094,0.28807313749999996,0.6539124518534141
0.024,1.7856,1.0,2538.6821905471415,0.23662937456899724,1.3290080023394284,0.9243988907198082,0.2880482,0.6548269591728912
0.0245,1.78499375,1.0,2555.297038385273,0.24091128181684496,1.3285778717903427,0.9267803435443958,0.2880227375,0.6557288972249016
0.025,1.784375,1.0,2570.8438842276273,0.24516917055144383,1.3281526052920236,0.9290390671500014,0.28799675,0.65661947589304
0.025500000000000002,1.78374375,1.0,2585.37215110859,0.24940317486004762,1.3277316460468946,0.9311833186042108,0.2879702375,0.6574998985312277
0.026000000000000002,1.7831000000000001,1.0,2598.932617123282,0.25361342882991017,1.32731443725738,0.9332206734857839,0.2879432,0.6583713621265456
0.0265,1.78244375,1.0,2611.577296001711,0.25780006654828536,1.3269004221259026,0.9351580913381604,0.2879156375,0.6592350574423045
0.027,1.781775,1.0,2623.3487670108652,0.2619632182198835,1.3264891417411786,0.9370019875179555,0.28788755,0.6600919653224127
0.0275,1.7810937500000001,1.0,2634.3056643599675,0.26610302106902595,1.3260799972432495,0.9387582523740748,0.2878589375,0.6609433526716912
0.028,1.7804,1.0,2644.485518760188,0.2702196048656485,1.3256725935477933,0.9404323448482718,0.2878298,0.6617900567980033
0.0285,1.77969375,1.0,2653.9229323018835,0.2743130980262941,1.32526656907345,0.9420293089522144,0.2878001375,0.662632841336692
0.029,1.778975,1.0,2662.653126041906,0.2783836289675055,1.3248615622388602,0.9435538067439473,0.28776995,0.6634724661343341
0.029500000000000002,1.7782437500000001,1.0,2670.7118851400605,0.28243132610582555,1.324457211462664,0.9450101521831688,0.2877392375,0.664309687276378
0.03,1.7775,1.0,2678.1355068936446,0.2864563178577971,1.324053155163502,0.9464023415811423,0.287708,0.6651452571064391
0.0305,1.77674375,1.0,2684.960751671812,0.290458732639963,1.3236490317600145,0.9477340810248419,0.2876762375,0.6659799242372613
0.031,1.775975,1.0,2691.210806441444,0.2944386921800876,1.3232446077387074,0.949008825283116,0.28764395,0.6668141695403353
0.0315,1.7751937500000001,1.0,2696.9336782350915,0.2983963315377312,1.322839425495694,0.9502297610279857,0.2876111375,0.6676489328622773
0.032,1.7744,1.0,2702.157855760718,0.3023317758357737,1.322433209223513,0.9513998719713345,0.2875778,0.6684847754777625
0.0325,1.77359375,1.0,2706.9057254727136,0.3062451470116149,1.3220257412227778,0.952521942396797,0.2875439375,0.6693221364474506
0.033,1.772775,1.0,2711.199890264902,0.31013656700265474,1.321616803794102,0.9535985673259606,0.28750955,0.6701614525423025
0.0335,1.7719437500000002,1.0,2715.063148790168,0.314006157746293,1.3212061792380994,0.9546321676588536,0.2874746375,0.6710031582246876
0.034,1.7711000000000001,1.0,2718.5184758306086,0.31785404117992955,1.3207936498553827,0.9556250039315791,0.2874392,0.6718476856264737
0.0345,1.7702437500000001,1.0,2721.5890037186773,0.32168033924096423,1.320378997946566,0.9565791888320136,0.2874032375,0.6726954645240887
0.035,1.7693750000000001,1.0,2724.298004808911,0.325485173866797,1.3199620058122628,0.9574966985987593,0.28736675,0.6735469223105661
0.035500000000000004,1.76849375,1.0,2726.6688750007947,0.32926866699482754,1.319542455753086,0.9583793834146734,0.2873297375,0.6744024839645635
0.036000000000000004,1.7676,1.0,2728.7160003469244,0.3330309331890256,1.3191202129603397,0.9592289837530236,0.2872922,0.6752624033167969
0.0365,1.76669375,1.0,2730.466894951717,0.3367721005112798,1.3186950240628563,0.96004712276238,0.2872541375,0.6761271735892074
0.037,1.765775,1.0,2731.9385143953136,0.34049228704412166,1.318266732413524,0.96083533119433,0.28721555,0.676997088771742
0.0375,1.76484375,1.0,2733.144648158363,0.34419160797100073,1.3178352107004996,0.9615950490135936,0.2871764375,0.6778723815018146
0.038,1.7639,1.0,2734.0991382881743,0.3478701784753666,1.31740033161194,0.9623276296933709,0.28713679999999997,0.6787532828208881
0.0385,1.76294375,1.0,2734.815872761641,0.351528113740669,1.316961967836002,0.963034346357142,0.28709663750000003,0.6796400221477334
0.039,1.761975,1.0,2735.3087792066035,0.3551655289503574,1.3165199920608424,0.9637163974199663,0.28705595,0.6805328272506515
0.0395,1.7609937500000001,1.0,2735.59181898403,0.35878253928788156,1.316074276974618,0.9643749117750308,0.2870147375,0.6814319242186619
0.04,1.76,1.0,2735.678981627941,0.36237925993669107,1.3156246952654855,0.9650109535665892,0.286973,0.6823375374316627
0.0405,1.7589937500000001,1.0,2735.584279645883,0.3659558060802355,1.3151711196216018,0.9656255265863214,0.2869307375,0.6832498895295471
0.041,1.757975,1.0,2735.3153353968405,0.36951228296328675,1.3147134809179937,0.9662195816214066,0.28688795,0.6841690845933661
0.0415,1.75694375,1.0,2734.8872063142835,0.37304881210263147,1.3142516426563071,0.9667940137980574,0.2868446375,0.6850953606116476
0.042,1.7559,1.0,2734.313964931727,0.37656551268691546,1.313785477374489,0.9673496694508781,0.28680079999999997,0.6860289355512246
0.0425,1.75484375,1.0,2733.6029788536603,0.3800624925087128,1.3133149185685824,0.9678873521246026,0.2867564375,0.6869699037065133
0.043000000000000003,1.753775,1.0,2732.7616226745226,0.38353985936059765,1.3128398997346307,0.9684078222270494,0.28671155,0.6879183582079919
0.043500000000000004,1.75269375,1.0,2731.797276183478,0.3869977210351439,1.3123603543686764,0.9689117997753129,0.28666613750000003,0.6888743910034276
0.044,1.7516,1.0,2730.7173226646305,0.3904361853249257,1.3118762159667632,0.9693999669406271,0.2866202,0.6898380928388166
0.0445,1.75049375,1.0,2729.529147297792,0.3938553600225171,1.311387418024934,0.9698729704085156,0.2865737375,0.6908095532390464
0.045,1.7493750000000001,1.0,2728.2401356554697,0.39725535292049213,1.310893894039232,0.9703314235693258,0.28652675,0.691788860488274
0.0455,1.74824375,1.0,2726.85767229877,0.4006362718114249,1.3103955775057001,0.9707759085528785,0.2864792375,0.692776101610022
0.046,1.7471,1.0,2725.389139471294,0.40399822448788947,1.3098924019203817,0.9712069781197347,0.2864312,0.6937713623469918
0.0465,1.7459437500000001,1.0,2723.8419158909605,0.4073413187424598,1.3093843007793198,0.9716251574204632,0.28638263750000004,0.6947747271405975
0.047,1.744775,1.0,2722.223375639662,0.41066566236771007,1.3088712075785573,0.972030945633301,0.28633355,0.6957862791102161
0.0475,1.74359375,1.0,2720.535433347536,0.4139713466960128,1.3083531054687414,0.9724248189168153,0.28628393750000003,0.696806002384513
0.048,1.7424,1.0,2718.787939985688,0.41725849370115914,1.3078299053241984,0.9728072291674591,0.2862338,0.6978340222834664
0.0485,1.74119375,1.0,2716.986983995522,0.4205272123710893,1.3073015522035631,0.9731786072901635,0.2861831375,0.6988703954505127
0.049,1.739975,1.0,2715.135861751169,0.42377760248643026,1.3067680165543314,0.9735393643107844,0.28613195,0.6999151276126323
0.0495,1.73874375,1.0,2713.237866692076,0.427009763827809,1.3062292688239991,0.9738898919084117,0.2860802375,0.7009682235826495
0.05,1.7375,1.0,2711.2962890298604,0.43022379617585244,1.3056852794600624,0.9742305634981208,0.286028,0.7020296872494374
0.0505,1.73624375,1.0,2709.314415473634,0.43341979931118757,1.3051360189100172,0.9745617352437106,0.2859752375,0.7030995215680664
0.051000000000000004,1.734975,1.0,2707.295528975843,0.4365978730144414,1.3045814576213592,0.9748837470055365,0.28592195,0.7041777285498985
0.051500000000000004,1.73369375,1.0,2705.242908496682,0.43975811706624085,1.3040215660415846,0.9751969232281423,0.2858681375,0.7052643092526225
0.052000000000000005,1.7324,1.0,2703.1598287879046,0.44290063124721285,1.303456314618189,0.9755015737720079,0.2858138,0.7063592637702383
0.0525,1.73109375,1.0,2701.049560196623,0.4460255153379844,1.3028856737986687,0.9757979946933861,0.28575893750000003,0.7074625912229797
0.053,1.729775,1.0,2698.9153684875814,0.4491328691191825,1.3023096140305197,0.9760864689759011,0.28570355000000003,0.7085742897471882
0.0535,1.72844375,1.0,2696.760514685682,0.45222279237143403,1.3017281057612375,0.9763672672172686,0.2856476375,0.7096943564851259
0.054,1.7271,1.0,2694.5882549371854,0.4552953848753661,1.3011411194383184,0.9766406482742597,0.2855912,0.7108227875747335
0.0545,1.7257437500000001,1.0,2692.3993170516255,0.4583507321419384,1.3005486486029383,0.9769068598663344,0.2855342375,0.7119595338741949
0.055,1.724375,1.0,2690.195554594127,0.4613889306488384,1.299950676480208,0.9771661396257706,0.28547675,0.7131045653031429
0.0555,1.72299375,1.0,2687.9834136670743,0.46441010314623954,1.299347144203528,0.9774187151385699,0.2854187375,0.7142579313048221
0.056,1.7216,1.0,2685.7640130350055,0.4674143408307539,1.2987380416262455,0.9776648043066559,0.2853602,0.7154195870067461
0.0565,1.72019375,1.0,2683.5384696736387,0.4704017348989938,1.2981233586017074,0.977904615992638,0.28530113749999997,0.7165894867858349
0.057,1.718775,1.0,2681.307898754339,0.4733723765475713,1.2975030849832607,0.9781383504662037,0.28524155,0.7177675842648047
0.0575,1.71734375,1.0,2679.073413630341,0.47632635697309866,1.2968772106242525,0.9783661998249681,0.2851814375,0.7189538323085561
0.058,1.7159,1.0,2676.8361258258083,0.47926376737218807,1.29624572537803,0.9785883483914375,0.2851208,0.7201481830205512
0.0585,1.71444375,1.0,2674.5971450271477,0.4821846989414517,1.29560861909794,0.9788049730876213,0.2850596375,0.7213505877391873
0.059000000000000004,1.7129750000000001,1.0,2672.35757907608,0.4850892428775018,1.2949658816373297,0.9790162437887191,0.28499795,0.7225609970341607
0.059500000000000004,1.71149375,1.0,2670.118533965808,0.48797749037695054,1.294317502849546,0.9792223236572049,0.2849357375,0.7237793607028301
0.06,1.71,1.0,2667.8811138383976,0.49084953263641,1.2936634725879361,0.9794233694585389,0.284873,0.7250056277665641
0.0605,1.7084937500000001,1.0,2665.6464209857686,0.4937054608524925,1.293003780705847,0.9796195318596562,0.2848097375,0.7262397464670916
0.061,1.7069750000000001,1.0,2663.4155558516736,0.4965453662218102,1.2923384170566259,0.979810955711289,0.28474595,0.7274816642628389
0.0615,1.7054437500000001,1.0,2661.189617036769,0.4993693399409753,1.2916673714936195,0.9799977803151225,0.2846816375,0.7287313278252645
0.062,1.7039,1.0,2658.969701305967,0.5021774732066,1.290990633870175,0.9801801396767041,0.2846168,0.729988683035184
0.0625,1.70234375,1.0,2656.756903597362,0.5049698572152965,1.2903081940396397,0.9803581627449663,0.2845514375,0.731253674979091
0.063,1.7007750000000001,1.0,2654.5511702274393,0.507746570192665,1.2896200524255321,0.9805319732125476,0.28448555,0.7325262284216583
0.0635,1.69919375,1.0,2652.35145866292,0.5105076828017437,1.2889262185703272,0.9807016901015966,0.28441913750000003,0.7338062507099857
0.064,1.6976,1.0,2650.1622102830606,0.5132533279824458,1.2882266514451384,0.9808674300445241,0.2843522,0.7350937416987331
0.0645,1.69599375,1.0,2647.983524745102,0.5159835878780451,1.2875213500210836,0.9810293037004385,0.2842847375,0.7363886265371605
0.065,1.694375,1.0,2645.8155015751786,0.5186985446318157,1.2868103132692805,0.9811874177169854,0.28421675,0.737690829726968
0.0655,1.69274375,1.0,2643.6582401702626,0.5213982803870317,1.2860935401608478,0.981341874903149,0.2841482375,0.7390002751219178
0.066,1.6911,1.0,2641.5118398007216,0.5240828772869669,1.2853710296669028,0.9814927743934043,0.2840792,0.7403168859274608
0.0665,1.6894437500000001,1.0,2639.3763996121475,0.5267524174748954,1.2846427807585639,0.9816402118037055,0.2840096375,0.7416405847003577
0.067,1.687775,1.0,2637.252018627218,0.5294069830940912,1.2839087924069488,0.9817842793797763,0.28393955,0.7429712933483038
0.0675,1.68609375,1.0,2635.1387957483826,0.5320466562878282,1.2831690635831756,0.9819250661381307,0.2838689375,0.7443089331295518
0.068,1.6844000000000001,1.0,2633.0368297596365,0.5346715191993805,1.2824235932583623,0.9820626580002302,0.2837978,0.7456534246525355
0.0685,1.68269375,1.0,2630.946219328742,0.5372816539720221,1.2816723804036267,0.9821971379201541,0.2837261375,0.747004687875493
0.069,1.680975,1.0,2628.867063009628,0.539877142749027,1.280915423990087,0.9823285860061425,0.28365395,0.7483626421060894
0.0695,1.67924375,1.0,2626.799459244271,0.5424580676736691,1.2801527229888612,0.982457079636342,0.28358123749999997,0.7497272060010409
0.07,1.6775,1.0,2624.743506365465,0.5450245108892224,1.279384276371067,0.9825826935690712,0.283508,0.7510982975657374
0.07050000000000001,1.67574375,1.0,2622.6993025986185,0.547576554538961,1.2786100831078226,0.9827055000478994,0.2834342375,0.7524758341538653
0.07100000000000001,1.673975,1.0,2620.6669460642543,0.5501142807661589,1.277830142170246,0.9828255689018132,0.28335995,0.7538597324670309
0.07150000000000001,1.67219375,1.0,2618.6465347803633,0.55263777171409,1.2770444525294549,0.9829429676407372,0.2832851375,0.7552499085543835
0.07200000000000001,1.6704,1.0,2616.6381666648226,0.5551471095260283,1.2762530131565677,0.9830577615466469,0.2832098,0.756646277812236
0.0725,1.66859375,1.0,2614.641939537543,0.5576423763452478,1.275455823022702,0.9831700137605122,0.2831339375,0.7580487549836923
0.073,1.6667750000000001,1.0,2612.655953814656,0.56012361328075,1.2746528996552728,0.9832797837977665,0.28305755,0.7594572216548171
0.0735,1.66494375,1.0,2610.681669059226,0.5625909319707153,1.2738442293884178,0.9833871319679099,0.2829806375,0.7608716136181876
0.074,1.6631,1.0,2608.720042653642,0.5650444316389418,1.2730298032052914,0.9834921161107659,0.2829032,0.762291857658418
0.0745,1.6612437500000001,1.0,2606.77078110115,0.5674841853503084,1.2722096237107998,0.9835947912322777,0.2828252375,0.7637178595638545
0.075,1.659375,1.0,2604.833591402857,0.5699102661696939,1.2713836935098501,0.9836952105946897,0.28274675,0.7651495245438511
0.0755,1.65749375,1.0,2602.9081810514317,0.572322747161977,1.270552015207349,0.9837934257815412,0.2826677375,0.7665867572297269
