Time [s],Phi [rad],STIM [ ],Fsee [N],Gamma [ ],Lcerel [ ],q [ ],Lmtc [m],fisomrel [ ]
0.0,1.8,1.0,19.568034161086846,0.0012915893210467013,1.3791642209853683,0.005427499079797402,0.288653,0.5415640737390268
0.0005,1.79999375,1.0,20.241616407576913,0.00689355383514353,1.3790896991950572,0.016877420244379337,0.2886527375,0.5417442600899269
0.001,1.799975,1.0,24.54185346084588,0.012464095757687844,1.378649177296121,0.042594904479161776,0.28865195,0.5428086751689121
0.0015,1.79994375,1.0,36.2109418533431,0.01800339134468503,1.3776249111689614,0.07996082993598563,0.2886506375,0.5452787833693689
0.002,1.7999,1.0,63.02136516291915,0.023511615863008456,1.3757806049157486,0.12567125832071835,0.2886488,0.5497096204373535
0.0025,1.79984375,1.0,111.61882153037772,0.028988943597800847,1.3732607497783869,0.17640805537097584,0.28864643749999996,0.5557283567438663
0.003,1.7997750000000001,1.0,178.98110566022666,0.034435547854532345,1.370557624015065,0.2294335910404007,0.28864354999999997,0.5621398191463959
0.0035,1.79969375,1.0,257.5971443566499,0.03985160096758213,1.367983672600977,0.2826619234170319,0.2886401375,0.5682015838619162
0.004,1.7996,1.0,342.39230942116103,0.04523727430509881,1.3656105920653223,0.33455511348285494,0.2886362,0.5737528538572847
0.0045000000000000005,1.7994937500000001,1.0,430.7623332175666,0.05059273827757273,1.3634247107495587,0.3840642317601864,0.2886317375,0.5788344375529324
0.005,1.799375,1.0,521.2092542090982,0.05591816232496937,1.3614001304801808,0.43055385258758083,0.28862675,0.5835138574263656
0.0055,1.79924375,1.0,612.6826744399356,0.061213714957015115,1.3595150040625048,0.4737073928391983,0.2886212375,0.5878474548913812
0.006,1.7991000000000001,1.0,704.3466474730412,0.06647956372236392,1.3577527527952418,0.5134361886047606,0.2886152,0.5918780863119473
0.006500000000000001,1.79894375,1.0,795.5122996776067,0.07171587525513304,1.3561005424008,0.5498037961785045,0.2886086375,0.595639042416633
0.007,1.798775,1.0,885.6007553547993,0.07692281510076909,1.35454818737199,0.5829683863711453,0.28860155,0.5991568330077688
0.0075,1.79859375,1.0,974.1608577832335,0.08210054828860379,1.353086790140739,0.6131408768138564,0.2885939375,0.602454459911064
0.008,1.7984,1.0,1060.808681392335,0.08724923860346272,1.3517090232069329,0.6405569031161548,0.2885858,0.605550902406968
0.0085,1.79819375,1.0,1145.2332098612112,0.09236904857811742,1.350408498838273,0.6654578659605289,0.2885771375,0.6084626401208804
0.009000000000000001,1.797975,1.0,1227.220051557013,0.0974601403780827,1.3491790991967734,0.6880789508649647,0.28856795,0.6112052190182714
0.0095,1.79774375,1.0,1306.61612827223,0.10252267557667681,1.3480152502862972,0.7086425392517641,0.2885582375,0.6137926835719576
0.01,1.7975,1.0,1383.2826905935106,0.10755681378339711,1.3469123176593762,0.7273548797024718,0.288548,0.6162367469904337
0.0105,1.79724375,1.0,1457.1391202476188,0.11256271422302734,1.345865835566024,0.7444042494918142,0.2885372375,0.6185485452430359
0.011,1.796975,1.0,1528.1572947390227,0.11754053561786043,1.3448714753801216,0.7599608726632326,0.28852595000000003,0.6207387291745476
0.0115,1.79669375,1.0,1596.3271505304178,0.12249043577755007,1.3439253696466178,0.7741777890318897,0.2885141375,0.6228167733209098
0.012,1.7964,1.0,1661.6384242848558,0.12741257060104544,1.3430242167938096,0.7871920217608028,0.28850180000000003,0.6247907738934744
0.0125,1.79609375,1.0,1724.119716391853,0.1323070958841538,1.3421647316238758,0.7991256742215697,0.2884889375,0.6266686748493655
0.013000000000000001,1.7957750000000001,1.0,1783.8231135522547,0.13717416660145407,1.3413437765443927,0.8100874123928475,0.28847555,0.6284579917551393
0.0135,1.79544375,1.0,1840.8163292458773,0.14201393785888403,1.3405584002203537,0.8201738736826042,0.2884616375,0.6301657399214076
0.014,1.7951000000000001,1.0,1895.1424091352185,0.14682656161067267,1.3398062313328223,0.8294711166211259,0.2884472,0.6317975929444658
0.0145,1.79474375,1.0,1946.8674139657649,0.15161218981104901,1.3390848985628623,0.8380556024488238,0.2884322375,0.6333591567812927
0.015,1.794375,1.0,1996.0742417050699,0.15637097406791584,1.3383920752073668,0.8459953213099421,0.28841675,0.6348558783062876
0.0155,1.79399375,1.0,2042.8503368217084,0.16110306536818117,1.3377255862475559,0.8533508202680602,0.2884007375,0.6362928201331145
0.016,1.7936,1.0,2087.2886238945216,0.16580861462943317,1.3370833728331066,0.860176069638606,0.2883842,0.6376747441309211
0.0165,1.7931937500000001,1.0,2129.4541825059337,0.17048776935008256,1.336463814108889,0.8665193331221013,0.2883671375,0.639005426643173
0.017,1.792775,1.0,2169.423897176644,0.17514067702854016,1.3358652892197735,0.8724237126045682,0.28834955,0.6402886080909371
0.0175,1.7923437500000001,1.0,2207.2854694839325,0.17976748516321675,1.3352861773106304,0.8779277577391359,0.2883314375,0.6415279952309456
0.018000000000000002,1.7919,1.0,2243.1237231974337,0.18436833992444193,1.3347249855200916,0.8830660336662493,0.2883128,0.6427269900145871
0.0185,1.79144375,1.0,2277.0360993242807,0.18894338887529757,1.3341801813197876,0.8878695427807782,0.2882936375,0.643889051062098
0.019,1.790975,1.0,2309.096924348118,0.19349277616213717,1.3336505395505465,0.892366219470027,0.28827395,0.6450169561786647
0.0195,1.79049375,1.0,2339.375150876477,0.19801664456569637,1.333134951151635,0.8965812328259317,0.2882537375,0.6461132153099418
0.02,1.79,1.0,2367.9453456275232,0.20251513686671094,1.3326323070623205,0.9005372724495635,0.288233,0.6471803198290758
0.0205,1.78949375,1.0,2394.8872186871067,0.2069883958459166,1.3321414982218698,0.904254826180762,0.2882117375,0.6482207434914913
0.021,1.788975,1.0,2420.2719923109184,0.2114365623744695,1.331661542868454,0.9077524502884496,0.28818995000000003,0.649236674050117
0.021500000000000002,1.78844375,1.0,2444.1860853130765,0.21585977999747,1.3311913519185323,0.9110469329793368,0.2881676375,0.6502305115254301
0.022,1.7879,1.0,2466.6921314932983,0.22025818791445417,1.3307301008147543,0.9141535577894196,0.2881448,0.6512040829561941
0.0225,1.78734375,1.0,2487.847023385729,0.22463192392305076,1.3302770486713589,0.9170862276548757,0.28812143749999997,0.6521590278091098
0.023,1.786775,1.0,2507.710301269821,0.22898112582088853,1.3298314546025847,0.9198575942222432,0.28809755,0.6530969756209921
0.0235,1.78619375,1.0,2526.343931843986,0.23330593140559613,1.329392577722671,0.9224791877764645,0.28807313749999996,0.6540195463686678
0.024,1.7856,1.0,2543.809674115743,0.23760647800133647,1.3289596999780977,0.9249615360154128,0.2880482,0.654928302902806
0.0245,1.78499375,1.0,2560.1607883263787,0.2418829009692286,1.3285322017485282,0.9273142778217498,0.2880227375,0.6558245931577309
0.025,1.784375,1.0,2575.471732028789,0.24613533940574525,1.3281092808200137,0.9295462058972739,0.28799675,0.6567101397951959
0.025500000000000002,1.78374375,1.0,2589.7849703368465,0.25036392579841193,1.3276904498825195,0.9316654291471921,0.2879702375,0.6575859982646428
0.026000000000000002,1.7831000000000001,1.0,2603.144198343379,0.2545687926347541,1.327275221626011,0.9336793892385425,0.2879432,0.6584532184618792
0.0265,1.78244375,1.0,2615.594238570278,0.2587500724022972,1.3268631087404537,0.9355949244965637,0.2879156375,0.6593128448486173
0.027,1.781775,1.0,2627.1809436836684,0.26290789758856675,1.3264536239158125,0.9374183269037505,0.28788755,0.6601659165568664
0.0275,1.7810937500000001,1.0,2637.9511044742717,0.26704240068108814,1.3260462798420527,0.9391553930201925,0.2878589375,0.661013467478182
0.028,1.7804,1.0,2647.9445960576763,0.2711537105071587,1.3256406608875597,0.9408114785640087,0.2878298,0.6618563774767645
0.0285,1.77969375,1.0,2657.212613721541,0.2752419621730378,1.3252362537262876,0.9423915178754321,0.2878001375,0.6626957246877866
0.029,1.778975,1.0,2665.788513238285,0.27930728360201157,1.3248327157161726,0.9439000942354091,0.28776995,0.6635322283177814
0.029500000000000002,1.7782437500000001,1.0,2673.704038817271,0.28334980175255564,1.3244297239043694,0.9453414520845861,0.2877392375,0.6643665632886946
0.03,1.7775,1.0,2680.991407100987,0.2873696435831457,1.3240269553380333,0.9467195242464936,0.287708,0.6651994011937634
0.0305,1.77674375,1.0,2687.683263989284,0.29136693605225733,1.323624087064319,0.9480379587541766,0.2876762375,0.6660314103054403
0.031,1.775975,1.0,2693.8126437756155,0.29534180611836625,1.3232207961303812,0.9493001430507616,0.28764395,0.6668632555766663
0.0315,1.7751937500000001,1.0,2699.4121539981074,0.29929438010015985,1.3228167666815849,0.9505092265311466,0.2876111375,0.6676955840218342
0.032,1.7744,1.0,2704.5061592541606,0.3032247768940821,1.3224117609707418,0.9516681468311263,0.2875778,0.668528878787453
0.0325,1.77359375,1.0,2709.1382177005935,0.30713313441177426,1.3220053683979465,0.9527796249710893,0.2875439375,0.6693639755194605
0.033,1.772775,1.0,2713.328534818727,0.31101957306512673,1.3215973938386978,0.9538462177743959,0.28750955,0.6702012636357064
0.0335,1.7719437500000002,1.0,2717.097495634297,0.31488421326603,1.3211876421684947,0.9548703109931271,0.2874746375,0.6710411304790913
0.034,1.7711000000000001,1.0,2720.46564756137,0.3187271754263744,1.3207759182628362,0.9558541327870542,0.2874392,0.6718839612966652
0.0345,1.7702437500000001,1.0,2723.4536840906007,0.32254857995805036,1.320362026997221,0.9567997659892328,0.2874032375,0.6727301392163006
0.035,1.7693750000000001,1.0,2726.0824293211226,0.32634854727294826,1.3199457732471478,0.9577091592801847,0.28736675,0.6735800452209333
0.035500000000000004,1.76849375,1.0,2728.3728233373968,0.3301271977829586,1.3195269618881158,0.958584137379189,0.2873297375,0.6744340581203783
0.036000000000000004,1.7676,1.0,2730.345908429395,0.3338846518999718,1.3191053977956237,0.9594264103493357,0.2872922,0.6752925545207167
0.0365,1.76669375,1.0,2732.022816157489,0.3376210300358782,1.3186808858451706,0.9602375821025715,0.2872541375,0.6761559087912543
0.037,1.765775,1.0,2733.415221478226,0.34133644673820046,1.3182533175085787,0.961019165494301,0.28721555,0.67702431726653
0.0375,1.76484375,1.0,2734.5454319009796,0.34503102495784965,1.3178224882278113,0.9617725740863691,0.2871764375,0.6778981695685036
0.038,1.7639,1.0,2735.434389473547,0.34870488467599153,1.3173882063757554,0.9624991373863432,0.28713679999999997,0.6787778267014697
0.0385,1.76294375,1.0,2736.0936828459917,0.35235813939403715,1.3169503656740735,0.9632001129252135,0.28709663750000003,0.6796634748057113
0.039,1.761975,1.0,2736.5349362702073,0.3559909026133976,1.3165088598444281,0.9638766846288737,0.28705595,0.6805552985968755
0.0395,1.7609937500000001,1.0,2736.769804809317,0.359603287835484,1.3160635826084814,0.9645299679154347,0.2870147375,0.6814534813414912
0.04,1.76,1.0,2736.8099697968687,0.36319540856170723,1.3156144276878965,0.9651610143870989,0.286973,0.6823582048317651
0.0405,1.7589937500000001,1.0,2736.667134547288,0.3667673782934785,1.3151612888043356,0.9657708161528067,0.2869307375,0.6832696493596626
0.041,1.757975,1.0,2736.353020315802,0.3703193105322088,1.314704059679461,0.9663603098142887,0.28688795,0.6841879936902622
0.0415,1.75694375,1.0,2735.8793625095523,0.37385131877930916,1.3142426340349356,0.9669303801449812,0.2868446375,0.6851134150343927
0.042,1.7559,1.0,2735.257877712588,0.3773635161294541,1.313776905859705,0.9674818634432032,0.28680079999999997,0.6860460884856817
0.0425,1.75484375,1.0,2734.500413151944,0.3808560075411757,1.3133067680229742,0.9680155493150223,0.2867564375,0.6869861897672138
0.043000000000000003,1.753775,1.0,2733.617034356034,0.3843289152288525,1.312832129615134,0.9685321891653964,0.28671155,0.6879338605882017
0.043500000000000004,1.75269375,1.0,2732.6146298767794,0.3877823461800109,1.3123529286123823,0.9690324944526981,0.28666613750000003,0.6888891836328699
0.044,1.7516,1.0,2731.500091358532,0.39121640738217733,1.311869102990918,0.9695171393310855,0.2866202,0.6898522404325262
0.0445,1.75049375,1.0,2730.280312092768,0.39463120582287836,1.3113805907269394,0.9699867629713099,0.2865737375,0.6908231113473926
0.045,1.7493750000000001,1.0,2728.962185656868,0.3980268484896404,1.3108873297966448,0.9704419717151376,0.28652675,0.6918018755481895
0.0455,1.74824375,1.0,2727.5526046387095,0.40140344236998987,1.3103892581762329,0.9708833410768175,0.2864792375,0.6927886109974741
0.046,1.7471,1.0,2726.058459446651,0.4047610944514532,1.309886313841902,0.9713114176038352,0.2864312,0.6937833944307343
0.0465,1.7459437500000001,1.0,2724.4866372045826,0.4080999117215569,1.3093784347698503,0.971726720608102,0.28638263750000004,0.694786301337237
0.047,1.744775,1.0,2722.844020732103,0.41142000116782745,1.3088655589362763,0.9721297437777522,0.28633355,0.6957974059406302
0.0475,1.74359375,1.0,2721.123223383883,0.4147214256704213,1.3083477541730553,0.972520960272265,0.28628393750000003,0.6968165258177075
0.048,1.7424,1.0,2719.338087552866,0.41800431898898877,1.307824895102549,0.972900815839234,0.2862338,0.6978438582752062
0.0485,1.74119375,1.0,2717.5062143059263,0.4212688260590221,1.307296821966699,0.9732697337424312,0.2861831375,0.6988796658455578
0.049,1.739975,1.0,2715.6300823911665,0.4245150440380547,1.3067635126131303,0.9736281206867592,0.28613195,0.6999239391876717
0.0495,1.73874375,1.0,2713.712168352325,0.42774307008361995,1.306224944889469,0.973976364285872,0.2860802375,0.7009766681359748
0.05,1.7375,1.0,2711.754946332906,0.4309530013532513,1.3056810966433405,0.9743148341278083,0.286028,0.7020378416929998
0.0505,1.73624375,1.0,2709.7608878919023,0.4341449350044821,1.305131945722371,0.9746438827719137,0.2859752375,0.7031074480219391
0.051000000000000004,1.734975,1.0,2707.7324618300177,0.43731896819484567,1.3045774699741857,0.974963846682045,0.28592195,0.7041854744391711
0.051500000000000004,1.73369375,1.0,2705.6721340269582,0.4404751980818755,1.3040176472464104,0.9752750471006637,0.2858681375,0.705271907406751
0.052000000000000005,1.7324,1.0,2703.5823672894057,0.443613721823105,1.303452455386671,0.9755777908680457,0.2858138,0.7063667325248737
0.0525,1.73109375,1.0,2701.4656212102395,0.44673463657606743,1.3028818722425932,0.9758723711905054,0.28575893750000003,0.7074699345243031
0.053,1.729775,1.0,2699.324352038105,0.44983803949829626,1.3023058756618024,0.9761590683612151,0.28570355000000003,0.7085814972587718
0.0535,1.72844375,1.0,2697.161012558427,0.45292402774732493,1.3017244434919246,0.9764381504369334,0.2856476375,0.7097014036973481
0.054,1.7271,1.0,2694.978051985068,0.4559926984806868,1.3011375535805854,0.9767098738736851,0.2855912,0.7108296359167732
0.0545,1.7257437500000001,1.0,2692.7779158624467,0.4590441488559152,1.3005451837754105,0.9769744841242162,0.2855342375,0.7119661750937651
0.055,1.724375,1.0,2690.563045979382,0.4620784760305436,1.2999473119240255,0.9772322161998176,0.28547675,0.7131110014972939
0.0555,1.72299375,1.0,2688.335880293133,0.4650957771621053,1.299343915874056,0.9774832951989244,0.2854187375,0.714264094480823
0.056,1.7216,1.0,2686.098852864453,0.46809614940813377,1.2987349734731282,0.9777279368047149,0.2853602,0.7154254324745198
0.0565,1.72019375,1.0,2683.854393803811,0.47107968992616234,1.2981204625688672,0.9779663477537651,0.28530113749999997,0.7165949929774384
0.057,1.718775,1.0,2681.604929228464,0.4740464958737245,1.297500361008899,0.9781987262776654,0.28524155,0.7177727525496642
0.0575,1.71734375,1.0,2679.352881229663,0.4769966644083535,1.2968746466408494,0.9784252625193649,0.2851814375,0.718958686804435
0.058,1.7159,1.0,2677.10066785184,0.4799302926875828,1.296243297312344,0.9786461389258818,0.2851208,0.720152770400224
0.0585,1.71444375,1.0,2674.8522821260026,0.48284745332603496,1.2956062763722183,0.9788615277171517,0.2850596375,0.7213550043665553
0.059000000000000004,1.7129750000000001,1.0,2672.6049490051555,0.4857482607137674,1.294963609278312,0.9790716012327755,0.28499795,0.7225652716884929
0.059500000000000004,1.71149375,1.0,2670.3590955720842,0.4886328063902715,1.2943152921045997,0.9792765214796826,0.2849357375,0.7237835103105362
0.06,1.71,1.0,2668.1155638174555,0.49150117825214007,1.293661317103958,0.9794764436219425,0.284873,0.7250096646580634
0.0605,1.7084937500000001,1.0,2665.8751943162474,0.49435346419596615,1.2930016765292618,0.9796715168050034,0.2848097375,0.726243678415312
0.061,1.7069750000000001,1.0,2663.638826229941,0.49718975211834276,1.2923363626333872,0.9798618844334631,0.28474595,0.7274854945225788
0.0615,1.7054437500000001,1.0,2661.407297310886,0.5000101299158628,1.2916653676692098,0.9800476844339661,0.2846816375,0.7287350551734205
0.062,1.7039,1.0,2659.181443908129,0.5028146854851193,1.2909886838896056,0.9802290495041197,0.2846168,0.7299923018118468
0.0625,1.70234375,1.0,2656.9621009738244,0.5056035067227053,1.29030630354745,0.9804061073482818,0.2845514375,0.7312571751295147
0.063,1.7007750000000001,1.0,2654.7501020715254,0.5083766815252135,1.289618218895619,0.9805789809009986,0.28448555,0.7325296150629126
0.0635,1.69919375,1.0,2652.5462793859083,0.5111342977892371,1.288924422186988,0.9807477885388274,0.28441913750000003,0.7338095607905457
0.064,1.6976,1.0,2650.351463733078,0.5138764434113691,1.288224905674433,0.9809126442812314,0.2843522,0.7350969507301154
0.0645,1.69599375,1.0,2648.1664845733376,0.5166032062882023,1.2875196616108298,0.9810736579811825,0.2842847375,0.7363917225356951
0.065,1.694375,1.0,2645.992170024353,0.5193146743163299,1.2868086822490536,0.9812309355060735,0.28421675,0.7376938130949025
0.0655,1.69274375,1.0,2643.829346875775,0.5220109353923447,1.2860919598419809,0.9813845789094945,0.2841482375,0.7390031585260664
0.066,1.6911,1.0,2641.677163188894,0.5246920361021231,1.285369502140944,0.9815346845124041,0.2840792,0.740319665968845
0.0665,1.6894437500000001,1.0,2639.5363809248065,0.5273581018245133,1.2846413019927956,0.9816813498896103,0.2840096375,0.7416432691321625
0.067,1.687775,1.0,2637.407594834809,0.5300092331121121,1.2839073537795167,0.9818246675425181,0.28393955,0.7429738981821185
0.0675,1.68609375,1.0,2635.290763971665,0.5326455091683271,1.2831676577552844,0.9819647255875936,0.2838689375,0.7443114719431956
0.068,1.6844000000000001,1.0,2633.185847502441,0.5352670091965653,1.2824222141742754,0.9821016090863179,0.2837978,0.7456559086125629
0.0685,1.68269375,1.0,2631.0928047077673,0.537873812400234,1.2816710232906667,0.9822354001707927,0.2837261375,0.747007125760168
0.069,1.680975,1.0,2629.011594981615,0.5404659979827405,1.2809140853586356,0.9823661781633329,0.28365395,0.7483650403288303
0.0695,1.67924375,1.0,2626.94217783053,0.543043645147492,1.2801514006323587,0.9824940196903763,0.28358123749999997,0.7497295686343357
0.07,1.6775,1.0,2624.884512873154,0.5456068330978957,1.2793829693660128,0.9826189987910148,0.283508,0.751100626365528
0.07050000000000001,1.67574375,1.0,2622.8385598394625,0.5481556410373589,1.2786087918137754,0.9827411870204392,0.2834342375,0.7524781285844017
0.07100000000000001,1.673975,1.0,2620.8042785703497,0.5506901481692887,1.277828868229823,0.9828606535485621,0.28335995,0.7538619897261981
0.07150000000000001,1.67219375,1.0,2618.781629017033,0.5532104336970926,1.2770431988683326,0.9829774652540813,0.2832851375,0.7552521235994946
0.07200000000000001,1.6704,1.0,2616.7705712406105,0.5557165768241774,1.2762517839834813,0.9830916868142158,0.2832098,0.756648443386301
0.0725,1.66859375,1.0,2614.771065411173,0.5582086567539507,1.275454623829446,0.9832033807903477,0.2831339375,0.7580508616421506
0.073,1.6667750000000001,1.0,2612.783071807596,0.5606867526898196,1.2746517186604036,0.9833126077097764,0.28305755,0.7594592902961943
0.0735,1.66494375,1.0,2610.806550816747,0.5631509438351915,1.273843068730531,0.9834194261437871,0.2829806375,0.7608736406512935
0.074,1.6631,1.0,2608.841462932958,0.5656013093934733,1.2730286742940053,0.9835238927822257,0.2829032,0.7622938233841134
0.0745,1.6612437500000001,1.0,2606.8877687574654,0.5680379285680726,1.2722085356050032,0.9836260625047528,0.2828252375,0.7637197485452158
0.075,1.659375,1.0,2604.9454289980094,0.5704608805623964,1.2713826529177021,0.9837259884489469,0.28274675,0.7651513255591519
0.0755,1.65749375,1.0,2603.014404468118,0.572870244579852,1.2705510264862785,0.9838237220754164,0.2826677375,0.7665884632245569
