Time [s],Phi [rad],STIM [ ],Fsee [N],Gamma [ ],Lcerel [ ],q [ ],Lmtc [m],fisomrel [ ]
0.0,1.8,1.0,19.540504460867233,0.001280483069440007,1.3791671774187073,0.005420213516557133,0.288653,0.5415569246439111
0.0005,1.79999375,1.0,20.21142088742788,0.006882509880828374,1.3790928875697541,0.016840089196667248,0.2886527375,0.5417365516391128
0.001,1.799975,1.0,24.503187376503643,0.012453113751203894,1.3786528852562305,0.04253177429149667,0.28865195,0.5427997209411095
0.0015,1.79994375,1.0,36.151228994792014,0.017992470938580547,1.3776296254392777,0.07987792271882146,0.2886506375,0.5452674298169351
0.002,1.7999,1.0,62.923352113255284,0.023500756711876403,1.3757864702981704,0.12557529181714502,0.2886488,0.5496955635868697
0.0025,1.79984375,1.0,111.47953015307614,0.028978145357537722,1.3732670127212394,0.17630504736044175,0.28864643749999996,0.5557134477492414
0.003,1.7997750000000001,1.0,178.81260823385523,0.03442481018418843,1.3705636064682216,0.2293282848419334,0.28864354999999997,0.5621256809989318
0.0035,1.79969375,1.0,257.4132515223066,0.039840923527347305,1.3679891146091743,0.2825578685163281,0.2886401375,0.5681888122740945
0.004,1.7996,1.0,342.2014217530018,0.045226656757610284,1.3656154917010617,0.33445482874795684,0.2886362,0.5737414292990781
0.0045000000000000005,1.7994937500000001,1.0,430.570488084618,0.050582180283803534,1.3634291007813586,0.3839693234363619,0.2886317375,0.5788242624529755
0.005,1.799375,1.0,521.0109870474605,0.05590766352387789,1.3614042550001961,0.4304653395086805,0.28862675,0.583504350981356
0.0055,1.79924375,1.0,612.493802276413,0.06120327509095709,1.359518627919135,0.47362547250066217,0.2886212375,0.5878391459794089
0.006,1.7991000000000001,1.0,704.1590417779364,0.0664691824137716,1.3577561099324547,0.5133609917458675,0.2886152,0.5918704266772877
0.006500000000000001,1.79894375,1.0,795.3241994443382,0.07170555214210968,1.3561037096259507,0.5497351222412644,0.2886086375,0.5956318494599381
0.007,1.798775,1.0,885.423951839138,0.07691255003347387,1.3545510088778914,0.5829057508736185,0.28860155,0.5991504531367009
0.0075,1.79859375,1.0,973.9765204427185,0.08209034063013511,1.3530895949666084,0.6130840250595934,0.2885939375,0.6024481438976927
0.008,1.7984,1.0,1060.6277491250962,0.08723908816092249,1.351711661380656,0.6405052574029622,0.2885858,0.6055449848496774
0.0085,1.79819375,1.0,1145.0669507475836,0.09235895520404962,1.3504108319827635,0.6654108666187392,0.2885771375,0.6084574261133531
0.009000000000000001,1.797975,1.0,1227.0613182166826,0.09745010363056837,1.3491812510287469,0.6880362120371701,0.28856795,0.6112004270727018
0.0095,1.79774375,1.0,1306.457258505452,0.10251269497407058,1.3480173375043898,0.7086036948408909,0.2885582375,0.6137880510087872
0.01,1.7975,1.0,1383.1282531930924,0.10754688928135153,1.3469142896121586,0.727319507414799,0.288548,0.6162323841291177
0.0105,1.79724375,1.0,1456.9902422432592,0.11255284548357872,1.345867687726026,0.7443719883008924,0.2885372375,0.6185444597801407
0.011,1.796975,1.0,1527.9997355013832,0.11753072185066617,1.3448733894527563,0.7599314845373165,0.28852595000000003,0.6207345192836975
0.0115,1.79669375,1.0,1596.172059822346,0.1224806771055079,1.343927213060083,0.7741509191943851,0.2885141375,0.6228127299640442
0.012,1.7964,1.0,1661.4973049038906,0.1274028670551058,1.3430258608437236,0.7871673555950669,0.28850180000000003,0.6247871772717551
0.0125,1.79609375,1.0,1723.9891195250257,0.13229744692681086,1.3421662252594582,0.7991030052453405,0.2884889375,0.6266654154709621
0.013000000000000001,1.7957750000000001,1.0,1783.6958175325044,0.1371645718774622,1.3413452078555521,0.8100665732015566,0.28847555,0.6284548758738837
0.0135,1.79544375,1.0,1840.6830237504225,0.14200439613327495,1.340559875716451,0.8201547205744588,0.2884616375,0.6301625352423326
0.014,1.7951000000000001,1.0,1895.0181004970198,0.14681707350210074,1.3398075873802635,0.8294534255841323,0.2884472,0.6317946542053718
0.0145,1.79474375,1.0,1946.7562551405404,0.15160275528676137,1.3390860949433947,0.8380392171937737,0.2884322375,0.6333565695664513
0.015,1.794375,1.0,1995.9730783922107,0.1563615927900787,1.3383931505022484,0.8459801292845666,0.28841675,0.634853557695034
0.0155,1.79399375,1.0,2042.7479599367832,0.16109373618397863,1.3377266619111123,0.8533367471262693,0.2884007375,0.6362905032983968
0.016,1.7936,1.0,2087.18364023444,0.1657993371949737,1.3370844640806918,0.8601630167774307,0.2883842,0.6376723981997219
0.0165,1.7931937500000001,1.0,2129.356636740776,0.17047854429065493,1.336464817953799,0.8665071780224576,0.2883671375,0.6390032725743524
0.017,1.792775,1.0,2169.3365717053657,0.17513150432891483,1.3358661795691866,0.8724123673852292,0.28834955,0.6402867009617312
0.0175,1.7923437500000001,1.0,2207.203587722373,0.17975836416764596,1.3352870049656071,0.8779171645941891,0.2883314375,0.6415262254502325
0.018000000000000002,1.7919,1.0,2243.0474617761465,0.18435927066474078,1.334725750181813,0.8830561277242331,0.2883128,0.6427253576697145
0.0185,1.79144375,1.0,2276.9512488830737,0.18893436908280942,1.3341810257437927,0.8878603006823013,0.2882936375,0.6438872513801868
0.019,1.790975,1.0,2309.010394814406,0.19348380637699347,1.3336513946856379,0.8923575696679366,0.28827395,0.6450151365571706
0.0195,1.79049375,1.0,2339.295260615544,0.19800772552912133,1.333135735546947,0.8965731079986619,0.2882537375,0.64611154879335
0.02,1.79,1.0,2367.8742037733327,0.20250626858468354,1.332633001334852,0.9005296257750254,0.288233,0.6471788470120166
0.0205,1.78949375,1.0,2394.820561745096,0.2069795775891707,1.3321421450564848,0.9042476288456133,0.2882117375,0.6482193733331538
0.021,1.788975,1.0,2420.212233035985,0.21142779458807343,1.3316621197189773,0.9077456628175784,0.28818995000000003,0.6492354539015139
0.021500000000000002,1.78844375,1.0,2444.1170602175134,0.21585105948780983,1.331192014944178,0.9110405548759257,0.2881676375,0.6502291110880591
0.022,1.7879,1.0,2466.6200845248463,0.2202495153704948,1.3307307897030192,0.9141475468110858,0.2881448,0.6512026299184226
0.0225,1.78734375,1.0,2487.7803957222714,0.22462330040596587,1.3302776830273313,0.9170805415774846,0.28812143749999997,0.652157691626587
0.023,1.786775,1.0,2507.652912104562,0.22897255161935262,1.3298319988308434,0.9198522027353381,0.28809755,0.6530958308266919
0.0235,1.78619375,1.0,2526.2948949023194,0.23329740603578464,1.3293930410272843,0.9224740711810431,0.28807313749999996,0.6540185730956563
0.024,1.7856,1.0,2543.7657519769173,0.2375980006803916,1.3289601135303835,0.9249566801738939,0.2880482,0.6549274352872361
0.0245,1.78499375,1.0,2560.125686155171,0.24187447228628348,1.3285325311983114,0.9273096589686914,0.2880227375,0.655823902884026
0.025,1.784375,1.0,2575.4258842939626,0.24612695488524636,1.3281097098412606,0.9295418371377371,0.28799675,0.6567092420532008
0.025500000000000002,1.78374375,1.0,2589.7364455191832,0.2503555874542977,1.3276909026982147,0.9316612824272557,0.2879702375,0.6575850519414197
0.026000000000000002,1.7831000000000001,1.0,2603.0984233800486,0.2545605016581583,1.3272756476834764,0.9336754424295342,0.2879432,0.6584523291880136
0.0265,1.78244375,1.0,2615.5539637194615,0.2587418291615489,1.3268634827113488,0.9355911608274213,0.2879156375,0.6593120652736217
0.027,1.781775,1.0,2627.1462128137437,0.2628997016291904,1.3264539456961346,0.9374147344504473,0.28788755,0.6601652466180651
0.0275,1.7810937500000001,1.0,2637.919230246085,0.2670342507258036,1.3260465745521373,0.9391519642464048,0.2878589375,0.661012854664597
0.028,1.7804,1.0,2647.9179065144754,0.2711456081161092,1.325640907193659,0.9408082008829592,0.2878298,0.6618558659505445
0.0285,1.77969375,1.0,2657.177746011236,0.2752339009632387,1.3252365749436998,0.9423883972072985,0.2878001375,0.6626950584148315
0.029,1.778975,1.0,2665.748648120595,0.2792992647930744,1.3248330823809613,0.9438971177240978,0.28776995,0.6635314687209299
0.029500000000000002,1.7782437500000001,1.0,2673.665814549278,0.2833418282325427,1.3244300749563611,0.9453386040819873,0.2877392375,0.6643658369381693
0.03,1.7775,1.0,2680.9587404251765,0.2873617169516693,1.3240272549408778,0.9467167930823024,0.287708,0.6651987820646664
0.0305,1.77674375,1.0,2687.657331780413,0.2913590566204796,1.3236243246054902,0.9480353364064352,0.2876762375,0.6660309200371184
0.031,1.775975,1.0,2693.7918680325524,0.2953339729089992,1.3232209862211766,0.9492976248459176,0.28764395,0.666862863731537
0.0315,1.7751937500000001,1.0,2699.392966431257,0.29928659148725356,1.3228169420589155,0.9505068101892921,0.2876111375,0.6676952229583253
0.032,1.7744,1.0,2704.4915484700764,0.3032170380252683,1.3224118943896859,0.9516658250177038,0.2875778,0.6685286044517029
0.0325,1.77359375,1.0,2709.1188082640815,0.3071254381930688,1.322005545484466,0.9527774006315436,0.2875439375,0.6693636118534807
0.033,1.772775,1.0,2713.293849598295,0.311011910640728,1.321597710053382,0.9538440944107455,0.28750955,0.6702006150778725
0.0335,1.7719437500000002,1.0,2717.054039030865,0.31487658762763016,1.3211880380746759,0.9548682775734496,0.2874746375,0.6710403195081013
0.034,1.7711000000000001,1.0,2720.421384304781,0.31871959077965983,1.320776321268254,0.9558521777902969,0.2874392,0.6718831368418556
0.0345,1.7702437500000001,1.0,2723.4141378859845,0.32254103919933935,1.320362386857379,0.9567978806740876,0.2874032375,0.6727294039765401
0.035,1.7693750000000001,1.0,2726.0506748156017,0.32634105198919094,1.3199460620653134,0.9577073374863698,0.28736675,0.6735794558957227
0.035500000000000004,1.76849375,1.0,2728.349479911021,0.33011974825173696,1.3195271741153196,0.9585823753447842,0.2873297375,0.6744336256437444
0.036000000000000004,1.7676,1.0,2730.3291356286027,0.3338772470894997,1.3191055502306601,0.9594247065428502,0.2872922,0.67529224429843
0.0365,1.76669375,1.0,2732.0083105882522,0.33761366760500144,1.3186810176345976,0.9602359370685334,0.2872541375,0.6761556409418921
0.037,1.765775,1.0,2733.4057487600403,0.3413291289007646,1.3182534035503946,0.9610175743986861,0.28721555,0.6770241426294314
0.0375,1.76484375,1.0,2734.540259312494,0.34502375007931146,1.3178225352013135,0.9617710346382963,0.2871764375,0.6778980743565364
0.038,1.7639,1.0,2735.4238803296753,0.3486976431988885,1.3173883017963195,0.9624976535450286,0.28713679999999997,0.6787776335550013
0.0385,1.76294375,1.0,2736.0797439779994,0.3523509332142402,1.3169504922205202,0.9631986809562991,0.28709663750000003,0.6796632190088329
0.039,1.761975,1.0,2736.52069518378,0.3559837348342191,1.3165089891241968,0.963875300205179,0.28705595,0.680555037638964
0.0395,1.7609937500000001,1.0,2736.757604605649,0.35959616066086064,1.31606369335646,0.9645286274016416,0.2870147375,0.6814532581054644
0.04,1.76,1.0,2736.8013684552516,0.3631883232962004,1.3156145057664206,0.9651597148010838,0.286973,0.6823580476716138
0.0405,1.7589937500000001,1.0,2736.66290453432,0.3667603353422739,1.315161327203189,0.9657695551295231,0.2869307375,0.683269572179606
0.041,1.757975,1.0,2736.3531484888836,0.37031230940111687,1.314704058515876,0.9663590855720355,0.28688795,0.6841879960256253
0.0415,1.75694375,1.0,2735.8830502820047,0.3738443580747647,1.3142426005535923,0.9669291914539023,0.2868446375,0.6851134821342966
0.042,1.7559,1.0,2735.263570884287,0.377356593965253,1.3137768541654484,0.967480709641075,0.28680079999999997,0.6860461919325094
0.0425,1.75484375,1.0,2734.5056791823804,0.38084912967461737,1.3133067202005553,0.9680144316840241,0.2867564375,0.6869862853226115
0.043000000000000003,1.753775,1.0,2733.619867322738,0.38432207386078127,1.3128321038839421,0.96853110645838,0.28671155,0.6879339119245742
0.043500000000000004,1.75269375,1.0,2732.6157972722863,0.38777554034701206,1.3123529180072484,0.9690314445662017,0.28666613750000003,0.688889204758792
0.044,1.7516,1.0,2731.5003604969834,0.3912096372005019,1.311869100545447,0.9695161204308541,0.2866202,0.6898522452964728
0.0445,1.75049375,1.0,2730.2802704536603,0.3946244715675549,1.3113805911053689,0.9699857734615293,0.2865737375,0.69082311059589
0.045,1.7493750000000001,1.0,2728.9622409672506,0.3980201505944753,1.3108873292938448,0.9704410102236799,0.28652675,0.6918018765450911
0.0455,1.74824375,1.0,2727.552984994775,0.4013967814275672,1.3103892547177058,0.9708824064415913,0.2864792375,0.692788617843709
0.046,1.7471,1.0,2726.059213470816,0.4047544712131347,1.309886306983783,0.9713105088601496,0.2864312,0.6937834079845429
0.0465,1.7459437500000001,1.0,2724.4876342328694,0.4080933270974819,1.3093784256989065,0.9717258369769672,0.28638263750000004,0.694786319234905
0.047,1.744775,1.0,2722.8279258870066,0.4114134549948089,1.3088657054112536,0.9721288956850497,0.28633355,0.6957971174132931
0.0475,1.74359375,1.0,2721.1285151682328,0.414714960449459,1.308347705998779,0.9725201270099505,0.28628393750000003,0.6968166205525849
0.048,1.7424004936320645,1.0,2719.3952718808696,0.41799794716777905,1.307824597281678,0.972899994376541,0.2862338207325467,0.6978444429476172
0.0485,1.7412040065797743,1.0,2718.0334812273595,0.4212625185380494,1.3072966509817456,0.9732689459841413,0.2861835682763505,0.6988800009419746
0.049,1.740007519527484,1.0,2717.173188797186,0.4245087779485505,1.3067641388207776,0.9736274086922855,0.28613331582015433,0.6999227140738097
0.0495,1.7388110324751938,1.0,2716.784302452787,0.4277368281777946,1.306227332795148,0.9739757891853621,0.28608306336395817,0.700972004621077
0.05,1.7376145454229035,1.0,2716.822144617008,0.4309467722814223,1.305686639029993,0.9743144841684126,0.28603281090776195,0.7020270367300597
0.0505,1.7364180583706132,1.0,2717.253136358069,0.434138711393986,1.3051423635124426,0.9746438651619177,0.2859825584515657,0.7030871747131389
0.051000000000000004,1.7352215713183228,1.0,2718.0477061340766,0.4373127459240341,1.3045947764536554,0.9749642842756044,0.28593230599536956,0.7041518563684557
0.051500000000000004,1.7340250842660325,1.0,2719.1763421293635,0.4404689762801148,1.3040441480647909,0.9752760776762006,0.2858820535391734,0.7052205230470521
0.052000000000000005,1.7328285972137423,1.0,2720.6108103917522,0.44360750246129355,1.30349073729327,0.9755795656948403,0.2858318010829772,0.7062926415088883
0.0525,1.731632110161452,1.0,2722.3240612832133,0.44672842446008465,1.3029347925334531,0.9758750537738695,0.28578154862678096,0.7073677024002352
0.053,1.7304356231091618,1.0,2724.2933067063877,0.44983184098235396,1.3023765235095344,0.9761628313823164,0.2857312961705848,0.7084452743312756
0.0535,1.7292391360568715,1.0,2726.499112154355,0.45291784954279596,1.3018161094902663,0.9764431733901546,0.2856810437143886,0.7095249874112233
0.054,1.7280426490045813,1.0,2728.922043599252,0.45598654765610525,1.301253729744401,0.9767163428174495,0.2856307912581924,0.710606474219029
0.0545,1.726846161952291,1.0,2731.5453181894286,0.45903803118027076,1.3006895393816449,0.9769825898322091,0.2855805388019962,0.7116894161557852
0.055,1.7256496749000008,1.0,2734.3538346225278,0.46207239524615507,1.300123678152608,0.9772421530346941,0.2855302863458,0.7127735261867021
0.0555,1.7244531878477105,1.0,2737.3196446570123,0.4650897439454353,1.2995564023060129,0.9774952687443209,0.28548003388960386,0.7138582966756319
0.056,1.72325670079542,1.0,2740.4327614206036,0.4680901703440748,1.2989878047357766,0.9777421528841335,0.28542978143340764,0.7149435351380138
0.0565,1.7220602137431298,1.0,2743.683186952515,0.47107376750803703,1.2984179783358154,0.9779830124964293,0.2853795289772114,0.7160290504016735
0.057,1.7208637266908395,1.0,2747.0609095760724,0.4740406285032853,1.297847016000047,0.9782180461826383,0.28532927652101525,0.7171146526143741
0.0575,1.7196672396385493,1.0,2750.5559014640057,0.47699084639578304,1.2972750106223883,0.9784474445180132,0.2852790240648191,0.7182001532508258
0.058,1.718470752586259,1.0,2754.158116394275,0.47992451425149363,1.296702055096756,0.9786713904427673,0.28522877160862287,0.7192853651191375
0.0585,1.7172742655339688,1.0,2757.8574876979183,0.48284172513638046,1.2961282423170672,0.9788900596311737,0.2851785191524267,0.7203701023667229
0.059000000000000004,1.7160777784816785,1.0,2761.6439263971574,0.4857425721164069,1.2955536651772392,0.9791036208400289,0.2851282666962305,0.7214541804856517
0.059500000000000004,1.7148812914293883,1.0,2765.5073195360947,0.4886271482575364,1.2949784165711886,0.9793122362377886,0.2850780142400343,0.7225374163174564
0.06,1.713684804377098,1.0,2769.4442274515945,0.49149553828896736,1.2944025289443917,0.9795160577734492,0.2850277617838381,0.7236197415534013
0.0605,1.7124883173248078,1.0,2773.4414526157766,0.4943478434754274,1.2938261226652483,0.9797152376020369,0.28497750932764193,0.724700923595365
0.061,1.7112918302725175,1.0,2777.4930131665765,0.49718415410427325,1.2932492527556327,0.9799099177444163,0.2849272568714457,0.7257808538209918
0.0615,1.7100953432202273,1.0,2781.594914969021,0.5000045576011644,1.2926719561932103,0.980100233691388,0.28487700441524955,0.7268594580932386
0.062,1.708898856167937,1.0,2785.743153055048,0.5028091413917601,1.2920942699556464,0.9802863158650755,0.2848267519590534,0.7279366628159375
0.0625,1.7077023691156465,1.0,2789.9337112891035,0.5055979929017203,1.2915162310206063,0.9804682898477198,0.28477649950285716,0.7290123949347593
0.063,1.7065058820633563,1.0,2794.1625620640566,0.5083711995567038,1.2909378763657557,0.9806462765985066,0.28472624704666094,0.7300865819380875
0.0635,1.705309395011066,1.0,2798.4256660270016,0.5111288487823706,1.2903592429687598,0.9808203926591349,0.2846759945904648,0.7311591518578084
0.064,1.7041129079587758,1.0,2802.7189718355035,0.5138710280043799,1.289780367807284,0.9809907503487927,0.2846257421342686,0.7322300332700105
0.0645,1.7029164209064855,1.0,2807.038415944032,0.5165978246483912,1.2892012878589938,0.9811574579491545,0.2845754896780724,0.7332991552955976
0.065,1.7017199338541953,1.0,2811.3799224216373,0.5193093261400639,1.2886220401015545,0.9813206198799854,0.28452523722187617,0.7343664476008185
0.0655,1.700523446801905,1.0,2815.7407087422475,0.5220056148388406,1.2880426498252948,0.9814803359403791,0.28447498476568,0.7354318618674189
0.066,1.6993269597496148,1.0,2820.1204483312704,0.52468676716488,1.2874631202815245,0.9816367009491028,0.28442473230948384,0.7364953905548781
0.0665,1.6981304726973245,1.0,2824.510978384752,0.5273528921153109,1.2868835247327048,0.981789812013785,0.2843744798532876,0.7375568980769756
0.067,1.6969339856450343,1.0,2828.9110713018576,0.5300040705184327,1.2863038742932928,0.9819397580051856,0.28432422739709146,0.7386163634076861
0.0675,1.6957374985927438,1.0,2833.319495630372,0.5326403832025454,1.2857241800777452,0.9820866247478799,0.28427397494089524,0.7396737656852685
0.068,1.6945410115404536,1.0,2837.735016055378,0.5352619109959484,1.285144453200519,0.9822304951464061,0.28422372248469907,0.7407290842122993
0.0685,1.6933445244881633,1.0,2842.1563933891707,0.5378687347269417,1.284564704776071,0.9823714493053495,0.28417347002850285,0.7417822984557
0.069,1.692148037435873,1.0,2846.5823845651794,0.5404609352238249,1.2839849459188584,0.9825095646436899,0.2841232175723067,0.7428333880467572
0.0695,1.6909515503835828,1.0,2851.0117426334577,0.5430385933148977,1.2834051877433377,0.9826449160037305,0.28407296511611047,0.7438823327811337
0.07,1.6897550633312926,1.0,2855.4432167599193,0.5456017898284597,1.2828254413639661,0.9827775757548922,0.2840227126599143,0.7449291126188704
0.07050000000000001,1.6885585762790023,1.0,2859.8755522276388,0.5481506055928108,1.2822457178952003,0.9829076138926548,0.2839724602037181,0.7459737076843846
0.07100000000000001,1.687362089226712,1.0,2864.3074904412633,0.5506851214362507,1.2816660284514974,0.9830350981328999,0.2839222077475219,0.747016098266455
0.07150000000000001,1.6861656021744218,1.0,2868.7377689337254,0.5532054181870791,1.2810863841473141,0.9831600940019006,0.2838719552913257,0.7480562648182033
0.07200000000000001,1.6849691151221315,1.0,2873.165121376635,0.5557115766735956,1.2805067960971077,0.9832826649221835,0.28382170283512953,0.7490941879570652
0.0725,1.6837726280698413,1.0,2877.5882775921013,0.5582036777241,1.2799272754153346,0.9834028722944824,0.28377145037893337,0.7501298484647558
