Time [s],Phi [rad],STIM [ ],Fsee [N],Gamma [ ],Lcerel [ ],q [ ],Lmtc [m],fisomrel [ ]
0.0,1.8,1.0,17.966669622828512,1.1291393288801471e-05,1.3793398009534437,0.005000033947280109,0.288653,0.5411393986371229
0.0005,1.79999375,1.0,18.276481713576416,0.005620437366297156,1.3793024169407504,0.012944101063084794,0.2886527375,0.5412298357873251
0.001,1.799975,1.0,21.619089910187153,0.011198120465312418,1.3789382297665207,0.035615311147757796,0.28865195,0.5421103890989017
0.0015,1.79994375,1.0,31.071898526368106,0.01674451717304391,1.3780459768960949,0.07061092568520949,0.2886506375,0.5442641560990986
0.002,1.7999,1.0,53.58885287097447,0.022259802980546518,1.3763677122816826,0.11472875748897073,0.2886488,0.548301483264836
0.0025,1.79984375,1.0,97.13023718072508,0.027744152394795434,1.3739346227778115,0.1645865546088974,0.28864643749999996,0.5541227611224994
0.003,1.7997750000000001,1.0,160.97324743975446,0.03319773894638988,1.3712137792875758,0.21729248336948462,0.28864354999999997,0.5605877872035554
0.0035,1.79969375,1.0,237.70058170928095,0.038620735189154556,1.3685842028920405,0.2706248516885402,0.2886401375,0.5667910885792065
0.004,1.7996,1.0,321.48527949020615,0.04401331271091941,1.3661556021929857,0.32292738439443397,0.2886362,0.5724811064499108
0.0045000000000000005,1.7994937500000001,1.0,409.28704945681443,0.0493756421387047,1.3639223611586315,0.3730455022292527,0.2886317375,0.5776802138033372
0.005,1.799375,1.0,499.4332921155566,0.054707893129816436,1.361857921858731,0.42025774710791564,0.28862675,0.5824580497068895
0.0055,1.79924375,1.0,590.8104628861785,0.060010234419243476,1.3599384433960096,0.4641832221060779,0.2886212375,0.5868760107323266
0.006,1.7991000000000001,1.0,682.5382493550763,0.06528283376298251,1.358146048639838,0.504688714901733,0.2886152,0.5909802546035421
0.006500000000000001,1.79894375,1.0,773.8850962686563,0.07052585776216252,1.3564671880932209,0.5418089394633664,0.2886086375,0.5948059432809704
0.007,1.798775,1.0,864.3131786323066,0.07573947307399535,1.3548899529282017,0.5756840002609708,0.28860155,0.5983836776486569
0.0075,1.79859375,1.0,953.2771238109875,0.08092384392161223,1.353406257649543,0.6065164170555933,0.2885939375,0.6017347482593907
0.008,1.7984,1.0,1040.3791128940386,0.08607913429040526,1.3520083421942244,0.6345380766404568,0.2885858,0.6048792315869701
0.0085,1.79819375,1.0,1125.3382855137065,0.09120550771520602,1.350688900927491,0.6599898734909934,0.2885771375,0.6078357613720295
0.009000000000000001,1.797975,1.0,1207.9033990190214,0.09630312623885051,1.3494419910744813,0.6831092901332139,0.28856795,0.6106195627356574
0.0095,1.79774375,1.0,1287.891287618219,0.10137215104573927,1.3482621359523712,0.7041221421799466,0.2885582375,0.6132445301718499
0.01,1.7975,1.0,1365.1791297793282,0.10641274278352186,1.347144230012344,0.7232383885146657,0.288548,0.6157234807689314
0.0105,1.79724375,1.0,1439.67905967804,0.11142506093802755,1.3460837015737914,0.7406504055151905,0.2885372375,0.6180678300541547
0.011,1.796975,1.0,1511.3317845134509,0.1164092636723646,1.345076436737536,0.7565326020932736,0.28852595000000003,0.6202877959455526
0.0115,1.79669375,1.0,1580.1178499143912,0.12136550855211509,1.3441185208402184,0.7710418531783768,0.2885141375,0.6223929962204724
0.012,1.7964,1.0,1646.0676454625536,0.1262939536008343,1.3432060404805741,0.7843184912100772,0.28850180000000003,0.624392901076679
0.0125,1.79609375,1.0,1709.1920387271277,0.13119475416241974,1.342335827298548,0.7964879520720721,0.2884889375,0.6262952211346262
0.013000000000000001,1.7957750000000001,1.0,1769.5148755010143,0.13606806463346396,1.3415049788146014,0.8076619476883056,0.28847555,0.6281069816480824
0.0135,1.79544375,1.0,1827.091756018814,0.14091403941055966,1.3407105925491953,0.8179397599479084,0.2884616375,0.6298351151938018
0.014,1.7951000000000001,1.0,1881.9879233370216,0.14573283188507463,1.339949977384761,0.8274096654703164,0.2884472,0.6314860104467491
0.0145,1.79474375,1.0,1934.293197274787,0.15052459568514157,1.33922044967289,0.836150097406567,0.2884322375,0.6330659646802372
0.015,1.794375,1.0,1984.065151029353,0.1552894814090806,1.3385199143510822,0.8442309745684261,0.28841675,0.6345799349098724
0.0155,1.79399375,1.0,2031.3747212903686,0.16002763938886883,1.3378463276701353,0.8517145106888732,0.2884007375,0.6360327132646797
0.016,1.7936,1.0,2076.307685840845,0.1647392197969845,1.3371976627422886,0.8586561125798003,0.2883842,0.6374290058709752
0.0165,1.7931937500000001,1.0,2118.9531937757547,0.16942437181723885,1.3365720122558225,0.8651052170087216,0.2883671375,0.6387732160907733
0.017,1.792775,1.0,2159.4072498343066,0.17408324501627415,1.3359675336660892,0.8711059818326845,0.28834955,0.6400695673543534
0.0175,1.7923437500000001,1.0,2197.7380214541795,0.17871598549036527,1.3353827859175216,0.8766979992442089,0.2883314375,0.641321386831001
0.018000000000000002,1.7919,1.0,2234.0231101051068,0.18332273933578697,1.3348163279545524,0.8819167206062213,0.2883128,0.6425319723693547
0.0185,1.79144375,1.0,2268.3487635371885,0.18790365264881406,1.334266718721615,0.8867939400840679,0.2882936375,0.6437045942445303
0.019,1.790975,1.0,2300.7933736143787,0.19245886972503695,1.3337326731962051,0.8913582560328588,0.28827395,0.6448421646725604
0.0195,1.79049375,1.0,2331.457188813015,0.19698853744228834,1.333212758176486,0.8956353652483714,0.2882537375,0.6459478883559266
0.02,1.79,1.0,2360.407927113075,0.20149279794102104,1.3327059227181555,0.8996485131208016,0.288233,0.647024135804403
0.0205,1.78949375,1.0,2387.7121897311004,0.20597179259746667,1.3322111759774946,0.9034186942628555,0.2882117375,0.6480731331493945
0.021,1.788975,1.0,2413.441088278998,0.2104256627878567,1.331727527110785,0.9069648890268326,0.28818995000000003,0.6490970910617457
0.021500000000000002,1.78844375,1.0,2437.669866060775,0.21485454988842273,1.3312539852743075,0.9103042843893108,0.2881676375,0.6500982054843396
0.022,1.7879,1.0,2460.4672273204596,0.2192585934497424,1.3307896583653467,0.9134524873466665,0.2881448,0.6510784499953356
0.0225,1.78734375,1.0,2481.9107832565046,0.22363793540822802,1.3303336004542698,0.9164236651980949,0.28812143749999997,0.6520398992695116
0.023,1.786775,1.0,2502.0617356444404,0.22799271406483654,1.3298850505116424,0.9192307404109964,0.28809755,0.6529842265590917
0.0235,1.78619375,1.0,2520.973554062021,0.2323230656971378,1.3294433441923013,0.9218855032355681,0.28807313749999996,0.6539128921154111
0.024,1.7856,1.0,2538.701839132242,0.2366291265827016,1.3290078171510828,0.924398710841202,0.2880482,0.6548273477470652
0.0245,1.78499375,1.0,2555.3041434616034,0.24091103299909783,1.3285778050428239,0.9267801920658416,0.2880227375,0.6557290370957909
0.025,1.784375,1.0,2570.8398023645527,0.24516892122389636,1.3281526435223612,0.9290389402751945,0.28799675,0.6566193958842033
0.025500000000000002,1.78374375,1.0,2585.358905429405,0.24940292403212044,1.3277317697557056,0.9311832111334377,0.2879702375,0.6574996399642639
0.026000000000000002,1.7831000000000001,1.0,2598.9249367073867,0.2536131804361848,1.3273145088016614,0.9332205636763781,0.2879432,0.65837121278038
0.0265,1.78244375,1.0,2611.5800637407756,0.2577998222245199,1.326900396406495,0.9351579727884877,0.2879156375,0.6592351110627439
0.027,1.781775,1.0,2623.3646114254375,0.2619629801843268,1.326488994836745,0.9370018578561018,0.28788755,0.6600922712069255
0.0275,1.7810937500000001,1.0,2634.3198103659006,0.2661027851028064,1.3260798663589513,0.9387581310193385,0.2878589375,0.6609436248575526
0.028,1.7804,1.0,2644.4877179032387,0.2702193677671595,1.3256725732396524,0.9404322439623177,0.2878298,0.6617900989778803
0.0285,1.77969375,1.0,2653.9111433904473,0.2743128589645872,1.3252666777453879,0.9420292298206071,0.2878001375,0.6626326159071365
0.029,1.778975,1.0,2662.6309311635864,0.2783833882755192,1.3248617664990614,0.943553743730155,0.28776995,0.6634720429435884
0.029500000000000002,1.7782437500000001,1.0,2670.6812741410986,0.2824310828295342,1.3244574927515709,0.9450101016033529,0.2877392375,0.6643091052211874
0.03,1.7775,1.0,2678.1115486760814,0.286456077832352,1.324053375013558,0.9464022863637632,0.287708,0.6651448027497526
0.0305,1.77674375,1.0,2684.948422648046,0.29045849794748657,1.3236491447519882,0.9477340160890654,0.2876762375,0.6659796910118194
0.031,1.775975,1.0,2691.2189236021786,0.2944384678384519,1.3232445334338274,0.9490087423584819,0.28764395,0.666814322720495
0.0315,1.7751937500000001,1.0,2696.9504066083555,0.298396112168762,1.322839272526041,0.9502296726772992,0.2876111375,0.6676492478152317
0.032,1.7744,1.0,2702.1705237191654,0.30233155560193076,1.3224330934955946,0.9513997907530506,0.2875778,0.6684850134530012
0.0325,1.77359375,1.0,2706.907195027117,0.30624492280147225,1.3220257278094536,0.9525218748523092,0.2875439375,0.6693221639948715
0.033,1.772775,1.0,2711.1885813198464,0.31013633843090044,1.3216169069345838,0.9535985144403878,0.28750955,0.6701612409879825
0.0335,1.7719437500000002,1.0,2715.0426519440475,0.3140059267002183,1.3212063660417122,0.9546321255824648,0.2874746375,0.6710027755557322
0.034,1.7711000000000001,1.0,2718.4930508217485,0.3178538066262516,1.3207938814259514,0.9556249675798274,0.2874392,0.6718472118612009
0.0345,1.7702437500000001,1.0,2721.569021524379,0.32168010782245554,1.3203791798412818,0.9565791493069923,0.2874032375,0.6726950928706237
0.035,1.7693750000000001,1.0,2724.2879482645026,0.3254849487385957,1.3199620973097674,0.9574966523897606,0.28736675,0.6735467356031088
0.035500000000000004,1.76849375,1.0,2726.6673245436295,0.3292684478244377,1.3195424698534723,0.9583793320229058,0.2873297375,0.6744024552294092
0.036000000000000004,1.7676,1.0,2728.7247415826682,0.33303072352974733,1.3191201334944602,0.9592289264871879,0.2872922,0.6752625650461668
0.0365,1.76669375,1.0,2730.4778773485673,0.33677189430429005,1.3186949242547956,0.9600470658461557,0.2872541375,0.6761273764484378
0.037,1.765775,1.0,2731.9444861773586,0.34049207859783165,1.3182666781565424,0.9608352799018409,0.28721555,0.6769971989005097
0.0375,1.76484375,1.0,2733.1423889932585,0.3441913948601378,1.3178352312217647,0.961595005480066,0.2871764375,0.677872339904998
0.038,1.7639,1.0,2734.089464123778,0.347869961540974,1.3174004194725264,0.9623275931086466,0.28713679999999997,0.6787531049702304
0.0385,1.76294375,1.0,2734.788904040021,0.3515278783798267,1.316962212733734,0.9630343220016904,0.28709663750000003,0.6796395271011965
0.039,1.761975,1.0,2735.277382270931,0.35516528861995256,1.3165202771447533,0.9637163767337112,0.28705595,0.6805322517736243
0.0395,1.7609937500000001,1.0,2735.5651280152088,0.35878230405696354,1.3160745193157473,0.9643748890011666,0.2870147375,0.6814314357121152
0.04,1.76,1.0,2735.6616968341114,0.3623790356182971,1.3156248522004457,0.96501092600036,0.286973,0.6823372215352259
0.0405,1.7589937500000001,1.0,2735.5766656951932,0.3659555942313906,1.3151711887525785,0.9656254944064395,0.2869307375,0.6832497505748932
0.041,1.757975,1.0,2735.319629706121,0.3695120908236816,1.3147134419258757,0.9662195444378525,0.28688795,0.6841691628544913
0.0415,1.75694375,1.0,2734.9001990164884,0.3730486363226074,1.3142515246740671,0.9667939736069876,0.2868446375,0.6850955970664037
0.042,1.7559,1.0,2734.327995887755,0.3765653416556055,1.3137853499508825,0.967349630184234,0.28680079999999997,0.6860291905491143
0.0425,1.75484375,1.0,2733.6126519310124,0.38006231775011345,1.313314830710052,0.9678873164000807,0.2867564375,0.6869700792638122
0.043000000000000003,1.753775,1.0,2732.763805512651,0.3835396755335685,1.3128398799053052,0.9684077914075342,0.28671155,0.6879183977705174
0.043500000000000004,1.75269375,1.0,2731.791099328676,0.38699752593340825,1.3123604104903719,0.9689117740250403,0.28666613750000003,0.6888742792037194
0.044,1.7516,1.0,2730.7041781457706,0.39043597987706996,1.3118763354189824,0.9693999452782174,0.2866202,0.689837855247533
0.0445,1.75049375,1.0,2729.512686711931,0.39385514829199125,1.3113875676448663,0.9698729507570107,0.2865737375,0.6908092561103757
0.045,1.7493750000000001,1.0,2728.2219533281973,0.3972551304906148,1.310894059348147,0.9703314041333246,0.28652675,0.6917885327233125
0.0455,1.74824375,1.0,2726.840748172256,0.4006360432484294,1.3103957314143682,0.9707758879439398,0.2864792375,0.6927757969379447
0.046,1.7471,1.0,2725.377446749309,0.40399800083693066,1.309892508283046,0.9712069552090274,0.2864312,0.6937711521366146
0.0465,1.7459437500000001,1.0,2723.8367687012956,0.40734110612483954,1.3093843476139184,0.9716251321985043,0.28638263750000004,0.6947746347305807
0.047,1.744775,1.0,2722.2234318743317,0.41066546198087683,1.308871207066723,0.9720309191727724,0.28633355,0.6957862801184488
0.0475,1.74359375,1.0,2720.54215167427,0.41397117127376337,1.3083530443011981,0.9724247919097952,0.28628393750000003,0.6968061226727785
0.048,1.7424,1.0,2718.7976404619762,0.4172583368722201,1.3078298169770814,0.9728072031286984,0.2862338,0.6978341957265835
0.0485,1.74119375,1.0,2716.994606988677,0.42052706164496784,1.3073014827541112,0.9731785838178019,0.2861831375,0.6988705315597089
0.049,1.739975,1.0,2715.137755870335,0.4237774484607274,1.306767999292025,0.9735393444743266,0.28613195,0.6999151613851027
0.0495,1.73874375,1.0,2713.231787102625,0.42700960018821976,1.306229324250561,0.9738898762624033,0.2860802375,0.7009681153349644
0.05,1.7375,1.0,2711.2813956152595,0.4302236196961657,1.3056854152894568,0.9742305520954616,0.286028,0.7020294224467868
0.0505,1.73624375,1.0,2709.2912708656063,0.4334196098532861,1.3051362300684506,0.9745617276485804,0.2859752375,0.7030991106492781
0.051000000000000004,1.734975,1.0,2707.266096473163,0.4365976735283018,1.3045817262472803,0.9748837423059104,0.28592195,0.7041772067481722
0.051500000000000004,1.73369375,1.0,2705.2097540544314,0.4397579077267749,1.3040218687519562,0.9751969198755774,0.2858681375,0.7052637223232407
0.052000000000000005,1.7324,1.0,2703.123472522456,0.44290039530437236,1.3034566466901767,0.9755015696455891,0.2858138,0.7063586211082694
0.0525,1.73109375,1.0,2701.014635166259,0.44602527228149763,1.3028859929225445,0.9757979892303894,0.28575893750000003,0.7074619747810087
0.053,1.729775,1.0,2698.885014279839,0.4491326330325852,1.302309891498497,0.9760864618773859,0.28570355000000003,0.7085737547900733
0.0535,1.72844375,1.0,2696.736379678055,0.4522225719320696,1.3017283264674713,0.9763672584538489,0.2856476375,0.709693931782969
0.054,1.7271,1.0,2694.5704986295964,0.4552951833543851,1.3011412818789043,0.9766406380908795,0.2855912,0.710822475600543
0.0545,1.7257437500000001,1.0,2692.3891357954026,0.4583505616739663,1.3005487417822332,0.9769068487886136,0.2855342375,0.7119593552714174
0.055,1.724375,1.0,2690.1940531729188,0.4613888012652476,1.2999506902268954,0.9771661279852975,0.28547675,0.7131045390064066
0.0555,1.72299375,1.0,2687.987010046318,0.4644099965026635,1.2993471112623274,0.9774187030926791,0.2854187375,0.7142579941929204
0.056,1.7216,1.0,2685.769762941613,0.46741424176064833,1.2987379889379667,0.9776647919999671,0.2853602,0.7154196873893472
0.0565,1.72019375,1.0,2683.544065588061,0.47040163141363667,1.29812330730325,0.9779046035484472,0.28530113749999997,0.7165895843194258
0.057,1.718775,1.0,2681.311668885183,0.47337225983606285,1.2975030504076148,0.9781383379786907,0.28524155,0.717767649866595
0.0575,1.71734375,1.0,2679.0743208745967,0.4763262214023614,1.2968772023004982,0.9783661873521459,0.2851814375,0.7189538480683325
0.058,1.7159,1.0,2676.8337667187407,0.47926361048696675,1.296245747031337,0.9785883359487728,0.2851208,0.7201481421104752
0.0585,1.71444375,1.0,2674.5917486843878,0.4821845214643134,1.2956086686495687,0.9788049606422651,0.2850596375,0.7213504943215227
0.059000000000000004,1.7129750000000001,1.0,2672.350006132057,0.4850890487088357,1.2949659512046299,0.9790162312542879,0.28499795,0.7225608661669258
0.059500000000000004,1.71149375,1.0,2670.1102755108755,0.4879772865949682,1.294317578745958,0.9792223108890619,0.2849357375,0.7237792182433572
0.06,1.71,1.0,2667.8715268316487,0.49084929859582693,1.2936635607308828,0.9794233551010937,0.284873,0.7250054626876884
0.0605,1.7084937500000001,1.0,2665.6358501135937,0.49370519374188354,1.2930038779351916,0.9796195155727998,0.2848097375,0.7262395647797811
0.061,1.7069750000000001,1.0,2663.4063639222472,0.4965450901630493,1.292338501638045,0.9798109383140671,0.28474595,0.7274815065689499
0.0615,1.7054437500000001,1.0,2661.183434925589,0.4993690728310958,1.2916674284033505,0.9799977624375478,0.2846816375,0.7287312219661238
0.062,1.7039,1.0,2658.9674291854712,0.5021772267177943,1.290990654795015,0.9801801217792264,0.2846168,0.7299886442027055
0.0625,1.70234375,1.0,2656.7587121610463,0.5049696367949166,1.2903081773769463,0.9803581451365249,0.2845514375,0.7312537058293225
0.063,1.7007750000000001,1.0,2654.557648713818,0.507746388034234,1.2896199927130516,0.9805319564939284,0.28448555,0.7325263387145788
0.0635,1.69919375,1.0,2652.364603111847,0.5105075654075182,1.288926097367238,0.9807016752368836,0.28441913750000003,0.7338064740438051
0.064,1.6976,1.0,2650.1799390345213,0.5132532538865404,1.288226487903413,0.9808674163546528,0.2843522,0.7350940423178051
0.0645,1.69599375,1.0,2648.004019578062,0.5159835384430725,1.2875211608854837,0.9810292906327762,0.2842847375,0.7363889733516065
0.065,1.694375,1.0,2645.8372072605202,0.5186985040488857,1.286810112877358,0.9811874048357411,0.28421675,0.7376911962732053
0.0655,1.69274375,1.0,2643.6798640276193,0.5213982356757517,1.2860933404429424,0.9813418618804269,0.2841482375,0.7390006395223172
0.066,1.6911,1.0,2641.5323512586597,0.5240828182954419,1.2853708401461448,0.9814927610008543,0.2840792,0.7403172308491183
0.0665,1.6894437500000001,1.0,2639.3950297726906,0.5267523368797279,1.2846426085508722,0.9816401979047293,0.2840096375,0.7416408973129941
0.067,1.687775,1.0,2637.268259834779,0.5294068764003811,1.283908642221032,0.9817842649222518,0.28393955,0.742971565281282
0.0675,1.68609375,1.0,2635.1524011629936,0.5320465218291731,1.2831689377205315,0.9819250511476162,0.2838689375,0.7443091604280158
0.068,1.6844000000000001,1.0,2633.047812935101,0.5346713581378754,1.2824234916132782,0.9820626425736173,0.2837978,0.7456536077326676
0.0685,1.68269375,1.0,2630.9548537958794,0.5372814702982595,1.2816723004631791,0.9821971222197378,0.2837261375,0.747004831478892
0.069,1.680975,1.0,2628.87388186463,0.5398769432820968,1.2809153608341417,0.9823285702540776,0.28365395,0.7483627552532652
0.0695,1.67924375,1.0,2626.8052547428515,0.542457862061159,1.2801526692900733,0.9824570641094647,0.28358123749999997,0.7497273019440269
0.07,1.6775,1.0,2624.749581095489,0.5450243100408302,1.2793842200629928,0.9825826783876231,0.283508,0.7510983978947487
0.07050000000000001,1.67574375,1.0,2622.7051728218153,0.5475763639682696,1.278610028674167,0.9827054857504809,0.2834342375,0.7524759308742979
0.07100000000000001,1.673975,1.0,2620.671451998105,0.5501141033049004,1.277830100371227,0.9828255561360568,0.28335995,0.7538598065297002
0.07150000000000001,1.67219375,1.0,2618.6488717553007,0.5526376077228653,1.2770444308422846,0.9829429567407562,0.2832851375,0.7552499468726869
0.07200000000000001,1.6704,1.0,2616.637884566249,0.555146956894307,1.2762530157754528,0.9830577525440134,0.2832098,0.756646273198238
0.0725,1.66859375,1.0,2614.6389422552534,0.5576422304913682,1.2754558508588436,0.9831700063945924,0.2831339375,0.7580487060830055
0.073,1.6667750000000001,1.0,2612.65740549218,0.5601235048811423,1.2746528861682418,0.9832797768555115,0.28305755,0.7594572452788738
0.0735,1.66494375,1.0,2610.6857894350833,0.5625908640184641,1.2738441910929763,0.9833871263309859,0.2829806375,0.7608716804994691
0.074,1.6631,1.0,2608.723597799898,0.565044384971705,1.2730297701507631,0.9834921119753618,0.2829032,0.7622919152149918
0.0745,1.6612437500000001,1.0,2606.7713787420375,0.5674841440331788,1.2722096181520615,0.9835947886471923,0.2828252375,0.7637178692139952
0.075,1.659375,1.0,2604.829679628756,0.5699102174952,1.27138372990733,0.9836952094607591,0.28274675,0.7651494615484227
