Time [s],Phi [rad],STIM [ ],Fsee [N],Gamma [ ],Lcerel [ ],q [ ],Lmtc [m],fisomrel [ ]
0.0,1.8,1.0,17.969429057039093,5.1920174130697306e-05,1.379339491812195,0.005000709174208403,0.288653,0.541140146529546
0.0005,1.79999375,1.0,18.292749843654548,0.005660838251821549,1.3793006102571361,0.013057302614521853,0.2886527375,0.5412342061816459
0.001,1.799975,1.0,21.665560793890613,0.011238294733812654,1.378933486075309,0.03582735257302827,0.28865195,0.5421218530957065
0.0015,1.79994375,1.0,31.18280933834584,0.01678446609567939,1.378036536497464,0.0709009706167767,0.2886506375,0.5442869166868671
0.002,1.7999,1.0,53.82838657652138,0.022299527821278906,1.3763521908318588,0.11507213506996412,0.2886488,0.5483387386991715
0.0025,1.79984375,1.0,97.53327218664246,0.027783654410606158,1.3739152227164713,0.1649600480453584,0.28864643749999996,0.5541690249390678
0.003,1.7997750000000001,1.0,161.49790240540725,0.033237019387120086,1.3711941578476912,0.21767775945219225,0.28864354999999997,0.5606342384558143
0.0035,1.79969375,1.0,238.29350174709526,0.03865979529764562,1.3685659514236548,0.2710080288508391,0.2886401375,0.5668339905968627
0.004,1.7996,1.0,322.11613921711273,0.044052153723071974,1.3661389017982923,0.3232983896465603,0.2886362,0.572520103922004
0.0045000000000000005,1.7994937500000001,1.0,409.9403366545668,0.04941426528356145,1.3639070324938456,0.37339767346363695,0.2886317375,0.5777157898645511
0.005,1.799375,1.0,500.09988978442465,0.054746299629845556,1.3618437617175787,0.4205872226870594,0.28862675,0.5824907273790565
0.0055,1.79924375,1.0,591.4829676779989,0.06004842548842562,1.3599253082429321,0.4644882608597842,0.2886212375,0.586906162264765
0.006,1.7991000000000001,1.0,683.2116106833249,0.06532081061022817,1.3581338119211075,0.5049690394193892,0.2886152,0.5910082039504363
0.006500000000000001,1.79894375,1.0,774.5732496533096,0.0705636218222484,1.3564554435028688,0.5420650452103394,0.2886086375,0.5948326428481285
0.007,1.798775,1.0,864.9718582532455,0.07577702500847577,1.3548793153364538,0.5759176028584249,0.28860155,0.5984077536553885
0.0075,1.79859375,1.0,953.9151366002945,0.08096118505035305,1.353396446169414,0.606728968695444,0.2885939375,0.6017568617182033
0.008,1.7984,1.0,1041.0232141269564,0.08611626625659066,1.3519988606626925,0.6347310353148418,0.2885858,0.6049005168755306
0.0085,1.79819375,1.0,1125.9652037833675,0.09124243135533172,1.3506800274003068,0.6601651745503962,0.2885771375,0.6078556070871176
0.009000000000000001,1.797975,1.0,1208.5053213162314,0.09633984257258787,1.349433767557124,0.6832686563768445,0.28856795,0.6106378893202611
0.0095,1.79774375,1.0,1288.4852591031286,0.10140866178167991,1.348254277024437,0.7042670130234102,0.2885582375,0.6132619851217689
0.01,1.7975,1.0,1365.7543468188373,0.10644904874463618,1.3471368377297597,0.7233702913858081,0.288548,0.6157398465911432
0.0105,1.79724375,1.0,1440.2240110459431,0.111461162928154,1.3460768817808437,0.7407707301812249,0.2885372375,0.6180828823241324
0.011,1.796975,1.0,1511.8576846196177,0.11644516304441227,1.3450700132194244,0.756642467111026,0.28852595000000003,0.6203019323238083
0.0115,1.79669375,1.0,1580.6459019946333,0.12140120738739464,1.3441122129646574,0.771142216292433,0.2885141375,0.6224068395681321
0.012,1.7964,1.0,1646.5714992939954,0.12632945196040724,1.3432001434297054,0.7844104571490335,0.28850180000000003,0.6244058085134874
0.0125,1.79609375,1.0,1709.6587243555623,0.13123005276675617,1.3423304670277314,0.7965724336992566,0.2884889375,0.626306923930406
0.013000000000000001,1.7957750000000001,1.0,1769.9501441318343,0.13610316466485672,1.341500065314903,0.8077396695168334,0.28847555,0.628117683003562
0.0135,1.79544375,1.0,1827.5251293187944,0.14094894338712552,1.3407057781333536,0.81801126843799,0.2884616375,0.6298455763601596
0.014,1.7951000000000001,1.0,1882.4215989287204,0.14576754101533138,1.3399452303881174,0.8274755619885478,0.2884472,0.6314963020930159
0.0145,1.79474375,1.0,1934.6995737303325,0.15055910955412122,1.3392160620231066,0.8362110293941178,0.2884322375,0.6330754568416324
0.015,1.794375,1.0,1984.4404865884235,0.15532380100814197,1.3385159129822337,0.8442874286910487,0.28841675,0.6345885735261632
0.0155,1.79399375,1.0,2031.7251345731645,0.16006176588695797,1.337842635733925,0.8517668859315812,0.2884007375,0.6360406679858241
0.016,1.7936,1.0,2076.6569849702437,0.16477315585169489,1.3371940225798737,0.858704709294142,0.2883842,0.6374368339808789
0.0165,1.7931937500000001,1.0,2119.300634281715,0.16945811862692728,1.3365684280796892,0.8651503813138633,0.2883671375,0.638780909502446
0.017,1.792775,1.0,2159.7317615868155,0.17411680185707504,1.3359642175157216,0.8711480816376544,0.28834955,0.6400766726691611
0.0175,1.7923437500000001,1.0,2198.0371251308084,0.17874935318655805,1.33537975617032,0.8767373107411065,0.2883314375,0.6413278671911247
0.018000000000000002,1.7919,1.0,2234.3004009657693,0.18335591890442973,1.3348135420538851,0.8819534748446222,0.2883128,0.6425379211011839
0.0185,1.79144375,1.0,2268.620369924099,0.18793664683460104,1.3342640106543837,0.8868283138137619,0.2882936375,0.6437103672871367
0.019,1.790975,1.0,2301.0701664457133,0.19249168110482875,1.333729932945198,0.8913904221986542,0.28827395,0.6448479969910513
0.0195,1.79049375,1.0,2331.7199681536663,0.19702116476118803,1.3332101738187074,0.8956655490449421,0.2882537375,0.6459533803051876
0.02,1.79,1.0,2360.6457513690366,0.201525240849754,1.3327035981672914,0.8996768986002459,0.288233,0.6470290681330915
0.0205,1.78949375,1.0,2387.9288029655268,0.20600405241660194,1.3322090708833294,0.9034454160768676,0.2882117375,0.6480775931850606
0.021,1.788975,1.0,2413.639116362032,0.21045774029880837,1.3317256129125918,0.906990071155352,0.28818995000000003,0.649101140745425
0.021500000000000002,1.78844375,1.0,2437.8662188617122,0.21488644860696157,1.3312520967251693,0.9103280119602236,0.2881676375,0.650102195201464
0.022,1.7879,1.0,2460.6698731579017,0.21929031614844774,1.3307877183403263,0.9134748553248754,0.2881448,0.6510825427142888
0.0225,1.78734375,1.0,2482.1083218062367,0.22366948101740142,1.3303317175097895,0.9164447946320731,0.28812143749999997,0.6520438660938541
0.023,1.786775,1.0,2502.24254460712,0.22802408130795704,1.3298833339852854,0.9192507416145762,0.28809755,0.6529878378786756
0.0235,1.78619375,1.0,2521.136028648293,0.23235425511424915,1.3294418075185408,0.9219044598240731,0.28807313749999996,0.6539161207235865
0.024,1.7856,1.0,2538.8486712862787,0.23666013937224734,1.3290064332774978,0.9244166921086963,0.2880482,0.6548302514732762
0.0245,1.78499375,1.0,2555.4415863163204,0.24094187125540434,1.3285765138758596,0.9267972559598859,0.2880227375,0.6557317427588872
0.025,1.784375,1.0,2570.980293432771,0.24519958837890166,1.3281513277139692,0.9290551306033404,0.28799675,0.6566221496159415
0.025500000000000002,1.78374375,1.0,2585.508298593991,0.24943342354414633,1.327730374507699,0.9311985785585344,0.2879702375,0.6575025562023068
0.026000000000000002,1.7831000000000001,1.0,2599.070382099471,0.2536435095525454,1.3273131539729217,0.9332351802846004,0.2879432,0.6583740409320742
0.0265,1.78244375,1.0,2611.712491795522,0.25782997920550577,1.3268991658255103,0.9351718996901041,0.2879156375,0.6592376766026324
0.027,1.781775,1.0,2623.4816418306987,0.2619929653044345,1.3264879097813373,0.937015142552351,0.28788755,0.6600945305057824
0.0275,1.7810937500000001,1.0,2634.4252022871406,0.26613260032852265,1.3260788912433454,0.9387708094125651,0.2878589375,0.6609456526961432
0.028,1.7804,1.0,2644.5848502277504,0.27024901350807073,1.3256716762727971,0.9404443490637014,0.2878298,0.6617919619695996
0.0285,1.77969375,1.0,2654.010186024406,0.2743423403378436,1.3252657647631703,0.9420407850114861,0.2878001375,0.6626345097992028
0.029,1.778975,1.0,2662.733824568788,0.2784127080733727,1.3248608195748166,0.9435647803635846,0.28776995,0.6634740047996762
0.029500000000000002,1.7782437500000001,1.0,2670.788921873301,0.28246024397018954,1.3244565035680878,0.9450206500470227,0.2877392375,0.6643111520802661
0.03,1.7775,1.0,2678.209126910781,0.28648507528382544,1.3240524796033357,0.9464123912632824,0.287708,0.6651466532618933
0.0305,1.77674375,1.0,2685.028535974909,0.2904873292698119,1.3236484105409123,0.9477437109176692,0.2876762375,0.665981206487057
0.031,1.775975,1.0,2691.2816495600237,0.29446713318368045,1.323243959241169,0.949018050356436,0.28764395,0.6668155064224918
0.0315,1.7751937500000001,1.0,2696.993126080545,0.29842461123084013,1.3228388818875296,0.9502386183974376,0.2876111375,0.6676500521097248
0.032,1.7744,1.0,2702.1881917353626,0.3023598874932073,1.322432932090187,0.9514083995916007,0.2875778,0.6684853453562654
0.0325,1.77359375,1.0,2706.9304618448286,0.30627309703895583,1.3220255154425922,0.9525301346210979,0.2875439375,0.669322600140092
0.033,1.772775,1.0,2711.2353053198535,0.31016436041809453,1.321616480801102,0.9536064261178411,0.28750955,0.670162115041819
0.0335,1.7719437500000002,1.0,2715.1182543425316,0.31403379818063226,1.3212056770220737,0.9546397019861854,0.2874746375,0.6710041870178294
0.034,1.7711000000000001,1.0,2718.594991123886,0.31788153087657794,1.320792952961865,0.9556322292139059,0.2874392,0.67184911138395
0.0345,1.7702437500000001,1.0,2721.681335168369,0.3217076790559404,1.3203781574768327,0.9565861264364628,0.2874032375,0.6726971817976715
0.035,1.7693750000000001,1.0,2724.393231044637,0.32551236326872846,1.3199611394233344,0.9575033753801824,0.28736675,0.6735486902389081
0.035500000000000004,1.76849375,1.0,2726.7467366629376,0.3292957040649511,1.3195417476577274,0.9583858312961014,0.2873297375,0.6744039269893026
0.036000000000000004,1.7676009397793373,1.0,2728.8046983340823,0.33305782199461714,1.3191198310363688,0.9592352324839857,0.2872922394707322,0.6752631806100748
0.0365,1.7667057868901703,1.0,2731.041491079869,0.3367988376077354,1.318695238415616,0.9600532089952553,0.28725464304938714,0.6761267379184108
0.037,1.7658106340010036,1.0,2733.5892228629014,0.34051886931823394,1.3182678298346593,0.9608412912386679,0.28721704662804215,0.6769948612638277
0.0375,1.7649154811118366,1.0,2736.392176065922,0.34421803567731246,1.317838115040418,0.9616009802035835,0.2871794502066971,0.6778664943480679
0.038,1.7640203282226699,1.0,2739.4107200129542,0.34789645531056773,1.317406457149644,0.9623336718718544,0.2871418537853521,0.6787408831623445
0.0385,1.7631251753335029,1.0,2742.627836507038,0.35155424267667557,1.31697301369104,0.9630406585665234,0.28710425736400713,0.6796176932130732
0.039,1.7622300224443361,1.0,2746.026489092806,0.3551915122343116,1.3165379421933083,0.9637231565476413,0.2870666609426621,0.6804965916837558
0.0395,1.7613348695551692,1.0,2749.5896170950564,0.35880837844215174,1.3161014001851512,0.9643823113146092,0.2870290645213171,0.6813772474521266
0.04,1.7604397166660024,1.0,2753.300130207445,0.36240495575887166,1.315663545195271,0.9650192024847356,0.2869914680999721,0.6822593311057179
0.0405,1.7595445637768357,1.0,2757.140903631906,0.3659813586431471,1.3152245347523701,0.9656348482859889,0.28695387167862707,0.6831425149558412
0.041,1.7586494108876687,1.0,2761.098228499419,0.36953769864518554,1.3147844951631396,0.9662302064813939,0.2869162752572821,0.6840265357298705
0.0415,1.757754257998502,1.0,2765.1592734994247,0.3730740883794381,1.3143435445164184,0.9668061811159926,0.2868786788359371,0.6849111480256839
0.042,1.756859105109335,1.0,2769.304160026997,0.37659064753523275,1.3139018642039006,0.9673636330615737,0.28684108241459205,0.6857959810246044
0.0425,1.7559639522201682,1.0,2773.525804631518,0.3800874845812804,1.3134595197359,0.9679033649197437,0.28680348599324706,0.6866808975986572
0.043000000000000003,1.7550687993310012,1.0,2777.817104873925,0.3835647079862921,1.31301657662273,0.968426136224106,0.2867658895719021,0.687565761350085
0.043500000000000004,1.7541736464418345,1.0,2782.170938409294,0.38702242621897875,1.312573100374704,0.9689326661875831,0.28672829315055703,0.6884504366139833
0.044,1.7532784935526675,1.0,2786.580162165304,0.39046074774805134,1.3121291565021362,0.9694236362480858,0.28669069672921205,0.6893347884606662
0.0445,1.7523833406635008,1.0,2791.037611615122,0.3938797810422209,1.3116848105153398,0.9698996924291884,0.28665310030786706,0.6902186826977574
0.045,1.751488187774334,1.0,2795.5361001459364,0.3972796345701983,1.3112401279246284,0.9703614475309441,0.286615503886522,0.6911019858720056
0.0455,1.750593034885167,1.0,2800.068418522513,0.4006604168006947,1.3107951742403159,0.9708094831646091,0.28657790746517703,0.6919845652708281
0.046,1.7496978819960003,1.0,2804.627334445731,0.4040222362024209,1.3103500149727154,0.9712443516438026,0.28654031104383204,0.692866288923582
0.0465,1.7488027291068333,1.0,2809.211871773663,0.40736518834900304,1.3099046593688557,0.9716665718810987,0.286502714622487,0.6937471368031681
0.047,1.7479075762176666,1.0,2813.811531420194,0.41068939481717504,1.3094592019011773,0.9720766468558891,0.286465118201142,0.6946269207866276
0.0475,1.7470124233284996,1.0,2818.42172551191,0.413994962672446,1.3090136838582407,0.9724750492263171,0.28642752177979697,0.6955055586363498
0.048,1.7461172704393328,1.0,2823.040303919348,0.41728199331005406,1.3085681246059582,0.9728622265420204,0.286389925358452,0.6963830117256438
0.0485,1.7452221175501659,1.0,2827.665109435797,0.42055058812523743,1.3081225435102415,0.9732386049624259,0.28635232893710694,0.6972592416478933
0.049,1.7443269646609991,1.0,2832.29397776437,0.4238008485132343,1.3076769599370028,0.9736045904767775,0.28631473251576195,0.6981342102165943
0.0495,1.7434318117718324,1.0,2836.9247375121095,0.42703287586928285,1.3072313932521542,0.9739605700438103,0.28627713609441696,0.6990078794653705
0.05,1.7425366588826654,1.0,2841.55521019355,0.4302467715886213,1.3067858628216078,0.974306912657056,0.2862395396730719,0.6998802116479644
0.0505,1.7416415059934987,1.0,2846.1832102420613,0.43344263706648783,1.3063403880112756,0.9746439703412553,0.28620194325172693,0.7007511692382051
0.051000000000000004,1.7407463531043317,1.0,2850.806545029406,0.43662057369812063,1.3058949881870698,0.9749720790849138,0.28616434683038194,0.7016207149299503
0.051500000000000004,1.739851200215165,1.0,2855.423014893911,0.4397806828787579,1.305449682714902,0.9752915597136275,0.2861267504090369,0.7024888116370079
0.052000000000000005,1.738956047325998,1.0,2860.030413176821,0.44292306600363784,1.3050044909606848,0.9756027187084281,0.2860891539876919,0.7033554224930278
0.0525,1.7380608944368312,1.0,2864.626526266938,0.44604782446799857,1.30455943229033,0.9759058489730621,0.2860515575663469,0.7042205108513773
0.053,1.7371657415476642,1.0,2869.212280114583,0.4491550373133721,1.3041144981746104,0.9762012265176033,0.2860139611450019,0.7050840943877706
0.0535,1.7362705886584975,1.0,2873.78406457394,0.4522448285814568,1.3036697202955156,0.9764891224409541,0.2859763647236569,0.705946112804985
0.054,1.7353754357693307,1.0,2878.340563382325,0.45531730017873157,1.3032251099312486,0.9767697926456591,0.2859387683023119,0.7068065456223922
0.0545,1.7344802828801638,1.0,2882.8814806456235,0.45837254549109335,1.3027806693012325,0.9770434807262255,0.28590117188096686,0.7076653899792655
0.055,1.733585129990997,1.0,2887.4065198690946,0.4614106579044393,1.302336400624891,0.9773104199866094,0.2858635754596219,0.7085226430394944
0.0555,1.73268997710183,1.0,2891.91538396527,0.4644317308046665,1.3018923061216476,0.9775708339608595,0.2858259790382769,0.7093783019915606
0.056,1.7317948242126633,1.0,2896.4077752628064,0.467435857577672,1.301448388010926,0.977824936903259,0.28578838261693185,0.7102323640485148
0.0565,1.7308996713234963,1.0,2900.883395515145,0.4704231316093528,1.3010046485121498,0.9780729342499855,0.28575078619558686,0.7110848264479501
0.057,1.7300045184343296,1.0,2905.3419459091106,0.473393646285606,1.3005610898447422,0.978315023054167,0.28571318977424187,0.7119356864519797
0.0575,1.7291093655451626,1.0,2909.7831270736224,0.4763474949923287,1.300117714228127,0.9785513923960691,0.28567559335289683,0.7127849413472075
0.058,1.7282142126559958,1.0,2914.2066390891173,0.47928477111541795,1.2996745238817278,0.9787822237700248,0.28563799693155184,0.7136325884447059
0.0585,1.7273190597668289,1.0,2918.612181496004,0.4822055680407708,1.2992315210249679,0.979007691449601,0.2856004005102068,0.7144786250799879
0.059000000000000004,1.7264239068776621,1.0,2922.9994533044123,0.48510997915428433,1.298788707877271,0.97922796283239,0.2855628040888618,0.7153230486129808
0.059500000000000004,1.7255287539884954,1.0,2927.3681530029617,0.48799809784185566,1.298346086658061,0.9794431987657133,0.2855252076675168,0.716165856428
0.06,1.7246336010993284,1.0,2931.7179785684925,0.4908700174893817,1.2979036595867608,0.9796535538544389,0.2854876112461718,0.7170070459337223
0.0605,1.7237384482101616,1.0,2936.048644961109,0.49372583028552997,1.2974614287295498,0.9798591766485744,0.2854500148248268,0.7178466148538742
0.061,1.7228432953209947,1.0,2940.361130864638,0.49656556355585507,1.2970193850815015,0.9800602043622454,0.28541241840348175,0.7186845819062715
0.0615,1.721948142431828,1.0,2944.654422238365,0.499389395586497,1.2965775371050363,0.9802567816938186,0.28537482198213676,0.7195209326680829
0.062,1.721052989542661,1.0,2948.9286868084782,0.5021974101487588,1.2961358829056249,0.9804490400320053,0.2853372255607918,0.7203556723715117
0.0625,1.7201578366534942,1.0,2953.18409318098,0.5049896910139441,1.2956944205887375,0.9806371058848323,0.28529962913944673,0.7211888062266927
0.063,1.7192626837643274,1.0,2957.420810833518,0.5077663219533559,1.2952531482598448,0.9808211010975418,0.28526203271810174,0.7220203394217158
0.0635,1.7183675308751605,1.0,2961.6390101070565,0.5105273867382977,1.2948120640244172,0.9810011430592025,0.28522443629675676,0.7228502771226497
0.064,1.7174723779859937,1.0,2965.838862198211,0.5132729691400726,1.294371165987925,0.9811773448986917,0.2851868398754117,0.7236786244735637
0.0645,1.7165772250968268,1.0,2970.020539151419,0.5160031529299841,1.2939304522558388,0.9813498156706731,0.2851492434540667,0.7245053865965501
0.065,1.71568207220766,1.0,2974.184213850991,0.5187180218793354,1.293489920933629,0.9815186605321481,0.28511164703272174,0.7253305685917482
0.0655,1.714786919318493,1.0,2978.3300600133357,0.5214176597594297,1.293049570126766,0.9816839809101218,0.2850740506113767,0.7261541755373652
0.066,1.7138917664293263,1.0,2982.4582521798225,0.5241021503415704,1.29260939794072,0.9818458746608955,0.2850364541900317,0.7269762124896981
0.0665,1.7129966135401593,1.0,2986.5689657084804,0.5267715773970607,1.292169402480962,0.9820044362214576,0.2849988577686867,0.7277966844831557
0.067,1.7121014606509926,1.0,2990.6623767671886,0.529426024697204,1.2917295818529622,0.9821597567534196,0.2849612613473417,0.7286155965302801
0.0675,1.7112063077618256,1.0,2994.738662326051,0.5320655760133036,1.2912899341621908,0.9823119242799122,0.2849236649259967,0.7294329536217683
0.068,1.7103111548726588,1.0,2998.7980001500955,0.5346903151166628,1.2908504575141186,0.9824610238158367,0.2848860685046517,0.7302487607264919
0.0685,1.709416001983492,1.0,3002.8405687918407,0.5373003257785848,1.290411150014216,0.9826071374918347,0.28484847208330666,0.7310630227915198
0.069,1.7085208490943251,1.0,3006.8665475846674,0.5398956917703729,1.2899720097679532,0.9827503446723215,0.28481087566196167,0.7318757447421367
0.0695,1.7076256962051584,1.0,3010.8761166352383,0.5424764968633304,1.2895330348808007,0.9828907220679081,0.28477327924061663,0.7326869314818656
0.07,1.7067305433159914,1.0,3014.869456816786,0.5450428248287607,1.2890942234582292,0.9830283438425109,0.28473568281927164,0.7334965878924855
0.07050000000000001,1.7058353904268246,1.0,3018.8467497621414,0.547594759437967,1.2886555736057088,0.9831632817154399,0.2846980863979266,0.7343047188340537
0.07100000000000001,1.7049402375376577,1.0,3022.8081778569363,0.5501323844622527,1.28821708342871,0.9832956050587285,0.2846604899765816,0.7351113291449234
0.07150000000000001,1.704045084648491,1.0,3026.7538028677764,0.5526557643637283,1.287778752080296,0.9834253799017035,0.2846228935552366,0.7359164217190931
