Time [s],Phi [rad],STIM [ ],Fsee [N],Gamma [ ],Lcerel [ ],q [ ],Lmtc [m],fisomrel [ ]
0.0,1.8,1.0,17.967142704135384,1.4809946026279036e-05,1.3793397479521445,0.0050000582756552815,0.288653,0.5411395268609804
0.0005,1.79999375,1.0,18.278097044433125,0.00562393618273746,1.3793022375116113,0.012953873375600902,0.2886527375,0.5412302698299911
0.001,1.799975,1.0,21.62330237684045,0.01120159965615885,1.3789377995530585,0.03563364703245019,0.28865195,0.5421114287942795
0.0015,1.79994375,1.0,31.08167537838804,0.01674797684838203,1.3780451440430728,0.07063602235593668,0.2886506375,0.5442661641117741
0.002,1.7999,1.0,53.60975358807387,0.022263243249838596,1.3763663565648292,0.11475847928748956,0.2886488,0.5483047373919512
0.0025,1.79984375,1.0,97.16529585695172,0.02774757336689904,1.3739329336345567,0.16461889043028913,0.28864643749999996,0.5541267893605045
0.003,1.7997750000000001,1.0,161.0188404358616,0.0332011407295445,1.3712120728991002,0.21732584447218659,0.28864354999999997,0.5605918269577588
0.0035,1.79969375,1.0,237.7520794190438,0.038624117890993286,1.3685826167698154,0.27065803483628315,0.2886401375,0.5667948170124854
0.004,1.7996,1.0,321.54005068621245,0.044016676438474255,1.3661541516167437,0.32295951618736124,0.2886362,0.5724844937940774
0.0045000000000000005,1.7994937500000001,1.0,409.343750254458,0.049378986998413775,1.363921030252259,0.3730760047786862,0.2886317375,0.5776833027427754
0.005,1.799375,1.0,499.4911290270385,0.05471121922753557,1.3618566928890916,0.4202862853114525,0.28862675,0.582460885878092
0.0055,1.79924375,1.0,590.8688117888089,0.060013541860135466,1.359937303447436,0.4642096444258644,0.2886212375,0.5868786275095292
0.006,1.7991000000000001,1.0,682.5966646623891,0.0652861226517267,1.358144986843423,0.5047129970606847,0.2886152,0.5909826798435089
0.006500000000000001,1.79894375,1.0,773.9618546041303,0.07052912843510743,1.356465877813811,0.5418309395640586,0.2886086375,0.5948089220485624
0.007,1.798775,1.0,864.3663185209878,0.075742725098464,1.3548890945755054,0.5757042759957692,0.28860155,0.5983856203806694
0.0075,1.79859375,1.0,953.321627211286,0.08092707761265237,1.3534055731614172,0.6065349309960723,0.2885939375,0.6017362910027111
0.008,1.7984,1.0,1040.433671145832,0.08608234999614506,1.3520075389523925,0.6345548030560904,0.2885858,0.6048810348235967
0.0085,1.79819375,1.0,1125.3946674024908,0.09120870539101285,1.3506881027857727,0.6600050423724593,0.2885771375,0.6078375464429698
0.009000000000000001,1.797975,1.0,1207.9592318684192,0.0963063059592846,1.349441228194796,0.6831230673678123,0.28856795,0.6106212628753587
0.0095,1.79774375,1.0,1287.9481430289945,0.10137531309632744,1.3482613836112778,0.7041346538951607,0.2885582375,0.6132462011644082
0.01,1.7975,1.0,1365.22240132962,0.10641588669445139,1.3471436738628177,0.7232498576017251,0.288548,0.6157247120440869
0.0105,1.79724375,1.0,1439.7139489519232,0.1114281868024724,1.3460832649133654,0.740660903475398,0.2885372375,0.6180687938357952
0.011,1.796975,1.0,1511.3849872764451,0.1164123727495442,1.3450757868505574,0.7565420749049495,0.28852595000000003,0.6202892261781527
0.0115,1.79669375,1.0,1580.1868817356794,0.12136860105831536,1.3441176961568675,0.7710504220778751,0.2885141375,0.6223948060959498
0.012,1.7964,1.0,1646.11815217467,0.12629702825143438,1.343205449314769,0.784326423515255,0.28850180000000003,0.6243941950275752
0.0125,1.79609375,1.0,1709.2180425437832,0.13119781071275965,1.3423355286039342,0.7964953392422437,0.2884889375,0.6262958732635999
0.013000000000000001,1.7957750000000001,1.0,1769.5387825655162,0.1360711039328736,1.3415047089256817,0.8076687423298538,0.28847555,0.6281075694565861
0.0135,1.79544375,1.0,1827.12978556241,0.14091706232207252,1.3407101700498383,0.8179459524789957,0.2884616375,0.629836033241742
0.014,1.7951000000000001,1.0,1882.0369049788558,0.14573583839918,1.3399494412061634,0.8274153282987167,0.2884472,0.6314871729069427
0.0145,1.79474375,1.0,1934.3300620682867,0.15052758468301958,1.3392200516244166,0.8361553691132155,0.2884322375,0.6330668258160974
0.015,1.794375,1.0,1984.0794736766766,0.1552924524738757,1.3385197616535818,0.8442359295267301,0.28841675,0.6345802645727111
0.0155,1.79399375,1.0,2031.3956192465423,0.16003059444800694,1.337846107481422,0.851719079826183,0.2884007375,0.636033187690215
0.016,1.7936,1.0,2076.343350441868,0.1647421593366037,1.3371972910555832,0.8586603050938995,0.2883842,0.637429805181047
0.0165,1.7931937500000001,1.0,2118.994905761063,0.1694272954825138,1.336571581941878,0.8651090941339196,0.2883671375,0.6387741397612938
0.017,1.792775,1.0,2159.4350366268745,0.17408615122858503,1.3359672497061188,0.8711096296568096,0.28834955,0.6400701757809516
0.0175,1.7923437500000001,1.0,2197.7518914028237,0.17871887407567233,1.3353826454184077,0.8767014375601855,0.2883314375,0.6413216873474191
0.018000000000000002,1.7919,1.0,2234.03905915209,0.18332561192770475,1.3348161677121269,0.8819199254223848,0.2883128,0.6425323145362403
0.0185,1.79144375,1.0,2268.374451424137,0.18790651028137056,1.3342664625921072,0.8867969121257593,0.2882936375,0.6437051402619878
0.019,1.790975,1.0,2300.8294839720443,0.19246171302370885,1.3337323156940575,0.8913610135026712,0.28827395,0.6448429255787053
0.0195,1.79049375,1.0,2331.482153109594,0.19699136404175854,1.333212512653687,0.8956379753634349,0.2882537375,0.6459484101116599
0.02,1.79,1.0,2360.4161706101,0.20149560717798262,1.332705842142295,0.8996510000752229,0.288233,0.647024306774191
0.0205,1.78949375,1.0,2387.701568354605,0.2059745839101556,1.3322112792007799,0.9034210721582843,0.2882117375,0.6480729144508339
0.021,1.788975,1.0,2413.4350877267193,0.21042843946670786,1.3317275851151291,0.9069671187729934,0.28818995000000003,0.6490969683472092
0.021500000000000002,1.78844375,1.0,2437.674724260769,0.21485731288892848,1.331253938546532,0.9103063650403109,0.2881676375,0.6500983042009258
0.022,1.7879,1.0,2460.4818726272233,0.21926134321810647,1.3307895181561789,0.9134544323770378,0.2881448,0.6510787457844485
0.0225,1.78734375,1.0,2481.9210483425095,0.22364066949553096,1.3303335026052592,0.9164255099685351,0.28812143749999997,0.6520401054098892
0.023,1.786775,1.0,2502.0596244355684,0.227995430762491,1.3298850705549625,0.9192325059142084,0.28809755,0.6529841843907762
0.0235,1.78619375,1.0,2520.960377500078,0.23232576426110765,1.329443468817513,0.9218871924292447,0.28807313749999996,0.6539126302725904
0.024,1.7856,1.0,2538.6888119284104,0.2366318093766308,1.3290079399326846,0.9244003111479842,0.2880482,0.654827090118785
0.0245,1.78499375,1.0,2555.301096720239,0.2409137027235662,1.3285778336649436,0.9267816946144823,0.2880227375,0.6557289771175148
0.025,1.784375,1.0,2570.8453726336174,0.2451715781013215,1.3281525913517638,0.9290403538811154,0.28799675,0.6566195050673544
0.025500000000000002,1.78374375,1.0,2585.371264157325,0.24940556930930444,1.327731654330619,0.931184545121534,0.2879702375,0.6574998812172055
0.026000000000000002,1.7831000000000001,1.0,2598.9297528006296,0.2536158101469227,1.3273144639389833,0.933221843123444,0.2879432,0.6583713064296428
0.0265,1.78244375,1.0,2611.573057303144,0.2578024344135839,1.3269004615143305,0.9351592067295503,0.2879156375,0.659234975324355
0.027,1.781775,1.0,2623.3449076857864,0.26196557311892293,1.3264891775236953,0.9370030498034838,0.28788755,0.6600918908160107
0.0275,1.7810937500000001,1.0,2634.294947354202,0.26610536110287347,1.3260800964013504,0.9387592741873776,0.2878589375,0.6609431464632846
0.028,1.7804,1.0,2644.470825393899,0.27022193140108497,1.3256727292349337,0.9404333253917313,0.2878298,0.6617897749766248
0.0285,1.77969375,1.0,2653.9061855560326,0.27431541199672416,1.3252667234475144,0.9420302485789381,0.2878001375,0.6626325211024178
0.029,1.778975,1.0,2662.6352815590985,0.2783859308729576,1.3248617264621603,0.9435547068591258,0.28776995,0.6634721258929355
0.029500000000000002,1.7782437500000001,1.0,2670.6929236950987,0.28243361601295186,1.3244573857019404,0.9450110151541689,0.2877392375,0.6643093267329793
0.03,1.7775,1.0,2678.1144281929887,0.2864585953998737,1.3240533485899226,0.9464031706556005,0.287708,0.6651448573586036
0.0305,1.77674375,1.0,2684.9355693375974,0.29046099701688954,1.3236492625491758,0.9477348802560873,0.2876762375,0.665979447867904
0.031,1.775975,1.0,2691.1925343449907,0.29444094884716626,1.3232447750027683,0.9490095852880828,0.28764395,0.6668138247238831
0.0315,1.7751937500000001,1.0,2696.91451994733,0.298398573465035,1.3228396006858536,0.9502304905636832,0.2876111375,0.6676485721587966
0.032,1.7744,1.0,2702.137776373386,0.30233400312727515,1.322433392658969,0.9514005727864425,0.2875778,0.6684843982730455
0.0325,1.77359375,1.0,2706.885096299041,0.30624736003532654,1.3220259295154733,0.952522615754697,0.2875439375,0.6693217497439268
0.033,1.772775,1.0,2711.179275134676,0.3101387662124327,1.3216169918095428,0.9535992142203544,0.28750955,0.6701610668985347
0.0335,1.7719437500000002,1.0,2715.0433044011615,0.31400834368183705,1.3212063600953547,0.9546327888350725,0.2874746375,0.6710027877369047
0.034,1.7711000000000001,1.0,2718.5003519715588,0.31785621446678314,1.3207938149270861,0.9556255999059889,0.2874392,0.6718473479098419
0.0345,1.7702437500000001,1.0,2721.5737433813147,0.3216825005905144,1.3203791368589137,0.9565797599096975,0.2874032375,0.6726951806936781
0.035,1.7693750000000001,1.0,2724.2869442051046,0.32548732407627434,1.3199621064450149,0.9574972448896323,0.28736675,0.6735467169619547
0.035500000000000004,1.76849375,1.0,2726.6533017499137,0.32927079821585614,1.319542597381724,0.9583799125758938,0.2873297375,0.6744021953397366
0.036000000000000004,1.7676,1.0,2728.7013628450836,0.3330330506822906,1.3191203460289909,0.9592294927859508,0.2872922,0.6752621324946975
0.0365,1.76669375,1.0,2730.458008893082,0.3367742082871779,1.3186951048195346,0.9600476090977359,0.2872541375,0.6761270094517406
0.037,1.765775,1.0,2731.9363458807275,0.3404943858622335,1.318266752115707,0.9608357951471012,0.28721555,0.6769970487809922
0.0375,1.76484375,1.0,2733.1495383844717,0.3441936982391727,1.3178351662798593,0.9615954913533132,0.2871764375,0.6778724715429024
0.038,1.7639,1.0,2734.110802901106,0.3478722602497108,1.317400225674343,0.9623280516147296,0.28713679999999997,0.6787534972636359
0.0385,1.76294375,1.0,2734.8334015072337,0.3515301867255632,1.3169618086615094,0.9630347494528465,0.28709663750000003,0.6796403439095177
0.039,1.761975,1.0,2735.3306358456957,0.3551675924984452,1.31651979360371,0.963716783655672,0.28705595,0.6805332278605383
0.0395,1.7609937500000001,1.0,2735.6158414414913,0.35878459240007216,1.3160740588632964,0.9643752834661965,0.2870147375,0.6814323638829127
0.04,1.76,1.0,2735.7023823442637,0.3623813012621594,1.31562448280262,0.9650113133571034,0.286973,0.6823379651006971
0.0405,1.7589937500000001,1.0,2735.6036461000735,0.36595783391642234,1.3151709437840322,0.9656258774287779,0.2869307375,0.6832502429664618
0.041,1.757975,1.0,2735.333039050265,0.36951430519457623,1.3147133201698842,0.9662199234639844,0.28688795,0.6841694072310203
0.0415,1.75694375,1.0,2734.9027108937694,0.37305082775207266,1.3142515018646097,0.9667943472806205,0.2868446375,0.6850956427800932
0.042,1.7559,1.0,2734.3199544919867,0.37656750660120986,1.3137854229796262,0.9673499979845509,0.28680079999999997,0.6860290444052841
0.0425,1.75484375,1.0,2733.6031138686153,0.3800644682753589,1.313314917342269,0.9678876738476946,0.2867564375,0.6869699061569108
0.043000000000000003,1.753775,1.0,2732.758914903408,0.3835418200058575,1.312839924332561,0.968408135733014,0.28671155,0.6879183091313696
0.043500000000000004,1.75269375,1.0,2731.7940885893754,0.38699966902404365,1.3123603833305255,0.9689121040892452,0.28666613750000003,0.6888743333086964
0.044,1.7516,1.0,2730.7153695167917,0.3904381225612551,1.311876233716185,0.9694002614972719,0.2866202,0.6898380575351009
0.0445,1.75049375,1.0,2729.529494439689,0.39385728784882984,1.3113874148695623,0.9698732550316924,0.2865737375,0.6908095595052649
0.045,1.7493750000000001,1.0,2728.2432009233416,0.39725727211810563,1.3108938661706808,0.9703316984526823,0.28652675,0.6917889157444095
0.0455,1.74824375,1.0,2726.863226073149,0.40063818260042033,1.310395526999563,0.970776174241889,0.2864792375,0.692776201590126
0.046,1.7471,1.0,2725.396305345399,0.40400012652711187,1.3098923367362318,0.9712072354948662,0.2864312,0.6937714911739729
0.0465,1.7459437500000001,1.0,2723.849171439173,0.40734321112951805,1.3093842347607103,0.9716254076814368,0.28638263750000004,0.6947748574028371
0.047,1.744775,1.0,2722.228553269664,0.41066754363897673,1.3088711604530214,0.9720311902843819,0.28633355,0.6957863719400634
0.0475,1.74359375,1.0,2720.540499527832,0.4139732289218992,1.3083530593432906,0.9724250584606081,0.28628393750000003,0.6968060930919424
0.048,1.7424,1.0,2718.7871260411416,0.4172603569836398,1.307829912737208,0.9728074649803502,0.2862338,0.697834007730239
0.0485,1.74119375,1.0,2716.981468346249,0.4205290594249068,1.3073016024540718,0.9731788391449233,0.2861831375,0.6988702969679834
0.049,1.739975,1.0,2715.126699202142,0.423779435652138,1.3067681000585225,0.9735395920102118,0.28613195,0.6999149642426159
0.0495,1.73874375,1.0,2713.225988529937,0.427011585071771,1.3062293771151998,0.9738901152855627,0.2860802375,0.7009680120906784
0.05,1.7375,1.0,2711.282503136321,0.4302256070902435,1.3056854051887437,0.9742307824164445,0.286028,0.7020294421383726
0.0505,1.73624375,1.0,2709.299406454514,0.4334216011139932,1.3051361558437937,0.9745619495970977,0.2859752375,0.7030992550920665
0.051000000000000004,1.734975,1.0,2707.279858303663,0.43659966654945775,1.30458160064499,0.9748839567183021,0.28592195,0.7041774507287495
0.051500000000000004,1.73369375,1.0,2705.2270146658893,0.43975990280307486,1.3040217111569723,0.9751971282549442,0.2858681375,0.7052640278864366
0.052000000000000005,1.7324,1.0,2703.1440274812717,0.4429024092812822,1.3034564589443807,0.9755017740977155,0.2858138,0.7063589844545198
0.0525,1.73109375,1.0,2701.0340444608532,0.4460272853905174,1.302885815571855,0.9757981903329105,0.28575893750000003,0.7074623173640697
0.053,1.729775,1.0,2698.9002089177,0.44913463053721825,1.302309752604035,0.976086659973985,0.28570355000000003,0.708574022578084
0.0535,1.72844375,1.0,2696.7456596154725,0.45222454412782237,1.3017282416055607,0.9763674536482524,0.2856476375,0.709694095081685
0.054,1.7271,1.0,2694.5735306355023,0.4552971255687675,1.3011412541410716,0.9766408302418239,0.2855912,0.7108225288722657
0.0545,1.7257437500000001,1.0,2692.386951261083,0.4583524742664912,1.3005487617752083,0.9769070375056684,0.2855342375,0.7119593169495826
0.055,1.724375,1.0,2690.180715099326,0.46139066400536694,1.2999508123475778,0.9771663147211493,0.28547675,0.713104305395498
0.0555,1.72299375,1.0,2687.9628318452797,0.4644118147477542,1.2993473327240923,0.977418888329019,0.2854187375,0.7142575713997819
0.056,1.7216,1.0,2685.7393351657734,0.4674160343227619,1.2987382677582897,0.9776649751460743,0.2853602,0.7154191561759451
0.0565,1.72019375,1.0,2683.5111667151004,0.4704034134793535,1.2981236088921577,0.9779047840915407,0.28530113749999997,0.7165890109091702
0.057,1.718775,1.0,2681.2792666172395,0.47337404296649244,1.2975033475676836,0.9781385154906654,0.28524155,0.7177670860523662
0.0575,1.71734375,1.0,2679.044573456683,0.47632801353314214,1.2968774752268546,0.978366361495587,0.2851814375,0.7189533313231133
0.058,1.7159,1.0,2676.808024271532,0.47926541592826616,1.296245983311658,0.9785885064823207,0.2851208,0.7201476957006023
0.0585,1.71444375,1.0,2674.5705545475066,0.48218634090082785,1.2956088632640814,0.9788051274253959,0.2850596375,0.721350127422569
0.059000000000000004,1.7129750000000001,1.0,2672.3330982141647,0.48509087919979077,1.294966106526112,0.9790163942515684,0.28499795,0.722560573982227
0.059500000000000004,1.71149375,1.0,2670.0965876422197,0.48797912157411827,1.2943177045397372,0.9792224701739337,0.2849357375,0.7237789821251913
0.06,1.71,1.0,2667.8619536429414,0.4908511587727738,1.2936636487469444,0.9794235120076676,0.284873,0.7250052978464008
0.0605,1.7084937500000001,1.0,2665.6301254689524,0.4937070815447209,1.2930039305897207,0.9796196704685443,0.2848097375,0.7262394663870348
0.061,1.7069750000000001,1.0,2663.4020308165823,0.49654698063892305,1.292338541510054,0.9798110904552897,0.28474595,0.7274814322314238
0.0615,1.7054437500000001,1.0,2661.178595829975,0.49937094680434363,1.291667472949931,0.9799979113167706,0.2846816375,0.7287311391039584
0.062,1.7039,1.0,2658.96074510702,0.5021790707899461,1.2909907163513392,0.9801802671049322,0.2846168,0.72998852996599
0.0625,1.70234375,1.0,2656.749401706217,0.504971443344694,1.2903082631562663,0.9803582868143562,0.2845514375,0.7312535470127297
0.063,1.7007750000000001,1.0,2654.545487156016,0.5077481552175507,1.2896201048066993,0.9805320946092341,0.28448555,0.7325261316701419
0.0635,1.69919375,1.0,2652.350076684648,0.5105092869528225,1.2889262313133691,0.980701809211785,0.28441913750000003,0.7338062272291248
0.064,1.6976,1.0,2650.164270841019,0.5132549147044484,1.2882266324371614,0.9808675446442636,0.2843522,0.7350937766388185
0.0645,1.69599375,1.0,2647.987914839884,0.5159851576772736,1.2875213095072395,0.9810294144447552,0.2842847375,0.7363887008266651
0.065,1.694375,1.0,2645.8212343940945,0.5187000980682615,1.2868102603424865,0.9811875251900701,0.28421675,0.7376909265378672
0.0655,1.69274375,1.0,2643.6644548725603,0.5213998180743754,1.2860934827617856,0.9813419796206984,0.2841482375,0.7390003798508671
0.066,1.6911,1.0,2641.51780130429,0.5240843998925787,1.28537097458402,0.9814928768048341,0.2840792,0.7403169861765516
0.0665,1.6894437500000001,1.0,2639.3814983825646,0.5267539257198347,1.284642733628073,0.9816403122942461,0.2840096375,0.741640670257455
0.067,1.687775,1.0,2637.2557704687024,0.529408477753107,1.2839087577128276,0.9817843782724531,0.28393955,0.7429713561669609
0.0675,1.68609375,1.0,2635.140841596995,0.5320481381893587,1.2831690446571669,0.9819251636956372,0.2838689375,0.7443089673085059
0.068,1.6844000000000001,1.0,2633.0369354784248,0.5346729892255533,1.2824235922799743,0.982062754426697,0.2837978,0.7456534264147796
0.0685,1.68269375,1.0,2630.944275505681,0.5372831130586542,1.281672398400133,0.9821972333628226,0.2837261375,0.7470046555469284
0.069,1.680975,1.0,2628.863084757607,0.5398785918856246,1.2809154608365259,0.9823286805569439,0.28365395,0.7483625760937573
0.0695,1.67924375,1.0,2626.793586003681,0.5424595079034281,1.2801527774080363,0.9824571733333881,0.28358123749999997,0.7497271087709287
0.07,1.6775,1.0,2624.736001709195,0.5450259433090281,1.2793843459335472,0.9825827863980622,0.283508,0.7510981736201658
0.07050000000000001,1.67574375,1.0,2622.6905540399466,0.5475779802993878,1.2786101642319423,0.9827055919434503,0.2834342375,0.7524756900084507
0.07100000000000001,1.673975,1.0,2620.6574648673964,0.5501157010714706,1.277830230122104,0.9828256597487045,0.28335995,0.753859576627228
0.07150000000000001,1.67219375,1.0,2618.636955773548,0.5526391878222399,1.2770445414229163,0.9829430572750931,0.2832851375,0.7552497514916008
0.07200000000000001,1.6704,1.0,2616.6292480566635,0.555148522748659,1.2762530959532616,0.983057849757044,0.2832098,0.7566461319395346
0.0725,1.66859375,1.0,2614.63087496025,0.5576437511638057,1.2754559257809173,0.9831700996530094,0.2831339375,0.7580485744648526
0.073,1.6667750000000001,1.0,2612.6419345621784,0.5601249712350486,1.274653029903466,0.9832798690303621,0.28305755,0.7594569935103502
0.0735,1.66494375,1.0,2610.665624405993,0.5625922967365409,1.273844378510315,0.9833872175545525,0.2829806375,0.7608713531833524
0.074,1.6631,1.0,2608.7017106205412,0.5650458009067966,1.2730299736505937,0.9834922020308495,0.2829032,0.7622915608684826
0.0745,1.6612437500000001,1.0,2606.7499597453934,0.5674855569843292,1.2722098173734309,0.9835948774528778,0.2828252375,0.7637175233594498
0.075,1.659375,1.0,2604.8101387260963,0.5699116382076524,1.2713839117279557,0.9836952970705897,0.28274675,0.7651491468597995
0.0755,1.65749375,1.0,2602.8820149093644,0.5723241178152801,1.2705522587632974,0.9837935124552563,0.2826677375,0.7665863369836664
