Time [s],Phi [rad],STIM [ ],Fsee [N],Gamma [ ],Lcerel [ ],q [ ],Lmtc [m],fisomrel [ ]
0.0,1.8,1.0,18.185142762827105,0.00047521207334244337,1.379315398282044,0.005058373535870596,0.288653,0.5411984331190507
0.0005,1.79999375,1.0,18.641144805606586,0.006081755818263149,1.3792621097438404,0.014282360154237676,0.2886527375,0.5413273345428926
0.001,1.799975,1.0,22.328015282399637,0.011656851285550631,1.3788664086938702,0.03807389850337041,0.28865195,0.5422839424853613
0.0015,1.79994375,1.0,32.536992796723496,0.017200674876100934,1.3779225988641506,0.07394940738951267,0.2886506375,0.5445615729201734
0.002,1.7999,1.0,56.554765181386664,0.02271340199929806,1.3761779017142735,0.11866521153428505,0.2886488,0.5487569714982348
0.0025,1.79984375,1.0,101.95544422049385,0.02819520708218868,1.3737049390585196,0.16885805834087417,0.28864643749999996,0.5546703396787886
0.003,1.7997750000000001,1.0,167.15111378288958,0.03364626357318024,1.3709847236986528,0.22169200597324648,0.28864354999999997,0.5611298940760021
0.0035,1.79969375,1.0,244.62369468776527,0.039066743947489734,1.3683724909190107,0.27499566833454514,0.2886401375,0.5672886094838119
0.004,1.7996,1.0,328.8185032251322,0.04445681971278867,1.3659624738231313,0.32715596021615895,0.2886362,0.5729319762539986
0.0045000000000000005,1.7994937500000001,1.0,416.8545341515305,0.04981666140081685,1.363745541217802,0.37705711438282025,0.2886317375,0.5780905014163533
0.005,1.799375,1.0,507.1437162099396,0.05514643865177172,1.3616947067629288,0.42400917124105314,0.28862675,0.5828346272311191
0.0055,1.79924375,1.0,598.5714837244578,0.06044632001619007,1.3597873091562171,0.4676554261606532,0.2886212375,0.5872228704404612
0.006,1.7991000000000001,1.0,690.2996718043606,0.065716473296565,1.358005367525392,0.5078789374808561,0.2886152,0.5913015204815338
0.006500000000000001,1.79894375,1.0,781.6009398935297,0.07095706509901258,1.3563358005867083,0.5447253687280084,0.2886086375,0.5951045829726711
0.007,1.798775,1.0,871.9117571367943,0.07616826144031415,1.3547674820658686,0.5783417316771728,0.28860155,0.5986608216474605
0.0075,1.79859375,1.0,960.7347049607079,0.08135022700496275,1.3532917778450255,0.6089336051825817,0.2885939375,0.601992728657848
0.008,1.7984,1.0,1047.690714461879,0.08650312583178509,1.3519008831310966,0.6367342326400123,0.2885858,0.6051204351133748
0.0085,1.79819375,1.0,1132.4717061113358,0.09162712108226365,1.3505880785222286,0.6619849248609088,0.2885771375,0.6080612219326903
0.009000000000000001,1.797975,1.0,1214.8317927052199,0.09672237457873326,1.3493474583002456,0.6849224280925658,0.28856795,0.6108302084794585
0.0095,1.79774375,1.0,1294.6069469401746,0.10178904759264738,1.3481733853349396,0.7057712599472002,0.2885582375,0.6134416254604838
0.01,1.7975,1.0,1371.6874673634727,0.10682730126345806,1.3470606801113112,0.7247399200208131,0.288548,0.6159084321450068
0.0105,1.79724375,1.0,1445.963119085335,0.11183729402748019,1.3460051379193536,0.7420194734167461,0.2885372375,0.6182412134356158
0.011,1.796975,1.0,1517.3861622450427,0.11681918432102868,1.3450025540490602,0.7577827958226788,0.28852595000000003,0.6204503753176827
0.0115,1.79669375,1.0,1585.9441737452723,0.1217731298794663,1.344048980394523,0.7721853371347065,0.2885141375,0.6225455965863811
0.012,1.7964,1.0,1651.6690166039089,0.12669928854861123,1.3431405333018094,0.7853661378338578,0.28850180000000003,0.6245362704252228
0.0125,1.79609375,1.0,1714.5693965725898,0.13159781544310165,1.342274108182099,0.7974494688001506,0.2884889375,0.6264299581254744
0.013000000000000001,1.7957750000000001,1.0,1774.6714821517696,0.1364688649966198,1.3414468075881345,0.8085459672621307,0.28847555,0.6282336657776513
0.0135,1.79544375,1.0,1832.0329268827986,0.14131259164284807,1.340655734072659,0.8187539543027449,0.2884616375,0.6299543075364089
0.014,1.7951000000000001,1.0,1886.7262196426109,0.146129148641744,1.339898141790897,0.8281608294772276,0.2884472,0.6315983839511966
0.0145,1.79474375,1.0,1938.8273534131445,0.1509186894434717,1.3391715204391592,0.8368443313001014,0.2884322375,0.6331718103411639
0.015,1.794375,1.0,1988.396316460029,0.1556813644965868,1.3384737637495658,0.8448736985636551,0.28841675,0.634679563945163
0.0155,1.79399375,1.0,2035.511250915278,0.1604173242473062,1.3378027656939597,0.8523105287683441,0.2884007375,0.6361265672497186
0.016,1.7936,1.0,2080.256060984526,0.16512671821993463,1.3371565332251043,0.8592097154343203,0.2883842,0.637517449310042
0.0165,1.7931937500000001,1.0,2122.7279236731797,0.16980969682666774,1.3365330880919861,0.8656202132801536,0.2883671375,0.6388567621787995
0.017,1.792775,1.0,2163.016882538929,0.17446640906968983,1.3359306612380266,0.8715857955773877,0.28834955,0.6401485677301728
0.0175,1.7923437500000001,1.0,2201.188810761958,0.17909700074334814,1.3353478439396917,0.8771457031547297,0.2883314375,0.6413961210618628
0.018000000000000002,1.7919,1.0,2237.318834165669,0.18370161764199,1.3347832274734477,0.8823350769941211,0.2883128,0.6426026486047889
0.0185,1.79144375,1.0,2271.4905644228484,0.18828040555996273,1.3342354031157604,0.887185436778655,0.2882936375,0.6437713498215726
0.019,1.790975,1.0,2303.7926415481697,0.19283350992897683,1.3337029891999446,0.8917251065057192,0.28827395,0.64490534119586
0.0195,1.79049375,1.0,2334.3078490608596,0.19736107494610586,1.3331847305433961,0.8959796039652248,0.2882537375,0.6460074468518001
0.02,1.79,1.0,2363.1242985265194,0.20186324551768503,1.3326793792232907,0.8999719311131772,0.288233,0.6470804548456821
0.0205,1.78949375,1.0,2390.304610172761,0.20634016253294818,1.3321859885395824,0.9037229192539791,0.2882117375,0.6481264955930499
0.021,1.788975,1.0,2415.915764748622,0.210791966881129,1.3317036117922254,0.9072514033087101,0.28818995000000003,0.6491476847066091
0.021500000000000002,1.78844375,1.0,2440.028743918211,0.2152187994514613,1.3312313022811744,0.9105744405256839,0.2881676375,0.6501461236897874
0.022,1.7879,1.0,2462.7151459840925,0.21962080061960343,1.330768142440516,0.9137075084582377,0.2881448,0.651123839114957
0.0225,1.78734375,1.0,2484.040554970453,0.22399810948738944,1.3303133033440133,0.916664684859856,0.28812143749999997,0.6520826582715747
0.023,1.786775,1.0,2504.0860590566012,0.22835086749211392,1.3298658359514057,0.9194587562261193,0.28809755,0.6530246501022968
0.0235,1.78619375,1.0,2522.902450768639,0.2326792104524854,1.329425104010839,0.9221014298179031,0.28807313749999996,0.6539512144370152
0.024,1.7856,1.0,2540.542583695278,0.23698327418721246,1.328990471270459,0.9246033882427692,0.2880482,0.6548637430269174
0.0245,1.78499375,1.0,2557.0612023262042,0.24126319451500358,1.328561301478412,0.9269743932388718,0.2880227375,0.6557636198048857
0.025,1.784375,1.0,2572.514780866108,0.2455191072545673,1.3281369583828437,0.9292233776899564,0.28799675,0.6566522211200762
0.025500000000000002,1.78374375,1.0,2586.9558722838633,0.2497511470043112,1.3277168570718965,0.9313585353437067,0.2879702375,0.6575308086445095
0.026000000000000002,1.7831000000000001,1.0,2600.437150869318,0.25395944849740626,1.3273004243270956,0.9333873865936066,0.2879432,0.6584006129952269
0.0265,1.78244375,1.0,2613.0177610420055,0.2581441473131744,1.3268870383460325,0.9353168337213121,0.2879156375,0.6592629596982127
0.027,1.781775,1.0,2624.7358961097248,0.2623053738773293,1.326476282396246,0.9371532563071342,0.28788755,0.6601187405380315
0.0275,1.7810937500000001,1.0,2635.630622425455,0.2664432586155846,1.3260677397452736,0.9389025303645872,0.2878589375,0.6609688427851037
0.028,1.7804,1.0,2645.7418048525997,0.27055793195365396,1.3256609936606538,0.9405700747430036,0.2878298,0.6618141492600624
0.0285,1.77969375,1.0,2655.110036081885,0.2746495243172511,1.3252556274099248,0.9421608926927738,0.2878001375,0.6626555383870415
0.029,1.778975,1.0,2663.776569797763,0.27871816613208966,1.3248512242606247,0.9436796091500749,0.28776995,0.6634938842358842
0.029500000000000002,1.7782437500000001,1.0,2671.778983393654,0.28276398460924235,1.3244474067495002,0.945130508427095,0.2877392375,0.6643299752982281
0.03,1.7775,1.0,2679.156508120457,0.2867871119107787,1.3240437869672081,0.9465175601538417,0.287708,0.6651646177549446
0.0305,1.77674375,1.0,2685.9389531683205,0.29078767395470007,1.3236400676499704,0.9478444556826413,0.2876762375,0.6659984266949062
0.031,1.775975,1.0,2692.1554995402776,0.2947657958261345,1.3232359607248627,0.9491146230227222,0.28764395,0.666831995198581
0.0315,1.7751937500000001,1.0,2697.835664441667,0.29872160261021025,1.3228311781189606,0.9503312480831487,0.2876111375,0.6676659133747576
0.032,1.7744,1.0,2703.0092686201106,0.3026552193920556,1.3224254317593394,0.9514972947616701,0.2875778,0.6685007683507769
0.0325,1.77359375,1.0,2707.7064055453416,0.30656677125679854,1.3220184335730745,0.9526155231337939,0.2875439375,0.6693371442574727
0.033,1.772775,1.0,2711.9466752853823,0.3104563759932924,1.3216099933990635,0.9536885153058392,0.28750955,0.6701754213834641
0.0335,1.7719437500000002,1.0,2715.7604315186604,0.31432416155379245,1.3211998247812156,0.954718672113142,0.2874746375,0.6710161752567488
0.034,1.7711000000000001,1.0,2719.1848725450996,0.31817026071585947,1.3207875807110134,0.9557082300402244,0.2874392,0.6718601022371653
0.0345,1.7702437500000001,1.0,2722.2367588885486,0.3219947915082465,1.3203731018965867,0.9566592962995393,0.2874032375,0.6727075114195129
0.035,1.7693750000000001,1.0,2724.9329701530105,0.3257978719597064,1.3199562290460645,0.9575738421138595,0.28736675,0.6735587101231579
0.035500000000000004,1.76849375,1.0,2727.290493259026,0.3295796200989921,1.3195368028675758,0.958453713065771,0.2873297375,0.6744140038685205
0.036000000000000004,1.7676,1.0,2729.3264112428924,0.3333401539548566,1.31911466406925,0.9593006385458851,0.2872922,0.6752736963519445
0.0365,1.76669375,1.0,2731.057892618465,0.3370795915560527,1.3186896533592163,0.9601162403875552,0.2872541375,0.6761380894189495
0.037,1.765775,1.0,2732.502181301338,0.3407980509313335,1.3182616114456038,0.9609020407664876,0.28721555,0.6770074830358657
0.0375,1.76484375,1.0,2733.6765870957984,0.3444956501094518,1.317830379036542,0.9616594694353212,0.2871764375,0.6778821752598472
0.038,1.7639,1.0,2734.5984767442933,0.3481725071191606,1.3173957968401597,0.962389870355902,0.28713679999999997,0.6787624622072705
0.0385,1.76294375,1.0,2735.2852655396377,0.35182873998921277,1.3169577055645865,0.963094507785457,0.28709663750000003,0.6796486380205131
0.039,1.761975,1.0,2735.7535076226686,0.35546446490384304,1.316515954106292,0.9637745722645373,0.28705595,0.6805409783041569
0.0395,1.7609937500000001,1.0,2736.015097841877,0.3590797913742057,1.3160704339646767,0.9644311879548692,0.2870147375,0.6814396708334851
0.04,1.76,1.0,2736.087566898325,0.3626748462044394,1.3156209857148609,0.9650654132822147,0.286973,0.6823450043889656
0.0405,1.7589937500000001,1.0,2735.980316921575,0.36624973992942256,1.315167523928018,0.9656782501976664,0.2869307375,0.683257116903961
0.041,1.757975,1.0,2735.702767645067,0.3698045830840336,1.314709963175322,0.9662706445146224,0.28688795,0.6841761450197303
0.0415,1.75694375,1.0,2735.264353396754,0.37333948620315094,1.3142482180279462,0.9668434896347157,0.2868446375,0.6851022240633302
0.042,1.7559,1.0,2734.6745202514435,0.37685455982165306,1.3137822030570645,0.9673976299893123,0.28680079999999997,0.6860354880250483
0.0425,1.75484375,1.0,2733.942723344921,0.3803499144744184,1.3133118328338504,0.9679338642210001,0.2867564375,0.6869760695353743
0.043000000000000003,1.753775,1.0,2733.078424349416,0.3838256606963254,1.3128370219294776,0.9684529481271543,0.28671155,0.6879240998415037
0.043500000000000004,1.75269375,1.0,2732.091089112129,0.3872819090222525,1.3123576849151195,0.9689555973856038,0.28666613750000003,0.6888797087833767
0.044,1.7516,1.0,2730.9901854536693,0.3907187699870781,1.3118737363619501,0.9694424900805543,0.2866202,0.6898430247692501
0.0445,1.75049375,1.0,2729.785181130556,0.39413635412568077,1.3113850908411426,0.9699142690452435,0.2865737375,0.6908141747508079
0.045,1.7493750000000001,1.0,2728.475641955499,0.3975347435648593,1.3108917529279558,0.9703715468333712,0.28652675,0.6917931057442057
0.0455,1.74824375,1.0,2727.0814455528284,0.40091408346390756,1.3103935425478859,0.9708148998636628,0.2864792375,0.692780129925299
0.046,1.7471,1.0,2725.6083923570964,0.4042744806153314,1.3098904075321562,0.9712448795700535,0.2864312,0.6937753039526598
0.0465,1.7459437500000001,1.0,2724.060665983201,0.4076160371431748,1.3093823103995248,0.9716620103163102,0.28638263750000004,0.6947786543745283
0.047,1.744775,1.0,2722.4424485856034,0.41093885517148165,1.3088692136687494,0.9720667905741274,0.28633355,0.6957902067845931
0.0475,1.74359375,1.0,2720.7579203062774,0.414243036824296,1.308351079858588,0.9724596944420475,0.28628393750000003,0.6968099858100851
0.048,1.7424,1.0,2719.011258753485,0.4175286842256617,1.3078278714877984,0.9728411730615539,0.2862338,0.6978380150997814
0.0485,1.74119375,1.0,2717.206638512747,0.42079589949962265,1.3072995510751388,0.9732116559381828,0.2861831375,0.6988743173119201
0.049,1.739975,1.0,2715.3482306873816,0.4240447847702229,1.3067660811393669,0.9735715521748504,0.28613195,0.6999189141020261
0.0495,1.73874375,1.0,2713.440202471512,0.42727544216150626,1.3062274241992406,0.9739212516239716,0.2860802375,0.7009718261106452
0.05,1.7375,1.0,2711.486716753817,0.43048797379751674,1.305683542773518,0.9742611259644139,0.286028,0.7020330729509909
0.0505,1.73624375,1.0,2709.491931752112,0.4336824818022983,1.3051343993809572,0.9745915297088176,0.2859752375,0.7031026731965003
0.051000000000000004,1.734975,1.0,2707.4600006795945,0.4368590682998948,1.3045799565403156,0.974912801146372,0.28592195,0.704180644368302
0.051500000000000004,1.73369375,1.0,2705.395071441813,0.4400178354143502,1.3040201767703514,0.9752252632257189,0.2858681375,0.7052670029225901
0.052000000000000005,1.7324,1.0,2703.301286364817,0.4431588852697085,1.3034550225898227,0.9755292243822771,0.2858138,0.7063617642379152
0.0525,1.73109375,1.0,2701.182781954946,0.4462823199900135,1.3028844565174873,0.9758249793139466,0.28575893750000003,0.70746494260238
0.053,1.729775,1.0,2699.041145075952,0.4493882101342826,1.3023084643226723,0.9761128078981559,0.28570355000000003,0.7085765063739399
0.0535,1.72844375,1.0,2696.881850003179,0.452476691765987,1.301726996207007,0.9763929823094724,0.2856476375,0.7096964915813035
0.054,1.7271,1.0,2694.7068041909865,0.4555478623905031,1.3011400349241757,0.9766657609601718,0.2855912,0.7108248704268694
0.0545,1.7257437500000001,1.0,2692.5175718815153,0.45860181512340603,1.3005475663425548,0.9769313909205056,0.2855342375,0.7119616083085704
0.055,1.724375,1.0,2690.31571494191,0.4616386430802709,1.29994957633052,0.9771901087499135,0.28547675,0.7131066698314463
0.0555,1.72299375,1.0,2688.102792823473,0.4646584393766728,1.2993460507564474,0.9774421410292509,0.2854187375,0.7142600188026735
0.056,1.7216,1.0,2685.880362524783,0.46766129712818677,1.298736975488713,0.9776877048618028,0.2853602,0.7154216182265819
0.0565,1.72019375,1.0,2683.6499785598626,0.4706473094503879,1.298122336395693,0.9779270083451633,0.28530113749999997,0.7165914302996594
0.057,1.718775,1.0,2681.4131929305127,0.47361656945885133,1.2975021193457636,0.9781602510158905,0.28524155,0.7177694164055453
0.0575,1.71734375,1.0,2679.171555102718,0.47656917026915213,1.2968763102073007,0.9783876242687228,0.2851814375,0.7189555371100083
0.058,1.7159,1.0,2676.926611988063,0.47950520499686533,1.29624489484868,0.9786093117519983,0.2851208,0.7201497521559137
0.0585,1.71444375,1.0,2674.679907929254,0.48242476675756607,1.2956078591382778,0.9788254897408104,0.2850596375,0.7213520204581764
0.059000000000000004,1.7129750000000001,1.0,2672.43298469013,0.4853279486668295,1.2949651889444704,0.9790363274893167,0.28499795,0.7225623000987018
0.059500000000000004,1.71149375,1.0,2670.1873814501682,0.48821484384023056,1.2943168701356336,0.9792419875635231,0.2849357375,0.7237805483213158
0.06,1.71,1.0,2667.9446348031606,0.49108554539334437,1.2936628885801433,0.9794426261557674,0.284873,0.7250067215266783
0.0605,1.7084937500000001,1.0,2665.706278760765,0.4939401464417461,1.2930032301463759,0.9796383933820413,0.2848097375,0.7262407752671872
0.061,1.7069750803636605,1.0,2663.4780930645516,0.49677873980942405,1.2923378779048071,0.9798294333910844,0.28474595337527375,0.7274826694582719
0.0615,1.7054514977879127,1.0,2661.6133097645106,0.4996014130559369,1.2916669703277097,0.9800158926038091,0.28468196290709236,0.7287320740429046
0.062,1.703927915212165,1.0,2660.309694615423,0.5024082538259487,1.2909909017787133,0.9801979253191372,0.2846179724389109,0.72998818584825
0.0625,1.702404332636417,1.0,2659.5259122749085,0.5051993502738936,1.2903100490960984,0.9803756792441227,0.2845539819707295,0.7312502404139699
0.063,1.7008807500606693,1.0,2659.220812066372,0.5079747905542059,1.2896247891181454,0.9805492966594318,0.2844899915025481,0.7325174793631053
0.0635,1.6993571674849215,1.0,2659.354131601802,0.5107346626614939,1.2889354918500826,0.9807189143092256,0.2844260010343667,0.7337891631037974
0.064,1.6978335849091737,1.0,2659.8885723935246,0.5134790542081598,1.2882425010311147,0.9808846626525038,0.28436201056618526,0.7350646065029587
0.0645,1.6963100023334259,1.0,2660.7900444569746,0.5162080523733474,1.2875461316137153,0.9810466660111108,0.28429802009800387,0.736343183016543
0.065,1.694786419757678,1.0,2662.0311534801144,0.5189217428611098,1.2868466374536556,0.9812050411525449,0.28423402962982247,0.7376243832319231
0.0655,1.6932628371819303,1.0,2663.58454803537,0.5216202113754997,1.2861442724067065,0.9813599007367615,0.2841700391616411,0.7389077020689941
0.066,1.6917392546061825,1.0,2665.4233777871555,0.5243035434746871,1.2854392859587414,0.9815113532723276,0.2841060486934597,0.7401926467836859
0.0665,1.6902156720304347,1.0,2667.522852798482,0.5269718243216834,1.2847319087551055,0.9816595025741804,0.2840420582252783,0.7414787631909258
0.067,1.6886920894546869,1.0,2669.86021813225,0.5296251387045053,1.284022352748292,0.9818044479700883,0.28397806775709683,0.7427656350106022
0.0675,1.687168506878939,1.0,2672.417340933332,0.5322635699449361,1.2833107873702414,0.981946283270353,0.28391407728891543,0.7440529265295086
0.068,1.6856449243031912,1.0,2675.1760814701315,0.534887201364759,1.2825973820528949,0.982085099115268,0.28385008682073404,0.7453403050282212
0.0685,1.6841213417274434,1.0,2678.12043955294,0.5374961150621724,1.2818822864654498,0.9822209820930637,0.28378609635255264,0.7466274763297517
0.069,1.6825977591516956,1.0,2681.2373645737766,0.540090391681352,1.2811656230823218,0.9823540145395695,0.2837221058843712,0.7479141976936534
0.0695,1.6810741765759478,1.0,2684.4993552913998,0.5426701209308502,1.2804476466981907,0.982484282826184,0.2836581154161898,0.7491999919051238
0.07,1.6795505940002,1.0,2687.897160456734,0.5452353823370809,1.2797284444440027,0.982611862102878,0.2835941249480084,0.7504846854876865
0.07050000000000001,1.6780270114244524,1.0,2691.421515249459,0.5477862554264576,1.279008103450705,0.9827368250689987,0.283530134479827,0.7517681065332931
0.07100000000000001,1.6765034288487046,1.0,2695.063138994159,0.550322819725394,1.2782867108492446,0.9828592420718774,0.2834661440116456,0.7530500847088932
0.07150000000000001,1.6749798462729568,1.0,2698.812733044419,0.5528451547603037,1.2775643537705683,0.982979181200856,0.2834021535434642,0.7543304512625217
0.07200000000000001,1.673456263697209,1.0,2702.660978835653,0.5553533400576003,1.2768411193456228,0.9830967083769795,0.28333816307528276,0.7556090390288986
0.0725,1.6719326811214612,1.0,2706.5985361061353,0.5578474551436975,1.2761170947053555,0.9832118874385777,0.28327417260710136,0.7568856824345465
0.073,1.6704090985457134,1.0,2710.6160412859485,0.5603275795450089,1.275392366980713,0.9833247802229497,0.28321018213891996,0.7581602175024245
0.0735,1.6688855159699656,1.0,2714.704106054856,0.5627937927879483,1.2746670233026423,0.9834354466443556,0.28314619167073857,0.7594324818560771
0.074,1.6673619333942178,1.0,2718.8595369606196,0.5652461665733153,1.2739410941459561,0.9835439418212822,0.2830822012025571,0.7607024137057283
