Time [s],Phi [rad],STIM [ ],Fsee [N],Gamma [ ],Lcerel [ ],q [ ],Lmtc [m],fisomrel [ ]
0.0,1.8,1.0,17.96698690908577,1.0311698230053125e-05,1.3793397654064457,0.0050000283322665234,0.288653,0.5411394846345114
0.0005,1.79999375,1.0,18.276439645142872,0.005619463166552437,1.3793024216137706,0.012941380221290748,0.2886527375,0.5412298244831932
0.001,1.799975,1.0,21.6183004325719,0.011197151730058148,1.3789383103994541,0.03561020368170097,0.28865195,0.5421101942334405
0.0015,1.79994375,1.0,31.069557375371076,0.016743553871627903,1.378046176349332,0.07060393344502675,0.2886506375,0.5442636752157202
0.002,1.7999,1.0,53.583422414746884,0.022258845082490743,1.3763680645693728,0.11472047600364198,0.2886488,0.5483006376667872
0.0025,1.79984375,1.0,97.12085767081294,0.027743199869789695,1.3739350747386285,0.1645775450642507,0.28864643749999996,0.5541216832915061
0.003,1.7997750000000001,1.0,160.9609054897057,0.03319679176429642,1.3712142412457269,0.21728318884318268,0.28864354999999997,0.560586693547064
0.0035,1.79969375,1.0,237.68655836297458,0.038619793320004446,1.3685846348388997,0.27061560738135865,0.2886401375,0.5667900732164382
0.004,1.7996,1.0,321.4703093406399,0.0440123761249109,1.366155998688271,0.3229184334675674,0.2886362,0.5724801805631216
0.0045000000000000005,1.7994937500000001,1.0,409.2715112694397,0.04937471080620119,1.363922725893978,0.37303700552168806,0.2886317375,0.5776793672764562
0.005,1.799375,1.0,499.41740918671417,0.054706967021340695,1.361858259365647,0.42024979788332534,0.28862675,0.5824572708190822
0.0055,1.79924375,1.0,590.7944154981855,0.060009313505522896,1.359938756919865,0.4641758624562364,0.2886212375,0.586875291029918
0.006,1.7991000000000001,1.0,682.5221605955383,0.06528191801486727,1.3581463410880708,0.5046819515754274,0.2886152,0.5909795866238114
0.006500000000000001,1.79894375,1.0,773.885188681974,0.07052494738233583,1.3564671865156688,0.541802581725379,0.2886086375,0.5948059468673579
0.007,1.798775,1.0,864.2900647200585,0.07573856749946509,1.354890326288534,0.5756784385147192,0.28860155,0.5983828326110266
0.0075,1.79859375,1.0,953.2475732996496,0.08092294332906223,1.3534067121623847,0.6065114231509323,0.2885939375,0.6017337238474916
0.008,1.7984,1.0,1040.3628858807135,0.08607823889731928,1.3520085811028622,0.6345334282395865,0.2885858,0.6048786952485642
0.0085,1.79819375,1.0,1125.3205646507352,0.09120461737187521,1.350689151788063,0.6599856664119789,0.2885771375,0.6078352003130385
0.009000000000000001,1.797975,1.0,1207.8812477175777,0.09630224074368825,1.3494422937466681,0.6831055038494538,0.28856795,0.610618888204934
0.0095,1.79774375,1.0,1287.8744134887886,0.10137127073659359,1.3482623592430396,0.7041186662884193,0.2885582375,0.6132440342298215
0.01,1.7975,1.0,1365.161116314224,0.10641186751862831,1.3471444615338042,0.7232352352303488,0.288548,0.615722968196445
0.0105,1.79724375,1.0,1439.650958985373,0.1114241902846796,1.3460840532748524,0.7406475961497371,0.2885372375,0.6180670537909732
0.011,1.796975,1.0,1511.2974646698249,0.11640839759361248,1.3450768559703188,0.7565300772275162,0.28852595000000003,0.6202868733215557
0.0115,1.79669375,1.0,1580.102568459073,0.1213646482010287,1.344118703401386,0.7710394476671683,0.2885141375,0.6223925955655261
0.012,1.7964,1.0,1646.0514502488477,0.12629309808567904,1.3432062300425776,0.7843162950275334,0.28850180000000003,0.624392486160591
0.0125,1.79609375,1.0,1709.1602581560348,0.13119390282428564,1.3423361923513306,0.7964860134510572,0.2884889375,0.626294424127528
0.013000000000000001,1.7957750000000001,1.0,1769.4757872284554,0.1360672176242506,1.3415054200894208,0.8076602022526269,0.28847555,0.6281060205661616
0.0135,1.79544375,1.0,1827.063282071937,0.14091319746551503,1.340710908890981,0.8179381122882782,0.2884616375,0.6298344278146737
0.014,1.7951000000000001,1.0,1881.980783299098,0.14573199564094996,1.3399500555439228,0.8274080638953,0.2884472,0.6314858409938897
0.0145,1.79474375,1.0,1934.2830707279772,0.15052376378599575,1.3392205590151807,0.8361486296235946,0.2884322375,0.6330657281295546
0.015,1.794375,1.0,1984.0460238621406,0.15528865353609275,1.3385201182716888,0.8442296492823299,0.28841675,0.6345794946598272
0.0155,1.79399375,1.0,2031.3490347130364,0.16002681550559178,1.3378465983151107,0.8517133058223081,0.2884007375,0.6360321301240697
0.016,1.7936,1.0,2076.294061174051,0.16473840128053446,1.3371978047356772,0.8586549573554669,0.2883842,0.6374287005147963
0.0165,1.7931937500000001,1.0,2118.9538888763504,0.16942355912815094,1.3365720050849117,0.8651041005565309,0.2883671375,0.6387732314831702
0.017,1.792775,1.0,2159.401599383935,0.1740824364275344,1.335967591409635,0.8711049606329285,0.28834955,0.6400694436301295
0.0175,1.7923437500000001,1.0,2197.721255141797,0.17871518055777813,1.335382955756668,0.8766970780844916,0.2883314375,0.641321023558421
0.018000000000000002,1.7919,1.0,2234.0008134719146,0.18332193820098305,1.3348165519730706,0.8819158757076899,0.2883128,0.6425314940206126
0.0185,1.79144375,1.0,2268.331770751612,0.18790285617269606,1.334266888154558,0.8867931374891996,0.2882936375,0.6437042330467735
0.019,1.790975,1.0,2300.797080125692,0.1924580798950746,1.333732636500628,0.8913574555044268,0.28827395,0.6448422427753182
0.0195,1.79049375,1.0,2331.464437477189,0.19698775219295478,1.3332126868860457,0.895634605931946,0.2882537375,0.645948039853897
0.02,1.79,1.0,2360.4072654493957,0.20149201589117274,1.3327059291855772,0.8996478169932048,0.288233,0.6470241220815105
0.0205,1.78949375,1.0,2387.7042361440217,0.20597101381456462,1.332211253273988,0.9034180551005923,0.2882117375,0.6480729693817799
0.021,1.788975,1.0,2413.427630234744,0.21042488710104157,1.3317276572030825,0.9069642985193768,0.28818995000000003,0.6490968158372263
0.021500000000000002,1.78844375,1.0,2437.6634652579205,0.2148537792109039,1.331254046839419,0.910303714430534,0.2881676375,0.6500980754225385
0.022,1.7879,1.0,2460.477592933027,0.2192578299830241,1.330789559128467,0.9134519186110506,0.2881448,0.6510786593481963
0.0225,1.78734375,1.0,2481.9267960278917,0.22363717730279947,1.3303334478171727,0.9164231174935064,0.28812143749999997,0.6520402208329696
0.023,1.786775,1.0,2502.070568731861,0.2279919590556272,1.3298849666524812,0.9192302344648238,0.28809755,0.6529844029868984
0.0235,1.78619375,1.0,2520.970890834804,0.23232231312690438,1.3294433693813386,0.9218850434965686,0.28807313749999996,0.6539128391921905
0.024,1.7856,1.0,2538.6920142535287,0.2366283774020283,1.3290079097506906,0.9243982872619763,0.2880482,0.6548271534486015
0.0245,1.78499375,1.0,2555.287753003525,0.24091028629765648,1.328577959020537,0.9267798007236183,0.2880227375,0.6557287144320735
0.025,1.784375,1.0,2570.8307086080986,0.24516818010402514,1.3281527286937196,0.9290385582023065,0.28799675,0.6566192176366903
0.025500000000000002,1.78374375,1.0,2585.364391851237,0.2494021914912451,1.3277317185149031,0.9311828276782323,0.2879702375,0.6574997470639934
0.026000000000000002,1.7831000000000001,1.0,2598.933175289712,0.25361245301862473,1.327314432057976,0.9332201951262966,0.2879432,0.6583713729801168
0.0265,1.78244375,1.0,2611.5825936848864,0.2577990972454723,1.3269003728968254,0.9351576294493613,0.2879156375,0.6592351600762645
0.027,1.781775,1.0,2623.3592436157855,0.2619622567310962,1.3264890446053397,0.9370015409524861,0.28788755,0.660092167578739
0.0275,1.7810937500000001,1.0,2634.3106885565353,0.26610206403480463,1.3260799507574066,0.9387578335638743,0.2878589375,0.6609434493432631
0.028,1.7804,1.0,2644.4750691740473,0.2702186477190958,1.3256726900453464,0.9404319639347924,0.2878298,0.6617898563731752
0.0285,1.77969375,1.0,2653.90531330677,0.2743121435665485,1.325266731488055,0.9420289539272246,0.2878001375,0.6626325044230787
0.029,1.778975,1.0,2662.6379182359224,0.27838268071614314,1.3248617021967113,0.9435534651063533,0.28776995,0.6634721761666303
0.029500000000000002,1.7782437500000001,1.0,2670.704105643323,0.28243038590492797,1.3244572829494343,0.9450098174636232,0.2877392375,0.6643095393529042
0.03,1.7775,1.0,2678.135576546318,0.28645538586995095,1.324053154524343,0.9464020128219488,0.287708,0.6651452584273669
0.0305,1.77674375,1.0,2684.9644681554464,0.2904578073482601,1.3236489976995565,0.9477337623077635,0.2876762375,0.6659799945410475
0.031,1.775975,1.0,2691.2233129914102,0.2944377770769035,1.3232444932531942,0.9490085111264658,0.28764395,0.666814405553207
0.0315,1.7751937500000001,1.0,2696.945000261212,0.2983954217929292,1.322839321963375,0.9502294609351858,0.2876111375,0.6676491460275138
0.032,1.7744,1.0,2702.158257546729,0.3023308655444196,1.3224332055529995,0.9513995942544753,0.2875778,0.668484783025565
0.0325,1.77359375,1.0,2706.8902235098894,0.30624423225621106,1.3220258827168108,0.9525216902710267,0.2875439375,0.669321845856055
0.033,1.772775,1.0,2711.18013364148,0.31013565414001726,1.3216169839797194,0.9535983290082246,0.28750955,0.6701610829585106
0.0335,1.7719437500000002,1.0,2715.047392653817,0.31400525131488527,1.3212063228358941,0.9546319351070407,0.2874746375,0.671002864063276
0.034,1.7711000000000001,1.0,2718.511567141583,0.3178531438998622,1.3207937127795033,0.9556247725706007,0.2874392,0.6718475568913953
0.0345,1.7702437500000001,1.0,2721.5923699116706,0.3216794520139951,1.320378967304716,0.956578957302205,0.2874032375,0.6726955271325374
0.035,1.7693750000000001,1.0,2724.309645084538,0.3254842957763311,1.3199618999057003,0.9574964685247713,0.28736675,0.6735471384207098
0.035500000000000004,1.76849375,1.0,2726.6833539666322,0.3292677953059173,1.3195423240766253,0.958379159193189,0.2873297375,0.6744027523077455
0.036000000000000004,1.7676,1.0,2728.7335616938294,0.3330300707218008,1.3191200533116594,0.9592287654988648,0.2872922,0.675262728234578
0.0365,1.76669375,1.0,2730.480424646567,0.33677124214302856,1.3186949011049713,0.9600469155550003,0.2872541375,0.6761274235002951
0.037,1.765775,1.0,2731.9441786356656,0.3404914296886479,1.3182666809507295,0.9608351373416288,0.28721555,0.676997193228975
0.0375,1.76484375,1.0,2733.141067251474,0.34419074431532465,1.3178352432278913,0.961594867632874,0.2871764375,0.6778723155684541
0.038,1.7639,1.0,2734.0935162625033,0.34786931506303975,1.3174003826710567,0.9623274553845291,0.28713679999999997,0.6787531794651362
0.0385,1.76294375,1.0,2734.8133535292113,0.3515272555145034,1.316961990712612,0.9630341754103949,0.28709663750000003,0.6796399759040117
0.039,1.761975,1.0,2735.3123401414105,0.35516467905488597,1.3165199597276878,0.9637162277629457,0.28705595,0.6805328925190782
0.0395,1.7609937500000001,1.0,2735.6022692663937,0.35878169906935764,1.3160741820914144,0.9643747428766152,0.2870147375,0.6814321154822813
0.04,1.76,1.0,2735.6949614895666,0.36237842894308886,1.315624550178923,0.9650107863474872,0.286973,0.682337829478165
0.0405,1.7589937500000001,1.0,2735.602260413314,0.3659549820612498,1.3151709563653438,0.9656253633359458,0.2869307375,0.6832502176777888
0.041,1.757975,1.0,2735.3360285114586,0.3695114718090109,1.3147132930258076,0.9662194226256944,0.28688795,0.684169461711901
0.0415,1.75694375,1.0,2734.9081432412277,0.3730480115715424,1.3142514525354452,0.9667938603692756,0.2868446375,0.6850957416433765
0.042,1.7559,1.0,2734.3304934119697,0.3765647147340146,1.3137853272693871,0.9673495235473127,0.28680079999999997,0.6860292359389146
0.0425,1.75484375,1.0,2733.6029712780364,0.3800616720251892,1.3133149186373902,0.9678872184837335,0.2867564375,0.6869699035690228
0.043000000000000003,1.753775,1.0,2732.74887019479,0.3835390209576143,1.3128400155807933,0.9684076984449592,0.28671155,0.687918127077197
0.043500000000000004,1.75269375,1.0,2731.7795887331163,0.38699687754751705,1.3123605150735624,0.9689116818845803,0.28666613750000003,0.6888740708640905
0.044,1.7516,1.0,2730.7008205576767,0.3904353469393205,1.311876365931469,0.9693998519049044,0.2866202,0.6898377945579734
0.0445,1.75049375,1.0,2729.5182617209466,0.39385453427744765,1.3113875169702847,0.9698728560843424,0.2865737375,0.6908093567445175
0.045,1.7493750000000001,1.0,2728.2376095611376,0.39725454470632127,1.3108939170057812,0.9703313086698301,0.28652675,0.6917888149515384
0.0455,1.74824375,1.0,2726.864561658504,0.40063548337036436,1.31039551485373,0.9707757926133085,0.2864792375,0.692776225633571
0.046,1.7471,1.0,2725.404814849729,0.40399745541399973,1.3098922593299027,0.9712068614647559,0.2864312,0.6937716441562766
0.0465,1.7459437500000001,1.0,2723.864064300238,0.40734056598165036,1.309384099250071,0.9716250411331631,0.28638263750000004,0.6947751247806833
0.047,1.744775,1.0,2722.24800263453,0.4106649202177391,1.308870983430006,0.9720308315258341,0.28633355,0.6957867206472605
0.0475,1.74359375,1.0,2720.5623191253812,0.4139706232666889,1.3083528606854797,0.972424708075494,0.28628393750000003,0.6968064837598251
0.048,1.7424,1.0,2718.8126989395564,0.41725778027292265,1.3078296798322637,0.9728071231638643,0.2862338,0.6978344649692794
0.0485,1.74119375,1.0,2717.004822443648,0.42052649638086326,1.3073013896861296,0.9731785074496243,0.2861831375,0.6988707139571859
0.049,1.739975,1.0,2715.1443645658933,0.4237768767349337,1.3067679390628486,0.9735392711080068,0.28613195,0.6999152792191723
0.0495,1.73874375,1.0,2713.2369942177193,0.4270090264795568,1.3062292767781927,0.9738898049886637,0.2860802375,0.7009682080481667
0.05,1.7375,1.0,2711.2867255559163,0.43022304568937736,1.305685366679835,0.974230482116798,0.286028,0.7020295172124198
0.0505,1.73624375,1.0,2709.2934559395862,0.43341902398631105,1.3051362101330217,0.9745616595788351,0.2859752375,0.7030991494440575
0.051000000000000004,1.734975,1.0,2707.268964532706,0.43659708854908064,1.3045817000708784,0.974883675245556,0.28592195,0.7041772575954512
0.051500000000000004,1.73369375,1.0,2705.215353120175,0.4397573358620844,1.304021817630614,0.9751968539164243,0.2858681375,0.7052638214431687
0.052000000000000005,1.7324,1.0,2703.134720869321,0.4428998624097205,1.3034565439494379,0.9755015058020929,0.2858138,0.7063588199434403
0.0525,1.73109375,1.0,2701.0291642198854,0.4460247646763873,1.3028858601645592,0.9757979273040754,0.28575893750000003,0.707462231225686
0.053,1.729775,1.0,2698.9007767817484,0.44913213914648314,1.3023097474131868,0.9760864017462213,0.28570355000000003,0.7085740325860178
0.0535,1.72844375,1.0,2696.7516492403684,0.45222208230440625,1.3017281868325303,0.9763672000613698,0.2856476375,0.7096942004807196
0.054,1.7271,1.0,2694.5838692707343,0.45529469063455497,1.3011411595597986,0.976640581436284,0.2855912,0.7108227105197065
0.0545,1.7257437500000001,1.0,2692.3995214583615,0.4583500606213275,1.300548646732201,0.9769067939177338,0.2855342375,0.7119595374599575
0.055,1.724375,1.0,2690.2006872286906,0.4613882887491222,1.2999506294869463,0.9771660749823723,0.28547675,0.7131046551989307
0.0555,1.72299375,1.0,2687.989444784548,0.4644094715023373,1.2993470889612437,0.9774186520728554,0.2854187375,0.7142580367679503
0.056,1.7216,1.0,2685.7678690507673,0.4674137053653712,1.2987380062923028,0.9776647431024662,0.2853602,0.7154196543255741
0.0565,1.72019375,1.0,2683.5380316276537,0.470401086822622,1.2981233626173325,0.9779045569303368,0.28530113749999997,0.7165894791509391
0.057,1.718775,1.0,2681.3020007516798,0.47337171235848813,1.2975031390735419,0.9781382938092081,0.28524155,0.7177674816370816
0.0575,1.71734375,1.0,2679.0620449190105,0.47632567531320497,1.2968773149296473,0.978366145422966,0.2851814375,0.7189536348219484
0.058,1.7159,1.0,2676.822705423859,0.4792630442316599,1.2962458485586976,0.9785882923550798,0.2851208,0.7201479502925293
0.0585,1.71444375,1.0,2674.5829228214216,0.4821839534752975,1.2956087496926916,0.97880491648672,0.2850596375,0.7213503415341953
0.059000000000000004,1.7129750000000001,1.0,2672.3435116320056,0.4850884910674342,1.2949660108651033,0.9790161875109724,0.28499795,0.7225607539359942
0.059500000000000004,1.71149375,1.0,2670.1052850146166,0.48797674503138627,1.2943176246094075,0.9792222684230507,0.2849357375,0.7237791321564921
0.06,1.71,1.0,2667.86905476639,0.49084880339047005,1.2936635834590782,0.9794233158349221,0.284873,0.7250054201210875
0.0605,1.7084937500000001,1.0,2665.6356313238457,0.493704754168002,1.2930038799475898,0.9796194802727926,0.2848097375,0.7262395610193189
0.061,1.7069750000000001,1.0,2663.4058237650192,0.4965446853872985,1.292338506608417,0.9798109064585028,0.28474595,0.7274814973021702
0.0615,1.7054437500000001,1.0,2661.180439812765,0.49936868507167587,1.2916674559750339,0.9799977335758279,0.2846816375,0.728731170679374
0.062,1.7039,1.0,2658.9602858399103,0.5021768412444505,1.2909907205809148,0.9801800955225917,0.2846168,0.7299885221167091
0.0625,1.70234375,1.0,2656.7461668746446,0.5049692419289388,1.2903082929595344,0.980358121149459,0.2845514375,0.7312534918332945
0.063,1.7007750000000001,1.0,2654.5388866080793,0.507745975148457,1.2896201656443667,0.9805319344861975,0.28448555,0.7325260192988827
0.0635,1.69919375,1.0,2652.3392474025927,0.5105071289263217,1.288926331168886,0.9807016549561607,0.28441913750000003,0.7338060432311453
0.064,1.6976,1.0,2650.148050301089,0.513252791285849,1.2882267820665674,0.9808673975796826,0.2843522,0.7350935015929576
0.0645,1.69599375,1.0,2647.966095038591,0.5159830502503555,1.2875215108708846,0.9810292731670363,0.2842847375,0.7363883315896804
0.065,1.694375,1.0,2645.7941800538692,0.5186979938431575,1.286810510115312,0.9811873885015644,0.28421675,0.7376904696664366
0.0655,1.69274375,1.0,2643.6331025027052,0.5213977100875713,1.2860937723333241,0.9813418465135471,0.2841482375,0.738999851505383
0.066,1.6911,1.0,2641.483658272798,0.5240822870069134,1.2853712900583956,0.9814927464453409,0.2840792,0.7403164120229817
0.0665,1.6894437500000001,1.0,2639.3491402839886,0.5267518088860954,1.2846430327309697,0.9816401826262353,0.2840096375,0.7416401272886356
0.067,1.687775,1.0,2637.223844342578,0.529406357254451,1.2839090529416755,0.9817842498932979,0.28393955,0.7429708216127581
0.0675,1.68609375,1.0,2635.1091426007406,0.532046015586317,1.2831693379032894,0.9819250367644415,0.2838689375,0.7443084377277192
0.068,1.6844000000000001,1.0,2633.0067957769165,0.534670867325178,1.282423871212457,0.9820626285001853,0.2837978,0.7456529240094693
0.0685,1.68269375,1.0,2630.9148512942465,0.5372809956232593,1.2816726708192623,0.9821971090215273,0.2837261375,0.7470041661783913
0.069,1.680975,1.0,2628.833896685571,0.5398764835210145,1.280915731176339,0.9823285582614996,0.28365395,0.7483620917655065
0.0695,1.67924375,1.0,2626.7659108993294,0.542457412788211,1.2801530338356646,0.9824570527425499,0.28358123749999997,0.7497266506143909
0.07,1.6775,1.0,2624.7108189504747,0.5450238648653607,1.2793845793593766,0.9825826672541376,0.283508,0.7510977577046691
0.07050000000000001,1.67574375,1.0,2622.6658618802403,0.5475759210474258,1.2786103931995,0.9827054752122897,0.2834342375,0.7524752831671555
0.07100000000000001,1.673975,1.0,2620.6378471179373,0.5501136624304126,1.277830412105701,0.9828255435045596,0.28335995,0.7538592541746696
0.07150000000000001,1.67219375,1.0,2618.6278615460765,0.5526371692581529,1.2770446258177615,0.9829429391409535,0.2832851375,0.755249602377221
0.07200000000000001,1.670400237224456,1.0,2616.632181268518,0.5551465210162649,1.2762531758561373,0.9830577337560062,0.28320980996342715,0.7566459911651725
0.0725,1.6686026725091203,1.0,2615.034842501891,0.5576417971903669,1.2754562037412842,0.9831699966928348,0.28313431224538305,0.7580480861621177
0.073,1.6668051077937849,1.0,2614.005093107108,0.5601230765512024,1.2746539639553827,0.9832798001155904,0.28305881452733894,0.759455357409424
0.0735,1.6650075430784494,1.0,2613.4839245259823,0.5625904386065205,1.273847001523911,0.9833872269488506,0.2829833168092949,0.7608667721822804
0.074,1.6632099783631138,1.0,2613.4336552240825,0.5650439607072737,1.2730356650670103,0.9834923488574709,0.2829078190912508,0.7622816505147174
0.0745,1.6614124136477784,1.0,2613.817011131543,0.5674837201668788,1.2722203006808053,0.9835952352609728,0.2828323213732067,0.7636993236519514
0.075,1.6596148489324427,1.0,2614.596821610061,0.5699097942987527,1.2714012544614213,0.9836959535360035,0.2827568236551626,0.765119129709078
