Time [s],Phi [rad],STIM [ ],Fsee [N],Gamma [ ],Lcerel [ ],q [ ],Lmtc [m],fisomrel [ ]
0.0,1.8,1.0,18.225451722752645,0.0005169164800122202,1.379310911963054,0.005069021427021057,0.288653,0.5412092859239679
0.0005,1.79999375,1.0,18.69370122902911,0.006123226296191606,1.3792563331596939,0.014407543803204546,0.2886527375,0.5413413066271151
0.001,1.799975,1.0,22.411512445699074,0.011698089146889851,1.378858025131716,0.03829889132920244,0.28865195,0.5423041989582147
0.0015,1.79994375,1.0,32.69096707955032,0.017241681425628836,1.3779097952089367,0.07425233091518074,0.2886506375,0.5445924320316948
0.002,1.7999,1.0,56.847044433074025,0.02275417853451606,1.3761594689388938,0.11902071217495715,0.2886488,0.5488011923712034
0.0025,1.79984375,1.0,102.41393766813178,0.028235754893259916,1.3736833999429288,0.1692427381648604,0.28864643749999996,0.5547216728542512
0.003,1.7997750000000001,1.0,167.72649362157938,0.03368658394314806,1.3709636075786105,0.22208751287239478,0.28864354999999997,0.5611798528452254
0.0035,1.79969375,1.0,245.26351697479268,0.03910683815166415,1.3683530769746284,0.27538807349166733,0.2886401375,0.5673342177401898
0.004,1.7996,1.0,329.49209360233607,0.04449668901980028,1.365944842582042,0.32753524307730303,0.2886362,0.5729731255982288
0.0045000000000000005,1.7994937500000001,1.0,417.54338713818737,0.04985630705297376,1.3637295256495756,0.37741674006647963,0.2886317375,0.5781276536056592
0.005,1.799375,1.0,507.85253751245233,0.055185861953504146,1.3616797648244536,0.42434518989611925,0.28862675,0.5828690934838263
0.0055,1.79924375,1.0,599.2852396099346,0.06048552219517547,1.3597734591598296,0.4679663026830371,0.2886212375,0.5872546495030945
0.006,1.7991000000000001,1.0,691.0097037253787,0.06575545555059449,1.3579925372852746,0.5081645270487746,0.2886152,0.591330813928735
0.006500000000000001,1.79894375,1.0,782.3114626583001,0.0709958287407957,1.3563237342852241,0.5449863464000505,0.2886086375,0.5951320037788042
0.007,1.798775,1.0,872.6101038050967,0.07620680757780648,1.3547562532168578,0.578579543205417,0.28860155,0.5986862270520941
0.0075,1.79859375,1.0,961.4255608068789,0.08138855700034683,1.353281195180666,0.6091498265642886,0.2885939375,0.6020165724863527
0.008,1.7984,1.0,1048.358309179703,0.08654124068118207,1.3518910901581402,0.6369307603408096,0.2885858,0.6051424128422054
0.0085,1.79819375,1.0,1133.1238927696104,0.09166502214096936,1.3505788765038897,0.6621634494426709,0.2885771375,0.6080817963943572
0.009000000000000001,1.797975,1.0,1215.4771037637097,0.09676006334292334,1.3493386672502707,0.685084589625344,0.28856795,0.6108497945274383
0.0095,1.79774375,1.0,1295.2308161337398,0.10182652510570965,1.3481651523060314,0.7059187711404272,0.2885582375,0.6134599066317536
0.01,1.7975,1.0,1372.2668097994126,0.10686456779384444,1.3470532524980285,0.7248744023854412,0.288548,0.6159248722274862
0.0105,1.79724375,1.0,1446.5221270391214,0.11187435164503726,1.3459981574473605,0.7421421019228568,0.2885372375,0.6182566168464017
0.011,1.796975,1.0,1517.934637273115,0.11685603453576818,1.3449958681943035,0.7578947279163668,0.28852595000000003,0.6204650858700853
0.0115,1.79669375,1.0,1586.479304157554,0.1218097737493601,1.344042599722333,0.7722876842073394,0.2885141375,0.6225595968631967
0.012,1.7964,1.0,1652.1682591752776,0.1267357261347679,1.3431347001313991,0.7854599909859722,0.28850180000000003,0.6245490356050216
0.0125,1.79609375,1.0,1715.0434269664022,0.1316340484234517,1.342268672099859,0.7975356371550196,0.2884889375,0.6264418242952783
0.013000000000000001,1.7957750000000001,1.0,1775.1360323826625,0.13650489516976946,1.3414415711900554,0.8086251516456211,0.28847555,0.6282450684415382
0.0135,1.79544375,1.0,1832.4854588960227,0.14134841990403255,1.340650713615888,0.8188268586562222,0.2884616375,0.629965214646002
0.014,1.7951000000000001,1.0,1887.1575692092097,0.14616477606236017,1.3398934261852256,0.8282281065559706,0.2884472,0.6316086059823617
0.0145,1.79474375,1.0,1939.2314220389471,0.15095411617772111,1.3391671628095454,0.8369065465430182,0.2884322375,0.6331812361980974
0.015,1.794375,1.0,1988.789612653259,0.15571659278672095,1.3384695754843772,0.8449312754918585,0.28841675,0.6346886048195967
0.0155,1.79399375,1.0,2035.895581215029,0.16045235544563288,1.3377987205428425,0.8523638965383382,0.2884007375,0.6361352818865388
0.016,1.7936,1.0,2080.6286240818617,0.16516155371072996,1.3371526543180623,0.8592592722110237,0.2883842,0.6375257898159605
0.0165,1.7931937500000001,1.0,2123.0763295947804,0.16984433655077869,1.336529497153876,0.8656663423454476,0.2883671375,0.6388644692135186
0.017,1.792775,1.0,2163.330521334497,0.17450085282005795,1.3359274588683965,0.871628832983303,0.28834955,0.6401554285019828
0.0175,1.7923437500000001,1.0,2201.486762520756,0.17913125126067805,1.335344828226835,0.8771858677351331,0.2883314375,0.6414025707318703
0.018000000000000002,1.7919,1.0,2237.611233557953,0.18373567681477385,1.3347802919489065,0.8823725898630675,0.2883128,0.6426089162072863
0.0185,1.79144375,1.0,2271.7782464911597,0.18831427442448012,1.3342325367543264,0.8872205206042939,0.2882936375,0.6437774597409689
0.019,1.790975,1.0,2304.069572892384,0.19286718903193178,1.3337002493628094,0.8917579783721846,0.28827395,0.6449111721147922
0.0195,1.79049375,1.0,2334.5705724153963,0.19739456511015052,1.333182148314277,0.8960104532382017,0.2882537375,0.6460129338159539
0.02,1.79,1.0,2363.361968630457,0.2018965461285555,1.332677057514574,0.9000009442946583,0.288233,0.6470853807507805
0.0205,1.78949375,1.0,2390.529742416976,0.2063732763635193,1.3321838018444994,0.9037502155666544,0.2882117375,0.6481311281636939
0.021,1.788975,1.0,2416.134881054449,0.21082489581540173,1.3317014948386476,0.9072771031730142,0.28818995000000003,0.649152163015965
0.021500000000000002,1.78844375,1.0,2440.2422202654666,0.2152515444845627,1.3312292500316145,0.9105986652840262,0.2881676375,0.6501504589397137
0.022,1.7879,1.0,2462.920126787881,0.21965336237136204,1.3307661809579945,0.9137303744555765,0.2881448,0.6511279768318343
0.0225,1.78734375,1.0,2484.240198369446,0.22403048947615967,1.330311401152383,0.9166862869592419,0.28812143749999997,0.6520866653977979
0.023,1.786775,1.0,2504.261640630983,0.2283830628048544,1.3298641697247457,0.9194792184502382,0.28809755,0.6530281553947836
0.0235,1.78619375,1.0,2523.0658349713194,0.2327112243498139,1.3294235593249444,0.9221208142035558,0.28807313749999996,0.6539544596992501
0.024,1.7856,1.0,2540.7022939098265,0.2370151092826011,1.3289889665701626,0.9246217570000645,0.2880482,0.6548669001119146
0.0245,1.78499375,1.0,2557.2205707267344,0.2412948524076722,1.328559804855933,0.9269918114851893,0.2880227375,0.655766755845125
0.025,1.784375,1.0,2572.671872589863,0.24555058852948336,1.3281354875777887,0.9292399131024186,0.28799675,0.6566552990819099
0.025500000000000002,1.78374375,1.0,2587.108920313146,0.2497824524524907,1.327715428131262,0.9313742498280246,0.2879702375,0.6575337951681877
0.026000000000000002,1.7831000000000001,1.0,2600.5858157449875,0.25399057898115035,1.3272990399118856,0.9334023348525164,0.2879432,0.6584035027830292
0.0265,1.78244375,1.0,2613.147615441817,0.25817509904482244,1.326885832012303,0.9353310847447524,0.2879156375,0.6592654745842618
0.027,1.781775,1.0,2624.8550860234473,0.2623361505263668,1.3264751776077386,0.9371668444683741,0.28788755,0.660121040835445
0.0275,1.7810937500000001,1.0,2635.745963625653,0.26647386344457086,1.3260666728425579,0.9389154890364643,0.2878589375,0.6609710614202307
0.028,1.7804,1.0,2645.8565757001775,0.27058836701320177,1.3256599340641237,0.9405824390383517,0.2878298,0.6618163499532863
0.0285,1.77969375,1.0,2655.223945865131,0.2746797904460267,1.325254577619799,0.9421726993043025,0.2878001375,0.6626577159992543
0.029,1.778975,1.0,2663.8857324963005,0.27874826295681276,1.3248502198569465,0.9436908962035084,0.28776995,0.6634959651112676
0.029500000000000002,1.7782437500000001,1.0,2671.880170581642,0.2827939137593271,1.324446477122929,0.9451413111483143,0.2877392375,0.6643318988600789
0.03,1.7775,1.0,2679.245734313444,0.2868168718821532,1.3240429683571373,0.9465279110130208,0.287708,0.6651663094971152
0.0305,1.77674375,1.0,2686.01047594376,0.29081725866894276,1.3236394122886932,0.9478543853948352,0.2876762375,0.6659997793795576
0.031,1.775975,1.0,2692.2249018492253,0.29479521287107047,1.323235325527878,0.9491241397806713,0.28764395,0.6668333046265522
0.0315,1.7751937500000001,1.0,2697.9124585718123,0.2987508572603831,1.3228304760099165,0.950340365617581,0.2876111375,0.6676673589260546
0.032,1.7744,1.0,2703.0968634297556,0.30268431460872725,1.3224246316700339,0.9515060318987865,0.2875778,0.6685024135600861
0.0325,1.77359375,1.0,2707.802079993452,0.3065957076879496,1.322017560443455,0.9526239033908183,0.2875439375,0.6693389373917278
0.033,1.772775,1.0,2712.0522947552995,0.3104851592698968,1.3216090302654049,0.9536965571577595,0.28750955,0.6701773968486795
0.0335,1.7719437500000002,1.0,2715.87189499408,0.31435279212641554,1.3211988090711089,0.9547263975598693,0.2874746375,0.6710182559033844
0.034,1.7711000000000001,1.0,2719.285447832482,0.3181987290293525,1.3207866647957915,0.9557156698836478,0.2874392,0.6718619760497209
0.0345,1.7702437500000001,1.0,2722.3176804895065,0.32202309275055424,1.3203723653746782,0.9566664727426912,0.2874032375,0.6727090162762555
0.035,1.7693750000000001,1.0,2724.9926211411353,0.3258260048339128,1.3199556863899113,0.9575807698902185,0.28736675,0.6735598174322727
0.035500000000000004,1.76849375,1.0,2727.3290295290935,0.32960757975928007,1.3195364524468203,0.958460403442769,0.2873297375,0.6744147179773627
0.036000000000000004,1.7676,1.0,2729.354423277361,0.3333679504578053,1.3191144094429983,0.9593070957954306,0.2872922,0.6752742145594594
0.0365,1.76669375,1.0,2731.0833086369316,0.33710723264679016,1.318689422403651,0.9601224703437728,0.2872541375,0.6761385588266178
0.037,1.765775,1.0,2732.5302608542083,0.34082554204353627,1.3182613563539836,0.9609080507376063,0.28721555,0.6770080008026872
0.0375,1.76484375,1.0,2733.7099162897507,0.34452299436534517,1.317830076319202,0.9616652681210391,0.2871764375,0.6778827888613849
0.038,1.7639,1.0,2734.636964940529,0.34819970532951855,1.3173954473245115,0.962395467769987,0.28713679999999997,0.6787631696992131
0.0385,1.76294375,1.0,2735.3261433667526,0.3518557906533579,1.316957334395118,0.9630999151833324,0.28709663750000003,0.679649388307211
0.039,1.761975,1.0,2735.7922280216744,0.35549136605416504,1.3165156025562268,0.9637798016781693,0.28705595,0.6805416879415456
0.0395,1.7609937500000001,1.0,2736.0500289865354,0.3591065472492414,1.3160701168330435,0.9644362495344253,0.2870147375,0.6814403100929407
0.04,1.76,1.0,2736.11438410825,0.3627014499558887,1.3156207422507735,0.9650703167295926,0.286973,0.6823454944549452
0.0405,1.7589937500000001,1.0,2735.9966261009854,0.36627618493011027,1.3151673758596274,0.9656830032236857,0.2869307375,0.6832574145209067
0.041,1.757975,1.0,2735.7000077212497,0.3698308550617887,1.3147099882335367,0.9662752579483287,0.28688795,0.6841760947259159
0.0415,1.75694375,1.0,2735.253034587965,0.37336559970963307,1.3142483208032805,0.9668479639981649,0.2868446375,0.6851020180877504
0.042,1.7559,1.0,2734.6628287340077,0.37688052639045416,1.313782309228063,0.9674019669301496,0.28680079999999997,0.6860352755596438
0.0425,1.75484375,1.0,2733.9365207732803,0.38037574262106255,1.3133118891670876,0.9679380664650886,0.2867564375,0.686975956972419
0.043000000000000003,1.753775,1.0,2733.0812480898758,0.3838513559182689,1.3128369962795587,0.9684570194335278,0.28671155,0.6879241510165286
0.043500000000000004,1.75269375,1.0,2732.104153120996,0.38730747379888386,1.31235756622468,0.96895954250369,0.28666613750000003,0.688879945223835
0.044,1.7516,1.0,2731.0123817291524,0.390744203779718,1.311873534661656,0.9694463147096091,0.2866202,0.6898434259491228
0.0445,1.75049375,1.0,2729.8130816686535,0.39416165337758213,1.31138483724969,0.9699179797959359,0.2865737375,0.6908146783513525
0.045,1.7493750000000001,1.0,2728.513401141904,0.3975599301092868,1.310891409647986,0.9703751483943853,0.28652675,0.6917937863746433
0.0455,1.74824375,1.0,2727.1204874485707,0.4009391414916427,1.3103931875157486,0.9708184000454441,0.2864792375,0.6927808327289966
0.046,1.7471,1.0,2725.641485726302,0.4042993950414605,1.309890106512181,0.9712482850777326,0.2864312,0.6937758988707561
0.0465,1.7459437500000001,1.0,2724.0835377829426,0.4076407982755508,1.309382102296488,0.9716653263563197,0.28638263750000004,0.6947790649827981
0.047,1.744775,1.0,2722.4537810208167,0.41096345871072426,1.3088691105278727,0.9720700209102929,0.28633355,0.6957904099544667
0.0475,1.74359375,1.0,2720.7593474531686,0.4142674838637915,1.3083510668655398,0.9724628414489854,0.28628393750000003,0.6968100113612354
0.048,1.7424,1.0,2718.998903180736,0.4175529667124317,1.3078279840118214,0.9728442413730178,0.2862338,0.6978377941939344
0.0485,1.74119375,1.0,2717.1847409761795,0.42082002437427196,1.3072997505656212,0.9732146467130608,0.2861831375,0.6988739263466422
0.049,1.739975,1.0,2715.324716733235,0.42406876580739067,1.3067662954290282,0.9735744649977773,0.28613195,0.699918494862086
0.0495,1.73874375,1.0,2713.421138064371,0.42729929028613,1.306227597999859,0.9739240868380052,0.2860802375,0.7009714866812397
0.05,1.7375,1.0,2711.4763105291468,0.4305116970848322,1.3056836376759304,0.9742638846456497,0.286028,0.7020328879375335
0.0505,1.73624375,1.0,2709.4925374547324,0.4337060854778396,1.305134393855059,0.9745942136422272,0.2859752375,0.7031026839499545
0.051000000000000004,1.734975,1.0,2707.4721197662307,0.4368825547394944,1.3045798459350617,0.9749154128028232,0.28592195,0.7041808592161163
0.051500000000000004,1.73369375,1.0,2705.417355826051,0.44004120414413883,1.3040199733137552,0.9752278057401448,0.2858681375,0.7052673974053048
0.052000000000000005,1.7324,1.0,2703.330541282789,0.44318213296611514,1.3034547553889562,0.9755317015329547,0.2858138,0.7063622813514949
0.0525,1.73109375,1.0,2701.213968929749,0.4463054404797655,1.3028841715584814,0.9758273955028484,0.28575893750000003,0.7074654930463407
0.053,1.729775,1.0,2699.0699285723877,0.4494112259594323,1.3023082012201472,0.9761151699430098,0.28570355000000003,0.7085770136321397
0.0535,1.72844375,1.0,2696.9007069057184,0.45249958867945766,1.3017268237717712,0.9763952948023057,0.2856476375,0.7096968233947658
0.054,1.7271,1.0,2694.70858740087,0.45557062791418396,1.3011400186111692,0.9766680283278101,0.2855912,0.7108249017565837
0.0545,1.7257465411228157,1.0,2692.6335841454697,0.4586244429379533,1.3005477651361588,0.9769336176686195,0.28553435472715827,0.7119612272693251
0.055,1.7243923944497213,1.0,2691.11405154729,0.46166113063745295,1.2999501231977815,0.9771923040223888,0.28547748056688826,0.7131056237041955
0.0555,1.7230382477766268,1.0,2690.115513389015,0.4646807862628525,1.2993477147730084,0.9774443514983706,0.2854206064066183,0.7142568420286277
0.056,1.7216841011035324,1.0,2689.5973942302476,0.46768350457050833,1.298740908747759,0.9776899983261264,0.28536373224634837,0.7154141244915916
0.0565,1.720329954430438,1.0,2689.525138275602,0.4706693797276397,1.298130020275116,0.9779294697200018,0.28530685808607836,0.7165768208251241
0.057,1.7189758077573436,1.0,2689.864308360126,0.47363850590146567,1.2975153645081627,0.9781629816721069,0.2852499839258084,0.7177442853366551
0.0575,1.7176216610842492,1.0,2690.580558524092,0.47659097725920524,1.2968972565999821,0.9783907414135282,0.28519310976553847,0.7189158769878966
0.058,1.7162675144111548,1.0,2691.642073864216,0.4795268872539073,1.2962759891400426,0.9786129465174678,0.2851362356052685,0.720091002101688
0.0585,1.7149133677380604,1.0,2693.017971960284,0.4824463296937466,1.2956518466008047,0.9788297862709251,0.2850793614449985,0.7212690867395863
0.059000000000000004,1.713559221064966,1.0,2694.6818019096345,0.48534939726479587,1.2950250731616637,0.9790414401763654,0.28502248728472857,0.722449637136336
0.059500000000000004,1.7122050743918715,1.0,2696.612863654259,0.4882361808515196,1.294395860557996,0.9792480777019754,0.2849656131244586,0.7236322617548374
0.06,1.7108509277187771,1.0,2698.7904688310205,0.4911067713383824,1.2937644005251772,0.9794498617486672,0.28490873896418867,0.7248165720155717
0.0605,1.7094967810456827,1.0,2701.193930809565,0.4939612596098487,1.2931308847985834,0.9796469489605574,0.28485186480391866,0.7260021823252539
0.061,1.7081426343725883,1.0,2703.802899146348,0.49679973638701497,1.292495501975591,0.9798394898385386,0.2847949906436487,0.7271887159567826
0.0615,1.7067884876994939,1.0,2706.600225605723,0.49962229127711427,1.2918584112865947,0.9800276275680037,0.28473811648337877,0.7283758538305642
0.062,1.7054343410263995,1.0,2709.5672170260964,0.5024290151160473,1.291219785915806,0.9802115008005848,0.28468124232310876,0.729563253479439
0.0625,1.704080194353305,1.0,2712.6915112539086,0.5052199956199639,1.2905797410979525,0.9803912398023479,0.2846243681628388,0.7307506826002772
0.063,1.7027260476802106,1.0,2715.9607311710392,0.5079953205050136,1.2899383920677603,0.9805669700439119,0.28456749400256887,0.7319379107307453
0.0635,1.7013719010071162,1.0,2719.3624812153657,0.5107550774873464,1.2892958540599568,0.9807388124155937,0.28451061984229886,0.7331247092593117
0.064,1.7000177543340218,1.0,2722.884344196292,0.513499354283112,1.288652242309269,0.9809068834314005,0.2844537456820289,0.7343108514344103
0.0645,1.6986636076609274,1.0,2726.5216999803934,0.5162282313625444,1.2880076009163752,0.9810712913332409,0.28439687152175896,0.7354962430305929
0.065,1.697309460987833,1.0,2730.2536956997988,0.5189418057294355,1.2873621214591233,0.9812321490166555,0.28433999736148896,0.7366805202503574
0.0655,1.6959553143147386,1.0,2734.071439820466,0.5216401635338395,1.2867158864082522,0.9813895592466876,0.284283123201219,0.7378635219423796
0.066,1.6946011676416441,1.0,2737.9691815274937,0.5243233879388146,1.2860689495376032,0.9815436195729674,0.28422624904094906,0.7390451406583298
0.0665,1.6932470209685497,1.0,2741.941156579983,0.5269915621074194,1.2854213646210175,0.9816944241497385,0.28416937488067906,0.7402252698274112
0.067,1.6918928742954553,1.0,2745.9815865066416,0.5296447692027121,1.2847731854323363,0.9818420638795295,0.2841125007204091,0.7414038037586741
0.0675,1.690538727622361,1.0,2750.0846778646546,0.5322830923877512,1.2841244657454012,0.9819866265497831,0.28405562656013916,0.7425806376431453
0.068,1.6891845809492665,1.0,2754.2446215635796,0.534906614825595,1.283475259334053,0.982128196962838,0.28399875239986916,0.7437556675557762
0.0685,1.687830434276172,1.0,2758.4555922530953,0.5375154196793019,1.2828256199721335,0.9822668570596315,0.2839418782395992,0.7449287904572013
0.069,1.6864762876030777,1.0,2762.7117477744,0.5401095901119303,1.2821756014334837,0.9824026860374646,0.28388500407932926,0.746099904195318
0.0695,1.6851221409299832,1.0,2767.0072286764093,0.5426892092865384,1.2815252574919451,0.9825357604621554,0.2838281299190593,0.7472689075066773
0.07,1.6837679942568888,1.0,2771.3374610400297,0.545254357135875,1.2808746301651128,0.9826661536301783,0.2837712557587893,0.748435721076566
0.07050000000000001,1.6824138475837944,1.0,2775.7016382444817,0.5478051074185238,1.2802237273875148,0.9827939344944486,0.28371438159851936,0.7496003271972187
0.07100000000000001,1.6810597009107,1.0,2780.0894806115048,0.5503415592807942,1.2795726423927691,0.9829191751994696,0.2836575074382494,0.7507625562038419
0.07150000000000001,1.6797055542376056,1.0,2784.499055891448,0.5528637899335006,1.278921393001193,0.9830419408251305,0.28360063327797946,0.7519223741271496
0.07200000000000001,1.6783514075645112,1.0,2788.9284257539266,0.5553718765874571,1.2782699970331028,0.9831622943653116,0.28354375911770946,0.7530797472933576
0.0725,1.6769972608914168,1.0,2793.3756457266536,0.5578658964534782,1.2776184723088158,0.9832802968091157,0.2834868849574395,0.75423464232436
0.073,1.6756431142183223,1.0,2797.8387651407165,0.5603459267423783,1.2769668366486482,0.983396007218431,0.28343001079716956,0.755387026137886
