Time [s],Phi [rad],STIM [ ],Fsee [N],Gamma [ ],Lcerel [ ],q [ ],Lmtc [m],fisomrel [ ]
0.0,1.8,1.0,17.970866437436666,6.820754063128374e-05,1.3793393307909159,0.005001221265116613,0.288653,0.5411405360813142
0.0005,1.79999375,1.0,18.299614381300803,0.005677034259080893,1.3792998481457786,0.013102900670981393,0.2886527375,0.5412360497340222
0.001,1.799975,1.0,21.68455620647604,0.011254399894277612,1.3789315485116496,0.0359125377234863,0.28865195,0.5421265355311332
0.0015,1.79994375,1.0,31.227741150592472,0.016800480918934383,1.378032716814367,0.07101737768493642,0.2886506375,0.5442961256949894
0.002,1.7999,1.0,53.925021230256036,0.022315452814024694,1.376345938819795,0.11520987159152596,0.2886488,0.5483537446870127
0.0025,1.79984375,1.0,97.69543166410752,0.027799490076744492,1.3739074284919117,0.1651098154529519,0.28864643749999996,0.554187611347468
0.003,1.7997750000000001,1.0,161.70867720411698,0.033252766227689856,1.3711862841092177,0.2178322186101497,0.28864354999999997,0.5606528778354308
0.0035,1.79969375,1.0,238.53153047299924,0.03867545381088075,1.368558630729925,0.27116162299710406,0.2886401375,0.5668511980691419
0.004,1.7996,1.0,322.369308062622,0.04406772440442337,1.3661322044006057,0.32344708791016996,0.2886362,0.5725357426682178
0.0045000000000000005,1.7994937500000001,1.0,410.2024502555723,0.04942974862572966,1.3639008857204407,0.3735388113212863,0.2886317375,0.5777300553950218
0.005,1.799375,1.0,500.3673159040389,0.05476169612292436,1.3618380835948698,0.42071925678328465,0.28862675,0.5825038305497194
0.0055,1.79924375,1.0,591.7526792346815,0.06006373561904908,1.3599200424192683,0.46461049753689726,0.2886212375,0.5869182495692351
0.006,1.7991000000000001,1.0,683.4815520097316,0.06533603486304954,1.3581289080816394,0.5050813701739834,0.2886152,0.5910194043247852
0.006500000000000001,1.79894375,1.0,774.8402092011414,0.07057876068199825,1.35645088875676,0.5421677653146318,0.2886086375,0.5948429971445025
0.007,1.798775,1.0,865.2198143762495,0.07579207866528778,1.3548753119261236,0.5760113698990484,0.28860155,0.5984168143665065
0.0075,1.79859375,1.0,954.167096431316,0.08097615437899301,1.3533925723877296,0.6068141736033499,0.2885939375,0.6017655924144876
0.008,1.7984,1.0,1041.2875769904433,0.08613115193463866,1.3519949699420493,0.6348082999138894,0.2885858,0.6049092510698209
0.0085,1.79819375,1.0,1126.2291968667928,0.09125723363299891,1.3506762915283053,0.6602353144694555,0.2885771375,0.6078639622447547
0.009000000000000001,1.797975,1.0,1208.7574115567,0.09635456177484794,1.34943032408572,0.6833324329048849,0.28856795,0.6106455631675661
0.0095,1.79774375,1.0,1288.7207688395108,0.10142329812457214,1.3482511614604622,0.7043250807947173,0.2885582375,0.6132689047877522
0.01,1.7975,1.0,1365.979798723259,0.10646360302203647,1.3471339408059793,0.723423179056941,0.288548,0.6157462600143842
0.0105,1.79724375,1.0,1440.4425022477953,0.1114756356458278,1.3460741478354388,0.7408189450329938,0.2885372375,0.6180889164540015
0.011,1.796975,1.0,1512.0554958298972,0.11645955413435022,1.3450675973769242,0.7566865659978727,0.28852595000000003,0.6203072488536894
0.0115,1.79669375,1.0,1580.8395100569721,0.12141551799935489,1.34410990047274,0.7711825309148366,0.2885141375,0.6224119145301052
0.012,1.7964,1.0,1646.768209287228,0.12634368277349547,1.3431978414020633,0.784447336917416,0.28850180000000003,0.6244108471204215
0.0125,1.79609375,1.0,1709.8521063762828,0.1312442038419958,1.3423282460895096,0.7966062577968659,0.2884889375,0.626311772733674
0.013000000000000001,1.7957750000000001,1.0,1770.1383937170554,0.1361172365900798,1.3414979404596932,0.8077707537143396,0.28847555,0.6281223107837623
0.0135,1.79544375,1.0,1827.6875075929534,0.14096293541391422,1.3407039743931972,0.8180399719589484,0.2884616375,0.6298494956399223
0.014,1.7951000000000001,1.0,1882.5735302200214,0.1457814545228208,1.3399435674832838,0.8275020565463364,0.2884472,0.6314999072918944
0.0145,1.79474375,1.0,1934.8500366975497,0.15057294543098299,1.3392144375901625,0.8362354946797402,0.2884322375,0.6330789710790491
0.015,1.794375,1.0,1984.5874864755456,0.15533755941225824,1.3385143459522824,0.8443100650811062,0.28841675,0.6345919565832223
0.0155,1.79399375,1.0,2031.8692545942138,0.16007544722722597,1.337841117385243,0.8517878630949521,0.2884007375,0.6360439394256713
0.016,1.7936,1.0,2076.7875264051786,0.16478675969234208,1.337192662242745,0.8587242146800571,0.2883842,0.6374397593419965
0.0165,1.7931937500000001,1.0,2119.4267309078878,0.16947164630787134,1.336567127346862,0.8651685211249699,0.2883671375,0.6387837014970701
0.017,1.792775,1.0,2159.8560736698537,0.17413025412619557,1.3359629472500398,0.8711649703552207,0.28834955,0.6400793943720248
0.0175,1.7923437500000001,1.0,2198.1555645279195,0.17876273019969652,1.3353785565047247,0.8767530697088589,0.2883314375,0.6413304331530841
0.018000000000000002,1.7919,1.0,2234.415107631331,0.183369221580756,1.334812389663363,0.8819681963628382,0.2883128,0.642540381785422
0.0185,1.79144375,1.0,2268.7129976352176,0.1879498733493677,1.3342630871414884,0.8868421316854314,0.2882936375,0.6437123360160768
0.019,1.790975,1.0,2301.153458718287,0.1925048331546369,1.333729108383364,0.8914033811853387,0.28827395,0.6448497519695309
0.0195,1.79049375,1.0,2331.8022325561356,0.19703424356720414,1.3332093648023566,0.8956777003587534,0.2882537375,0.645955099515338
0.02,1.79,1.0,2360.7288066860347,0.20153824695174263,1.3327027863924483,0.8996883032374718,0.288233,0.6470307905825923
0.0205,1.78949375,1.0,2388.007805066632,0.20601698567292556,1.3322083031476208,0.9034561434908408,0.2882117375,0.6480792197697017
0.021,1.788975,1.0,2413.7185545205066,0.21047060209542615,1.331724845061856,0.9070001652927843,0.28818995000000003,0.6491027652062744
0.021500000000000002,1.78844375,1.0,2437.927942427199,0.2148992361865536,1.3312515030748584,0.9103375563187837,0.2881676375,0.6501034493324206
0.022,1.7879,1.0,2460.722845439315,0.2193030313382392,1.3307872112246426,0.9134838746844285,0.2881448,0.651083612532601
0.0225,1.78734375,1.0,2482.159787069529,0.22368212531505924,1.3303312269533731,0.9164533147898974,0.28812143749999997,0.6520448995519104
0.023,1.786775,1.0,2502.2957073966486,0.22803665551079752,1.3298828292912988,0.9192587932338895,0.28809755,0.6529888996771934
0.0235,1.78619375,1.0,2521.189979212316,0.23236675931923786,1.3294412972686684,0.9219120778655547,0.28807313749999996,0.6539171927740333
0.024,1.7856,1.0,2538.9042022738354,0.2366725741341641,1.3290059099157312,0.924423905820741,0.2880482,0.6548313496190108
0.0245,1.78499375,1.0,2555.494534545558,0.24095423572943697,1.328576016478369,0.9268040996304749,0.2880227375,0.6557327850612453
0.025,1.784375,1.0,2571.0229105179023,0.24521188143518813,1.328150928578846,0.9290616412830989,0.28799675,0.6566229849261516
0.025500000000000002,1.78374375,1.0,2585.547590198881,0.24944564733490524,1.3277300075529368,0.9312047686047558,0.2879702375,0.6575033231803317
0.026000000000000002,1.7831000000000001,1.0,2599.110748730495,0.2536556655170095,1.327312777963111,0.9332410647127436,0.2879432,0.6583748258356861
0.0265,1.78244375,1.0,2611.755694659234,0.25784206806992216,1.3268987643718386,0.9351774959098629,0.2879156375,0.6592385135592
0.027,1.781775,1.0,2623.5267740236577,0.26200498708206443,1.3264874913415894,0.9370204701289505,0.28788755,0.6600954017776646
0.0275,1.7810937500000001,1.0,2634.4692794529424,0.2661445546418575,1.3260784834348331,0.9387758891282716,0.2878589375,0.6609465007679823
0.028,1.7804,1.0,2644.628565734003,0.27026090247771,1.3256712725880477,0.9404491961134471,0.2878298,0.6617928004173518
0.0285,1.77969375,1.0,2654.043310938784,0.27435415883491426,1.3252654594190971,0.9420454250299939,0.2878001375,0.6626351432043485
0.029,1.778975,1.0,2662.764724508969,0.2784244590096965,1.3248605352073695,0.9435692161436506,0.28776995,0.6634745939565736
0.029500000000000002,1.7782437500000001,1.0,2670.822943212612,0.28247192943930877,1.3244561909474688,0.9450248876624608,0.2877392375,0.6643117989663893
0.03,1.7775,1.0,2678.248573389894,0.28649669656100324,1.3240521176339994,0.9464164397809989,0.287708,0.6651474013294663
0.0305,1.77674375,1.0,2685.0726493628936,0.29049888681203206,1.3236480062615656,0.9477475821362882,0.2876762375,0.6659820409531683
0.031,1.775975,1.0,2691.3265939620983,0.2944786266296473,1.3232435478247717,0.9490217585690777,0.28764395,0.6668163545588474
0.0315,1.7751937500000001,1.0,2697.042181169915,0.2984360424511011,1.322838433318222,0.9502421694841467,0.2876111375,0.6676509756780484
0.032,1.7744,1.0,2702.2515008812443,0.30237126071364556,1.3224323537365208,0.9514117920684177,0.2875778,0.6684865346426248
0.0325,1.77359375,1.0,2706.9772659743116,0.30628439838268623,1.3220250882427107,0.9525334063449519,0.2875439375,0.6693234774944974
0.033,1.772775,1.0,2711.2613610881504,0.3101755935414393,1.3216162431681775,0.9536095892830001,0.28750955,0.6701626024565935
0.0335,1.7719437500000002,1.0,2715.1234109490265,0.3140449662134289,1.3212056300265183,0.9546427635319091,0.2874746375,0.6710042832884805
0.034,1.7711000000000001,1.0,2718.5830202625084,0.3178926362554889,1.320793061990607,0.9556351914042611,0.2874392,0.6718488883249063
0.0345,1.7702437500000001,1.0,2721.659939673667,0.32171872352445324,1.3203783522333172,0.9565889872482385,0.2874032375,0.6726967838656395
0.035,1.7693750000000001,1.0,2724.3740508677192,0.3255233478771558,1.3199613139275226,0.9575061288547133,0.28736675,0.673548334151063
0.035500000000000004,1.76849375,1.0,2726.7453524450166,0.3293066291704305,1.3195417602460973,0.9583884678584957,0.2873297375,0.6744039013355412
0.036000000000000004,1.7676,1.0,2728.793946569781,0.3330686872611113,1.3191195043619146,0.9592377392328915,0.2872922,0.6752638454585649
0.0365,1.76669375,1.0,2730.54002639279,0.336809642006032,1.3186943594478486,0.9600555699659752,0.2872541375,0.6761285244136654
0.037,1.765775,1.0,2732.003864247718,0.3405296132620267,1.3182661386767731,0.9608434869975147,0.28721555,0.6769982939151054
0.0375,1.76484375,1.0,2733.1967245835394,0.3442287107641612,1.3178347376634416,0.9616029303914876,0.2871764375,0.6778733403520767
0.038,1.7639,1.0,2734.1404889131154,0.3479070602665681,1.317399956068064,0.9623352478647713,0.28713679999999997,0.6787540430101755
0.0385,1.76294375,1.0,2734.8560444604154,0.3515647861085161,1.3169616030468332,0.9630417077079362,0.28709663750000003,0.6796407595471357
0.039,1.761975,1.0,2735.3540963445294,0.35520200039700056,1.3165195805844978,0.9637235099751729,0.28705595,0.680533657865477
0.0395,1.7609937500000001,1.0,2735.6453804597486,0.3588188152390167,1.316073790665807,0.9643817851150664,0.2870147375,0.6814329045093992
0.04,1.76,1.0,2735.7406592880507,0.3624153427415599,1.31562413527551,0.9650175987485452,0.286973,0.6823386646415388
0.0405,1.7589937500000001,1.0,2735.6507179254972,0.3659916950116255,1.3151705163983556,0.9656319560700402,0.2869307375,0.6832511020191132
0.041,1.757975,1.0,2735.38636032098,0.36954798415620865,1.3147128360190923,0.9662258059052248,0.28688795,0.6841703789694513
0.0415,1.75694375,1.0,2734.958405728033,0.37308432228230476,1.3142509961224698,0.966800044455444,0.2868446375,0.6850966563649091
0.042,1.7559,1.0,2734.3776853701734,0.37660082149690915,1.3137848986932366,0.9673555187560227,0.28680079999999997,0.6860300935971788
0.0425,1.75484375,1.0,2733.6550393188136,0.3800975939070171,1.3133144457161416,0.9678930298730357,0.2867564375,0.6869708485509788
0.043000000000000003,1.753775,1.0,2732.801313583913,0.38357475161962384,1.312839539175934,0.9684133358607897,0.28671155,0.6879190775771342
0.043500000000000004,1.75269375,1.0,2731.8273574183913,0.38703240674172473,1.3123600810573628,0.9689171545001654,0.28666613750000003,0.6888749354650439
0.044,1.7516,1.0,2730.7368516352244,0.3904706591228026,1.3118760384956882,0.9694051691227359,0.2866202,0.6898384458298342
0.0445,1.75049375,1.0,2729.5430668459385,0.39388963003504357,1.3113872915023383,0.9698780239410055,0.2865737375,0.6908098044988449
0.045,1.7493750000000001,1.0,2728.254928411525,0.397289431008969,1.3108937595478092,0.9703363315635545,0.28652675,0.691789127149965
0.0455,1.74824375,1.0,2726.8775731987553,0.4006701663384472,1.310395396526749,0.9707806749465804,0.2864792375,0.6927764598692675
0.046,1.7471,1.0,2725.4161375328003,0.4040319403173463,1.3098921563338057,0.9712116076503018,0.2864312,0.6937718477129595
0.0465,1.7459437500000001,1.0,2723.875756388672,0.40737485723953454,1.3093839928636277,0.9716296555992694,0.28638263750000004,0.6947753346931083
0.047,1.744775,1.0,2722.2615626296665,0.4106990213988801,1.308870860010863,0.9720353187210843,0.28633355,0.6957869637632331
0.0475,1.74359375,1.0,2720.5786862931964,0.4140045370892512,1.3083527116701592,0.9724290724729914,0.28628393750000003,0.6968067768037617
0.048,1.7424,1.0,2718.832253923099,0.41729150860451614,1.3078295017361647,0.9728113692650018,0.2862338,0.6978348146073488
0.0485,1.74119375,1.0,2717.027387950157,0.420560040238543,1.3073011841035276,0.973182639787459,0.2861831375,0.698871116864062
0.049,1.739975,1.0,2715.169206118567,0.4238102362852001,1.3067677126668957,0.9735432942502843,0.28613195,0.6999157221464314
0.0495,1.73874375,1.0,2713.2628209603613,0.4270422010383556,1.3062290413209174,0.9738937235405389,0.2860802375,0.7009686678943619
0.05,1.7375,1.0,2711.3133393167564,0.43025603879187774,1.3056851239602403,0.974234300304377,0.286028,0.7020299903999125
0.0505,1.73624375,1.0,2709.3228029872284,0.43345183290940803,1.305135942387266,0.9745653794236107,0.2859752375,0.7030996704828927
0.051000000000000004,1.734975,1.0,2707.299366793734,0.4366297101921168,1.3045814225942938,0.9748873007940918,0.28592195,0.7041777965894013
0.051500000000000004,1.73369375,1.0,2705.2460554033355,0.4397897721440534,1.3040215373094441,0.9752003890554302,0.2858681375,0.7052643649617419
0.052000000000000005,1.7324,1.0,2703.1650646224966,0.4429321151321747,1.3034562667951444,0.9755049541801543,0.2858138,0.706359356322558
0.0525,1.73109375,1.0,2701.058587404368,0.44605683552343756,1.302885591313821,0.9758012923442336,0.28575893750000003,0.7074627505563679
0.053,1.729775,1.0,2698.928813739094,0.44916402968479907,1.3023094911279014,0.9760896866577566,0.28570355000000003,0.7085745267027721
0.0535,1.72844375,1.0,2696.7779305531176,0.45225379398321625,1.3017279464998126,0.9763704078508348,0.2856476375,0.7096946629496372
0.054,1.7271,1.0,2694.608121617155,0.45532622478564594,1.3011409376919814,0.9766437149178454,0.2855912,0.710823136626257
0.0545,1.7257437500000001,1.0,2692.4215674624506,0.45838141845904506,1.3005484449668347,0.9769098557228658,0.2855342375,0.7119599241964845
0.055,1.724375,1.0,2690.220445305862,0.4614194713703707,1.2999504485867999,0.9771690675689483,0.28547675,0.7131050012518416
0.0555,1.72299375,1.0,2688.0069289840067,0.4644404798865797,1.2993469288143038,0.9774215777336778,0.2854187375,0.7142583425046051
0.056,1.7216,1.0,2685.783188895201,0.4674445403746291,1.2987378659117734,0.9776676039732706,0.2853602,0.715419921780865
0.0565,1.72019375,1.0,2683.551391950688,0.47043174920147585,1.2981232401416358,0.9779073549973091,0.28530113749999997,0.7165897120135605
0.057,1.718775,1.0,2681.3137015345637,0.47340220273407685,1.297503031766318,0.9781410309160414,0.28524155,0.7177676852354883
0.0575,1.71734375,1.0,2679.0722774714986,0.4763559973393891,1.296877221048247,0.9783688236620505,0.2851814375,0.7189538125722903
0.058,1.7159,1.0,2676.823126378204,0.47929318038536045,1.2962458446949159,0.9785909163005267,0.2851208,0.720147957592461
0.0585,1.71444375,1.0,2674.576089583536,0.48221390823018817,1.2956088124387084,0.9788074868982546,0.2850596375,0.7213502232416343
0.059000000000000004,1.7129750000000001,1.0,2672.3320282361833,0.48511827073152974,1.2949661163552848,0.9790187052305743,0.28499795,0.7225605554919662
0.059500000000000004,1.71149375,1.0,2670.09146874764,0.4880063551687787,1.2943177515833089,0.9792247343222485,0.2849357375,0.7237788938231686
0.06,1.71,1.0,2667.8549366450275,0.4908782488213287,1.2936637132614441,0.9794257308159527,0.284873,0.7250051770200903
0.0605,1.7084937500000001,1.0,2665.622956573992,0.49373403896857326,1.2930039965283544,0.97962184526965,0.2848097375,0.7262393431709568
0.061,1.7069750000000001,1.0,2663.3960523018613,0.496573812889906,1.2923385965227034,0.9798132224378929,0.28474595,0.7274813296656123
0.0615,1.7054437500000001,1.0,2661.17474672156,0.49939765786472046,1.2916675083831548,0.980000001538036,0.2846816375,0.7287310731937574
0.062,1.7039,1.0,2658.9595618562344,0.5022056611724102,1.290990727248372,0.9801823165022746,0.2846168,0.7299885097431873
0.0625,1.70234375,1.0,2656.75101886366,0.5049979100923687,1.2903082482570192,0.9803602962163691,0.2845514375,0.731253574598026
0.063,1.7007750000000001,1.0,2654.549638042021,0.5077744919039897,1.2896200665477597,0.9805340647458475,0.28448555,0.7325262023369619
0.0635,1.69919375,1.0,2652.355938835908,0.5105354938866667,1.2889261772592573,0.9807037415504346,0.28441913750000003,0.7338063268314803
0.064,1.6976,1.0,2650.1704398422094,0.5132810033197933,1.2882265755301756,0.9808694416874013,0.2843522,0.7350938812440944
0.0645,1.69599375,1.0,2647.99365881797,0.516011107482763,1.2875212564991785,0.9810312760044829,0.2842847375,0.7363887980265741
0.065,1.694375,1.0,2645.8261126872576,0.5187258936549695,1.2868102153049295,0.9811893513229734,0.28421675,0.7376910089181761
0.0655,1.69274375,1.0,2643.6683175493317,0.5214254491158061,1.286093447086092,0.9813437706115644,0.2841482375,0.7390004449438694
0.066,1.6911,1.0,2641.5207886873995,0.5241098611446666,1.2853709469813301,0.9814946331514579,0.2840792,0.7403170364125602
0.0665,1.6894437500000001,1.0,2639.3840405775354,0.5267792170209447,1.2846427101293076,0.9816420346932508,0.2840096375,0.7416407129153155
0.067,1.687775,1.0,2637.258586898199,0.5294336040240336,1.2839087316686877,0.9817860676060575,0.28393955,0.7429714033235877
0.0675,1.68609375,1.0,2635.143511589547,0.5320730804444118,1.2831690199572547,0.9819268197293386,0.2838689375,0.7443090119146935
0.068,1.6844000000000001,1.0,2633.039106788876,0.5346977410549697,1.282423572185311,0.9820643777354049,0.2837978,0.7456534626087004
0.0685,1.68269375,1.0,2630.946900974363,0.5373076998383512,1.2816723740927456,0.9821988259923082,0.2837261375,0.7470046992122334
0.069,1.680975,1.0,2628.8668311572515,0.5399030347115861,1.2809154261374953,0.9823302443247898,0.28365395,0.7483626382588948
0.0695,1.67924375,1.0,2626.7988345000763,0.542483823591704,1.2801527287774963,0.9824587098423643,0.28358123749999997,0.7497271956585543
0.07,1.6775,1.0,2624.7428483158264,0.5450501443957346,1.2793842824706847,0.9825842970486969,0.283508,0.7510982866975149
0.07050000000000001,1.67574375,1.0,2622.6988100666026,0.5476020750407078,1.2786100876749973,0.9827070779458473,0.2834342375,0.7524758260386809
0.07100000000000001,1.673975,1.0,2620.6666573625953,0.5501396934436531,1.2778301448483702,0.9828271221336571,0.28335995,0.7538597277217272
0.07150000000000001,1.67219375,1.0,2618.6463279613617,0.5526630775216004,1.2770444544487396,0.9829444969045341,0.2832851375,0.7552499051632662
0.07200000000000001,1.6704,1.0,2616.637759766428,0.5551723051915793,1.276253016934042,0.9830592673338777,0.2832098,0.756646271157015
0.0725,1.66859375,1.0,2614.6408908263825,0.5576674543706195,1.2754558327622139,0.9831714963663727,0.2831339375,0.7580487378739645
0.073,1.6667750000000001,1.0,2612.655659333937,0.5601486029757508,1.2746529023911912,0.9832812448983653,0.28305755,0.7594572168625472
0.0735,1.66494375,1.0,2610.6820036247072,0.5626158289240029,1.2738442262789107,0.9833885718565242,0.2829806375,0.7608716190488034
0.074,1.6631,1.0,2608.7198621762864,0.5650692101324054,1.2730298048833084,0.9834935342729757,0.2829032,0.7622918547365515
0.0745,1.6612437500000001,1.0,2606.769173607191,0.5675088245179881,1.2722096386623207,0.9835961873570943,0.2828252375,0.7637178336075535
0.075,1.659375,1.0,2604.829876676012,0.5699347499977808,1.2713837280738842,0.9836965845641155,0.28274675,0.7651494647216839
0.0755,1.65749375,1.0,2602.9019102802404,0.5723470644888131,1.2705520735759348,0.9837947776607334,0.2826677375,0.7665866565170981
