Time [s],Phi [rad],STIM [ ],Fsee [N],Gamma [ ],Lcerel [ ],q [ ],Lmtc [m],fisomrel [ ]
0.0,1.8,1.0,20.292179789721363,0.0015588018956664347,1.3790871880591007,0.005621518244641317,0.288653,0.541750331152564
0.0005,1.79999375,1.0,21.02830516841244,0.007159267558452004,1.3790074544368605,0.017792286380527336,0.2886527375,0.5419430787030968
0.001,1.799975,1.0,25.53469501159992,0.012728319037152675,1.3785549478867216,0.044127124553343236,0.28865195,0.5430361971635251
0.0015,1.79994375,1.0,37.71838302251969,0.01826613254041931,1.3775071622437196,0.08196479548669243,0.2886506375,0.5455623165009374
0.002,1.7999,1.0,65.47913831515557,0.023772883288643527,1.375634988070035,0.12798514119721846,0.2886488,0.5500585323266094
0.0025,1.79984375,1.0,115.09256948478284,0.02924874551951762,1.3731058050677114,0.17888774087517836,0.28864643749999996,0.5560971244412467
0.003,1.7997750000000001,1.0,183.1062848168048,0.0346938924926982,1.3704120293248756,0.23196684957866787,0.28864354999999997,0.5624838282252154
0.0035,1.79969375,1.0,262.04955533192975,0.04010849649613028,1.367852498674299,0.28516387240781876,0.2886401375,0.5685093725098049
0.004,1.7996,1.0,347.0089954731463,0.04549272884962097,1.3654925058775902,0.33696514831613195,0.2886362,0.5740281509799736
0.0045000000000000005,1.7994937500000001,1.0,435.46521948140366,0.05084675992532006,1.363317397720143,0.38634327716865563,0.2886317375,0.5790831266385953
0.005,1.799375,1.0,525.9495496676983,0.05617075911272026,1.361301751429857,0.43268021746654994,0.28862675,0.5837405752988449
0.0055,1.79924375,1.0,617.4235833515704,0.061464894887420754,1.3594242233724738,0.475672213376076,0.2886212375,0.5880555728733867
0.006,1.7991000000000001,1.0,709.04979267252,0.06672933470530938,1.3576687373047325,0.5152395281119712,0.2886152,0.5920697524070098
0.006500000000000001,1.79894375,1.0,800.1578014079289,0.07196424525263873,1.3560224400855088,0.5514512401866031,0.2886086375,0.5958163971797205
0.007,1.798775,1.0,890.1641654665672,0.07716979195941827,1.354475459731399,0.5844689835640466,0.28860155,0.5993212641843537
0.0075,1.79859375,1.0,978.6273647297966,0.08234613983534625,1.3530189099427938,0.6145053521958019,0.2885939375,0.6026072998176073
0.008,1.7984,1.0,1065.1611473841433,0.08749345242897118,1.351645627559504,0.6417966803022416,0.2885858,0.6056930887062586
0.0085,1.79819375,1.0,1149.4656206827606,0.09261189248187486,1.3503491615726162,0.6665842447713302,0.2885771375,0.6085952327339441
0.009000000000000001,1.797975,1.0,1231.3352989282398,0.09770162243977966,1.3491233602858197,0.689102717324319,0.28856795,0.6113293345112811
0.0095,1.79774375,1.0,1310.5924215262844,0.10276280298912864,1.3479630513392657,0.7095739695066635,0.2885582375,0.6139085296641184
0.01,1.7975,1.0,1387.1135052499235,0.10779559413026488,1.346863438618105,0.7282033180952604,0.288548,0.616344881855944
0.0105,1.79724375,1.0,1460.8338663979919,0.11280015519743355,1.3458199002789657,0.7451780962493598,0.2885372375,0.6186498615148158
0.011,1.796975,1.0,1531.7233823557463,0.11777664512932656,1.3448281799345592,0.7606677254557768,0.28852595000000003,0.6208339487341177
0.0115,1.79669375,1.0,1599.74688438613,0.12272522061767879,1.3438847453054727,0.7748245998954533,0.2885141375,0.6229058735529023
0.012,1.7964,1.0,1664.913964687215,0.12764603829634943,1.3429860761336792,0.7877848980620472,0.28850180000000003,0.6248742078393561
0.0125,1.79609375,1.0,1727.2605305054624,0.13253925379465076,1.3421288271762186,0.7996700261987388,0.2884889375,0.626747020456075
0.013000000000000001,1.7957750000000001,1.0,1786.8478898406179,0.13740502323085912,1.3413097810973664,0.8105880200900484,0.28847555,0.6285319940282774
0.0135,1.79544375,1.0,1843.7082696953441,0.14224349935646807,1.3405264038271691,0.8206351394337373,0.2884616375,0.6302352305374226
0.014,1.7951000000000001,1.0,1897.8999719093733,0.14705483492297122,1.3397761612956745,0.829896892322319,0.2884472,0.6318627557881882
0.0145,1.79474375,1.0,1949.501160430663,0.15183918237044655,1.3390565620535095,0.8384492695473014,0.2884322375,0.6334204328075723
0.015,1.794375,1.0,1998.5963157613974,0.1565966934731512,1.3383652761358336,0.846359886501604,0.28841675,0.634913711433422
0.0155,1.79399375,1.0,2045.2757929343522,0.161327519883172,1.3377001101048784,0.853688955513545,0.2884007375,0.6363476901631153
0.016,1.7936,1.0,2089.602680185472,0.16603180994128727,1.3370593264520514,0.8604902538815123,0.2883842,0.6377264363893159
0.0165,1.7931937500000001,1.0,2131.6534349931317,0.1707097119882752,1.3364411876687594,0.8668117445537851,0.2883671375,0.6390539771684778
0.017,1.792775,1.0,2171.5167607884073,0.175361374364914,1.33584395624641,0.8726962650692209,0.28834955,0.6403343018264014
0.0175,1.7923437500000001,1.0,2209.2771478533145,0.17998694396099846,1.335266050294364,0.8781821745546045,0.2883314375,0.6415710316327071
0.018000000000000002,1.7919,1.0,2245.0345209987213,0.18458656924338288,1.3347058304811978,0.8833038228489479,0.2883128,0.6427678795978689
0.0185,1.79144375,1.0,2278.8613492836766,0.1891603947903568,1.3341620204032638,0.8880921220889025,0.2882936375,0.6439277554847216
0.019,1.790975,1.0,2310.8290271559677,0.19370856428448444,1.333633425274138,0.8925748712120555,0.28827395,0.6450533722571626
0.0195,1.79049375,1.0,2341.0153150038445,0.19823122140833005,1.3331188503073965,0.8967770921653343,0.2882537375,0.6461474220978264
0.02,1.79,1.0,2369.5038023924835,0.2027285098444578,1.3326171007166152,0.9007213443033074,0.288233,0.6472125775219166
0.0205,1.78949375,1.0,2396.365462730167,0.2072005709946849,1.3321271557508516,0.9044280376317884,0.2882117375,0.6482511237654642
0.021,1.788975,1.0,2421.692069373509,0.2116475495539012,1.331647837096155,0.9079156004204787,0.28818995000000003,0.6492656637418437
0.021500000000000002,1.78844375,1.0,2445.5435702416107,0.21606958470539128,1.3311783143989901,0.9112007979515515,0.2881676375,0.650258048698481
0.022,1.7879,1.0,2467.9803838212583,0.22046681520672604,1.3307177846880733,0.9142988465560856,0.2881448,0.6512300602392002
0.0225,1.78734375,1.0,2489.0659382095487,0.22483937981547636,1.3302654449921205,0.9172235732403764,0.28812143749999997,0.6521834688908056
0.023,1.786775,1.0,2508.8664176572006,0.22918741728921307,1.3298204923398482,0.9199875617759966,0.28809755,0.6531200345430489
0.0235,1.78619375,1.0,2527.443302979475,0.23351106473078,1.3293821919638875,0.9226022934942439,0.28807313749999996,0.6540413635748239
0.024,1.7856,1.0,2544.862368275604,0.23781046101858427,1.328949789323039,0.9250782456783379,0.2880482,0.6549490947204344
0.0245,1.78499375,1.0,2561.1820792292647,0.2420857430352985,1.3285226174592055,0.9274250099142527,0.2880227375,0.6558446741637516
0.025,1.784375,1.0,2576.4490765046226,0.24633704429001665,1.3281001362044833,0.9296513858707884,0.28799675,0.6567292749445137
0.025500000000000002,1.78374375,1.0,2590.7114219979744,0.2505644982918326,1.3276818053909683,0.9317654389925087,0.2879702375,0.6576040638256238
0.026000000000000002,1.7831000000000001,1.0,2604.0184782876586,0.2547682385498402,1.3272670848507568,0.9337745717187159,0.2879432,0.6584702014454322
0.0265,1.78244375,1.0,2616.420794552977,0.25894839857313334,1.3268554344159451,0.9356855869254429,0.2879156375,0.6593288424514152
0.027,1.781775,1.0,2627.9635240296807,0.2631051100604766,1.326446373899496,0.9375047529786107,0.28788755,0.6601810107393828
0.0275,1.7810937500000001,1.0,2638.691305099067,0.2672385057739172,1.3260394364252392,0.9392378474780119,0.2878589375,0.6610276973708941
0.028,1.7804,1.0,2648.6561875973307,0.2713487197027067,1.3256340943787295,0.9408901914470793,0.2878298,0.6618700145986758
0.0285,1.77969375,1.0,2657.8914478636716,0.27543587964488775,1.3252300004132749,0.9424667225273512,0.2878001375,0.6627086952524912
0.029,1.778975,1.0,2666.43095145723,0.2795001133985032,1.3248268071821838,0.9439720058822347,0.28776995,0.6635444685453711
0.029500000000000002,1.7782437500000001,1.0,2674.3091014078877,0.2835415487615958,1.3244241673387651,0.9454102670933413,0.2877392375,0.6643780600974137
0.03,1.7775,1.0,2681.5607891428645,0.2875603135322083,1.3240217335363267,0.9467854217591389,0.287708,0.6652101919518932
0.0305,1.77674375,1.0,2688.2213480879113,0.2915565355083835,1.3236191584281771,0.948101102162365,0.2876762375,0.6660415825836684
0.031,1.775975,1.0,2694.3254101307684,0.2955303418700301,1.323216104729549,0.949360682405355,0.28764395,0.6668729261589835
0.0315,1.7751937500000001,1.0,2699.900623219137,0.29948185678152806,1.322812302207188,0.9505673063595054,0.2876111375,0.6677047753306604
0.032,1.7744,1.0,2704.9834519029737,0.303411210492725,1.3224074027524788,0.9517238917341663,0.2875778,0.6685378400841866
0.0325,1.77359375,1.0,2709.5964463574624,0.307318525036415,1.3220011878262188,0.9528331691157943,0.2875439375,0.6693725607095159
0.033,1.772775,1.0,2713.7623673484713,0.31120392244539197,1.3215934388892059,0.9538976841412877,0.28750955,0.6702093752022149
0.0335,1.7719437500000002,1.0,2717.504165783395,0.3150675247524501,1.321183937402237,0.9549198122430903,0.2874746375,0.6710487192436095
0.034,1.7711000000000001,1.0,2720.8449633202094,0.3189094539903834,1.32077246482611,0.955901772051876,0.2874392,0.6718910261778761
0.0345,1.7702437500000001,1.0,2723.808034036369,0.3227298321919858,1.3203588026216222,0.9568456375932073,0.2874032375,0.6727367269860987
0.035,1.7693750000000001,1.0,2726.4167871556224,0.32652878139005154,1.3199427322495714,0.9577533493993579,0.28736675,0.6735862502572676
0.035500000000000004,1.76849375,1.0,2728.682447162114,0.33030641312721215,1.319524147023117,0.9586267338784241,0.2873297375,0.6744397942256045
0.036000000000000004,1.7676,1.0,2730.6423463873252,0.3340628623339653,1.319102703777161,0.9594674838106083,0.2872922,0.6752980371240607
0.0365,1.76669375,1.0,2732.312101496012,0.3377982460293046,1.3186782576346805,0.9602772029710138,0.2872541375,0.6761612503537124
0.037,1.765775,1.0,2733.7054378477933,0.3415126795627818,1.3182506815113357,0.9610573982077263,0.28721555,0.6770296674667422
0.0375,1.76484375,1.0,2734.8361385988537,0.3452062782839487,1.3178198483227868,0.9618094850776187,0.2871764375,0.6779035204466863
0.038,1.7639,1.0,2735.718037793292,0.3488791575423569,1.3173856309846934,0.9625347943832204,0.28713679999999997,0.6787830396825512
0.0385,1.76294375,1.0,2736.3650138139287,0.3525314326875581,1.316947902412716,0.9632345781726225,0.28709663750000003,0.6796684539418989
0.039,1.761975,1.0,2736.790983189947,0.35616321906910414,1.3165065355225145,0.9639100152518835,0.28705595,0.6805599903429058
0.0395,1.7609937500000001,1.0,2737.009894764055,0.3597746320365467,1.3160614032297493,0.9645622162543787,0.2870147375,0.6814578743253885
0.04,1.76,1.0,2737.035724216385,0.3633657869394375,1.31561237845008,0.9651922283070572,0.286973,0.682362329620802
0.0405,1.7589937500000001,1.0,2736.88246894719,0.36693679912732824,1.315159334099167,0.9658010393296007,0.2869307375,0.6832735782212043
0.041,1.757975,1.0,2736.5547414116986,0.3704877757389273,1.3147022284421415,0.9663895879271266,0.28688795,0.6841916690483106
0.0415,1.75694375,1.0,2736.071360055046,0.3740188378258534,1.3142408909162284,0.9669587522287094,0.2868446375,0.6851169084061703
0.042,1.7559,1.0,2735.445358731863,0.3775300990313363,1.3137752035518482,0.967509365473213,0.28680079999999997,0.6860494950127431
0.0425,1.75484375,1.0,2734.684166238213,0.38102166764146994,1.3133050993327264,0.9680422191333256,0.2867564375,0.6869895240182093
0.043000000000000003,1.753775,1.0,2733.7952176720023,0.3844936519423483,1.3128305112425895,0.9685580623125181,0.28671155,0.6879370893995538
0.043500000000000004,1.75269375,1.0,2732.78595265854,0.38794616022006534,1.3123513722651634,0.9690576044349675,0.28666613750000003,0.6888922839415476
0.044,1.7516,1.0,2731.6638136738347,0.3913793007607149,1.3118676153841744,0.9695415177387979,0.2866202,0.6898551992174384
0.0445,1.75049375,1.0,2730.4362444695075,0.39479318185039103,1.311379173583348,0.9700104395888254,0.2865737375,0.6908259255693598
0.045,1.7493750000000001,1.0,2729.110688595436,0.3981879117751876,1.3108859798464108,0.9704649746235289,0.28652675,0.6918045520884474
0.0455,1.74824375,1.0,2727.6945880229623,0.4015635988211985,1.3103879671570886,0.9709056967496283,0.2864792375,0.6927911665946751
0.046,1.7471,1.0,2726.195381867748,0.40492035127451775,1.3098850684991077,0.9713331509964632,0.2864312,0.6937858556164009
0.0465,1.7459437500000001,1.0,2724.618392581358,0.40825827220782546,1.3093772360763962,0.9717478559492301,0.28638263750000004,0.6947886664468426
0.047,1.744775,1.0,2722.970106823521,0.4115774702395613,1.3088644114747021,0.9721503045924957,0.28633355,0.6957996662129653
0.0475,1.74359375,1.0,2721.2579930732427,0.414878056130484,1.308346527298601,0.9725409654599689,0.28628393750000003,0.6968189384658581
0.048,1.7424,1.0,2719.486135371481,0.41816013153576226,1.3078235469101414,0.972920285426871,0.2862338,0.6978465049989158
0.0485,1.74119375,1.0,2717.658614614295,0.42142379811056474,1.307295433671371,0.9732886899788284,0.2861831375,0.6988823866222069
0.049,1.739975,1.0,2715.779508121022,0.4246691575100601,1.3067621509443375,0.9736465844287997,0.28613195,0.6999266031505215
0.0495,1.73874375,1.0,2713.8528892333893,0.4278963113894171,1.3062236620910892,0.9739943550540285,0.2860802375,0.7009791733913342
0.05,1.7375,1.0,2711.882826944063,0.4311053614038044,1.3056799304736741,0.9743323701589597,0.286028,0.7020401151326842
0.0505,1.73624375,1.0,2709.8733855546307,0.4342964092083907,1.3051309194541398,0.9746609810695601,0.2859752375,0.703109445130967
0.051000000000000004,1.734975,1.0,2707.8286243637717,0.4374695564583446,1.3045765923945347,0.9749805230640454,0.28592195,0.7041871790986398
0.051500000000000004,1.73369375,1.0,2705.752597385123,0.4406249048088349,1.3040169126569063,0.9752913162446054,0.2858681375,0.7052733316918463
0.052000000000000005,1.7324,1.0,2703.6484406680033,0.4437625476530673,1.3034518519364697,0.9755936660022166,0.2858138,0.7063679003709402
0.0525,1.73109375,1.0,2701.5182018557675,0.4468825701193958,1.3028813918332378,0.9758878639335252,0.28575893750000003,0.7074708625037012
0.053,1.729775,1.0,2699.3685774827936,0.44998510896431904,1.3023054714301925,0.9761741915023724,0.28570355000000003,0.7085822766051311
0.0535,1.72844375,1.0,2697.2011982411013,0.45307025773091847,1.3017240760373368,0.976452916250213,0.2856476375,0.7097021107761972
0.054,1.7271,1.0,2695.017692445686,0.45613810996227566,1.3011371909646736,0.9767242941569403,0.2855912,0.7108303323275054
0.0545,1.7257437500000001,1.0,2692.8196859811583,0.45918875920147206,1.300544801522206,0.9769885702355294,0.2855342375,0.7119669077741637
0.055,1.724375,1.0,2690.608802253624,0.4622222989915892,1.2999468930199367,0.9772459790912774,0.28547675,0.7131118028306335
0.0555,1.72299375,1.0,2688.3866621472916,0.46523882287570856,1.299343450767869,0.9774967454480236,0.2854187375,0.7142649824055626
0.056,1.7216,1.0,2686.1548839855927,0.46823842439691177,1.2987344600760058,0.9777410846435562,0.2853602,0.7154264105966113
0.0565,1.72019375,1.0,2683.915083497518,0.47122119709828025,1.2981199062543498,0.9779792030962502,0.28530113749999997,0.7165960506852604
0.057,1.718775,1.0,2681.668873788572,0.4741872345228955,1.297499774612904,0.978211298744821,0.28524155,0.717773865131605
0.0575,1.71734375,1.0,2679.4178653159274,0.4771366302138391,1.2968740504616718,0.9784375614629548,0.2851814375,0.718959815569135
0.058,1.7159,1.0,2677.1636658694365,0.4800694777141926,1.2962427191106558,0.9786581734504346,0.2851208,0.7201538627995061
0.0585,1.71444375,1.0,2674.907880556745,0.4829858705670374,1.295605765869859,0.9788733096022734,0.2850596375,0.72135596678729
0.059000000000000004,1.7129750000000001,1.0,2672.6521117931266,0.48588590231545514,1.2949631760492843,0.9790831378572585,0.28499795,0.7225660866547159
0.059500000000000004,1.71149375,1.0,2670.397959296553,0.48876966650252723,1.294314934958935,0.9792878195271977,0.2849357375,0.7237841806763965
0.06,1.71,1.0,2668.147020086969,0.4916372566713352,1.2936610279088137,0.9794875096080912,0.284873,0.7250102062740401
0.0605,1.7084937500000001,1.0,2665.9008884910945,0.4944887663649606,1.2930014402089234,0.9796823570743413,0.2848097375,0.7262441200111502
0.061,1.7069750000000001,1.0,2663.6600801053314,0.4973242311702338,1.29233616707026,0.9798725011051765,0.28474595,0.727485859128409
0.0615,1.7054437500000001,1.0,2661.426832825927,0.5001438150342319,1.2916651878418468,0.9800580848049839,0.2846816375,0.7287353896721308
0.062,1.7039,1.0,2659.201448586045,0.5029476023973448,1.2909884996664833,0.9802392405618642,0.2846168,0.7299926436921207
0.0625,1.70234375,1.0,2656.9842200899197,0.5057356772439229,1.290306099767448,0.9804160957611405,0.2845514375,0.7312575524164939
0.063,1.7007750000000001,1.0,2654.7754395677234,0.5085081235583162,1.2896179853680192,0.9805887730396221,0.28448555,0.7325300464010518
0.0635,1.69919375,1.0,2652.5753987797534,0.5112650253248752,1.2889241536914755,0.9807573904961022,0.28441913750000003,0.7338100555282674
0.064,1.6976,1.0,2650.3843890201356,0.5140064665279499,1.2882246019610955,0.9809220618910186,0.2843522,0.7350975090062759
0.0645,1.69599375,1.0,2648.2027011221935,0.5167325311518909,1.2875193274001575,0.9810828968359088,0.2842847375,0.7363923353678605
0.065,1.694375,1.0,2646.030625462689,0.5194433031810483,1.28680832723194,0.9812400009732507,0.28421675,0.7376944624694403
0.0655,1.69274375,1.0,2643.8684519665626,0.5221388665997723,1.2860915986797217,0.9813934761472436,0.2841482375,0.7390038174900545
0.066,1.6911,1.0,2641.716470112359,0.5248193053924132,1.2853691389667807,0.9815434205660479,0.2840792,0.7403203269303513
0.0665,1.6894437500000001,1.0,2639.574968937239,0.5274847035433212,1.2846409453163958,0.9816899289559646,0.2840096375,0.7416439166115707
0.067,1.687775,1.0,2637.4442370421066,0.5301351450368468,1.2839070149518454,0.9818330927080138,0.28393955,0.74297451167453
0.0675,1.68609375,1.0,2635.3245625978334,0.53277071385734,1.2831673450964078,0.9819730000173341,0.2838689375,0.7443120365786093
0.068,1.6844000000000001,1.0,2633.2162333502397,0.5353914939891512,1.282421932973362,0.9821097360158018,0.2837978,0.745656415100733
0.0685,1.68269375,1.0,2631.1195366263746,0.5379975694166307,1.2816707758059858,0.9822433828982471,0.2837261375,0.7470075703343562
0.069,1.680975,1.0,2629.034759340644,0.5405890241241287,1.280913870817558,0.9823740200426151,0.28365395,0.7483654246884449
0.0695,1.67924375,1.0,2626.9621880006907,0.5431659420959953,1.2801512152313572,0.9825017241244034,0.28358123749999997,0.7497298998864598
0.07,1.6775,1.0,2624.9021087142833,0.5457284073165811,1.2793828062706618,0.9826265692256844,0.283508,0.7511009169653375
0.07050000000000001,1.67574375,1.0,2622.854807195443,0.5482765037702361,1.2786086411587503,0.9827486269390048,0.2834342375,0.752478396274473
0.07100000000000001,1.673975,1.0,2620.8185312742075,0.5508103140076002,1.2778287360190774,0.9828679672449074,0.28335995,0.7538622239861027
0.07150000000000001,1.67219375,1.0,2618.7950350909164,0.5533299130876594,1.2770430744630596,0.9829846558792183,0.2832851375,0.7552523434057895
0.07200000000000001,1.6704,1.0,2616.785135355415,0.5558353792952212,1.2762516487799471,0.9830987569960539,0.2832098,0.7566486815891605
0.0725,1.66859375,1.0,2614.7865058915554,0.5583267915987897,1.275454480435535,0.9832103340014923,0.2831339375,0.7580511135458848
0.073,1.6667750000000001,1.0,2612.7970087810304,0.5608042289513596,1.274651589180134,0.9833194481717669,0.28305755,0.7594595170944736
0.0735,1.66494375,1.0,2610.8227993450755,0.563267769808832,1.2738429177178607,0.9834261553581448,0.2829806375,0.7608739043870184
0.074,1.6631,1.0,2608.8580979621665,0.5657174925174796,1.2730285196310123,0.9835305144898777,0.2829032,0.7622940926916388
0.0745,1.6612437500000001,1.0,2606.9044343878168,0.5681534740885426,1.2722083805994486,0.9836325795778955,0.2828252375,0.7637200176384749
0.075,1.659375,1.0,2604.9633361255533,0.570575791533261,1.2713824863030294,0.9837324029142236,0.28274675,0.7651516139285269
0.0755,1.65749375,1.0,2603.031432068819,0.5729845215862599,1.270550867996288,0.9838300371021309,0.2826677375,0.7665887366915023
