Time [s],Phi [rad],STIM [ ],Fsee [N],Gamma [ ],Lcerel [ ],q [ ],Lmtc [m],fisomrel [ ]
0.0,1.8,1.0,20.195851593394654,0.0015264135028560727,1.37909735505811,0.005596088473199936,0.288653,0.5417257505993153
0.0005,1.79999375,1.0,20.92473651003139,0.0071270608389234534,1.3790181930780234,0.017679700955417703,0.2886527375,0.5419171215429534
0.001,1.799975,1.0,25.406026336827953,0.012696292971864602,1.3785670550668812,0.043940066666105594,0.28865195,0.5430069668940976
0.0015,1.79994375,1.0,37.52664994651186,0.018234286116058512,1.3775220065822407,0.08172098321602303,0.2886506375,0.5455265769965518
0.002,1.7999,1.0,65.17084034331504,0.023741215497420847,1.3756531022498397,0.1277041800657852,0.2886488,0.5500151363841564
0.0025,1.79984375,1.0,114.66135013957177,0.029217255359751913,1.3731249110485695,0.17858701000045774,0.28864643749999996,0.5560516605707816
0.003,1.7997750000000001,1.0,182.59954398901473,0.03466257896760469,1.3704298253264484,0.2316598300264747,0.28864354999999997,0.5624417873361509
0.0035,1.79969375,1.0,261.5034417277193,0.04007735861548319,1.3678685276254474,0.2848608329578376,0.2886401375,0.5684717678019306
0.004,1.7996,1.0,346.4444725756873,0.04546176562899368,1.3655069029872158,0.33667335394256354,0.2886362,0.5739945914180296
0.0045000000000000005,1.7994937500000001,1.0,434.89095658981955,0.05081597038182229,1.3633304704005889,0.3860674255770959,0.2886317375,0.5790528357094605
0.005,1.799375,1.0,525.3733179873572,0.056140142280842804,1.3613136866784235,0.43242287601408635,0.28862675,0.5837130734019327
0.0055,1.79924375,1.0,616.8465679501272,0.06143444978493018,1.3594352536053054,0.4754344729412187,0.2886212375,0.5880302884747761
0.006,1.7991000000000001,1.0,708.4778607202477,0.06669906037899331,1.3576789392026796,0.5150213478225164,0.2886152,0.592046481029483
0.006500000000000001,1.79894375,1.0,799.5937999866275,0.07193414073889574,1.3560319102234353,0.5512519277356075,0.2886086375,0.5957948944599863
0.007,1.798775,1.0,889.610005262005,0.07713985630500474,1.3544842814919642,0.5842874475903499,0.28860155,0.5993013207114984
0.0075,1.79859375,1.0,978.0853049721868,0.08231637210308003,1.3530271396809597,0.6143402852583645,0.2885939375,0.6025887712011486
0.008,1.7984,1.0,1064.63249360877,0.08746385166533133,1.3516533207228598,0.6416467038714673,0.2885858,0.6056758355375813
0.0085,1.79819375,1.0,1148.9514928556393,0.09258245776131312,1.3503563636712688,0.6664479862175213,0.2885771375,0.6085791404178752
0.009000000000000001,1.797975,1.0,1230.8369243391867,0.09767235282822852,1.3491301055514178,0.6889788589751856,0.28856795,0.6113143156813007
0.0095,1.79774375,1.0,1310.1104363499953,0.10273369753982103,1.347969374397303,0.7094612829707801,0.2885582375,0.613894497709023
0.01,1.7975,1.0,1386.6483098286135,0.10776665190962434,1.3468693706465709,0.7281006748367774,0.288548,0.6163317592705735
0.0105,1.79724375,1.0,1460.3881114941591,0.11277137539611395,1.345825439085898,0.7450844565635976,0.2885372375,0.6186376456666005
0.011,1.796975,1.0,1531.2935095410257,0.11774802673536214,1.3448333962958334,0.7605821877517174,0.28852595000000003,0.620822477037885
0.0115,1.79669375,1.0,1599.3324917484715,0.12269676270638158,1.3438896657223522,0.7747463369540022,0.2885141375,0.6228950823002832
0.012,1.7964,1.0,1664.5153939639201,0.12761773982687138,1.3429907151176197,0.7877131664049783,0.28850180000000003,0.6248640604053057
0.0125,1.79609375,1.0,1726.8838866564327,0.13251111430082232,1.3421331310845246,0.7996041371010183,0.2884889375,0.6267376295098837
0.013000000000000001,1.7957750000000001,1.0,1786.4863702914874,0.13737704162376674,1.3413138426991533,0.8105274187994612,0.28847555,0.6285231530036277
0.0135,1.79544375,1.0,1843.3585107105496,0.14221567465215956,1.3405302722216432,0.8205793164302061,0.2884616375,0.6302268294025943
0.014,1.7951000000000001,1.0,1897.5623345239344,0.14702716624245588,1.3397798419121305,0.8298453789704786,0.2884472,0.6318547800706875
0.0145,1.79474375,1.0,1949.1774372392658,0.1518116687647139,1.3390600439629576,0.8384016434172326,0.2884322375,0.6334129036601952
0.015,1.794375,1.0,1998.2900879242115,0.15656933437693904,1.3383685291513936,0.8463157660178967,0.28841675,0.6349066915813856
0.0155,1.79399375,1.0,2044.9839178858554,0.16130031428865446,1.3377031750584776,0.8536480235167004,0.2884007375,0.636341089143569
0.016,1.7936,1.0,2089.323058454084,0.1660047569107422,1.33706223141749,0.8604522237704567,0.2883842,0.6377201918107858
0.0165,1.7931937500000001,1.0,2131.385078301862,0.17068281065408428,1.3364439479617116,0.8667763567559114,0.2883671375,0.6390480544640851
0.017,1.792775,1.0,2171.2598510656185,0.17533462392956273,1.3358465744244232,0.8726632839375783,0.28834955,0.6403286940286363
0.0175,1.7923437500000001,1.0,2209.030668037569,0.1799603435811546,1.3352685406177798,0.8781513923690241,0.2883314375,0.641565706862322
0.018000000000000002,1.7919,1.0,2244.7993273912048,0.18456011815537163,1.3347081877697915,0.8832750481967773,0.2883128,0.6427628477036416
0.0185,1.79144375,1.0,2278.636618569802,0.18913409205186718,1.3341642560416893,0.8880651872227987,0.2882936375,0.6439229910207408
0.019,1.790975,1.0,2310.6141077205575,0.19368240902108788,1.3336355484660944,0.8925496247845176,0.28827395,0.6450488545909705
0.0195,1.79049375,1.0,2340.809737070999,0.19820521281348022,1.3331208680756286,0.8967533973647557,0.2882537375,0.6461431353716189
0.02,1.79,1.0,2369.3072869704206,0.20270264717949074,1.332619017902913,0.9006990772214214,0.288233,0.6472085106163957
0.0205,1.78949375,1.0,2396.176984793509,0.20717485347863976,1.3321289841874708,0.9044070878287644,0.2882117375,0.6482472508373684
0.021,1.788975,1.0,2421.511198055874,0.2116219764034784,1.3316495825393928,0.9078958665743585,0.28818995000000003,0.6492619719433881
0.021500000000000002,1.78844375,1.0,2445.368710565717,0.216044154928119,1.3311799935784308,0.9111821903746549,0.2881676375,0.6502545020835159
0.022,1.7879,1.0,2467.810933293642,0.2204415279253241,1.3307194045086315,0.9142812818698165,0.2881448,0.6512266437546435
0.0225,1.78734375,1.0,2488.9023080214365,0.22481423426785643,1.3302670025340422,0.9172069737318326,0.28812143749999997,0.6521801882563105
0.023,1.786775,1.0,2508.7100507481423,0.2291624128284786,1.32982197485871,0.9199718548309344,0.28809755,0.6531169161361624
0.0235,1.78619375,1.0,2527.2953593707057,0.2334862002838315,1.329383589455567,0.9225874131279163,0.28807313749999996,0.6540384279252758
0.024,1.7856,1.0,2544.724357321637,0.23778573655730925,1.3289510885190376,0.9250641316380339,0.2880482,0.6549463691394779
0.0245,1.78499375,1.0,2561.050202771532,0.24206115739794873,1.328523854944409,0.9274116152660666,0.2880227375,0.6558420814172989
0.025,1.784375,1.0,2576.3209385413857,0.24631259645827716,1.3281013350405855,0.9296386653877547,0.28799675,0.6567267664049282
0.025500000000000002,1.78374375,1.0,2590.58604991342,0.2505401873908218,1.3276829751164727,0.9317533490064723,0.2879702375,0.6576016193202077
0.026000000000000002,1.7831000000000001,1.0,2603.896340863066,0.2547440638481098,1.3272682214809752,0.9337630699893037,0.2879432,0.6584678291093091
0.0265,1.78244375,1.0,2616.3038170875025,0.25892435948266856,1.326856520442998,0.9356746325236824,0.2879156375,0.659326578583852
0.027,1.781775,1.0,2627.8506453541145,0.26308120474527114,1.3264474195686096,0.9374943119396406,0.28788755,0.6601788337276664
0.0275,1.7810937500000001,1.0,2638.5876225956426,0.2672147349465509,1.3260403949488742,0.9392278810165302,0.2878589375,0.6610257042780043
0.028,1.7804,1.0,2648.5610589294706,0.27132508264724636,1.3256349721672538,0.9408806709402145,0.2878298,0.6618681916506117
0.0285,1.77969375,1.0,2657.804124234827,0.27541237559562864,1.3252308047800074,0.9424576216396233,0.2878001375,0.6627070268563415
0.029,1.778975,1.0,2666.350577807826,0.2794767415399688,1.324827546343394,0.9439633003618246,0.28776995,0.663542937297609
0.029500000000000002,1.7782437500000001,1.0,2674.234716687408,0.28351830822853796,1.3244248504136726,0.9454019345888927,0.2877392375,0.6643766467923027
0.03,1.7775,1.0,2681.491326642665,0.28753720340960714,1.3240223705471017,0.9467774416548126,0.287708,0.6652088755900406
0.0305,1.77674375,1.0,2688.1556358209805,0.2915335548314475,1.3236197602999407,0.9480934554291403,0.2876762375,0.6660403403807684
0.031,1.775975,1.0,2694.2632710578728,0.2955074902423301,1.323216673228448,0.9493533503898012,0.28764395,0.66687175429571
0.0315,1.7751937500000001,1.0,2699.8422431765966,0.2994591323248356,1.3228128357634772,0.9505602708310187,0.2876111375,0.667703676869714
0.032,1.7744,1.0,2704.9285526134613,0.3033886125998804,1.3224079040251167,0.9517171366271177,0.2875778,0.6685368093817958
0.0325,1.77359375,1.0,2709.545886003654,0.3072960539300601,1.322001649087713,0.9528266784659809,0.2875439375,0.6693716134719178
0.033,1.772775,1.0,2713.716545068342,0.31118157799803764,1.3215938566041372,0.9538914434331262,0.28750955,0.6702085184772885
0.0335,1.7719437500000002,1.0,2717.463020063573,0.3150453064864762,1.3211843122272608,0.9549138082989147,0.2874746375,0.6710479514639713
0.034,1.7711000000000001,1.0,2720.8079707680536,0.3188873610780388,1.3207728016099551,0.9558959929308336,0.2874392,0.6718903372044017
0.0345,1.7702437500000001,1.0,2723.774208490576,0.32270786345538854,1.3203591104050916,0.9568400724988526,0.2874032375,0.6727360981519719
0.035,1.7693750000000001,1.0,2726.3846790953876,0.32650693530118846,1.319943024265541,0.9577479885951323,0.28736675,0.6735856544126896
0.035500000000000004,1.76849375,1.0,2728.658764712269,0.33028469478701095,1.3195243623203496,0.9586215620511428,0.2873297375,0.6744393554967281
0.036000000000000004,1.7676,1.0,2730.613156009546,0.3340412580131737,1.3191029690518685,0.9594625014862366,0.2872922,0.6752974972649306
0.0365,1.76669375,1.0,2732.281171778545,0.3377767587591202,1.3186785386302078,0.9602723983030886,0.2872541375,0.6761606792618469
0.037,1.765775,1.0,2733.6756974412015,0.34149131162847474,1.3182509516331158,0.9610527606228755,0.28721555,0.6770291192111486
0.0375,1.76484375,1.0,2734.809674378297,0.34518503122486105,1.3178200886383409,0.9618050051924276,0.2871764375,0.6779030333479501
0.038,1.7639,1.0,2735.696093498154,0.34885803215190314,1.3173858302236314,0.9625304639273687,0.28713679999999997,0.6787826363943119
0.0385,1.76294375,1.0,2736.347989121799,0.352510429013225,1.3169480569667358,0.9632303899177901,0.28709663750000003,0.6796681415338355
0.039,1.761975,1.0,2736.7784331842013,0.3561423364124505,1.3165066494454023,0.9639059629459742,0.28705595,0.6805597603853484
0.0395,1.7609937500000001,1.0,2737.0005297519338,0.3597538689532037,1.3160614882373796,0.9645582945606392,0.2870147375,0.6814577029756785
0.04,1.76,1.0,2737.0274098567224,0.36334514123910855,1.3156124539204157,0.9651884327477104,0.286973,0.6823621777115225
0.0405,1.7589937500000001,1.0,2736.872226645479,0.36691626787378895,1.3151594270722593,0.9657973662336464,0.2869307375,0.6832733913503994
0.041,1.757975,1.0,2736.548150846352,0.3704673634608689,1.3147022882706587,0.9663860284537867,0.28688795,0.6841915489706991
0.0415,1.75694375,1.0,2736.0665725130393,0.37399853948928086,1.3142409343809052,0.9669553020675007,0.2868446375,0.6851168212991571
0.042,1.7559,1.0,2735.4357707138997,0.37750990313414773,1.3137752906086233,0.9675060231073465,0.28680079999999997,0.6860493208018941
0.0425,1.75484375,1.0,2734.672771943314,0.38100157914353044,1.3133052028044538,0.9680389786968411,0.2867564375,0.6869893172693242
0.043000000000000003,1.753775,1.0,2733.784299770434,0.38447367463252613,1.3128306104042973,0.9685549185523189,0.28671155,0.6879368915627384
0.043500000000000004,1.75269375,1.0,2732.7770823982296,0.3879262967162318,1.3123514528440543,0.9690545526810533,0.28666613750000003,0.6888921234254098
0.044,1.7516,1.0,2731.6578511717476,0.39135955250974463,1.3118676695596254,0.9695385538762437,0.2866202,0.6898550914650775
0.0445,1.75049375,1.0,2730.4333391689456,0.3947735491281617,1.3113791999869113,0.9700075600314126,0.2865737375,0.690825873136196
0.045,1.7493750000000001,1.0,2729.1102798725233,0.39816839368658014,1.3108859835618125,0.9704621762889339,0.28652675,0.691804544721953
0.0455,1.74824375,1.0,2727.695405922683,0.40154419330009705,1.31038795972023,0.9709029770360799,0.2864792375,0.692791181316049
0.046,1.7471,1.0,2726.1954479518768,0.4049010550838095,1.3098850678980638,0.9713305077607843,0.2864312,0.6937858568042488
0.0465,1.7459437500000001,1.0,2724.617133500413,0.4082390861528146,1.309377247531215,0.9717452867782334,0.28638263750000004,0.6947886438456928
0.047,1.744775,1.0,2722.9671860133926,0.41155839362220953,1.308864438055584,0.9721478068384228,0.28633355,0.6957996138539806
0.0475,1.74359375,1.0,2721.2532481643752,0.414859084379701,1.3083465704933133,0.9725385359955128,0.28628393750000003,0.6968188535236358
0.048,1.7424,1.0,2719.4811931413965,0.4181412621235705,1.3078235919157992,0.9729179203943671,0.2862338,0.6978464166455852
0.0485,1.74119375,1.0,2717.6501912429503,0.42140502994759804,1.307295510403317,0.9732863889772989,0.2861831375,0.6988822362435104
0.049,1.739975,1.0,2715.7668131580667,0.424650490411228,1.3067622666280105,0.9736443456495885,0.28613195,0.6999263768279509
0.0495,1.73874375,1.0,2713.837622233375,0.4278777460739047,1.3062238012620238,0.9739921753474692,0.2860802375,0.7009789015964176
0.05,1.7375,1.0,2711.869041159561,0.4310868991933902,1.3056800561877637,0.9743302451425941,0.286028,0.7020398700543546
0.0505,1.73624375,1.0,2709.8629868399507,0.43427805188279783,1.3051310143162884,0.9746589078768555,0.2859752375,0.7031092605303348
0.051000000000000004,1.734975,1.0,2707.821393427565,0.437451305065043,1.3045766583835445,0.9749785001258714,0.28592195,0.7041870509180919
0.051500000000000004,1.73369375,1.0,2705.747408606182,0.4406067585482208,1.3040169600274873,0.9752893423932975,0.2858681375,0.7052732398458073
0.052000000000000005,1.7324,1.0,2703.644175947376,0.4437445121404264,1.303451890886072,0.9755917408106712,0.2858138,0.7063678249925622
0.0525,1.7310956279478091,1.0,2701.617579833361,0.446864662763473,1.3028813319726924,0.9758859818934854,0.28575901637380796,0.7074709781328052
0.053,1.7297899798596026,1.0,2700.088046087973,0.44996731295947867,1.3023056608703973,0.9761723710533373,0.2857041791541033,0.7085819113702561
0.0535,1.728484331771396,1.0,2699.0676818154357,0.4530525628148278,1.3017253393313017,0.9764512052786947,0.2856493419343986,0.7096996798641927
0.054,1.7271786836831895,1.0,2698.5241635146126,0.45612050802382825,1.3011406602073055,0.9767227579753746,0.28559450471469394,0.7108236695469012
0.0545,1.725873035594983,1.0,2698.4253127384623,0.4591712442807878,1.3005519163503085,0.9769872908429548,0.28553966749498927,0.7119532703385113
0.055,1.7245673875067764,1.0,2698.739068751181,0.4622048672800145,1.299959400612211,0.9772450544822974,0.2854848302752846,0.7130878762256476
0.0555,1.7232617394185699,1.0,2699.4334630868243,0.465221472715816,1.2993634058449128,0.9774962889667895,0.2854299930555799,0.714226885334611
0.056,1.7219560913303633,1.0,2700.4765960092122,0.4682211562825002,1.2987642249003137,0.9777412243797319,0.28537515583587525,0.7153696999990904
0.0565,1.7206504432421568,1.0,2701.8366148735026,0.4712040136743751,1.298162150630314,0.9779800813201396,0.2853203186161706,0.716515726822404
0.057,1.7193447951539502,1.0,2703.4827608208548,0.47417014025168513,1.2975574661468208,0.9782130707916068,0.2852654813964659,0.7176643952177411
0.0575,1.7180391470657437,1.0,2705.3922375542265,0.47711962983409306,1.2969503819638397,0.9784403910118387,0.28521064417676123,0.7188152763122759
0.058,1.7167334989775374,1.0,2707.544200842727,0.48005257573708676,1.2963410908538433,0.978662231213014,0.28515580695705656,0.7199679779067417
0.0585,1.7154278508893308,1.0,2709.9205880779464,0.4829690699826831,1.2957297602213567,0.9788787715888889,0.2851009697373519,0.7211221585440654
0.059000000000000004,1.7141222028011243,1.0,2712.5033337035798,0.4858692045928989,1.295116557470906,0.9790901852386336,0.2850461325176472,0.7222774792937545
0.059500000000000004,1.7128165547129177,1.0,2715.274361956285,0.4887530715897512,1.294501650007017,0.9792966385062433,0.28499129529794254,0.7234336037727821
0.06,1.7115109066247112,1.0,2718.2249995522116,0.4916207570732244,1.2938851194386551,0.9794982861808852,0.28493645807823786,0.7245903589685185
0.0605,1.7102052585365046,1.0,2721.325933731818,0.49447236129431454,1.2932672352488868,0.9796952883163805,0.2848816208585332,0.7257472217138843
0.061,1.708899610448298,1.0,2724.565409640913,0.497307973664786,1.2926481066944362,0.9798877895172614,0.2848267836388285,0.7269039720923529
0.0615,1.7075939623600915,1.0,2727.9342896536637,0.5001276819126161,1.2920278190752192,0.9800759275445017,0.28477194641912384,0.7280604364992699
0.062,1.706288314271885,1.0,2731.42342235562,0.5029315737657819,1.2914064576911517,0.9802598350083447,0.28471710919941917,0.7292164426527264
0.0625,1.7049826661836784,1.0,2735.0236404322886,0.5057197369522606,1.2907841078421494,0.9804396396018269,0.2846622719797145,0.730371819599634
0.063,1.7036770180954721,1.0,2738.7257587189943,0.5084922592000294,1.290160854828128,0.9806154643220513,0.2846074347600098,0.7315263977213329
0.0635,1.7023713700072656,1.0,2742.5205724121934,0.5112492282370654,1.2895367839490037,0.9807874276799468,0.28455259754030515,0.7326800087387371
0.064,1.701065721919059,1.0,2746.398855442143,0.5139907317913459,1.2889119805046922,0.9809556438991877,0.2844977603206005,0.7338324857170164
0.0645,1.6997600738308525,1.0,2750.351359006593,0.5167168575908481,1.2882865297951094,0.9811202231049093,0.2844429231008958,0.7349836630698136
0.065,1.698454425742646,1.0,2754.371359780719,0.5194276895621954,1.2876604940509078,0.981281270089589,0.28438808588119113,0.7361334188851647
0.0655,1.6971487776544394,1.0,2758.4538788624477,0.5221233117658486,1.2870339195705673,0.9814388851710905,0.28433324866148646,0.7372816614029244
0.066,1.6958431295662328,1.0,2762.5862906348893,0.5248038208375447,1.2864069216222884,0.9815931693844867,0.2842784114417818,0.7384281736187639
0.0665,1.6945374814780263,1.0,2766.7651464018504,0.5274692988418985,1.2857795322913872,0.9817442152285654,0.2842235742220771,0.7395728919748596
0.067,1.6932318333898198,1.0,2770.9869878045697,0.5301198278435245,1.2851517836631794,0.9818921120101106,0.28416873700237244,0.7407157534238117
0.0675,1.6919261853016132,1.0,2775.248346554478,0.5327554899070371,1.2845237078229814,0.9820369459774201,0.28411389978266777,0.7418566954294091
0.068,1.6906205372134067,1.0,2779.545744189311,0.5353763670970509,1.2838953368561092,0.982178800447342,0.2840590625629631,0.7429956559673351
0.0685,1.6893148891252001,1.0,2783.8756918514887,0.5379825414781805,1.2832667028478786,0.9823177559261982,0.2840042253432584,0.7441325735258024
0.069,1.6880092410369936,1.0,2788.2346900896414,0.5405740951150404,1.2826378378836059,0.9824538902249215,0.28394938812355375,0.7452673871061242
0.0695,1.6867035929487872,1.0,2792.6192286830346,0.5431511100722449,1.2820087740486068,0.9825872785687226,0.2838945509038491,0.7464000362232202
0.07,1.6853979448605807,1.0,2797.025786488521,0.5457136684144089,1.2813795434281976,0.9827179937015861,0.2838397136841444,0.7475304609060558
0.07050000000000001,1.6840922967723742,1.0,2801.450831310574,0.5482618522061468,1.2807501781076944,0.9828461059858665,0.28378487646443973,0.7486586016980161
0.07100000000000001,1.6827866486841676,1.0,2805.8908197939586,0.5507957435120729,1.280120710172413,0.9829716834972526,0.28373003924473505,0.7497843996572162
0.07150000000000001,1.681481000595961,1.0,2810.345461721194,0.5533154103090675,1.2794911424655677,0.9830947899517902,0.2836752020250304,0.7509078484798843
0.07200000000000001,1.6801753525077545,1.0,2814.8109307728646,0.5558209425166696,1.2788615094729638,0.983215489746913,0.2836203648053257,0.7520288856328448
0.0725,1.678869704419548,1.0,2819.2828571753726,0.558312431584827,1.278231850431899,0.9833338455278384,0.28356552758562104,0.7531474407054891
0.073,1.6775640563313414,1.0,2823.7602407519107,0.5607899530264833,1.2776021743425285,0.9834499156965684,0.28351069036591636,0.7542634974499375
