Time [s],Phi [rad],STIM [ ],Fsee [N],Gamma [ ],Lcerel [ ],q [ ],Lmtc [m],fisomrel [ ]
0.0,1.8,1.0,17.96600712324665,1.9622043122019172e-05,1.379339875177246,0.005000102071513399,0.288653,0.5411392190705082
0.0005,1.79999375,1.0,18.2786901492134,0.00562872128777616,1.3793021716321878,0.012967251387493318,0.2886527375,0.541230429193579
0.001,1.799975,1.0,21.62754618488574,0.0112063579205412,1.3789373661811148,0.03565874352252181,0.28865195,0.5421124761215551
0.0015,1.79994375,1.0,31.093544952039874,0.016752708422665977,1.378044133095041,0.07067037144946721,0.2886506375,0.5442686015064377
0.002,1.7999,1.0,53.636813250350365,0.022267948283727437,1.3763646017429034,0.1147991564817982,0.2886488,0.5483089494735514
0.0025,1.79984375,1.0,97.2117453622048,0.027752252009271172,1.3739306961451492,0.16466314090386217,0.28864643749999996,0.5541321252563907
0.003,1.7997750000000001,1.0,161.0798060832714,0.03320579312843154,1.3712097915428019,0.21737149318930768,0.28864354999999997,0.5605972278786658
0.0035,1.79969375,1.0,237.82126339510134,0.03862874419359774,1.3685804861834518,0.270703436012197,0.2886401375,0.5667998252703134
0.004,1.7996,1.0,321.6138491967599,0.04402127679117714,1.3661521973109496,0.3230034758829832,0.2886362,0.5724890574118732
0.0045000000000000005,1.7994937500000001,1.0,409.42030841219645,0.049383561546784825,1.3639192333913301,0.37311773330725573,0.2886317375,0.5776874731118196
0.005,1.799375,1.0,499.56935303004354,0.05471576811635944,1.3618550308297621,0.42032532484149426,0.28862675,0.5824647215025252
0.0055,1.79924375,1.0,590.9478208737045,0.060018065233202696,1.359935759955521,0.46424578835633734,0.2886212375,0.5868821706162038
0.006,1.7991000000000001,1.0,682.675853118644,0.06529062065221262,1.358143547532641,0.5047462123855451,0.2886152,0.5909859673492821
0.006500000000000001,1.79894375,1.0,774.040299402972,0.07053360120246555,1.3564645388132797,0.5418613126991364,0.2886086375,0.5948119660989664
0.007,1.798775,1.0,864.4457408725547,0.07574717278477532,1.3548878117392484,0.5757319360742257,0.28860155,0.5983885238486217
0.0075,1.79859375,1.0,953.4016288337943,0.08093150034022452,1.3534043427302054,0.6065600696820674,0.2885939375,0.6017390642201261
0.008,1.7984,1.0,1040.5157883397405,0.08608674792878454,1.3520063300097123,0.6345776111049881,0.2885858,0.6048837488300176
0.0085,1.79819375,1.0,1125.474411406135,0.09121307864972629,1.3506869739642153,0.6600257648560913,0.2885771375,0.6078400710836154
0.009000000000000001,1.797975,1.0,1208.0295053395807,0.09631065448284418,1.3494402680287827,0.6831419541611587,0.28856795,0.6106234026784838
0.0095,1.79774375,1.0,1288.0025860562541,0.10137963665127923,1.3482606632076921,0.7041519268041394,0.2885582375,0.6132478012185538
0.01,1.7975,1.0,1365.3061282177493,0.10642018708615168,1.3471425977842868,0.7232653807855234,0.288548,0.615727094399161
0.0105,1.79724375,1.0,1439.8140463014397,0.11143246386066794,1.3460820121636832,0.7406749398841378,0.2885372375,0.6180715588543886
0.011,1.796975,1.0,1511.4619498447018,0.11641662504803442,1.345074846750998,0.7565550055565307,0.28852595000000003,0.6202912950885688
0.0115,1.79669375,1.0,1580.2416444309486,0.12137282872145759,1.344117041951348,0.771062352840723,0.2885141375,0.6223962418324434
0.012,1.7964,1.0,1646.1739980567515,0.1263012321862157,1.3432047956661504,0.7843373366812141,0.28850180000000003,0.6243956257390177
0.0125,1.79609375,1.0,1709.2882732043156,0.13120199172817074,1.342334721906017,0.7965052753949993,0.2884889375,0.6262976344946746
0.013000000000000001,1.7957750000000001,1.0,1769.6078502263044,0.13607526169713882,1.3415039292251234,0.8076778706906286,0.28847555,0.6281092676141642
0.0135,1.79544375,1.0,1827.1827614986316,0.1409211962301009,1.3407095815068748,0.8179544162569398,0.2884616375,0.6298373120835785
0.014,1.7951000000000001,1.0,1882.0748558777423,0.1457399485420955,1.3399490257806281,0.827423187718232,0.2884472,0.6314880735676078
0.0145,1.79474375,1.0,1934.3770719771398,0.15053167244532029,1.3392195440393253,0.836162591476574,0.2884322375,0.6330679239214039
0.015,1.794375,1.0,1984.1459687129438,0.15529651849284284,1.3385190527397755,0.8442425385068608,0.28841675,0.6345817950643021
0.0155,1.79399375,1.0,2031.452073391194,0.16003463700388035,1.3378455126650186,0.8517252332384263,0.2884007375,0.6360344692988226
0.016,1.7936,1.0,2076.3814568132257,0.16474617820962462,1.3371968939249437,0.8586660719429648,0.2883842,0.6374306592071757
0.0165,1.7931937500000001,1.0,2119.021804764704,0.16943129109875052,1.336571304445552,0.8651144873315841,0.2883671375,0.6387747354075878
0.017,1.792775,1.0,2159.4723335592516,0.17409012547792163,1.3359668685625954,0.8711146199254598,0.28834955,0.6400709924370018
0.0175,1.7923437500000001,1.0,2197.800628091995,0.17872282739481996,1.335382151731441,0.8767060577238487,0.2883314375,0.6413227433035353
0.018000000000000002,1.7919,1.0,2234.083679549712,0.1833295428971276,1.3348157194074552,0.8819242483533818,0.2883128,0.6425332718037889
0.0185,1.79144375,1.0,2268.4071014896867,0.18791041803252662,1.3342661370460054,0.88680098264214,0.2882936375,0.643705834261292
0.019,1.790975,1.0,2300.8500024431037,0.19246559717829756,1.3337321125569852,0.891364852639116,0.28827395,0.6448433579344763
0.0195,1.79049375,1.0,2331.511293194509,0.1969952270514879,1.3332122260638495,0.8956415543553635,0.2882537375,0.6459490191376724
0.02,1.79,1.0,2360.460435947692,0.20149945002804773,1.3327054094742392,0.8996543255628928,0.288233,0.6470252248296519
0.0205,1.78949375,1.0,2387.763506415998,0.20597840742711412,1.332210677262244,0.9034241590628261,0.2882117375,0.6480741897734732
0.021,1.788975,1.0,2413.491076546377,0.21043224056782414,1.3317270439019542,0.9069700335787477,0.28818995000000003,0.649098113342063
0.021500000000000002,1.78844375,1.0,2437.71783788549,0.21486109076931484,1.33125352386746,0.9103091346186443,0.2881676375,0.6500991802467795
0.022,1.7879,1.0,2460.5135790867625,0.21926509770566466,1.3307892146107871,0.913457064706591,0.2881448,0.6510793861517175
0.0225,1.78734375,1.0,2481.95399259092,0.2236444030056664,1.330333188574955,0.9164279926774324,0.28812143749999997,0.6520407669831099
0.023,1.786775,1.0,2502.1018638657893,0.22799914535110605,1.329884669545363,0.9192348362289203,0.28809755,0.6529850280578656
0.0235,1.78619375,1.0,2521.0107841857657,0.23232946096030346,1.3294429920679098,0.9218893837489083,0.28807313749999996,0.6539136319430583
0.024,1.7856,1.0,2538.7364771772855,0.2366354860515785,1.3290074906884939,0.924402390741533,0.2880482,0.6548280327514688
0.0245,1.78499375,1.0,2555.3366194968385,0.24091735684325102,1.3285774999530138,0.9267836845535886,0.2880227375,0.6557296764178164
0.025,1.784375,1.0,2570.8706713280176,0.24517520955364092,1.3281523544073686,0.9290422572136442,0.28799675,0.65662000094675
0.025500000000000002,1.78374375,1.0,2585.3874737301926,0.2494091770359047,1.3277315029407508,0.9311863654192665,0.2879702375,0.6575001976409331
0.026000000000000002,1.7831000000000001,1.0,2598.9518323153584,0.2536193980951307,1.327314258265308,0.9332235650243667,0.2879432,0.6583717357660437
0.0265,1.78244375,1.0,2611.607392561286,0.25780600500885875,1.3269001424522608,0.9351608281781738,0.2879156375,0.6592356405124093
0.027,1.781775,1.0,2623.3935352323933,0.2619691284533528,1.3264887266654386,0.9370045750370023,0.28788755,0.6600928295930502
0.0275,1.7810937500000001,1.0,2634.3505366577187,0.26610889910487656,1.32607958206867,0.9387607184307277,0.2878589375,0.6609442160648009
0.028,1.7804,1.0,2644.519491424072,0.2702254476396938,1.3256722798257832,0.9404347106610843,0.2878298,0.6617907083962908
0.0285,1.77969375,1.0,2653.9422391465123,0.27431890473406845,1.3252663911006077,0.9420315854164363,0.2878001375,0.6626332105241917
0.029,1.778975,1.0,2662.661295316303,0.2783894010642642,1.3248614870569717,0.9435559953657283,0.28776995,0.6634726218977456
0.029500000000000002,1.7782437500000001,1.0,2670.714545917067,0.2824370653209061,1.3244571870124744,0.9450122517981091,0.2877392375,0.6643097378697457
0.03,1.7775,1.0,2678.1418880534984,0.28646202652707564,1.3240530966076278,0.946404346890217,0.287708,0.6651453781218349
0.0305,1.77674375,1.0,2684.972401272,0.2904644108881596,1.3236489249950016,0.9477359955486258,0.2876762375,0.6659801446096295
0.031,1.775975,1.0,2691.2352215206956,0.29444434451682905,1.3232443842422354,0.9490106467735687,0.28764395,0.6668146302801596
0.0315,1.7751937500000001,1.0,2696.9598233009565,0.2984019535257551,1.3228391864169684,0.9502315056910462,0.2876111375,0.6676494251072382
0.032,1.7744024212013103,1.0,2702.3005765819835,0.3023373596320037,1.322432998861326,0.951401547010172,0.28757790169045505,0.6684852080525899
0.0325,1.7736102013062427,1.0,2707.699769305571,0.30625069387527826,1.322025923758464,0.9525235955317378,0.2875446284548622,0.6693217615673086
0.033,1.7728179814111749,1.0,2713.1834440427465,0.3101420809962521,1.3216181275608458,0.9536002889261188,0.28751135521926935,0.6701587373222433
0.0335,1.772025761516107,1.0,2718.740454137764,0.3140116417623659,1.3212097139725403,0.954634078828682,0.2874780819836765,0.6709959172502515
0.034,1.7712335416210394,1.0,2724.3596092067987,0.3178594969410601,1.320800786697615,0.9556272539526359,0.28744480874808365,0.6718330843564775
0.0345,1.7704413217259716,1.0,2730.029673837749,0.3216857672997752,1.3203914494401385,0.9565819528428374,0.2874115355124908,0.6726700227220892
0.035,1.769649101830904,1.0,2735.739366527894,0.3254905736059518,1.3199818059041786,0.957500175489953,0.28737826227689794,0.673506517507336
0.035500000000000004,1.7688568819358361,1.0,2741.477358860876,0.32927403662703036,1.3195719597938038,0.958383793918645,0.2873449890413051,0.674342354953914
0.036000000000000004,1.7680646620407685,1.0,2747.2322749214773,0.3330362771304515,1.319162014813082,0.9592345618510193,0.28731171580571224,0.6751773223866517
0.0365,1.7672724421457007,1.0,2752.994207191835,0.3367774143634551,1.3187520609429415,0.9600541217969806,0.2872784425701194,0.6760112361116942
0.037,1.766480222250633,1.0,2758.7560928772,0.3404975673925727,1.3183421620680578,0.9608440123723623,0.2872451693345266,0.6768439663578905
0.0375,1.7656880023555652,1.0,2764.5105956547527,0.3441968557665437,1.3179323842769841,0.9616056788342321,0.2872118960989337,0.6776753795534187
0.038,1.7648957824604974,1.0,2770.2537702758136,0.3478753946935291,1.3175227627879036,0.9623404756157478,0.2871786228633409,0.6785054053301554
0.0385,1.7641035625654298,1.0,2775.981655439349,0.35153329938168987,1.3171133328189994,0.96304967669867,0.28714534962774807,0.6793339736875845
0.039,1.763311342670362,1.0,2781.690273927969,0.355170685039187,1.3167041295884547,0.9637344812720342,0.2871120763921552,0.6801610149924084
0.0395,1.7625191227752943,1.0,2787.3756327714564,0.3587876668741813,1.3162951883144527,0.9643960189341988,0.28707880315656237,0.6809864599780768
0.04,1.7617269028802265,1.0,2793.0337234370318,0.3623843600948338,1.3158865442151761,0.9650353544796147,0.2870455299209695,0.6818102397442397
0.0405,1.7609346829851589,1.0,2798.664223982006,0.3659608679085455,1.3154781992780105,0.9656534872158411,0.28701225668537667,0.682632352615765
0.041,1.760142463090091,1.0,2804.2610811025243,0.3695173162134331,1.3150702068844171,0.966251368978355,0.2869789834497838,0.683452693666488
0.0415,1.7593502431950232,1.0,2809.8202421554447,0.3730538252711554,1.3146626022861458,0.9668298961925605,0.28694571021419096,0.6842711949059657
0.042,1.7585580232999556,1.0,2815.341227140328,0.3765705032759872,1.3142553886288832,0.9673899113685293,0.28691243697859814,0.6850878530539208
0.0425,1.7577658034048878,1.0,2820.8235556886593,0.3800674584222034,1.3138485690583148,0.9679322113873577,0.28687916374300526,0.6859026648598476
0.043000000000000003,1.7569735835098201,1.0,2826.26674709146,0.3835447989040791,1.3134421467201274,0.9684575504374553,0.28684589050741244,0.6867156271029278
0.043500000000000004,1.7561813636147523,1.0,2831.6703203265115,0.38700263291588916,1.3130361247600066,0.9689666427333398,0.2868126172718196,0.6875267365919566
0.044,1.7553891437196847,1.0,2837.0337940863433,0.3904410686519084,1.3126305063236388,0.9694601650350804,0.28677934403622674,0.6883359901652591
0.0445,1.7545969238246168,1.0,2842.35668680636,0.393860214306412,1.31222529455671,0.9699387589848472,0.2867460708006339,0.689143384690611
0.045,1.7538047039295492,1.0,2847.638516692932,0.39726017807367475,1.3118204926049066,0.9704030332755187,0.2867127975650411,0.6899489170651575
0.0455,1.7530124840344814,1.0,2852.8788017518677,0.40064106814797157,1.3114161036139145,0.970853565664957,0.2866795243294482,0.6907525842153306
0.046,1.7522202641394138,1.0,2858.077059817372,0.4040029927235775,1.31101213072942,0.9712909048483214,0.2866462510938554,0.6915543830967671
0.0465,1.751428044244346,1.0,2863.232808580456,0.40734605999476736,1.3106085770971092,0.9717155721997076,0.2866129778582625,0.6923543106942257
0.047,1.7506358243492781,1.0,2868.3457221193057,0.41067037393204403,1.310205444474994,0.9721280627381773,0.2865797046226697,0.6931523667668094
0.0475,1.7498436044542105,1.0,2873.417065343871,0.4139760155572473,1.3098027205319447,0.972528843394402,0.2865464313870768,0.6939485789254012
0.048,1.7490513845591427,1.0,2878.4459965279398,0.4172631331199694,1.3094004116368965,0.9729183684438636,0.286513158151484,0.6947429377516551
0.0485,1.748259164664075,1.0,2883.4331070100925,0.4205318257806103,1.3089985114730174,0.9732970633105528,0.28647988491589116,0.6955354588885827
0.049,1.7474669447690072,1.0,2888.3789917234067,0.42378219269956996,1.308597013723475,0.9736653333069812,0.2864466116802983,0.6963261579112034
0.0495,1.7466747248739396,1.0,2893.2842491390907,0.42701433303724834,1.3081959120714373,0.974023564768703,0.28641333844470546,0.6971150503267057
0.05,1.7458825049788718,1.0,2898.149481209962,0.4302283459540453,1.307795200200072,0.9743721261148917,0.28638006520911263,0.69790215157461
0.0505,1.745090285083804,1.0,2902.9752933157156,0.43342433061036084,1.307394871792547,0.9747113688404277,0.28634679197351975,0.6986874770269248
0.051000000000000004,1.7442980651887363,1.0,2907.76229420888,0.4366023861665948,1.3069949205320301,0.9750416284444834,0.28631351873792693,0.6994710419883052
0.051500000000000004,1.7435058452936685,1.0,2912.511095961316,0.43976261178314724,1.3065953401016892,0.975363225300209,0.2862802455023341,0.7002528616962038
0.052000000000000005,1.7427136253986009,1.0,2917.2223139118732,0.442905106620418,1.306196124184692,0.9756764654697394,0.28624697226674123,0.7010329513210225
0.0525,1.741921405503533,1.0,2921.896566615064,0.446029969838807,1.3057972664642064,0.975981641468409,0.28621369903114835,0.7018113259662602
0.053,1.7411291856084654,1.0,2926.5344757904886,0.4491373005987143,1.3053987606234,0.976279032981758,0.2861804257955555,0.702588000668658
0.0535,1.7403369657133976,1.0,2931.136666272638,0.45222719806053974,1.3050006003454413,0.9765689075386247,0.2861471525599627,0.7033629903983432
0.054,1.73954474581833,1.0,2935.70376596256,0.45529976138468325,1.3046027793134976,0.9768515211433715,0.2861138793243698,0.7041363100589692
0.0545,1.7387525259232621,1.0,2940.2364057799405,0.4583550897315448,1.3042052912107365,0.9771271188700515,0.286080606088777,0.704907974487854
0.055,1.7379603060281945,1.0,2944.7352196154557,0.4613932822615243,1.3038081297203263,0.9773959354211066,0.2860473328531842,0.7056779984561141
0.0555,1.7371680861331267,1.0,2949.2004134167996,0.46441441759670465,1.3034112922931649,0.9776581939490884,0.2860140596175913,0.7064463893781623
0.056,1.7363758662380588,1.0,2953.632081185572,0.46741855722828046,1.303014777372182,0.9779141068614079,0.2859807863819985,0.7072131527234915
0.0565,1.7355836463429912,1.0,2958.032695992137,0.47040587677434254,1.3026185626383346,0.9781638870380817,0.28594751314640565,0.7079783340137383
0.057,1.7347914264479234,1.0,2962.4027711173617,0.47337646465511485,1.302222642943618,0.9784077316827752,0.2859142399108128,0.7087419454469849
0.0575,1.7339992065528558,1.0,2966.7428221694818,0.4763304092908212,1.3018270131400271,0.9786458300335795,0.28588096667521995,0.7095039991676335
0.058,1.733206986657788,1.0,2971.0533670503423,0.47926779910168554,1.3014316680795577,0.9788783637486429,0.28584769343962707,0.710264507266503
0.0585,1.7324147667627203,1.0,2975.3349259230476,0.4821887225079316,1.301036602614205,0.9791055072701668,0.28581442020403425,0.7110234817809222
0.059000000000000004,1.7316225468676525,1.0,2979.5880211793465,0.48509326792978336,1.3006418115959648,0.9793274281681358,0.28578114696844137,0.7117809346948227
0.059500000000000004,1.7308303269725847,1.0,2983.813177408524,0.4879815237874646,1.3002472898768318,0.9795442874650679,0.28574787373284855,0.7125368779388321
0.06,1.730038107077517,1.0,2988.0109213657224,0.49085357850119926,1.299853032308802,0.9797562399429659,0.2857146004972557,0.7132913233903588
0.0605,1.7292458871824492,1.0,2992.181781942041,0.4937095204912112,1.2994590337438703,0.979963434433582,0.28568132726166284,0.7140442828736848
0.061,1.7284536672873816,1.0,2996.3262901344124,0.49654943817772423,1.2990652890340324,0.9801660140930215,0.28564805402607,0.7147957681600468
0.0615,1.7276614473923138,1.0,3000.44497901643,0.4993734199809623,1.2986717930312837,0.9803641166616447,0.2856147807904772,0.7155457909677234
0.062,1.7268692274972461,1.0,3004.5383837095683,0.5021815543211492,1.2982785405876194,0.9805578747101608,0.2855815075548843,0.716294362962117
0.0625,1.7260770076021783,1.0,3008.607041355295,0.5049739296185088,1.2978855265550346,0.980747415872745,0.2855482343192915,0.7170414957558346
0.063,1.7252847877071107,1.0,3012.65149108729,0.5077506342932651,1.2974927457855254,0.9809328630679562,0.28551496108369867,0.7177872009087651
0.0635,1.7244925678120429,1.0,3016.6722740046625,0.5105117567656418,1.2971001931310866,0.9811143347081792,0.2854816878481058,0.7185314899281603
0.064,1.7237003479169752,1.0,3020.669933145762,0.5132573854558627,1.296707863443714,0.9812919448982691,0.28544841461251297,0.7192743742687067
0.0645,1.7229081280219074,1.0,3024.6450134621564,0.515987608784152,1.2963157515754025,0.9814658036240294,0.2854151413769201,0.7200158653326032
0.065,1.7221159081268396,1.0,3028.5980617937207,0.5187025151707332,1.2959238523781478,0.9816360169311127,0.28538186814132727,0.7207559744696308
0.0655,1.721323688231772,1.0,3032.5296268437896,0.5214021930358304,1.2955321607039452,0.9818026870949019,0.2853485949057344,0.7214947129772242
0.066,1.7205314683367041,1.0,3036.44025915563,0.5240867307996673,1.29514067140479,0.9819659127818814,0.28531532167014156,0.7222320921005415
0.0665,1.7197392484416365,1.0,3040.330511088561,0.5267562168824679,1.2947493793326776,0.982125789202988,0.28528204843454874,0.7229681230325298
0.067,1.7189470285465687,1.0,3044.200255257873,0.529410703967429,1.294358285205582,0.9822824061940312,0.28524877519895586,0.7237028059018791
0.0675,1.718154808651501,1.0,3048.0499323110535,0.5320502809033634,1.293967384855937,0.9824358526457255,0.28521550196336304,0.7244361500030658
0.068,1.7173625887564332,1.0,3051.8807846252166,0.5346750777786923,1.2935766672370947,0.9825862167141499,0.2851822287277702,0.7251681774679852
0.0685,1.7165703688613654,1.0,3055.6930924177886,0.5372851723794884,1.2931861295978182,0.982733580595823,0.28514895549217734,0.725898894806924
0.069,1.7157781489662978,1.0,3059.487136923326,0.5398806424918247,1.292795769186871,0.9828780237252703,0.2851156822565845,0.7266283085021319
0.0695,1.71498592907123,1.0,3063.2632003823414,0.5424615659017737,1.2924055832530157,0.9830196228868798,0.28508240902099163,0.7273564250078562
0.07,1.7141937091761623,1.0,3067.0215660310278,0.5450280203954085,1.292015569045016,0.9831584523214921,0.2850491357853988,0.7280832507503685
0.07050000000000001,1.7134014892810945,1.0,3070.762518090075,0.547580083758802,1.2916257238116347,0.9832945838280083,0.28501586254980593,0.7288087921279981
0.07100000000000001,1.7126092693860269,1.0,3074.4863417550105,0.5501178337780266,1.291236044801635,0.9834280868602802,0.2849825893142131,0.7295330555111611
