Time [s],Phi [rad],STIM [ ],Fsee [N],Gamma [ ],Lcerel [ ],q [ ],Lmtc [m],fisomrel [ ]
0.0,1.8,1.0,17.96617936702024,2.4378085554071426e-05,1.3793398558796113,0.005000157279261644,0.288653,0.5411392657564915
0.0005,1.79999375,1.0,18.280453394078783,0.005633450652572976,1.3793019757851543,0.012980481662532493,0.2886527375,0.5412309029511422
0.001,1.799975,1.0,21.632849106729438,0.011211060757340761,1.378936824713656,0.035683548178059216,0.28865195,0.5421137846809057
0.0015,1.79994375,1.0,31.106381799266842,0.016757384880271543,1.3780430399801407,0.07070431258037406,0.2886506375,0.5442712369980032
0.002,1.7999,1.0,53.66469105311777,0.02227259851009938,1.376362794327349,0.11483934609042097,0.2886488,0.548313287774584
0.0025,1.79984375,1.0,97.25876656579496,0.027756876151552968,1.3739284316612257,0.16470686004982182,0.28864643749999996,0.5541375254954595
0.003,1.7997750000000001,1.0,161.1410856404808,0.03321039133293075,1.3712074988749103,0.21741659457763785,0.28864354999999997,0.5606026555453874
0.0035,1.79969375,1.0,237.8905549524704,0.038633316605802444,1.368578352594622,0.2707482938183687,0.2886401375,0.5668048405568702
0.004,1.7996,1.0,321.68759808938574,0.044025823555763025,1.3661502445431013,0.3230469102587026,0.2886362,0.5724936174139896
0.0045000000000000005,1.7994937500000001,1.0,409.4966952737852,0.04938808280762495,1.363917440718241,0.3731589637945579,0.2886317375,0.5776916337407063
0.005,1.799375,1.0,499.64730395041113,0.05472026401654322,1.3618533747021773,0.4203638989968371,0.28862675,0.5824685434204263
0.0055,1.79924375,1.0,591.0264837079807,0.06002253591487081,1.3599342233303295,0.4642815018245461,0.2886212375,0.5868856979451291
0.006,1.7991000000000001,1.0,682.7546260045058,0.06529506625686317,1.3581421158579892,0.504779032604485,0.2886152,0.5909892374003912
0.006500000000000001,1.79894375,1.0,774.0957135447065,0.07053802155916322,1.3564635929716378,0.5418915687003795,0.2886086375,0.5948141163448679
0.007,1.798775,1.0,864.5235412263851,0.07575156870839642,1.354886555158767,0.5757592792705531,0.28860155,0.5983913678811972
0.0075,1.79859375,1.0,953.4870946016667,0.08093587179626657,1.3534030283170424,0.6065848545183867,0.2885939375,0.6017420267102798
0.008,1.7984,1.0,1040.5822686278564,0.08609109466962961,1.3520053513110448,0.6346002813902456,0.2885858,0.6048859459451146
0.0085,1.79819375,1.0,1125.5352880586388,0.09121740094651673,1.3506861122476217,0.6600463916323499,0.2885771375,0.6078419983311495
0.009000000000000001,1.797975,1.0,1208.096310248671,0.09631495278935186,1.3494393552805926,0.6831606417575069,0.28856795,0.6106254368019255
0.0095,1.79774375,1.0,1288.0741338451207,0.10138391113137801,1.3482597164928272,0.7041688757387238,0.2885582375,0.6132499039168866
0.01,1.7975,1.0,1365.3575365379454,0.10642443704303936,1.347141937088278,0.7232809298770744,0.288548,0.6157285571256315
0.0105,1.79724375,1.0,1439.8505851975945,0.11143668962376153,1.346081554878802,0.7406891961362123,0.2885372375,0.6180725681526489
0.011,1.796975,1.0,1511.4956737296093,0.11642082709838097,1.3450744348205022,0.756568029943046,0.28852595000000003,0.6202922016368336
0.0115,1.79669375,1.0,1580.2778379905246,0.12137700721692475,1.3441166095824584,0.7710742423476471,0.2885141375,0.6223971907189858
0.012,1.7964,1.0,1646.2206043170565,0.12630538772704825,1.343204250171254,0.7843481677587557,0.28850180000000003,0.6243968197206229
0.0125,1.79609375,1.0,1709.336020655374,0.13120612403031165,1.3423341734688474,0.796515200151876,0.2884889375,0.6262988318730902
0.013000000000000001,1.7957750000000001,1.0,1769.6508058630293,0.1360793706544836,1.3415034443092673,0.807687006909909,0.28847555,0.6281103237401378
0.0135,1.79544375,1.0,1827.2216620453669,0.14092528195596174,1.3407091493416896,0.8179628388898488,0.2884616375,0.6298382511315761
0.014,1.7951000000000001,1.0,1882.1214208940276,0.1457440116420851,1.3399485160672828,0.8274309197831725,0.2884472,0.6314891786468506
0.0145,1.79474375,1.0,1934.4220761630074,0.15053571278962083,1.3392190581166183,0.8361697352530788,0.2884322375,0.6330689751609513
0.015,1.794375,1.0,1984.1837982491143,0.15530053599662036,1.3385186494385748,0.844249170287156,0.28841675,0.634582665759832
0.0155,1.79399375,1.0,2031.485167328497,0.16003863186113515,1.3378451639820308,0.8517313925932296,0.2884007375,0.6360352205802129
0.016,1.7936,1.0,2076.4103903496343,0.16475015005233798,1.3371965923926625,0.8586717998294802,0.2883842,0.6374313076491601
0.0165,1.7931937500000001,1.0,2119.058183512653,0.16943524121791034,1.336570929156799,0.8651197879995219,0.2883671375,0.6387755409646969
0.017,1.792775,1.0,2159.5116909118788,0.17409405375794354,1.335966466366866,0.8711195447162209,0.28834955,0.6400718541994945
0.0175,1.7923437500000001,1.0,2197.8396573905698,0.17872673376163,1.3353817563811619,0.876710648933852,0.2883314375,0.6413235889243847
0.018000000000000002,1.7919,1.0,2234.1202924600975,0.18333342731816207,1.3348153515579864,0.8819285403610247,0.2883128,0.6425340572739222
0.0185,1.79144375,1.0,2268.4404783488,0.18791428051673215,1.3342658042556381,0.8868050028985957,0.2882936375,0.6437065437032252
0.019,1.790975,1.0,2300.883745402681,0.19246943813009143,1.3337317784967333,0.8913686150764093,0.28827395,0.6448440689458143
0.0195,1.79049375,1.0,2331.54264182304,0.1969990461891827,1.3332119177552049,0.8956450864034898,0.2882537375,0.6459496743172787
0.02,1.79,1.0,2360.4907942072214,0.20150324766721225,1.3327051127421676,0.8996576427497596,0.288233,0.6470258544490484
0.0205,1.78949375,1.0,2387.793614297394,0.20598218380442815,1.332210384664785,0.9034272768844006,0.2882117375,0.6480748096966695
0.021,1.788975,1.0,2413.5209917976954,0.21043599584107847,1.3317267547302203,0.9069729674830018,0.28818995000000003,0.6490987251152942
0.021500000000000002,1.78844375,1.0,2437.746920402139,0.21486482501741122,1.3312532441456366,0.9103118999904203,0.2881676375,0.6500997711830079
0.022,1.7879,1.0,2460.5417110133935,0.2192688110590584,1.3307889452882296,0.9134596744951962,0.2881448,0.6510799543211119
0.0225,1.78734375,1.0,2481.9799321163405,0.22364809538252514,1.330332941316355,0.9164304606660595,0.28812143749999997,0.6520412878867526
0.023,1.786775,1.0,2502.125543237533,0.22800281699500619,1.3298844447413638,0.9192371729818896,0.28809755,0.6529855010130169
0.0235,1.78619375,1.0,2521.0322595256425,0.23233311206159765,1.3294427889542428,0.9218915986393923,0.28807313749999996,0.6539140586927622
0.024,1.7856,1.0,2538.7559301264264,0.23663911674739568,1.329007307345978,0.9244044920797446,0.2880482,0.6548284174520063
0.0245,1.78499375,1.0,2555.354358569572,0.24092096721749637,1.3285773333075563,0.9267856796999168,0.2880227375,0.6557300256265786
0.025,1.784375,1.0,2570.8871330083443,0.24517879963699585,1.3281522002299635,0.9290441526786295,0.28799675,0.6566203236104399
0.025500000000000002,1.78374375,1.0,2585.4031425704134,0.24941274696063268,1.3277313566015256,0.9311881671580357,0.2879702375,0.6575005035080473
0.026000000000000002,1.7831000000000001,1.0,2598.9656794300276,0.2536229476817798,1.3273141292780015,0.9332252806720645,0.2879432,0.6583720050222694
0.0265,1.78244375,1.0,2611.6205500764313,0.25780953466120476,1.3269000201859622,0.9351624618177822,0.2879156375,0.6592358954158721
0.027,1.781775,1.0,2623.4068906386915,0.2619726384638446,1.326488602839335,0.9370061307333762,0.28788755,0.6600930874235299
0.0275,1.7810937500000001,1.0,2634.3647295103506,0.26611238965463657,1.326079450752047,0.9387622002334656,0.2878589375,0.660944489149373
0.028,1.7804,1.0,2644.5349105335285,0.2702289187985176,1.3256721374380256,0.9404361226066328,0.2878298,0.6617910041343998
0.0285,1.77969375,1.0,2653.9590202155787,0.27432235646042497,1.3252662364111976,0.9420329315296121,0.2878001375,0.6626335314122926
0.029,1.778975,1.0,2662.6793189786267,0.2783928332052957,1.3248613211854905,0.9435572796607945,0.28776995,0.6634729655536276
0.029500000000000002,1.7782437500000001,1.0,2670.729284639043,0.2824404750336715,1.3244570515768639,0.9450134825643214,0.2877392375,0.6643100181187764
0.03,1.7775,1.0,2678.1552394206738,0.2864654161255329,1.3240529740907883,0.9464055257712896,0.287708,0.6651456313230706
0.0305,1.77674375,1.0,2684.988002302988,0.2904677831381906,1.3236487820167,0.9477371221105364,0.2876762375,0.6659804397292941
0.031,1.775975,1.0,2691.2546801041417,0.2944477006269908,1.3232442061184218,0.9490117224456549,0.28764395,0.6668149974836457
0.0315,1.7751937500000001,1.0,2696.982707260712,0.2984052931472801,1.322838977159776,0.9502325336294274,0.2876111375,0.6676498559516253
0.032,1.7744,1.0,2702.1998152244996,0.3023406852544048,1.3224328259045859,0.9514025387737411,0.2875778,0.6684855637091296
0.0325,1.77359375,1.0,2706.934003466673,0.30625400150371124,1.3220254831166738,0.9525245156007984,0.2875439375,0.6693226665289314
0.033,1.772775,1.0,2711.213512088221,0.3101453664505459,1.3216166795598625,0.953601053077832,0.28750955,0.6701617073625279
0.0335,1.7719437500000002,1.0,2715.0660204687774,0.31401490455858555,1.3212061530663273,0.9546345672984279,0.2874746375,0.6710032118377907
0.034,1.7711000000000001,1.0,2718.517242253181,0.31786273822132677,1.320793661090761,0.9556273160035972,0.2874392,0.6718476626402616
0.0345,1.7702437500000001,1.0,2721.5979933410463,0.3216889893510811,1.3203789161156907,0.9565814042437145,0.2874032375,0.6726956317236454
0.035,1.7693750000000001,1.0,2724.3155689647992,0.3254937780700425,1.3199618460086275,0.9574988239809311,0.28736675,0.6735472484016305
0.035500000000000004,1.7684957468528357,1.0,2726.7765166978743,0.3292772245004048,1.3195423786370823,0.9583814399162248,0.2873298213678191,0.6744026411191184
0.036000000000000004,1.7676153123550042,1.0,2729.4517088426182,0.33303944860280776,1.3191204403953687,0.9592309988915455,0.2872928431189102,0.6752619404396236
0.0365,1.7667348778571728,1.0,2732.381442541862,0.33678056971414266,1.3186962015501824,0.960049163493479,0.28725586487000127,0.6761247803491247
0.037,1.7658544433593413,1.0,2735.531674015941,0.34050070676513294,1.3182699749033049,0.960837507726275,0.28721888662109235,0.6769905072546227
0.0375,1.7649740088615098,1.0,2738.8823192923046,0.344199976589319,1.3178419461297683,0.9615974964679957,0.2871819083721834,0.6778587285728362
0.038,1.764093574363678,1.0,2742.413267479811,0.3478784960202415,1.3174123009046048,0.9623305062677201,0.28714493012327447,0.6787290536812647
0.0385,1.7632131398658466,1.0,2746.1051448198173,0.35153638147580396,1.316981217915168,0.9630378309038142,0.28710795187436555,0.6796011080644666
0.039,1.7623327053680151,1.0,2749.9397495003514,0.35517374912760635,1.3165488648911108,0.9637206869049967,0.28707097362545664,0.680474541250476
0.0395,1.7614522708701836,1.0,2753.899501580215,0.3587907152568418,1.3161154035732086,0.9643802194792407,0.2870339953765477,0.6813490166573581
0.04,1.7605718363723522,1.0,2757.972391523655,0.362387393072919,1.3156809449480096,0.9650175028391996,0.2869970171276388,0.6822243016477416
0.0405,1.7596914018745207,1.0,2762.1463806643437,0.3659638957852469,1.315245600002062,0.9656335501774743,0.2869600388787299,0.6831001647938135
0.041,1.758810967376689,1.0,2766.409398887693,0.36952033660323436,1.3148094797219139,0.9662293177784052,0.2869230606298209,0.6839763758839856
0.0415,1.7579305328788575,1.0,2770.7511274801764,0.3730568267291491,1.3143726789913275,0.966805707095118,0.286886082380912,0.6848527382136982
0.042,1.757050098381026,1.0,2775.1645303532323,0.3765734743227007,1.3139352628360197,0.9673635670790895,0.2868491041320031,0.6857291159058649
0.0425,1.7561696638831945,1.0,2779.6296618130827,0.3800704035376638,1.313497412379701,0.9679037128182573,0.2868121258830942,0.6866051416812236
0.043000000000000003,1.755289229385363,1.0,2784.1414870989147,0.3835477218992407,1.3130591739811637,0.9684269018700497,0.2867751476341852,0.6874807193438505
0.043500000000000004,1.7544087948875315,1.0,2788.6949558339293,0.3870055369326339,1.312620593999201,0.9689338515996905,0.2867381693852763,0.6883557532129678
0.044,1.7535283603897,1.0,2793.2850016503157,0.3904439561630457,1.3121817187926055,0.9694252417160625,0.2867011911363674,0.6892301481240262
0.0445,1.7526479258918684,1.0,2797.9065418620544,0.39386308711567874,1.31174259472017,0.9699017166233781,0.28666421288745847,0.6901038094296424
0.045,1.7517674913940369,1.0,2802.5544771852587,0.39726303731573537,1.311303268140687,0.9703638876037215,0.28662723463854956,0.6909766430004065
0.0455,1.7508870568962054,1.0,2807.2236915063404,0.40064391428841806,1.31086378541295,0.970812334844168,0.28659025638964064,0.6918485552255467
0.046,1.750006622398374,1.0,2811.90905169752,0.4040058255589291,1.310424192895751,0.9712476093209458,0.2865532781407317,0.6927194530134617
0.0465,1.7491261879005424,1.0,2816.605407480158,0.40734887865247116,1.309984536947883,0.9716702345520082,0.2865162998918228,0.6935892437921126
0.047,1.748245753402711,1.0,2821.3075913358975,0.4106731810942465,1.309544863928139,0.9720807082283737,0.28647932164291384,0.694457835509279
0.0475,1.7473653189048792,1.0,2826.016015408465,0.41397882524883145,1.3091051701974785,0.9724794982147694,0.28644234339400493,0.6953252351951142
0.048,1.7464848844070477,1.0,2830.722315659957,0.4172659357251268,1.3086655304618677,0.9728670594207487,0.286405365145096,0.6961912956144574
0.0485,1.7456044499092163,1.0,2835.424453279805,0.4205346151680747,1.3082259627692707,0.9732438182379616,0.2863683868961871,0.6970559817441204
0.049,1.7447240154113848,1.0,2840.1211041004985,0.42378496390855674,1.3077864787400035,0.9736101801525436,0.28633140864727813,0.6979192713801956
0.0495,1.7438435809135533,1.0,2844.8109396824802,0.42701708227745455,1.3073470899943818,0.9739665316516679,0.2862944303983692,0.6987811424489331
0.05,1.7429631464157218,1.0,2849.4926273367955,0.4302310706056497,1.306907808152721,0.9743132412864753,0.2862574521494603,0.6996415730066728
0.0505,1.74208271191789,1.0,2854.1648301514056,0.4334270292240237,1.3064686448353373,0.9746506606662994,0.2862204739005514,0.70050054123977
0.051000000000000004,1.7412022774200586,1.0,2858.826207020128,0.43660505846345826,1.3060296116625465,0.974979125389204,0.28618349565164247,0.7013580254645121
0.051500000000000004,1.7403218429222271,1.0,2863.4754126748367,0.4397652586548349,1.305590720254664,0.9752989559134473,0.28614651740273356,0.7022140041270273
0.052000000000000005,1.7394414084243957,1.0,2868.111097720188,0.4429077301290353,1.305151982232006,0.9756104583741072,0.28610953915382464,0.703068455803181
0.0525,1.7385609739265642,1.0,2872.731908671809,0.44603257321694084,1.304713409214888,0.9759139253487745,0.2860725609049157,0.7039213591984701
0.053,1.7376805394287327,1.0,2877.336487997617,0.44913988824943335,1.3042750128236258,0.9762096365759046,0.28603558265600676,0.704772693147903
0.0535,1.736800104930901,1.0,2881.92347416112,0.4522297755573943,1.3038368046785351,0.9764978596291365,0.28599860440709785,0.7056224366158728
0.054,1.7359196704330695,1.0,2886.494593731482,0.45530229759553503,1.3033987690692554,0.9767788451335845,0.28596162615818893,0.7064706215792749
0.0545,1.735039235935238,1.0,2891.0463344648524,0.45835759896175704,1.3029609366062849,0.9770528439077966,0.28592464790927996,0.7073171903400595
0.055,1.7341588014374065,1.0,2895.578175682554,0.4613957785349786,1.3025233114050943,0.977320090072422,0.28588766966037105,0.7081621366597461
0.0555,1.733278366939575,1.0,2900.090110652862,0.46441692795419814,1.3020858930386585,0.9775808069816897,0.28585069141146213,0.7090054630964164
0.056,1.7323979324417436,1.0,2904.582133079803,0.46742113885841396,1.3016486810799524,0.9778352087231197,0.2858137131625532,0.7098471722025677
0.0565,1.731517497943912,1.0,2909.054237100994,0.4704085028866244,1.3012116751019507,0.9780835005781602,0.2857767349136443,0.7106872665251177
0.057,1.7306370634460804,1.0,2913.5064172859984,0.47337911167782776,1.3007748746776286,0.9783258794562995,0.2857397566647354,0.7115257486054107
0.0575,1.7297566289482489,1.0,2917.938668634135,0.47633305687102234,1.3003382793799605,0.9785625343043812,0.2857027784158265,0.7123626209792244
0.058,1.7288761944504174,1.0,2922.3509865726082,0.47927043010520654,1.2999018887819216,0.9787936464927305,0.28566580016691756,0.7131978861767727
0.0585,1.727995759952586,1.0,2926.743366954426,0.4821913230193786,1.2994657024564864,0.979019390179578,0.2856288219180086,0.7140315467227142
0.059000000000000004,1.7271153254547544,1.0,2931.1158060568764,0.4850958272525369,1.29902971997663,0.979239932655164,0.2855918436690997,0.714863605136155
0.059500000000000004,1.726234890956923,1.0,2935.4683005791853,0.4879840344436798,1.2985939409153273,0.9794554346668104,0.28555486542019076,0.715694063930657
0.06,1.7253544564590912,1.0,2939.800847640657,0.4908560362318055,1.298158364845553,0.9796660507261507,0.28551788717128185,0.7165229256142414
0.0605,1.7244740219612598,1.0,2944.113444778851,0.49371192425591254,1.297722991340282,0.9798719293996292,0.2854809089223729,0.7173501926893955
0.061,1.7235935874634283,1.0,2948.406089947767,0.49655179015499906,1.2972878199724889,0.9800732135833047,0.28544393067346396,0.7181758676530774
0.0615,1.7227131529655968,1.0,2952.6787815156217,0.4993757255680635,1.296852850315149,0.9802700407629193,0.28540695242455505,0.718999952996721
0.062,1.7218327184677653,1.0,2956.931518263172,0.5021838221341041,1.2964180819412368,0.9804625432601273,0.28536997417564613,0.7198224512062444
0.0625,1.7209522839699338,1.0,2961.164299381746,0.5049761714921193,1.2959835144237273,0.9806508484657231,0.2853329959267372,0.7206433647620512
0.063,1.7200718494721023,1.0,2965.377286408499,0.5077528212597592,1.2955491459234025,0.9808350757429852,0.2852960176778283,0.7214626988008523
0.0635,1.7191914149742706,1.0,2969.570893749224,0.5105138968049477,1.2951149724049649,0.9810153456866533,0.2852590394289194,0.7222804625714823
0.064,1.7183109804764392,1.0,2973.74532803572,0.5132595071129126,1.2946809916561097,0.9811917733646395,0.2852220611800104,0.7230966618513132
0.0645,1.7174305459786077,1.0,2977.900804512091,0.5159897340514227,1.2942472013979633,0.9813644677444527,0.2851850829311015,0.7239113025174311
0.065,1.7165501114807762,1.0,2982.0375393967047,0.5187046594882467,1.293813599351652,0.9815335339023166,0.2851481046821926,0.7247243904210043
0.0655,1.7156696769829447,1.0,2986.1557498728316,0.5214043652911537,1.2933801832383016,0.9816990731903806,0.2851111264332837,0.7255359313873104
0.066,1.7147892424851132,1.0,2990.25565407909,0.5240889333279123,1.2929469507790388,0.9818611833955825,0.28507414818437476,0.7263459312157636
0.0665,1.7139088079872815,1.0,2994.337471100144,0.5267584454662914,1.2925138996949892,0.9820199588906448,0.2850371699354658,0.727154395679942
0.067,1.71302837348945,1.0,2998.4014209575853,0.5294129835740596,1.2920810277072794,0.9821754907776391,0.2850001916865569,0.7279613305276131
0.0675,1.7121479389916185,1.0,3002.447724600618,0.5320526295189861,1.2916483325370356,0.9823278670245419,0.28496321343764797,0.7287667414807613
0.068,1.711267504493787,1.0,3006.4766038971725,0.5346774651688395,1.2912158119053838,0.9824771725951638,0.28492623518873905,0.7295706342356126
0.0685,1.7103870699959556,1.0,3010.4882816250292,0.5372875723913886,1.29078346353345,0.9826234895728213,0.28488925693983014,0.7303730144626617
0.069,1.709506635498124,1.0,3014.4829814631244,0.5398830330544022,1.2903512851423609,0.9827668972780946,0.2848522786909212,0.7311738878066947
0.0695,1.7086262010002926,1.0,3018.4609279827678,0.5424639290256492,1.2899192744532422,0.9829074723809879,0.2848153004420123,0.7319732598868165
0.07,1.707745766502461,1.0,3022.422346639112,0.5450303421728984,1.2894874291872205,0.9830452890078017,0.28477832219310334,0.7327711362964733
0.07050000000000001,1.7068653320046294,1.0,3026.36746376308,0.5475823543639186,1.2890557470654216,0.9831804188429952,0.2847413439441944,0.733567522603479
0.07100000000000001,1.705984897506798,1.0,3030.2965065525154,0.5501200474664786,1.288624225808972,0.9833129312263058,0.2847043656952855,0.7343624243500368
0.07150000000000001,1.7051044630089665,1.0,3034.2097030643376,0.5526435033483471,1.2881928631389976,0.9834428932453827,0.2846673874463766,0.7351558470527646
