Time [s],Phi [rad],STIM [ ],Fsee [N],Gamma [ ],Lcerel [ ],q [ ],Lmtc [m],fisomrel [ ]
0.0,1.8,1.0,17.97835628628675,0.00010924718170752845,1.3793384918513456,0.0050031214007678565,0.288653,0.5411425656886053
0.0005,1.79999375,1.0,18.32053157629614,0.00571784370023453,1.3792975267681051,0.013218340469616403,0.2886527375,0.5412416651390262
0.001,1.799975,1.0,21.735937487480275,0.011294980426736361,1.3789263117838415,0.03612762029157413,0.28865195,0.542139190809614
0.0015,1.79994375,1.0,31.34472266861961,0.016840833826706387,1.378022785009221,0.07131099392765915,0.2886506375,0.5443200701972968
0.002,1.7999,1.0,54.17268338184578,0.02235557937385831,1.3763299412480554,0.11555709563027296,0.2886488,0.5483921406895254
0.0025,1.79984375,1.0,98.10809410387972,0.02783939155833026,1.3738876229237884,0.16548724748343863,0.28864643749999996,0.5542348387257623
0.003,1.7997750000000001,1.0,162.24328466199321,0.03329244389350649,1.3711663362070547,0.21822139663190623,0.28864354999999997,0.5607000984267589
0.0035,1.79969375,1.0,239.13427585197942,0.03871490891634141,1.3685401093101386,0.2715485669742941,0.2886401375,0.5668947315997166
0.004,1.7996,1.0,323.0097907151164,0.044106958197926247,1.366115272630911,0.32382165903361426,0.2886362,0.5725752778902864
0.0045000000000000005,1.7994937500000001,1.0,410.86514912429413,0.049468762348738614,1.3638853536560176,0.37389431078938384,0.2886317375,0.5777661013859534
0.005,1.799375,1.0,501.0431144859744,0.05480049101026821,1.3618237414659677,0.4210518077523161,0.28862675,0.5825369263761753
0.0055,1.79924375,1.0,592.4340101642564,0.06010231289705767,1.359906745519018,0.46491836026485023,0.2886212375,0.5869487708224135
0.006,1.7991000000000001,1.0,684.1629908414885,0.0653743957527219,1.3581165331545424,0.5053642800220098,0.2886152,0.5910476679890675
0.006500000000000001,1.79894375,1.0,775.516117196151,0.07061690638162317,1.3564393602195177,0.5424264426194498,0.2886086375,0.5948692043568269
0.007,1.798775,1.0,865.9045490220215,0.0758300106985251,1.3548642594253828,0.5762469276349864,0.28860155,0.5984418283879931
0.0075,1.79859375,1.0,954.8375085061441,0.0810138736145568,1.3533822675603204,0.6070284353502958,0.2885939375,0.6017888168811419
0.008,1.7984,1.0,1041.9108440080856,0.08616865898705567,1.351985799057902,0.6350032687278421,0.2885858,0.6049298382065376
0.0085,1.79819375,1.0,1126.8411660638626,0.09129453044158962,1.3506676329903444,0.6604123984944176,0.2885771375,0.6078833264443531
0.009000000000000001,1.797975,1.0,1209.3682320416322,0.09639164967046812,1.3494219819636326,0.6834932427059556,0.28856795,0.6106641534458126
0.0095,1.79774375,1.0,1289.308111266242,0.10146017787909503,1.3482433927334143,0.7044713730417886,0.2885582375,0.6132861588568909
0.01,1.7975,1.0,1366.5492598249587,0.10650027579252724,1.347126624631609,0.723556372196384,0.288548,0.6157624568618179
0.0105,1.79724375,1.0,1441.0043197417538,0.11151210297426524,1.3460671188550488,0.7409403092343396,0.2885372375,0.6181044299979768
0.011,1.796975,1.0,1512.6112349718649,0.11649581749114013,1.3450608110527857,0.7567973054924091,0.28852595000000003,0.6203221832767656
0.0115,1.79669375,1.0,1581.3508329093982,0.12145157685971038,1.344103793815049,0.7712839407501447,0.2885141375,0.6224253159505427
0.012,1.7964,1.0,1647.2520073855917,0.1263795390456915,1.3431921802684663,0.7845402820368657,0.28850180000000003,0.6244232378908691
0.0125,1.79609375,1.0,1710.3302169248684,0.1312798596022057,1.3423227556631168,0.7966914920752436,0.2884889375,0.6263237594235016
0.013000000000000001,1.7957750000000001,1.0,1770.6081275326621,0.1361526927826377,1.3414926388618127,0.807849064273817,0.28847555,0.6281338571530471
0.0135,1.79544375,1.0,1828.1399716420126,0.14099819284037213,1.3406989487273662,0.818112084746885,0.2884616375,0.6298604156124602
0.014,1.7951000000000001,1.0,1882.990759895201,0.14581651318687572,1.3399390012033425,0.8275686506197385,0.2884472,0.6315098069543172
0.0145,1.79474375,1.0,1935.2514560257075,0.15060780750901778,1.3392101040833966,0.8362970303899011,0.2884322375,0.6330883459430205
0.015,1.794375,1.0,1984.9846857997322,0.15537222661119507,1.3385101120675895,0.8443669832824647,0.28841675,0.6346010970280229
0.0155,1.79399375,1.0,2032.2578240772596,0.1601099205869828,1.3378370239546937,0.8518406127443555,0.2884007375,0.6360527590734557
0.016,1.7936,1.0,2077.1544803540182,0.16482103952995622,1.3371888385434818,0.8587732228331129,0.2883842,0.63744798202072
0.0165,1.7931937500000001,1.0,2119.7455842584836,0.16950573243301176,1.336563838430525,0.865214209412816,0.2883671375,0.6387907610360699
0.017,1.792775,1.0,2160.1677972537154,0.1741641490592523,1.335959762106832,0.8712075141925454,0.28834955,0.6400862188938803
0.0175,1.7923437500000001,1.0,2198.4772032565515,0.17879643580644744,1.3353752988082581,0.8767926975893982,0.2883314375,0.6413374009861976
0.018000000000000002,1.791904158557569,1.0,2234.9094444269804,0.18340273854441688,1.3348093017484597,0.882005226050903,0.2883129746594179,0.6425469753275156
0.0185,1.7914643548284177,1.0,2269.893526358805,0.18798320314298025,1.3342606241410941,0.8868769050406405,0.28829450290279357,0.6437175865714484
0.019,1.7910245510992664,1.0,2303.507599433073,0.19253797492270364,1.3337281873692675,0.891436319893162,0.2882760311461692,0.6448517122296655
0.0195,1.7905847473701153,1.0,2335.796328991244,0.19706719867724778,1.3332111982266108,0.8957092576749909,0.28825755938954484,0.6459512033685787
0.02,1.790144943640964,1.0,2366.8030705145848,0.20157101711239647,1.332708914191369,0.8997189642627714,0.2882390876329205,0.6470177883214293
0.0205,1.7897051399118127,1.0,2396.573688120781,0.20604957230289736,1.3322206022382914,0.9034864213452193,0.2882206158762961,0.6480531615064635
0.021,1.7892653361826616,1.0,2425.1519442277668,0.2105030048484307,1.3317455807404686,0.9070306064500512,0.28820214411967177,0.6490588955968408
0.021500000000000002,1.7888255324535103,1.0,2452.586646397108,0.21493145605790934,1.3312831473759854,0.910368698635293,0.2881836723630474,0.6500365952317
0.022,1.7883857287243592,1.0,2478.9411012128544,0.21933507107098418,1.3308324876419773,0.9135162567385682,0.2881652006064231,0.6509880903081027
0.0225,1.7879459249952079,1.0,2504.250229545482,0.2237139866929237,1.3303930828479575,0.9164874671497737,0.28814672884979875,0.6519145752749447
0.023,1.7875061212660566,1.0,2528.5509289321158,0.22806833972899632,1.3299644143034408,0.9192952344541876,0.28812825709317436,0.6528172362671788
0.0235,1.7870663175369055,1.0,2551.8819471261636,0.23239826698447047,1.3295459633179412,0.9219513149827905,0.28810978533655,0.6536972514695478
0.024,1.7866265138077542,1.0,2574.283761610736,0.2367039052646146,1.3291372112009723,0.924466434856633,0.2880913135799257,0.6545557914631588
0.0245,1.786186710078603,1.0,2595.7984650780713,0.24098539137469713,1.3287376392620487,0.9268503944756611,0.28807284182330134,0.6553940195548953
0.025,1.7857469063494518,1.0,2616.46965687337,0.2452428621199865,1.3283467288106843,0.9291121611438511,0.288054370066677,0.6562130920896778
0.025500000000000002,1.7853071026203005,1.0,2636.327037040656,0.24947644900313962,1.3279641026947,0.9312599724356536,0.2880358983100526,0.6570138627029983
0.026000000000000002,1.7848672988911494,1.0,2655.4224134018896,0.2536862929249531,1.327589190035733,0.9333013588813245,0.28801742655342827,0.6577975847312895
0.0265,1.784427495161998,1.0,2673.7843229774176,0.25787252509057146,1.3272216456875703,0.9352432705186294,0.28799895479680393,0.6585650337803515
0.027,1.7839876914328467,1.0,2691.440366615735,0.2620352760003164,1.3268611412176896,0.9370921026607097,0.28798048304017954,0.6593169463069821
0.0275,1.7835478877036957,1.0,2708.4189568266456,0.2661746761545092,1.3265073481935687,0.938853745477944,0.2879620112835552,0.6600540547691442
0.028,1.7831080839745443,1.0,2724.749267713302,0.2702908560534714,1.3261599381826858,0.9405336305954339,0.28794353952693086,0.6607770877699826
0.0285,1.7826682802453933,1.0,2740.461187296526,0.2743839461975245,1.3258185827525186,0.9421367728277941,0.2879250677703065,0.6614867701949623
0.029,1.782228476516242,1.0,2755.585272230432,0.2784540770869899,1.3254829534705452,0.9436678076116718,0.2879065960136822,0.6621838233421267
0.029500000000000002,1.7817886727870906,1.0,2770.1459233859814,0.28250137535508135,1.325152783091796,0.9451310315802053,0.2878881242570578,0.6628688381621795
0.03,1.7813488690579395,1.0,2784.174229442816,0.2865259728184813,1.3248277488310165,0.9465304196728747,0.28786965250043345,0.6635425178232592
0.0305,1.7809090653287882,1.0,2797.69859807762,0.2905279996787271,1.3245075568657967,0.947869661663922,0.2878511807438091,0.6642055023501012
0.031,1.7804692615996371,1.0,2810.737656938555,0.29450758000268457,1.324192005269111,0.949152192940743,0.28783270898718477,0.6648582389017625
0.0315,1.7800294578704858,1.0,2823.31039054559,0.2984648378572196,1.3238808921139344,0.950381206241753,0.28781423723056043,0.6655011725876339
0.032,1.7795896541413345,1.0,2835.4361199674977,0.30239989730919814,1.3235740154732416,0.9515596718066481,0.28779576547393604,0.6661347465259005
0.0325,1.7791498504121834,1.0,2847.134483402782,0.30631288242548604,1.3232711734200076,0.9526903556198338,0.2877772937173117,0.6667594018993986
0.033,1.7787100466830321,1.0,2858.4254176646373,0.31020391727294916,1.322972164027207,0.9537758359479658,0.28775882196068736,0.6673755780088741
0.0335,1.778270242953881,1.0,2869.3291405700465,0.31407312591845343,1.3226767853678145,0.9548185183493958,0.28774035020406297,0.6679837123236396
0.034,1.7778304392247297,1.0,2879.864653331378,0.31792063101339785,1.322384848619518,0.955820650400602,0.28772187844743863,0.6685842135860027
0.0345,1.7773906354955784,1.0,2890.044067718898,0.3217465497081082,1.3220962279207802,0.9567843384158303,0.2877034066908143,0.6691773595637909
0.035,1.7769508317664273,1.0,2899.894923210516,0.32555101495915006,1.3218106629076938,0.9577115424214167,0.28768493493418995,0.6697637029301999
0.035500000000000004,1.776511028037276,1.0,2909.4288739940744,0.32933414397170957,1.321528035418033,0.9586041087713434,0.2876664631775656,0.6703435026792733
0.036000000000000004,1.7760712243081247,1.0,2918.6577212563925,0.3330960539509729,1.3212482272895716,0.9594637676961761,0.2876479914209412,0.6709170167835069
0.0365,1.7756314205789736,1.0,2927.5934056423544,0.33683686210212616,1.3209711203600842,0.9602921419341338,0.2876295196643169,0.6714845022155367
0.037,1.7751916168498223,1.0,2936.248000023334,0.34055668563035557,1.3206965964673445,0.9610907546272188,0.28761104790769254,0.6720462149689452
0.0375,1.7747518131206712,1.0,2944.6337025750736,0.34425564174084716,1.3204245374491268,0.9618610365525034,0.2875925761510682,0.6726024100781669
0.038,1.77431200939152,1.0,2952.7628301658174,0.3479338476387872,1.320154825143205,0.9626043327513056,0.28757410439444386,0.6731533416375124
0.0385,1.7738722056623686,1.0,2960.6478120529823,0.3515914205293617,1.319887341387353,0.9633219086124665,0.28755563263781947,0.6736992628192954
0.039,1.7734324019332175,1.0,2968.301183890491,0.3552284776177569,1.3196219680193457,0.9640149554601523,0.28753716088119513,0.6742404258910726
0.0395,1.7729925982040662,1.0,2975.730524250303,0.3588451279685283,1.3193586309072487,0.9646845981233984,0.2875186891245708,0.6747769925543613
0.04,1.772552794474915,1.0,2982.9489847265345,0.3624414923600421,1.319097208077918,0.9653318950380095,0.2875002173679464,0.6753092212910647
0.0405,1.7721129907457638,1.0,2989.969917525257,0.36601769187293903,1.3188375766269111,0.9659578447241659,0.28748174561132206,0.675837371590174
0.041,1.7716731870166125,1.0,2996.8000916903884,0.369573836309447,1.3185796715280385,0.9665633928246024,0.2874632738546977,0.6763615844677524
0.0415,1.7712333832874614,1.0,3003.446330785096,0.37311003547179383,1.31832342775511,0.9671494326989347,0.2874448020980734,0.676882000453563
0.042,1.77079357955831,1.0,3009.9155104492597,0.3766263991622073,1.318068780281936,0.9677168088553638,0.28742633034144904,0.6773987595980917
0.0425,1.7703537758291588,1.0,3016.2145560516465,0.3801230371829152,1.3178156640823269,0.9682663201231924,0.28740785858482465,0.6779120014793035
0.043000000000000003,1.7699139721000077,1.0,3022.3504404351133,0.38360005933614527,1.317564014130093,0.9687987225881767,0.2873893868282003,0.6784218652091265
0.043500000000000004,1.7694741683708564,1.0,3028.3301817558367,0.38705757542412544,1.3173137653990443,0.9693147323106731,0.28737091507157597,0.6789284894396692
0.044,1.7690343646417053,1.0,3034.1608414161856,0.39049569524908334,1.3170648528629914,0.9698150278446731,0.28735244331495163,0.6794320123691635
0.0445,1.768594560912554,1.0,3039.8495220915897,0.39391452861324694,1.3168172114957442,0.9703002525741561,0.2873339715583273,0.6799325717476432
0.045,1.7681547571834026,1.0,3045.4033658506723,0.397314185318844,1.3165707762711132,0.9707710168816872,0.2873154998017029,0.6804303048823496
0.0455,1.7677149534542516,1.0,3050.8275738960597,0.4006947690729366,1.3163254991730848,0.9712279005771645,0.28729702804507856,0.6809253143268454
0.046,1.7672751497251002,1.0,3056.1255116937864,0.4040563807384817,1.3160813482043963,0.9716714551438395,0.2872785562884542,0.6814176700168726
0.0465,1.7668353459959492,1.0,3061.3090003139614,0.40739914853423015,1.315838218978854,0.972102203078847,0.28726008453182983,0.6819075874753364
0.047,1.7663955422667978,1.0,3066.3816132948955,0.41072317422450105,1.315596078256511,0.97252064268858,0.2872416127752055,0.6823951383581319
0.0475,1.7659557385376465,1.0,3071.3469436513083,0.4140285595736137,1.3153548927974206,0.9729272480081579,0.28722314101858115,0.6828803940967072
0.048,1.7655159348084954,1.0,3076.2086031586286,0.41731540634588726,1.3151146293616356,0.9733224702101784,0.2872046692619568,0.6833634259001244
0.0485,1.7650761310793441,1.0,3080.970221660989,0.42058381630564096,1.3148752547092093,0.9737067389190679,0.2871861975053325,0.683844304757049
0.049,1.764636327350193,1.0,3085.6354464040314,0.42383389121719406,1.3146367356001945,0.9740804634381706,0.2871677257487081,0.6843231014376701
0.0495,1.7641965236210417,1.0,3090.207941392279,0.4270657328448657,1.3143990387946443,0.9744440338961198,0.28714925399208374,0.6847998864955478
0.05,1.7637567198918904,1.0,3094.6913867706235,0.4302794429529752,1.314162131052612,0.9747978223184885,0.2871307822354594,0.6852747302693925
0.0505,1.7633169161627393,1.0,3099.0894782305877,0.4334751233058417,1.3139259791341502,0.9751421836302223,0.28711231047883506,0.6857477028847738
0.051000000000000004,1.762877112433588,1.0,3103.4059264412244,0.43665287566778443,1.3136905497993123,0.9754774565939025,0.2870938387222107,0.6862188742557562
0.051500000000000004,1.7624373087044367,1.0,3107.644456504163,0.43981280180312265,1.313455809808151,0.9758039646884917,0.28707536696558633,0.6866883140864677
0.052000000000000005,1.7619975049752856,1.0,3111.8088074335396,0.44295500347617556,1.3132217259207197,0.9761220169328205,0.287056895208962,0.6871560918725942
0.0525,1.7615577012461343,1.0,3115.9027316598626,0.4460795824512623,1.3129882648970714,0.9764319086577505,0.28703842345233765,0.6876222769028082
0.053,1.7611178975169832,1.0,3119.923802970578,0.4491866017787752,1.3127554461374251,0.9767339215104086,0.28701995169571326,0.6880868332633296
0.0535,1.760678093787832,1.0,3123.8814110078556,0.4522762068667353,1.3125231886213433,0.9770283271437018,0.2870014799390889,0.6885499252995799
0.054,1.7602382900586806,1.0,3127.778371086844,0.45534849801571686,1.3122914673771762,0.9773153843003701,0.2869830081824646,0.689011605240466
0.0545,1.7597984863295295,1.0,3131.6163549156936,0.4584035678815635,1.3120602672168777,0.9775953405111694,0.28696453642584024,0.6894719056904683
0.055,1.7593586826003782,1.0,3135.397040432767,0.46144150912011894,1.3118295729524012,0.9778684328440417,0.2869460646692159,0.6899308591591935
0.0555,1.758918878871227,1.0,3139.1221116331985,0.4644624143872269,1.3115993693957004,0.9781348884331494,0.2869275929125915,0.6903884980618681
0.056,1.7584790751420758,1.0,3142.7932584017967,0.46746637633873106,1.3113696413587288,0.9783949249769351,0.2869091211559672,0.6908448547198234
0.0565,1.7580392714129245,1.0,3146.4121763495177,0.4704534876304752,1.3111403736534402,0.9786487512072596,0.28689064939934283,0.6912999613609618
0.057,1.7575994676837734,1.0,3149.980566656492,0.4734238409183029,1.3109115510917881,0.9788965673315209,0.2868721776427185,0.6917538501202118
0.0575,1.757159663954622,1.0,3153.500135919463,0.476377528858058,1.310683158485726,0.9791385654495173,0.28685370588609416,0.6922065530399659
0.058,1.7567198602254708,1.0,3156.972596004164,0.47931464410558416,1.3104551806472073,0.9793749299466875,0.28683523412946976,0.6926581020705034
0.0585,1.7562800564963197,1.0,3160.399663903586,0.48223527931672505,1.3102276023881863,0.979605837865246,0.2868167623728454,0.6931085290704
0.059000000000000004,1.7558402527671684,1.0,3163.783061600369,0.48513952714732445,1.3100004085206158,0.979831459254622,0.2867982906162211,0.6935578658069238
0.059500000000000004,1.7554004490380173,1.0,3167.124515935019,0.48802748025322595,1.3097735838564497,0.9800519575025091,0.2867798188595967,0.694006143956413
0.06,1.754960645308866,1.0,3170.4257584792695,0.49089923129027335,1.3095471132076417,0.9802674896477417,0.28676134710297235,0.6944533951046411
0.0605,1.7545208415797147,1.0,3173.688525413712,0.4937548729143104,1.3093209813861455,0.9804782066761317,0.286742875346348,0.6948996507471679
0.061,1.7540810378505636,1.0,3176.9145574117433,0.4965944977811807,1.3090951732039142,0.9806842538003151,0.2867244035897237,0.6953449422896756
0.0615,1.7536412341214123,1.0,3180.105599527636,0.49941819854672803,1.308869673472902,0.9808857707245885,0.28670593183309934,0.6957893010482874
0.062,1.7532014303922612,1.0,3183.260933413674,0.5022260325817566,1.3086444877752024,0.9810828903262035,0.28668746007647494,0.6962327173660171
0.0625,1.7527616266631099,1.0,3186.3831802946033,0.5050181163636644,1.3084195935922782,0.9812757434891062,0.2866689883198506,0.6966752368889475
0.063,1.7523218229339586,1.0,3189.474697749194,0.5077945583759232,1.3081949706716338,0.9814644557449385,0.28665051656322627,0.6971169006782869
0.0635,1.7518820192048075,1.0,3192.5362136230333,0.5105554417438589,1.3079706125016803,0.9816491468617676,0.2866320448066019,0.6975577226892216
0.064,1.7514422154756562,1.0,3195.568457722058,0.5133008495927974,1.307746512570828,0.9818299322538467,0.2866135730499776,0.6979977168383074
0.0645,1.751002411746505,1.0,3198.5721617746976,0.5160308650480645,1.3075226643674878,0.9820069231717266,0.2865951012933532,0.6984368970035761
0.065,1.7505626080173537,1.0,3201.548059395131,0.5187455712349861,1.30729906138007,0.9821802268827299,0.28657662953672886,0.6988752770246429
0.0655,1.7501228042882024,1.0,3204.496886047202,0.5214450512788882,1.3070756970969857,0.9823499468423469,0.2865581577801045,0.6993128707028071
0.066,1.7496830005590513,1.0,3207.419379009666,0.5241293883050965,1.3068525650066454,0.982516182857065,0.2865396860234801,0.6997496918011559
0.0665,1.7492431968299,1.0,3210.316277342338,0.5267986654389369,1.3066296585974595,0.9826790312391245,0.2865212142668558,0.7001857540446602
0.067,1.7488033931007487,1.0,3213.188321852579,0.5294529658057355,1.3064069713578392,0.9828385849536496,0.28650274251023145,0.7006210711202687
0.0675,1.7483635893715976,1.0,3216.0362550636833,0.5320923725308181,1.3061844967761949,0.9829949337585879,0.2864842707536071,0.7010556566770036
0.068,1.7479237856424463,1.0,3218.860821183385,0.5347169687395105,1.3059622283409371,0.9831481643378488,0.28646579899698277,0.7014895243260468
0.0685,1.7474839819132952,1.0,3221.662766073661,0.5373268375571386,1.305740159540477,0.9832983604280264,0.2864473272403584,0.7019226876408282
0.069,1.747044178184144,1.0,3224.442837221834,0.5399220621090283,1.3055182838632247,0.9834456029390494,0.28642885548373404,0.7023551601571112
0.0695,1.7466043744549926,1.0,3227.201783711541,0.5425027255205055,1.3052965947975912,0.9835899700690947,0.2864103837271097,0.7027869553730721
