Time [s],Phi [rad],STIM [ ],Fsee [N],Gamma [ ],Lcerel [ ],q [ ],Lmtc [m],fisomrel [ ]
0.0,1.8,1.0,17.96750884373705,2.090963534373435e-05,1.3793397069324556,0.005000115848659658,0.288653,0.5411396260982102
0.0005,1.79999375,1.0,18.280488045284603,0.005630001657623699,1.379301971936472,0.012970829187380288,0.2886527375,0.5412309122611727
0.001,1.799975,1.0,21.630223024044277,0.011207631108526602,1.3789370928477842,0.03566544835921217,0.28865195,0.542113136683896
0.0015,1.79994375,1.0,31.098251823930553,0.016753974469073517,1.3780437322576726,0.07067954320506264,0.2886506375,0.544269567923116
0.002,1.7999,1.0,53.64561526500213,0.022269207228615067,1.3763640310267493,0.11481001622398447,0.2886488,0.5483103193536227
0.0025,1.79984375,1.0,97.225707612101,0.027753503892473923,1.3739300236830356,0.1646749563372464,0.28864643749999996,0.554133728917106
0.003,1.7997750000000001,1.0,161.09753580813165,0.03320703798955933,1.3712091281712013,0.21738368509082096,0.28864354999999997,0.5605987983494153
0.0035,1.79969375,1.0,237.84104296777937,0.0386299820720385,1.3685798771096607,0.2707155646305595,0.2886401375,0.5668012569828682
0.004,1.7996,1.0,321.6347218418909,0.04402250772609838,1.366151644609695,0.32301522156990287,0.2886362,0.5724903480536211
0.0045000000000000005,1.7994937500000001,1.0,409.4417960327619,0.04938478557713592,1.363918729095571,0.373128884428229,0.2886317375,0.577688643537833
0.005,1.799375,1.0,499.59117217409,0.054716985280868484,1.3618545672521527,0.42033575867689826,0.28862675,0.5824657913225679
0.0055,1.79924375,1.0,590.9697628161554,0.06001927557037907,1.3599353313242515,0.46425544916637557,0.2886212375,0.5868831545424149
0.006,1.7991000000000001,1.0,682.6977517886191,0.06529182420035355,1.3581431495222938,0.5047550912705175,0.2886152,0.5909868764357524
0.006500000000000001,1.79894375,1.0,774.0620157908844,0.07053479799965681,1.3564641681409766,0.5418694314697181,0.2886086375,0.5948128087741122
0.007,1.798775,1.0,864.4671599988417,0.07574836286889008,1.354887465785875,0.5757393351241221,0.28860155,0.5983893068497432
0.0075,1.79859375,1.0,953.4226426867509,0.08093268374876277,1.3534040195440642,0.6065667995379389,0.2885939375,0.6017397926342434
0.008,1.7984,1.0,1040.53636179392,0.08608792469963808,1.352006027131448,0.6345837259741111,0.2885858,0.6048844287727497
0.0085,1.79819375,1.0,1125.4945055863284,0.0912142488194676,1.350686689526017,0.660031319591304,0.2885771375,0.607840707236234
0.009000000000000001,1.797975,1.0,1208.0512863678302,0.09631181816560455,1.3494399704341955,0.6831469853116137,0.28856795,0.6106240658895044
0.0095,1.79774375,1.0,1288.0279230923327,0.10138079394636262,1.3482603279469634,0.7041564731519488,0.2885582375,0.6132485458490865
0.01,1.7975,1.0,1365.3254905868396,0.10642133776222788,1.3471423489390613,0.7232695544912886,0.288548,0.6157276453222928
0.0105,1.79724375,1.0,1439.823896001188,0.11143360787556948,1.346081888893959,0.7406787997595049,0.2885372375,0.6180718309298133
0.011,1.796975,1.0,1511.4655074679706,0.1164177625487566,1.345074803295126,0.7565585639413689,0.28852595000000003,0.6202913907233101
0.0115,1.79669375,1.0,1580.2463946367454,0.12137395987959491,1.344116985205025,0.7710655992088818,0.2885141375,0.622396366369275
0.012,1.7964,1.0,1646.185298046071,0.12630235715254734,1.3432046634066748,0.7843402756744892,0.28850180000000003,0.6243959152293084
0.0125,1.79609375,1.0,1709.3037117242159,0.13120311050007816,1.3423345445751231,0.7965079502952352,0.2884889375,0.6262980216535174
0.013000000000000001,1.7957750000000001,1.0,1769.6231802950913,0.1360763741675683,1.341503756166987,0.8076803274073733,0.28847555,0.6281096445275482
0.0135,1.79544375,1.0,1827.1967916187514,0.1409223024003986,1.3407094256388832,0.8179566815667603,0.2884616375,0.6298376507679284
0.014,1.7951000000000001,1.0,1882.084480688154,0.14574104836711504,1.339948920424316,0.8274252928817988,0.2884472,0.6314883019845092
0.0145,1.79474375,1.0,1934.3855385362324,0.15053276612748984,1.339219452623101,0.8361645396195407,0.2884322375,0.6330681216903182
0.015,1.794375,1.0,1984.1567100332506,0.15529760619118416,1.3385189382260223,0.8442443322054084,0.28841675,0.6345820422905819
0.0155,1.79399375,1.0,2031.4659070543316,0.16003571870571442,1.3378453669109978,0.8517268841218941,0.2884007375,0.6360347833443026
0.016,1.7936,1.0,2076.3973439649712,0.16474725381859712,1.3371967283559456,0.8586675965121087,0.2883842,0.6374310152616283
0.0165,1.7931937500000001,1.0,2119.0337028988206,0.169432360576484,1.3365711817022181,0.8651159160431606,0.2883671375,0.6387749988761877
0.017,1.792775,1.0,2159.478865800501,0.17409118873672969,1.3359668018088802,0.8711159653061947,0.28834955,0.6400711354665582
0.0175,1.7923437500000001,1.0,2197.8063544608794,0.17872388476212334,1.3353820937255274,0.8767073143559299,0.2883314375,0.6413228673733468
0.018000000000000002,1.7919,1.0,2234.0906593629725,0.18333059449050398,1.3348156492811232,0.881925418345684,0.2883128,0.642533421544834
0.0185,1.79144375,1.0,2268.414798163242,0.18791146375971068,1.3342660603046304,0.8868020746186009,0.2882936375,0.643705997858486
0.019,1.790975,1.0,2300.8614289500347,0.19246663740088904,1.3337319994326153,0.8913658658673733,0.28827395,0.6448435987076175
0.0195,1.79049375,1.0,2331.5211509211854,0.19699626115423452,1.3332121291144934,0.8956425074395483,0.2882537375,0.6459492251625836
0.02,1.79,1.0,2360.4683763336675,0.20150047810071287,1.332705331861991,0.899655224229917,0.288233,0.6470253895108495
0.0205,1.78949375,1.0,2387.7696411587544,0.20597942959294976,1.3322106176428168,0.9034250074720357,0.2882117375,0.6480743160885785
0.021,1.788975,1.0,2413.495988129379,0.2104332569835709,1.331726996424678,0.9069708345127713,0.28818995000000003,0.649098213785273
0.021500000000000002,1.78844375,1.0,2437.7225884629306,0.21486210162520197,1.3312534781752832,0.9103098896510573,0.2881676375,0.6500992767754376
0.022,1.7879,1.0,2460.5153447671455,0.2192661026589811,1.330789197706903,0.913457782635806,0.2881448,0.6510794218125746
0.0225,1.78734375,1.0,2481.9576032293767,0.22364540279951162,1.3303331541578483,0.9164286674982121,0.28812143749999997,0.6520408394902018
0.023,1.786775,1.0,2502.107216823219,0.2280001396665666,1.3298846187260907,0.9192354710163001,0.28809755,0.6529851349743043
0.0235,1.78619375,1.0,2521.0175770081655,0.2323304496121324,1.3294429278213329,0.9218899817594599,0.28807313749999996,0.6539137669276405
0.024,1.7856,1.0,2538.7442051071416,0.23663646898819526,1.3290074178532785,0.9244029553807266,0.2880482,0.6548281855788209
0.0245,1.78499375,1.0,2555.3445734297206,0.24091833414674146,1.3285774252316307,0.926784219347965,0.2880227375,0.6557298329979342
0.025,1.784375,1.0,2570.877936158671,0.24517618143975733,1.3281522863660922,0.9290427657871122,0.28799675,0.6566201433440888
0.025500000000000002,1.78374375,1.0,2585.395901785759,0.24941014360054758,1.3277314242268214,0.9311868466569673,0.2879702375,0.6575003621628164
0.026000000000000002,1.7831000000000001,1.0,2598.9596345132136,0.2536203597075291,1.3273141855869852,0.933224023622332,0.2879432,0.6583718874793641
0.0265,1.78244375,1.0,2611.6107467222564,0.257806961201216,1.326900111283668,0.935161271053577,0.2879156375,0.6592357054933848
0.027,1.781775,1.0,2623.3905441636175,0.2619700789635846,1.3264887543975017,0.9370050058520512,0.28788755,0.6600927718493872
0.0275,1.7810937500000001,1.0,2634.34124813529,0.266109843876611,1.326079668009118,0.9387611379136986,0.2878589375,0.6609440373439521
0.028,1.7804,1.0,2644.5059148330083,0.2702263868222716,1.3256724051991493,0.940435116894226,0.2878298,0.6617904479968149
0.0285,1.77969375,1.0,2653.9283591295134,0.27431983868254256,1.3252665190482271,0.9420319740942223,0.2878001375,0.6626329451092134
0.029,1.778975,1.0,2662.644655829986,0.278390326800877,1.3248616401904012,0.9435563695721424,0.28776995,0.6634723046326605
0.029500000000000002,1.7782437500000001,1.0,2670.6931296195276,0.2824379815235276,1.3244573838096698,0.9450126144821375,0.2877392375,0.6643093306485479
0.03,1.7775,1.0,2678.123496538193,0.2864629380455913,1.324053265375139,0.9464046909150158,0.287708,0.6651450293358094
0.0305,1.77674375,1.0,2684.961829337499,0.2904653206806286,1.323649021883529,0.9477363171966727,0.2876762375,0.6659799446231982
0.031,1.775975,1.0,2691.2345563123918,0.2944452537421999,1.3232443903315616,0.9490109451378126,0.28764395,0.6668146177269676
0.0315,1.7751937500000001,1.0,2696.9684298791444,0.2984028615438657,1.3228391077159574,0.9502317824593807,0.2876111375,0.6676495871465704
0.032,1.7744,1.0,2702.190496687162,0.3023382683991865,1.3224329110334372,0.9514018130696877,0.2875778,0.6684853886559425
0.0325,1.77359375,1.0,2706.9280692644766,0.30625159862172274,1.3220255372807226,0.9525238154221454,0.2875439375,0.6693225552903761
0.033,1.772775,1.0,2711.208699196501,0.3101429765250349,1.321616723454534,0.9536003791558983,0.28750955,0.6701616173289855
0.0335,1.7719437500000002,1.0,2715.0601518386275,0.3140125264226835,1.3212062065515928,0.9546339201983204,0.2874746375,0.6710031022727535
0.034,1.7711000000000001,1.0,2718.50941523966,0.3178603715706074,1.3207937323789738,0.955626695194989,0.2874392,0.6718475167932632
0.0345,1.7702437500000001,1.0,2721.577644628732,0.3216866300008808,1.3203791013464614,0.9565808178990829,0.2874032375,0.6726952532539343
0.035,1.7693750000000001,1.0,2724.2934192912344,0.3254914318861524,1.3199620475326788,0.9574982614597018,0.28736675,0.6735468371769637
0.035500000000000004,1.76849375,1.0,2726.673120361918,0.329274894744743,1.3195424171443444,0.958380881903707,0.2873297375,0.6744025626452481
0.036000000000000004,1.7676,1.0,2728.7332232766175,0.3330371360949734,1.3191200563881762,0.9592304182926685,0.2872922,0.6752627219732374
0.0365,1.76669375,1.0,2730.490287570973,0.3367782734551644,1.318694811470893,0.9600485014231641,0.2872541375,0.6761276056809056
0.037,1.765775,1.0,2731.960947203848,0.340498424343637,1.3182665285992128,0.9608366617857662,0.28721555,0.6769975024662196
0.0375,1.76484375,1.0,2733.1619014048647,0.34419770627871193,1.317835053979854,0.9615963368534384,0.2871764375,0.6778726991760947
0.038,1.7639,1.0,2734.109906046644,0.34787623677871005,1.317400233819535,0.9623288777626432,0.28713679999999997,0.6787534807758435
0.0385,1.76294375,1.0,2734.8217655411863,0.35153413336195216,1.316961914324974,0.9630355554438725,0.28709663750000003,0.6796401303171169
0.039,1.761975,1.0,2735.308966431961,0.35517150749240245,1.3165199903608427,0.9637175695780561,0.28705595,0.6805328306823089
0.0395,1.7609937500000001,1.0,2735.582332079623,0.3587884716675856,1.3160743631110012,0.9643760510407313,0.2870147375,0.6814317505866548
0.04,1.76,1.0,2735.6700321868375,0.36238515850285513,1.31562477652067,0.9650120554877418,0.286973,0.6823373738720574
0.0405,1.7589937500000001,1.0,2735.5806821603023,0.3659616778546043,1.3151711522850127,0.9656265902093586,0.2869307375,0.683249823875438
0.041,1.757975,1.0,2735.3229146030794,0.3695181395792261,1.3147134120991928,0.9662206060086231,0.28688795,0.6841692227196545
0.0415,1.75694375,1.0,2734.905376591701,0.3730546535331137,1.3142514776583736,0.9667950009537647,0.2868446375,0.6850956912931401
0.042,1.7559,1.0,2734.336727089389,0.37657132957266015,1.3137852706577189,0.9673506238439503,0.28680079999999997,0.6860293492291522
0.0425,1.75484375,1.0,2733.625634495158,0.3800682775542587,1.313314712792392,0.9678882774129934,0.2867564375,0.6869703148846329
0.043000000000000003,1.753775,1.0,2732.7807743282374,0.3835456073343023,1.3128397257575566,0.9684087212932999,0.28671155,0.6879187053186759
0.043500000000000004,1.75269375,1.0,2731.8108270497596,0.38700342876918425,1.3123602312483762,0.9689126747602436,0.28666613750000003,0.6888746362706025
0.044,1.7516,1.0,2730.724476018786,0.39044185171529744,1.3118761509600143,0.9694008192752747,0.2866202,0.6898382221376478
0.0445,1.75049375,1.0,2729.5304055857896,0.3938609860290352,1.3113874065876343,0.9698738008443815,0.2865737375,0.6908095759522555
0.045,1.7493750000000001,1.0,2728.2372993209724,0.3972609415667906,1.3108939198263998,0.9703322322070014,0.28652675,0.6917888093589799
0.0455,1.74824375,1.0,2726.8538383790183,0.40064182818495664,1.3103956123714742,0.9707766948691128,0.2864792375,0.6927760325909998
0.046,1.7471,1.0,2725.381829192938,0.4040037405114349,1.3098924684181887,0.9712077435496442,0.2864312,0.6937712309237305
0.0465,1.7459437500000001,1.0,2723.8349199117115,0.4073468024747816,1.3093843644361807,0.9716259013466902,0.28638263750000004,0.6947746015383308
0.047,1.744775,1.0,2722.2188908456915,0.4106711200165128,1.3088712483981035,0.9720316682345705,0.28633355,0.695786198702159
0.0475,1.74359375,1.0,2720.5378032597423,0.4139767951137149,1.3083530838916775,0.9724255203125566,0.28628393750000003,0.6968060448166202
0.048,1.7424,1.0,2718.7957159440734,0.41726392974347437,1.3078298345046215,0.9728079106085207,0.2862338,0.6978341613165093
0.0485,1.74119375,1.0,2716.9966847478677,0.42053262588287765,1.3073014638246556,0.9731792704076304,0.2861831375,0.6988705686582395
0.049,1.739975,1.0,2715.1447621411025,0.42378298550901117,1.3067679354394994,0.9735400104926886,0.28613195,0.6999152863079947
0.0495,1.73874375,1.0,2713.2439968065814,0.42701511059896136,1.3062292129368722,0.9738905223027483,0.2860802375,0.7009683327297952
0.05,1.7375,1.0,2711.2984332612023,0.4302291031298147,1.305685259904494,0.9742311790160836,0.286028,0.7020297253734757
0.0505,1.73624375,1.0,2709.3121115062563,0.43342506507865763,1.305136039930084,0.974562336563094,0.2859752375,0.7030994806625835
0.051000000000000004,1.734975,1.0,2707.2890667075517,0.43660309842257655,1.304581516601362,0.9748843345742579,0.28592195,0.7041776139821885
0.051500000000000004,1.73369375,1.0,2705.2333289048365,0.4397633051386579,1.3040216535060476,0.9751974972678467,0.2858681375,0.7052641396666095
0.052000000000000005,1.7324,1.0,2703.1489227502557,0.4429057872039882,1.3034564142318603,0.9755021342817164,0.2858138,0.7063590709870586
0.0525,1.73109375,1.0,2701.03452813012,0.4460306249797191,1.3028858111523784,0.975798542257085,0.28575893750000003,0.7074623259010387
0.053,1.729775,1.0,2698.898971786268,0.44913794126493584,1.3023097639126613,0.9760870033936435,0.28570355000000003,0.7085740007750989
0.0535,1.72844375,1.0,2696.74616304012,0.4522278397442305,1.3017282370019156,0.9763677882998504,0.2856476375,0.7096941039404203
0.054,1.7271,1.0,2694.5775978425945,0.4553004143208301,1.3011412169328873,0.9766411562022896,0.2855912,0.7108226003322058
0.0545,1.7257437500000001,1.0,2692.394769935285,0.45835575889796204,1.3005486902183208,0.9769073551940998,0.2855342375,0.7119594541073082
0.055,1.724375,1.0,2690.199170807024,0.4613939673788534,1.2999506433709616,0.977166622804151,0.28547675,0.7131046286394969
0.0555,1.72299375,1.0,2687.9922896545145,0.4644151336667314,1.2993470629035544,0.9774191865325343,0.2854187375,0.7142580865147177
0.056,1.7216,1.0,2685.775613346758,0.46741935166482323,1.2987379353288449,0.9776652643546214,0.2853602,0.7154197895263359
0.0565,1.72019375,1.0,2683.550626394078,0.4704067152763561,1.2981232471595776,0.9779050651957756,0.28530113749999997,0.7165896986703744
0.057,1.718775,1.0,2681.3188109206535,0.4733773184045572,1.2975029849084982,0.9781387893786586,0.28524155,0.717767774140733
0.0575,1.71734375,1.0,2679.081646641016,0.4763312549526537,1.2968771350883512,0.9783666290449133,0.2851814375,0.7189539753244033
0.058,1.7159,1.0,2676.8406108410754,0.4792686188238729,1.2962456842118821,0.9785887685528907,0.2851208,0.7201482607966639
0.0585,1.71444375,1.0,2674.597178362911,0.48218950392144183,1.295608618791836,0.9788053848529612,0.2850596375,0.7213505883162721
0.059000000000000004,1.7129750000000001,1.0,2672.352821593504,0.48509400414858783,1.294965925340958,0.9790166478418401,0.28499795,0.722560914820639
0.059500000000000004,1.71149375,1.0,2670.1090104576942,0.48798221340853803,1.2943175903719928,0.9792227206972551,0.2849357375,0.7237791964209945
0.06,1.71,1.0,2667.867212414784,0.49085422560451963,1.293663600397686,0.979423760194196,0.284873,0.7250053883975389
0.0605,1.7084937500000001,1.0,2665.6345603540194,0.49371013072177455,1.2930038897982257,0.9796199138845518,0.2848097375,0.7262395426119554
0.061,1.7069750000000001,1.0,2663.407427450201,0.49655001673609894,1.2923384918517675,0.9798113287290828,0.28474595,0.7274815248145219
0.0615,1.7054437500000001,1.0,2661.1847103630416,0.49937397307744263,1.2916674166622422,0.9799981449612213,0.2846816375,0.7287312438060396
0.062,1.7039,1.0,2658.9656548689964,0.5021820891347855,1.2909906711353902,0.9801804973192151,0.2846168,0.7299886138781096
0.0625,1.70234375,1.0,2656.7557921838547,0.5049744539481927,1.2903082042793386,0.9803585124288208,0.2845514375,0.7312536560207457
0.063,1.7007750000000001,1.0,2654.553756130808,0.5077511560081256,1.2896200285911434,0.9805323153976813,0.28448555,0.7325262724453612
0.0635,1.69919375,1.0,2652.3590735313173,0.5105122827972896,1.288926148354675,0.9807020261968671,0.28441913750000003,0.7338063800922587
0.064,1.6976,1.0,2650.1694973982585,0.51325792172388,1.2882265842239036,0.9808677612028313,0.2843522,0.7350938652634599
0.0645,1.69599375,1.0,2647.9921121063353,0.5159881599199494,1.2875212707729364,0.9810296281901736,0.2842847375,0.7363887718530477
0.065,1.6943810254332257,1.0,2646.109174565316,0.5187030837875135,1.2868103232451678,0.9811877399706067,0.2842170030681955,0.7376908114795995
0.0655,1.692768298812167,1.0,2644.7946601673616,0.5214027789055863,1.2860941318545196,0.9813422188877341,0.284149268550111,0.7389991955306402
0.066,1.6911555721911087,1.0,2644.0064848069337,0.5240873307485191,1.285373082282274,0.9814931827926314,0.2840815340320266,0.7403131502191151
0.0665,1.68954284557005,1.0,2643.700711331704,0.52675682456045,1.2846475781554971,0.9816407463315286,0.2840137995139421,0.7416318757978639
0.067,1.6879301189489917,1.0,2643.8378079531144,0.5294113447216546,1.2839179838039143,0.98178501827872,0.2839460649958576,0.7429546507420927
0.0675,1.686317392327933,1.0,2644.382886108951,0.5320509749488809,1.2831846217317806,0.9819261016722327,0.28387833047777317,0.7442808355058301
0.068,1.6847046657068745,1.0,2645.3069862959137,0.5346757973470725,1.2824477604902547,0.9820640934060895,0.2838105959596887,0.745609893475892
0.0685,1.6830919390858161,1.0,2646.572922625843,0.5372858965093055,1.281707745171737,0.9821990909321843,0.28374286144160427,0.7469411553260705
0.069,1.6814792124647575,1.0,2648.143272572898,0.5398813576738405,1.280964923379895,0.9823311886580488,0.2836751269235198,0.7482739535399545
0.0695,1.679866485843699,1.0,2649.998072268137,0.5424622613602973,1.280219481776166,0.9824604700872019,0.28360739240543537,0.749607914646355
0.07,1.6782537592226405,1.0,2652.1173774100366,0.5450286880882954,1.2794716070219871,0.9825870159942693,0.2835396578873509,0.7509426685859311
0.07050000000000001,1.676641032601582,1.0,2654.4812528082234,0.5475807183774547,1.2787214857787954,0.9827109045374962,0.2834719233692664,0.7522778487412651
0.07100000000000001,1.6750283059805233,1.0,2657.0697627003974,0.5501184327473948,1.2779693047080276,0.98283221136594,0.28340418885118196,0.7536130919647185
0.07150000000000001,1.673415579359465,1.0,2659.862961840893,0.5526419117177352,1.277215250471121,0.9829510097216254,0.2833364543330975,0.7549480386040615
0.07200000000000001,1.6718028527384063,1.0,2662.8408873624585,0.5551512358080959,1.2764595097295126,0.983067370536931,0.28326871981501306,0.756282332525885
0.0725,1.670190126117348,1.0,2665.9880859331433,0.5576464831747564,1.275702227439453,0.9831813605092073,0.2832009852969286,0.7576156944672326
0.073,1.6685773994962894,1.0,2669.2875238015163,0.5601277345025046,1.2749435628964174,0.9832930450488561,0.28313325077884416,0.7589478227736728
0.0735,1.6669646728752308,1.0,2672.721616715942,0.562595071005402,1.2741836801851398,0.9834024877935031,0.2830655162607597,0.7602784104596076
0.074,1.6653519462541724,1.0,2676.2812616504057,0.5650485690484196,1.2734226652142175,0.9835097467010023,0.2829977817426752,0.7616072900100571
