Time [s],Phi [rad],STIM [ ],Fsee [N],Gamma [ ],Lcerel [ ],q [ ],Lmtc [m],fisomrel [ ]
0.0,1.8,1.0,19.602285491101984,0.001305736434169742,1.3791605456133902,0.005436869628053804,0.288653,0.5415729612568758
0.0005,1.79999375,1.0,20.27934725679878,0.006907621594145837,1.3790857184980663,0.016925056066683354,0.2886527375,0.5417538840268012
0.001,1.799975,1.0,24.588985938016197,0.012478084608972834,1.3786446613827772,0.04267540524145046,0.28865195,0.5428195803773024
0.0015,1.79994375,1.0,36.28590610071566,0.01801730172829024,1.377618998316306,0.08006650165140312,0.2886506375,0.5452930233118292
0.002,1.7999,1.0,63.14764110209702,0.023525448220631223,1.3757730549201874,0.1257935089310351,0.2886488,0.5497277142727992
0.0025,1.79984375,1.0,111.79995192879258,0.029002698366386512,1.3732526114741284,0.17653922266118874,0.28864643749999996,0.5557477296803042
0.003,1.7997750000000001,1.0,179.1972141771286,0.03444922546974184,1.370549955264164,0.2295677102374005,0.28864354999999997,0.5621579421356061
0.0035,1.79969375,1.0,257.83052560863484,0.03986520186125636,1.367976768860015,0.2827944759076913,0.2886401375,0.5682177856484154
0.004,1.7996,1.0,342.6329710207354,0.045250798905339236,1.3656044167963026,0.3346828804173047,0.2886362,0.5737672526117201
0.0045000000000000005,1.7994937500000001,1.0,431.008601172048,0.05060618701826841,1.3634190767817351,0.3841850841227527,0.2886317375,0.5788474956349213
0.005,1.799375,1.0,521.4583965528169,0.055931535619325755,1.3613949487239916,0.43066662700460273,0.28862675,0.5835258004999474
0.0055,1.79924375,1.0,612.9386100807689,0.06122701326365945,1.3595100943620109,0.4738115368202188,0.2886212375,0.58785871189993
0.006,1.7991000000000001,1.0,704.5943470042074,0.06649278739615838,1.3577483209849734,0.5135318560984394,0.2886152,0.5918881978075012
0.006500000000000001,1.79894375,1.0,795.7577307847495,0.07172902479443599,1.3560964104033773,0.5498911932304102,0.2886086375,0.5956484263323645
0.007,1.798775,1.0,885.8407625919665,0.07693589092644887,1.3545443576847753,0.5830480087406954,0.28860155,0.5991654924550067
0.0075,1.79859375,1.0,974.3957705053059,0.08211355076351953,1.353083216158432,0.6132132786641221,0.2885939375,0.6024625078674042
0.008,1.7984,1.0,1061.0352093373263,0.08726216801311265,1.3517057205197014,0.6406227090107817,0.2885858,0.6055583104391509
0.0085,1.79819375,1.0,1145.4551673348433,0.09238190536264372,1.3504053843324784,0.6655176385187938,0.2885771375,0.6084696002257912
0.009000000000000001,1.797975,1.0,1227.4459964801922,0.09747292534948195,1.349176036466467,0.6881332023218948,0.28856795,0.6112120394055116
0.0095,1.79774375,1.0,1306.8291252851109,0.10253538878763008,1.3480124521479353,0.7086919342833711,0.2885582375,0.6137988939731538
0.01,1.7975,1.0,1383.4790285521144,0.10756945553052763,1.3469098108531292,0.7273999302229617,0.288548,0.6162422931563971
0.0105,1.79724375,1.0,1457.3224696726943,0.11257528488435155,1.3458635546843252,0.7444453739937303,0.2885372375,0.6185535763428662
0.011,1.796975,1.0,1528.337868368481,0.11755303617486466,1.3448692818437147,0.7599984153274915,0.28852595000000003,0.6207435537008945
0.0115,1.79669375,1.0,1596.4943292798089,0.12250286616587591,1.3439233826545658,0.7742121729829123,0.2885141375,0.6228211315798505
0.012,1.7964,1.0,1661.792662518576,0.12742493111498437,1.34302241998826,0.787223565727779,0.28850180000000003,0.6247947046728243
0.0125,1.79609375,1.0,1724.2666489084,0.132319386894074,1.3421630512251896,0.799154638034243,0.2884889375,0.6266723417610596
0.013000000000000001,1.7957750000000001,1.0,1783.973444945026,0.13718638918466047,1.3413420862902232,0.8101140077973642,0.28847555,0.6284616713234624
0.0135,1.79544375,1.0,1840.9612178097677,0.14202609173750555,1.3405567965772853,0.8201983720120293,0.2884616375,0.6301692229114079
0.014,1.7951000000000001,1.0,1895.2791353000796,0.14683864698538618,1.3398047398774866,0.829493733598888,0.2884472,0.6318008251173268
0.0145,1.79474375,1.0,1946.9997796218283,0.1516242073610794,1.339083473981937,0.8380765054825345,0.2884322375,0.6333622374755772
0.015,1.794375,1.0,1996.199425152813,0.15638292413533986,1.338390744633062,0.846014683429982,0.28841675,0.6348587498299803
0.0155,1.79399375,1.0,2042.9815732729492,0.16111494941537083,1.3377242073988809,0.8533687417967342,0.2884007375,0.6362957899770335
0.016,1.7936,1.0,2087.410771852428,0.16582043175267758,1.337082103206596,0.8601927309907362,0.2883842,0.6376774735262045
0.0165,1.7931937500000001,1.0,2129.5618581391564,0.1704995194906911,1.336462706044054,0.8665348645811801,0.2883671375,0.6390078043415579
0.017,1.792775,1.0,2169.5219126425404,0.1751523609728424,1.3358642898991013,0.872438200977722,0.28834955,0.6402907486306519
0.0175,1.7923437500000001,1.0,2207.37182332288,0.17977910312334305,1.3352853044688475,0.877941299816894,0.2883314375,0.6415298616302048
0.018000000000000002,1.7919,1.0,2243.2172154024774,0.1843798943397568,1.3347240481056464,0.8830786622037985,0.2883128,0.6427289911344674
0.0185,1.79144375,1.0,2277.1285713162147,0.18895487901664235,1.334179261064707,0.8878813550423018,0.2882936375,0.6438910123541022
0.019,1.790975,1.0,2309.17805600234,0.19350420107269323,1.3336497377749879,0.892377307693321,0.28827395,0.6450186622534497
0.0195,1.79049375,1.0,2339.444255447535,0.19802800442660295,1.3331342726654485,0.8965916577100602,0.2882537375,0.6461146568101488
0.02,1.79,1.0,2368.0075315188137,0.20252643239090698,1.3326317001994692,0.9005470759416299,0.288233,0.647181607214319
0.0205,1.78949375,1.0,2394.9482004321376,0.2069996279630366,1.332140906466881,0.9042640452575054,0.2882117375,0.6482219969749956
0.021,1.788975,1.0,2420.3461502732075,0.21144773395369412,1.3316608270386912,0.907761101773896,0.28818995000000003,0.6492381881633016
0.021500000000000002,1.78844375,1.0,2444.261027310036,0.21587088958342346,1.331190632068254,0.9110550840129634,0.2881676375,0.650232031984153
0.022,1.7879,1.0,2466.7558353397644,0.22026923407276836,1.3307294917089247,0.914161268336219,0.2881448,0.6512053677103198
0.0225,1.78734375,1.0,2487.896657594318,0.2246429066422727,1.3302765761140578,0.9170935354770398,0.28812143749999997,0.6521600231835938
0.023,1.786775,1.0,2507.7493238195257,0.22899204600129658,1.3298310845506756,0.9198645226893851,0.28809755,0.6530977540310112
0.0235,1.78619375,1.0,2526.3722313697153,0.2333167893292413,1.3293923103487273,0.92248576422521,0.28807313749999996,0.654020108045688
0.024,1.7856,1.0,2543.845662114798,0.23761727690489845,1.3289593611329775,0.9249677553044457,0.2880482,0.6549290137850232
0.0245,1.78499375,1.0,2560.2153553079843,0.24189364279618247,1.3285316896171635,0.9273201472715722,0.2880227375,0.6558256661903437
0.025,1.784375,1.0,2575.5286178395877,0.24614602107100772,1.3281087485150225,0.9295517734607552,0.28799675,0.6567112536604137
0.025500000000000002,1.78374375,1.0,2589.8341950179706,0.2503745457972887,1.3276899905402915,0.9316707296799179,0.2879702375,0.657586958226096
0.026000000000000002,1.7831000000000001,1.0,2603.182147991005,0.2545793510429397,1.3272748684067077,0.9336844457954184,0.2879432,0.6584539557059061
0.0265,1.78244375,1.0,2615.623564646011,0.25876057080591597,1.3268628364358857,0.935599749717916,0.2879156375,0.6593134124907126
0.027,1.781775,1.0,2627.202805401698,0.26291833549900234,1.3264534213688333,0.9374229336374459,0.28788755,0.6601663382544101
0.0275,1.7810937500000001,1.0,2637.976322983943,0.26705278158832946,1.3260460466722062,0.939159781379086,0.2878589375,0.6610139523259744
0.028,1.7804,1.0,2647.979127748153,0.27116403773926695,1.3256403422115617,0.9408156551804947,0.2878298,0.661857039299544
0.0285,1.77969375,1.0,2657.246901616404,0.2752522326171845,1.3252359378524576,0.942395506787749,0.2878001375,0.6626963798763785
0.029,1.778975,1.0,2665.815939562763,0.2793174948874518,1.3248324634604514,0.9439039142128945,0.28776995,0.6635327508999188
0.029500000000000002,1.7782437500000001,1.0,2673.723094136186,0.2833599532154385,1.3244295489011009,0.9453451147592715,0.2877392375,0.6643669253821052
0.03,1.7775,1.0,2681.0057230207062,0.2873797362665143,1.3240268240399635,0.9467230347342044,0.287708,0.6651996725209647
0.0305,1.77674375,1.0,2687.6878312117096,0.291376967214393,1.323624045228304,0.9480413308154623,0.2876762375,0.6660314966520049
0.031,1.775975,1.0,2693.8129467930366,0.29535177913872845,1.323220793357883,0.9493033792914294,0.28764395,0.6668632612917752
0.0315,1.7751937500000001,1.0,2699.417676238251,0.29930430041670847,1.3228167162075706,0.9505123254408122,0.2876111375,0.6676956879367374
0.032,1.7744,1.0,2704.5252687253333,0.3032346533361069,1.3224115864724049,0.9516711092046514,0.2875778,0.6685292375903923
0.0325,1.77359375,1.0,2709.1592125316843,0.3071429601846975,1.3220051768474246,0.9527824686678651,0.2875439375,0.6693643688885804
0.033,1.772775,1.0,2713.343212461455,0.3110293432502542,1.3215972600276684,0.9538489563626784,0.28750955,0.6702015380825772
0.0335,1.7719437500000002,1.0,2717.1011684189843,0.31489392482055084,1.3211876087081749,0.9548729540693859,0.2874746375,0.6710411990188915
0.034,1.7711000000000001,1.0,2720.4571551271924,0.3187368271833612,1.3207759955839824,0.9558566862689006,0.2874392,0.6718838031157682
0.0345,1.7702437500000001,1.0,2723.435402992047,0.3225581726264592,1.3203621933501297,0.9568022323841493,0.2874032375,0.672729799336397
0.035,1.7693750000000001,1.0,2726.0602801121167,0.3263580834376186,1.3199459747016553,0.9577115379320779,0.28736675,0.6735796341588257
0.035500000000000004,1.76849375,1.0,2728.349119901933,0.33013667771658123,1.3195271773883561,0.9585864305278393,0.2873297375,0.6744336189739477
0.036000000000000004,1.7676,1.0,2730.3220768265837,0.33389407819305905,1.3191056143828015,0.9594286214567526,0.2872922,0.6752921137416288
0.0365,1.76669375,1.0,2732.0027687276606,0.3376304072274045,1.3186810679849121,0.9602397125520674,0.2872541375,0.6761555386096805
0.037,1.765775,1.0,2733.4055000318754,0.34134578044835473,1.3182534058096238,0.9610212144094288,0.28721555,0.6770241380439251
0.0375,1.76484375,1.0,2734.544634205351,0.3450403134846469,1.3178224954718716,0.9617745460609008,0.2871764375,0.6778981548853067
0.038,1.7639,1.0,2735.434586523295,0.34871412196501816,1.3173882045865914,0.9625010415344826,0.28713679999999997,0.678777830323023
0.0385,1.76294375,1.0,2736.089817229165,0.35236732151820555,1.3169504007687185,0.9632019558745263,0.28709663750000003,0.6796634038665457
0.039,1.761975,1.0,2736.524825081288,0.3560000277729462,1.3165089516331885,0.9638784706727465,0.28705595,0.6805551133165177
0.0395,1.7609937500000001,1.0,2736.7541412894043,0.3596123563579773,1.316063724794937,0.9645316991544541,0.2870147375,0.6814531947345357
0.04,1.76,1.0,2736.792323838467,0.363204422902036,1.3156145878688992,0.9651626908601614,0.286973,0.6823578824118142
0.0405,1.7589937500000001,1.0,2736.6708236255745,0.3667763342974525,1.3151612553159575,0.9657724209500191,0.2869307375,0.6832697166698656
0.041,1.757979151623698,1.0,2736.5739522441772,0.37032821296842067,1.3147039289752973,0.9663618550190995,0.28688812436819533,0.684188256018849
0.0415,1.7569643393905017,1.0,2736.8684371172353,0.37386017514913616,1.314242953454035,0.9669319159830315,0.2868455022544011,0.6851127748867514
0.042,1.7559495271573056,1.0,2737.540569556159,0.3773723294997722,1.3137785503295472,0.9674834643561635,0.28680288014060684,0.6860427976820404
0.0425,1.7549347149241092,1.0,2738.5660711832757,0.380864784680502,1.313310941179211,0.9680173138919855,0.2867602580268126,0.6869778512034344
0.043000000000000003,1.7539199026909131,1.0,2739.9207169588594,0.3843376493514989,1.3128403475804036,0.9685342346035307,0.28671763591301835,0.6879174646867738
0.043500000000000004,1.7529050904577168,1.0,2741.580319974944,0.387791032172936,1.3123669911105018,0.9690349555597391,0.2866750137992241,0.6888611698487618
0.044,1.7518902782245207,1.0,2743.5207173379163,0.3912250418049866,1.3118910933468826,0.9695201674764576,0.28663239168542987,0.6898085009275707
0.0445,1.7508754659913244,1.0,2745.717757139781,0.39463978690782386,1.311412875866923,0.9699905251190282,0.2865897695716356,0.6907589947203202
0.045,1.749860653758128,1.0,2748.147286517545,0.3980353761416212,1.310932560248,0.9704466495318625,0.2865471474578414,0.6917121906174231
0.0455,1.748845841524932,1.0,2750.785140801605,0.40141191816655164,1.3104503680674906,0.9708891301090163,0.28650452534404713,0.6926676306337998
0.046,1.7478310292917356,1.0,2753.607133752385,0.4047695216427886,1.3099665209027715,0.9713185265185176,0.2864619032302529,0.6936248594369634
0.0465,1.7468162170585395,1.0,2756.601291022149,0.40810828833551765,1.309481129603056,0.9717353614633981,0.28641928111645865,0.6945836429196954
0.047,1.7458014048253432,1.0,2759.745408082311,0.41142833102496934,1.3089943974047313,0.9721401400118903,0.2863766590026644,0.6955435662387977
0.0475,1.744786592592147,1.0,2763.0258581688745,0.4147297547998405,1.3085064497068024,0.9725333359834932,0.28633403688887016,0.6965043701827303
0.048,1.7437717803589508,1.0,2766.4330631705056,0.41801266183133734,1.3080173751514907,0.9729153973534294,0.2862914147750759,0.697465869275465
0.0485,1.7427569681257546,1.0,2769.9574296910077,0.42127715429066614,1.3075272623810186,0.9732867506895772,0.28624879266128167,0.6984278791212888
0.049,1.7417421558925583,1.0,2773.5893469222124,0.4245233343490331,1.3070362000376068,0.9736478023745258,0.2862061705474874,0.699390216410927
0.0495,1.740727343659362,1.0,2777.3191846903474,0.42775130417764445,1.3065442767634776,0.9739989397471522,0.2861635484336932,0.700352698927157
0.05,1.7397125314261659,1.0,2781.137291676853,0.43096116594770645,1.3060515812008526,0.9743405321697083,0.28612092631989894,0.7013151455499296
0.0505,1.7386977191929696,1.0,2785.0339938138004,0.4341530218304252,1.3055582019919532,0.9746729320258983,0.2860783042061047,0.7022773762609846
0.051000000000000004,1.7376829069597735,1.0,2788.999592852834,0.43732697399700704,1.3050642277790012,0.9749964756549931,0.28603568209231045,0.7032392121479645
0.051500000000000004,1.7366680947265771,1.0,2793.0285068921353,0.44048311819025965,1.3045697099875737,0.9753114811308267,0.2859930599785162,0.704200547697976
0.052000000000000005,1.735653282493381,1.0,2797.112509588017,0.44362155790859065,1.304074723658435,0.9756182546744062,0.285950437864722,0.7051612322450461
0.0525,1.7346384702601847,1.0,2801.2409511343526,0.44674240084059136,1.3035793653723555,0.9759170907414726,0.2859078157509278,0.7061210743626207
0.053,1.7336236580269886,1.0,2805.4103059907125,0.4498457427100621,1.3030836675605977,0.9762082656362935,0.28586519363713353,0.7070800078380648
0.0535,1.7326088457937923,1.0,2809.617038678826,0.4529316792408031,1.3025876626544233,0.9764920436822271,0.2858225715233393,0.7080379668664953
0.054,1.7315940335605962,1.0,2813.8576035501387,0.45600030615661447,1.3020913830850946,0.9767686778440415,0.28577994940954504,0.7089948860514497
0.0545,1.7305792213273998,1.0,2818.1284445767233,0.45905171918129656,1.3015948612838737,0.977038410312843,0.2857373272957508,0.7099507004054879
0.055,1.7295644090942035,1.0,2822.425995165474,0.4620860140386495,1.301098129682022,0.9773014730561522,0.28569470518195655,0.7109053453507277
0.0555,1.7285495968610074,1.0,2826.746677995327,0.46510328645247356,1.3006012207108024,0.9775580883354832,0.2856520830681623,0.7118587567193095
0.056,1.727534784627811,1.0,2831.0869048785253,0.468103632146569,1.3001041668014763,0.9778084691935947,0.28560946095436807,0.7128108707538
0.0565,1.726519972394615,1.0,2835.44307664421,0.47108714684473607,1.299607000385306,0.9780528199134294,0.2855668388405738,0.7137616241075232
0.057,1.7255051601614186,1.0,2839.8115830463303,0.474053926270775,1.2991097538935534,0.9782913364505992,0.2855242167267796,0.7147109538448275
0.0575,1.7244903479282225,1.0,2844.188802694136,0.4770040661484859,1.2986124597574806,0.9785242068411497,0.28548159461298533,0.7156587974412851
0.058,1.7234755356950262,1.0,2848.5771243177956,0.4799376362999173,1.2981150968330375,0.9787516063590722,0.2854389724991911,0.7166051946435863
0.0585,1.72246072346183,1.0,2852.967964300117,0.4828547647490961,1.2976177415939487,0.9789737137087415,0.28539635038539685,0.7175499996445076
0.059000000000000004,1.7214459112286338,1.0,2857.36021727975,0.48575554067872145,1.297120403842426,0.9791906935891398,0.2853537282716026,0.7184931939429646
0.059500000000000004,1.7204310989954377,1.0,2861.752962425813,0.48864005234785474,1.296623091712473,0.9794027041108395,0.28531110615780836,0.7194347623180288
0.06,1.7194162867622413,1.0,2866.145276097053,0.4915083880155575,1.2961258133380935,0.979609897271446,0.2852684840440141,0.7203746896519534
0.0605,1.718401474529045,1.0,2870.5362318470284,0.4943606359408912,1.2956285768532914,0.9798124192395938,0.28522586193021987,0.7213129609301582
0.061,1.717386662295849,1.0,2874.9249004310695,0.4971968843829173,1.29513139039207,0.9800104106236419,0.2851832398164257,0.7222495612412103
0.0615,1.7163718500626526,1.0,2879.3103498143605,0.5000172216006973,1.2946342620884335,0.980204006726004,0.28514061770263144,0.7231844757767995
0.062,1.7153570378294565,1.0,2883.691645181966,0.5028217358532927,1.294137200076385,0.980393337783986,0.2850979955888372,0.7241176898317111
0.0625,1.7143422255962601,1.0,2888.0678489498837,0.5056105153997649,1.2936402124899289,0.9805785291979399,0.28505537347504295,0.7250491888037929
0.063,1.713327413363064,1.0,2892.438020777766,0.5083836484991754,1.2931433074630685,0.9807597017474986,0.2850127513612487,0.7259789581939187
0.0635,1.7123126011298677,1.0,2896.8012175830418,0.5111412234105857,1.2926464931298074,0.9809369717965895,0.28497012924745446,0.726906983605949
0.064,1.7112977888966716,1.0,2901.1564935566093,0.5138833283930572,1.2921497776241497,0.9811104514878958,0.2849275071336602,0.7278332507466833
0.0645,1.7102829766634753,1.0,2905.5029001798544,0.5166100517056513,1.2916531690800988,0.9812802489273774,0.284884885019866,0.7287577454258143
0.065,1.709268164430279,1.0,2909.83948624331,0.5193214816074297,1.2911566756316586,0.9814464683594305,0.28484226290607173,0.729680453555871
0.0655,1.7082533521970829,1.0,2914.1657530443504,0.5220176968408689,1.2906603014086737,0.9816092094826525,0.2847996407922775,0.7306013685746777
0.066,1.7072385399638865,1.0,2918.4824542667543,0.5246987620029954,1.2901640395205594,0.9817685670068557,0.28475701867848324,0.7315205043657885
0.0665,1.7062237277306904,1.0,2922.7873524843912,0.527364807635537,1.2896679093715635,0.9819246380438372,0.284714396564689,0.7324378261489404
0.067,1.705208915497494,1.0,2927.0803657157326,0.5300159135673052,1.289171911390331,0.9820775120315529,0.28467177445089475,0.733353334384128
0.0675,1.704194103264298,1.0,2931.3614119519248,0.5326521596271119,1.2886760460055073,0.9822272753412511,0.2846291523371005,0.7342670295364356
0.068,1.7031792910311017,1.0,2935.6304091579423,0.5352736256437687,1.2881803136457373,0.9823740114042521,0.28458653022330627,0.7351789120760348
0.0685,1.7021644787979056,1.0,2939.8872752739876,0.5378803914460873,1.2876847147396662,0.9825178008326375,0.284543908109512,0.7360889824781789
0.069,1.7011496665647092,1.0,2944.1319282166905,0.5404725368628794,1.2871892497159387,0.9826587215341831,0.2845012859957178,0.7369972412232022
0.0695,1.700134854331513,1.0,2948.364285880342,0.5430501417229568,1.2866939190032005,0.982796848821848,0.28445866388192353,0.7379036887965125
0.07,1.6991200420983168,1.0,2952.5842661381685,0.5456132858551311,1.2861987230300962,0.9829322555181118,0.2844160417681293,0.7388083256885916
0.07050000000000001,1.6981052298651205,1.0,2956.7917868437157,0.5481620490882141,1.285703662225271,0.9830650120544365,0.28437341965433505,0.739711152394988
0.07100000000000001,1.6970904176319244,1.0,2960.986765832061,0.5506965112510173,1.2852087370173702,0.9831951865661119,0.2843307975405408,0.7406121694163157
0.07150000000000001,1.696075605398728,1.0,2965.1691209210303,0.5532167521723526,1.2847139478350387,0.9833228449827294,0.28428817542674656,0.741511377258249
0.07200000000000001,1.695060793165532,1.0,2969.338769912663,0.5557228516810315,1.2842192951069213,0.983448051114509,0.2842455533129523,0.7424087764315204
