Time [s],Phi [rad],STIM [ ],Fsee [N],Gamma [ ],Lcerel [ ],q [ ],Lmtc [m],fisomrel [ ]
0.0,1.8,1.0,18.025187939459475,0.00024369677086434437,1.3793332501855295,0.00501543362077776,0.288653,0.5411552465040894
0.0005,1.79999375,1.0,18.41039468576617,0.00585153913353836,1.3792875688579675,0.013602024847096703,0.2886527375,0.541265752901188
0.001,1.799975,1.0,21.92551627080124,0.011427925934383056,1.3789070434556403,0.03683675295654025,0.28865195,0.5421857538893671
0.0015,1.79994375,1.0,31.7518480335407,0.016973033615211453,1.3779883634991466,0.07227611242145153,0.2886506375,0.544403051847057
0.002,1.7999,1.0,55.011687987720315,0.022487037625983475,1.376276016305952,0.11669651568963085,0.2886488,0.5485215546968207
0.0025,1.79984375,1.0,99.48677716631576,0.027970112433682442,1.3738217538396411,0.16672456849663042,0.28864643749999996,0.5543918888911186
0.003,1.7997750000000001,1.0,164.01695759933241,0.03342243152807957,1.3711003891464733,0.21949641637865114,0.28864354999999997,0.5608561899723729
0.0035,1.79969375,1.0,241.12717068529165,0.03884416742300001,1.368479036369783,0.2728156951217339,0.2886401375,0.567038264528049
0.004,1.7996,1.0,325.12349771487663,0.044235491666531845,1.3660595135540428,0.32504786074095127,0.2886362,0.5727054608946989
0.0045000000000000005,1.7994937500000001,1.0,413.04956073973193,0.04959657484640516,1.3638342448063299,0.37505779422927454,0.2886317375,0.5778847012315294
0.005,1.799375,1.0,503.2685276406886,0.054927586581814916,1.3617765808960463,0.422139995647301,0.28862675,0.5826457446274442
0.0055,1.79924375,1.0,594.6766779752454,0.0602286955614411,1.3598630313817441,0.4659256295469277,0.2886212375,0.5870491028212431
0.006,1.7991000000000001,1.0,686.4057150277087,0.06550006951077449,1.3580758487482971,0.5062898181857071,0.2886152,0.5911405820892431
0.006500000000000001,1.79894375,1.0,777.7425351776391,0.07074187520288185,1.3564014210956412,0.5432726259073851,0.2886086375,0.5949554433705595
0.007,1.798775,1.0,868.0999472297738,0.0759542785574007,1.354828852300838,0.5770180483882309,0.28860155,0.5985219565525193
0.0075,1.79859375,1.0,956.9870657657079,0.08113744433952315,1.353349251333234,0.60772982508451,0.2885939375,0.6018632225199079
0.008,1.7984,1.0,1044.0281378772102,0.0862915368311001,1.3519546652119898,0.6356404422677944,0.2885858,0.604999724603049
0.0085,1.79819375,1.0,1128.9017278901051,0.09141671885460778,1.35063849609513,0.6609912662565065,0.2885771375,0.6079484855106678
0.009000000000000001,1.797975,1.0,1211.36225233892,0.09651315248375114,1.3493947638033148,0.684019379576466,0.28856795,0.6107248055702356
0.0095,1.79774375,1.0,1291.251788218589,0.1015809994794907,1.3482176964969876,0.7049498327179097,0.2885582375,0.613343226550803
0.01,1.7975,1.0,1368.4312799852598,0.1066204197740932,1.3471024561396474,0.7239920172579426,0.288548,0.615815959635919
0.0105,1.79724375,1.0,1442.8103963826193,0.1116315727093706,1.3460445320451846,0.7413375833385908,0.2885372375,0.6181542788317258
0.011,1.796975,1.0,1514.353461318124,0.11661461702852745,1.3450395441966636,0.7571600646475959,0.28852595000000003,0.6203689825910671
0.0115,1.79669375,1.0,1583.0477652414895,0.1215697108261014,1.3440835346601854,0.7716156206151545,0.2885141375,0.6224697741573757
0.012,1.7964,1.0,1648.8798675702492,0.12649701017994092,1.3431731380650294,0.784844175482259,0.28850180000000003,0.6244649148934959
0.0125,1.79609375,1.0,1711.8743962781855,0.13139667093981486,1.3423050281774824,0.796970484028336,0.2884889375,0.6263624607283577
0.013000000000000001,1.7957750000000001,1.0,1772.083653588266,0.13626884850924673,1.3414759900753408,0.8081055866122144,0.28847555,0.6281701154402608
0.0135,1.79544375,1.0,1829.5707807238261,0.14111369793805376,1.340683060355613,0.8183482681736372,0.2884616375,0.629894937457697
0.014,1.7951000000000001,1.0,1884.37705872564,0.1459313713434614,1.3399238327874332,0.827786489393947,0.2884472,0.6315426910175419
0.0145,1.79474375,1.0,1936.5673881550852,0.1507220208426951,1.3391959011399357,0.8364983962266713,0.2884322375,0.6331190709498309
0.015,1.794375,1.0,1986.2253003382311,0.15548579830784498,1.3384968906561143,0.844553463246021,0.28841675,0.6346296397198424
0.0155,1.79399375,1.0,2033.4366404489715,0.16022285470022418,1.3378246079699565,0.8520135572229861,0.2884007375,0.6360795097255906
0.016,1.7936,1.0,2078.2952806956346,0.16493334119850223,1.3371769534389855,0.8589338056206842,0.2883842,0.6374735397627687
0.0165,1.7931937500000001,1.0,2120.866006538539,0.16961740547190413,1.336552283432701,0.8653634986794861,0.2883671375,0.6388155628706469
0.017,1.792775,1.0,2161.2257012896184,0.17427519518965498,1.3359489543206038,0.8713466434524689,0.28834955,0.640109375289837
0.0175,1.7923437500000001,1.0,2199.4623327443273,0.1789068580209798,1.3353653224721935,0.8769225882326077,0.2883314375,0.6413587387854645
0.018000000000000002,1.7919,1.0,2235.6599036008392,0.18351254020877075,1.3347998858308407,0.882126607237629,0.2883128,0.6425670805091072
0.0185,1.79144375,1.0,2269.9175409172103,0.18809238961458952,1.3342510793711206,0.886990323676444,0.2882936375,0.643737933479722
0.019,1.790975,1.0,2302.308227544087,0.19264655033117256,1.3337176781482432,0.8915422298790253,0.28827395,0.6448740793729133
0.0195,1.79049375,1.0,2332.901711784512,0.19717516534231944,1.3331985535161355,0.895807984850119,0.2882537375,0.6459780737715403
0.02,1.79,1.0,2361.773505003368,0.20167837763182975,1.3326925768287246,0.8998107129353633,0.288233,0.6470524531985434
0.0205,1.78949375,1.0,2389.004397230969,0.20615633018350304,1.3321986194399373,0.9035712883360723,0.2882117375,0.6480997361039531
0.021,1.788975,1.0,2414.6653393140245,0.21060916393412682,1.331715694394763,0.9071086144422964,0.28818995000000003,0.6491221240184956
0.021500000000000002,1.78844375,1.0,2438.844210781638,0.21503702274639175,1.3312426913925186,0.9104397854813482,0.2881676375,0.6501220644102064
0.022,1.7879,1.0,2461.602355682273,0.21944004567788203,1.3307787922708092,0.9135803639109527,0.2881448,0.6511013730352834
0.0225,1.78734375,1.0,2482.9975457108717,0.22381837073971664,1.3303232423235545,0.9165444982719725,0.28812143749999997,0.652061720602214
0.023,1.786775,1.0,2503.0902709765273,0.22817213594301436,1.329875286844674,0.9193450601428131,0.28809755,0.6530047676311993
0.0235,1.78619375,1.0,2521.943512150107,0.2325014792988941,1.3294341711280873,0.9219937770608846,0.28807313749999996,0.6539321648378511
0.024,1.7856,1.0,2539.6177765469165,0.23680653793103937,1.3289991852160712,0.9245013577133393,0.2880482,0.6548454595891623
0.0245,1.78499375,1.0,2556.1712430904554,0.24108744835929682,1.3285696599086863,0.9268775943386383,0.2880227375,0.6557461051897011
0.025,1.784375,1.0,2571.673966453699,0.2453443488134229,1.3281448314521975,0.9291314318725836,0.28799675,0.6566357448699263
0.025500000000000002,1.78374375,1.0,2586.1688754389097,0.24957737200987204,1.3277242055751832,0.9312711096910614,0.2879702375,0.6575154498728158
0.026000000000000002,1.7831000000000001,1.0,2599.700160180434,0.25378665066509876,1.3273072880062227,0.9333041873404051,0.2879432,0.6583862857717206
0.0265,1.78244375,1.0,2612.3131669341974,0.25797231749555743,1.326893584473894,0.9352376098038093,0.2879156375,0.6592493125950545
0.027,1.781775,1.0,2624.0542982837046,0.2621345052177026,1.3264826007067765,0.9370777657065645,0.28788755,0.6601055849353941
0.0275,1.7810937500000001,1.0,2634.970918762854,0.2662733465479887,1.3260738424334482,0.9388305392997677,0.2878589375,0.6609561520430065
0.028,1.7804,1.0,2645.105919982716,0.27038897014854557,1.3256668647438838,0.9405013625650174,0.2878298,0.6618019553822987
0.0285,1.77969375,1.0,2654.5071103800633,0.27448151175578706,1.3252611843353768,0.9420952480668694,0.2878001375,0.6626440113671813
0.029,1.778975,1.0,2663.2074226716923,0.2785510987405905,1.3248564613046867,0.9436168461104839,0.28776995,0.6634830342748617
0.029500000000000002,1.7782437500000001,1.0,2671.2401144996606,0.28259785832281825,1.3244523577403995,0.9450704601643913,0.2877392375,0.6643197307292596
0.03,1.7775,1.0,2678.6389355348347,0.28662191772233303,1.3240485357311,0.9464600769682827,0.287708,0.6651548038601084
0.0305,1.77674375,1.0,2685.4380818079812,0.2906234041589973,1.3236446573653744,0.9477893938639212,0.2876762375,0.6659889533126575
0.031,1.775975,1.0,2691.67215257292,0.29460244485267356,1.3232403847318073,0.9490618434445901,0.28764395,0.666822875250106
0.0315,1.7751937500000001,1.0,2697.369518380679,0.2985591627355274,1.3228354401873301,0.9502806219846287,0.2876111375,0.6676571382622857
0.032,1.7744,1.0,2702.557471714637,0.30249368231002455,1.3224295586694674,0.9514487049379866,0.2875778,0.668492282194555
0.0325,1.77359375,1.0,2707.2807898386177,0.3064061407701217,1.322022317949465,0.9525688479518192,0.2875439375,0.6693291669083344
0.033,1.772775,1.0,2711.5593177065475,0.31029665832387626,1.3216135258356279,0.9536436416365213,0.28750955,0.6701681760190559
0.0335,1.7719437500000002,1.0,2715.4130818468534,0.31416535517934574,1.3212029901362605,0.9546755028529617,0.2874746375,0.6710096910954251
0.034,1.7711000000000001,1.0,2718.862273327666,0.31801235154458757,1.3207905186596673,0.9556666884339015,0.2874392,0.6718540916392272
0.0345,1.7702437500000001,1.0,2721.9272315407916,0.32183776762765914,1.3203759192141533,0.9566193076675512,0.2874032375,0.6727017550627752
0.035,1.7693750000000001,1.0,2724.628428805,0.32564172363661786,1.319958999608023,0.9575353336679442,0.28736675,0.6735530566640088
0.035500000000000004,1.76849375,1.0,2726.9864557881538,0.32942433977952124,1.3195395676495811,0.9584166137430371,0.2873297375,0.6744083695992308
0.036000000000000004,1.7676,1.0,2729.022007748197,0.33318573626442666,1.3191174311471323,0.9592648788592902,0.2872922,0.6752680648534926
0.0365,1.76669375,1.0,2730.7558715931095,0.3369260332993915,1.318692397908981,0.9600817522908185,0.2872541375,0.6761325112086214
0.037,1.765775,1.0,2732.208913760018,0.34064535109247335,1.318264275743432,0.9608687575317353,0.28721555,0.6770020752088926
0.0375,1.76484375,1.0,2733.3918874706346,0.34434380240562756,1.3178329649382599,0.9616273329961401,0.2871764375,0.6778769336688613
0.038,1.7639,1.0,2734.3267029046197,0.3480215110071807,1.3173982649190377,0.9623588233327596,0.28713679999999997,0.6787574662831135
0.0385,1.76294375,1.0,2735.0325878923013,0.35167859644132804,1.316959999931756,0.9630644948783658,0.28709663750000003,0.6796440001379502
0.039,1.761975,1.0,2735.5206276333574,0.3553151714916668,1.3165180685216802,0.9637455452617067,0.28705595,0.6805367101380898
0.0395,1.7609937500000001,1.0,2735.8019382710986,0.35893134894179424,1.3160723692340757,0.9644031026667754,0.2870147375,0.6814357697919584
0.04,1.76,1.0,2735.8876625551957,0.3625272415753074,1.3156228006142077,0.965038230598411,0.286973,0.6823413511876407
0.0405,1.7589937500000001,1.0,2735.7889657333453,0.36610296217580357,1.3151692612073413,0.9656519322721686,0.2869307375,0.6832536249681718
0.041,1.757975,1.0,2735.5170316704566,0.36965862352687995,1.3147116495587423,0.966245154661724,0.28688795,0.6841727603061715
0.0415,1.75694375,1.0,2735.083059196511,0.3731943384121336,1.3142498642136757,0.9668187922338363,0.2868446375,0.6850989248778265
0.042,1.7559,1.0,2734.498258682764,0.3767102196151619,1.3137838037174068,0.9673736903979758,0.28680079999999997,0.6860322848362115
0.0425,1.75484375,1.0,2733.773848845806,0.3802063799195619,1.3133133666152008,0.9679106486951267,0.2867564375,0.6869730047839566
0.043000000000000003,1.753775,1.0,2732.916700551643,0.3836829262738311,1.3128384909967623,0.9684304260364595,0.28671155,0.6879211688484332
0.043500000000000004,1.75269375,1.0,2731.937704779106,0.3871399730215785,1.3123590784790227,0.968933739266948,0.28666613750000003,0.688876932690484
0.044,1.7516,1.0,2730.8485427381493,0.39057763429279424,1.3118750235060905,0.9694212669441431,0.2866202,0.6898404646462867
0.0445,1.75049375,1.0,2729.6553193440623,0.3939960160439212,1.311386271188088,0.9698936550540118,0.2865737375,0.690811830725697
0.045,1.7493750000000001,1.0,2728.364140445606,0.3973952242314024,1.3108927666351367,0.9703515163435158,0.28652675,0.6917910958353013
0.0455,1.74824375,1.0,2726.981111705096,0.40077536481168063,1.3103944549573592,0.970795432350773,0.2864792375,0.6927783237618748
0.046,1.7471,1.0,2725.5123375454436,0.40413654374119884,1.3098912812648773,0.9712259552922555,0.2864312,0.6937735771556528
0.0465,1.7459437500000001,1.0,2723.9639201632167,0.4074788669763999,1.3093831906678128,0.9716436098183645,0.28638263750000004,0.6947769175134049
0.047,1.744775,1.0,2722.3419586090217,0.41080244047372677,1.3088701282762885,0.9720488946477405,0.28633355,0.6957884051613173
0.0475,1.74359375,1.0,2720.6525479351462,0.41410737018962235,1.3083520392004258,0.9724422840897448,0.28628393750000003,0.6968080992376884
0.048,1.7424,1.0,2718.9017784086577,0.41739376208052953,1.3078288685503467,0.9728242294637505,0.2862338,0.6978360576754252
0.0485,1.74119375,1.0,2717.094730311771,0.42066172162468246,1.3073005705873466,0.9731951610011317,0.2861831375,0.6988723192496531
0.049,1.739975,1.0,2715.2365447094016,0.4239113513799789,1.3067670989751818,0.973555488081268,0.28613195,0.699916922788109
0.0495,1.73874375,1.0,2713.3317835182656,0.42714275342560776,1.3062284126084849,0.9739056011112688,0.2860802375,0.7009698957630343
0.05,1.7375,1.0,2711.3827235602716,0.43035602960216945,1.3056844911760765,0.9742458736590333,0.286028,0.7020312240255842
0.0505,1.73624375,1.0,2709.3919006545466,0.43355128160012235,1.3051353119852125,0.974576661856021,0.2859752375,0.7031008972566551
0.051000000000000004,1.734976776767588,1.0,2707.4523338749273,0.43672861026534643,1.3045808289229648,0.9748983039034315,0.2859220246242387,0.7041789497850754
0.051500000000000004,1.7337084415398796,1.0,2705.9980943240002,0.43988811797009114,1.304021306351288,0.9752111429065471,0.2858687545446749,0.7052648127693122
0.052000000000000005,1.7324401063121713,1.0,2705.0585135348083,0.44302990349003873,1.30345708798301,0.9755155112014641,0.2858154844651112,0.7063577670691061
0.0525,1.731171771084463,1.0,2704.5956825863477,0.4461540656008714,1.3028885175309581,0.9758117263059097,0.28576221438554744,0.7074570980481456
0.053,1.7299034358567547,1.0,2704.5718383176586,0.4492607030782714,1.3023159387079604,0.9761000917180643,0.2857089443059837,0.7085620956732295
0.0535,1.7286351006290464,1.0,2704.9493314719143,0.45234991469792074,1.301739695226844,0.9763808976658387,0.28565567422641996,0.7096720546059032
0.054,1.7273667654013378,1.0,2705.696456489846,0.45542179776636815,1.3011600773102854,0.9766544183956518,0.28560240414685617,0.7107863770231599
0.0545,1.7260984301736295,1.0,2706.7777550080177,0.4584764513108018,1.300577410007807,0.9769209186716168,0.28554913406729243,0.7119044024011439
0.055,1.7248300949459212,1.0,2708.16923426002,0.4615139709875634,1.2999919140882363,0.9771806454519362,0.2854958639877287,0.71302567436759
0.0555,1.723561759718213,1.0,2709.8478135821038,0.4645344521938769,1.2994038022846368,0.977433834812605,0.28544259390816495,0.7141497550303002
0.056,1.7222934244905046,1.0,2711.790431498796,0.467537990326966,1.2988132873300722,0.9776807129969621,0.28538932382860116,0.7152762095503691
0.0565,1.721025089262796,1.0,2713.9740338869033,0.4705246807840546,1.2982205819576056,0.9779214969116726,0.2853360537490374,0.7164046061762341
0.057,1.7197567540350878,1.0,2716.380927510798,0.47349461650193403,1.2976258500225861,0.9781563915679204,0.2852827836694737,0.717534609050807
0.0575,1.7184884188073795,1.0,2718.9854622222356,0.47644789515959596,1.2970293278177842,0.9783855982077508,0.28522951358990994,0.7186657475003676
0.058,1.7172200835796712,1.0,2721.7716182314202,0.47938460989940773,1.2964311637350665,0.978609304648796,0.2851762435103462,0.7197977205569968
0.0585,1.7159517483519628,1.0,2724.7266569287685,0.482304852247677,1.2958314761851706,0.978827689426338,0.2851229734307824,0.7209302860271137
0.059000000000000004,1.7146834131242543,1.0,2727.837827734391,0.4852087137307115,1.295230383578834,0.9790409240347174,0.2850697033512187,0.7220632034818067
0.059500000000000004,1.713415077896546,1.0,2731.0923642533726,0.488096285874819,1.2946280043267941,0.9792491732634133,0.28501643327165493,0.7231962342678908
0.06,1.7121467426688377,1.0,2734.4774807429435,0.49096766020630717,1.2940244568397887,0.9794525955145872,0.2849631631920912,0.7243291415180715
0.0605,1.7108784074411294,1.0,2737.980368889763,0.4938229282514838,1.2934198595285553,0.9796513431032461,0.28490989311252746,0.7254616901602133
0.061,1.709610072213421,1.0,2741.594121774086,0.4966621757042727,1.2928142770496989,0.9798455592192018,0.28485662303296366,0.726593747308234
0.0615,1.7083417369857126,1.0,2745.303416779919,0.49948549857274266,1.2922078502255376,0.9800353864673456,0.2848033529533999,0.7277250391153374
0.062,1.7070734017580043,1.0,2749.0960946373975,0.5022929900770112,1.2916006908951367,0.9802209603764095,0.2847500828738362,0.7288553477980833
0.0625,1.705805066530296,1.0,2752.9666121107102,0.5050847366239578,1.2909928507444963,0.9804024078037779,0.28469681279427245,0.7299845689272682
0.063,1.7045367313025876,1.0,2756.9094131455895,0.5078608246204613,1.2903843814596165,0.9805798509324534,0.2846435427147087,0.7311125988658034
0.0635,1.7032683960748793,1.0,2760.9189281188646,0.5106213404734012,1.2897753347264977,0.9807534074794063,0.2845902726351449,0.7322393347708743
0.064,1.7020000608471708,1.0,2764.989573147186,0.5133663705896566,1.2891657622311403,0.9809231908931701,0.2845370025555812,0.7333646745959299
0.0645,1.7007317256194625,1.0,2769.115749454674,0.5160960013761066,1.2885557156595446,0.9810893105413087,0.28448373247601744,0.7344885170925001
0.065,1.6994633903917542,1.0,2773.291842800235,0.5188103192396304,1.2879452466977108,0.9812518718883481,0.28443046239645364,0.7356107618118446
0.0655,1.698195055164046,1.0,2777.5122229638355,0.5215094105871072,1.287334407031639,0.9814109766647201,0.2843771923168899,0.7367313091064298
0.066,1.6969267199363376,1.0,2781.771243292081,0.5241933618254163,1.2867232483473299,0.9815667230272347,0.28432392223732617,0.7378500601312354
0.0665,1.695658384708629,1.0,2786.0632403029836,0.5268622593614368,1.2861118223307835,0.9817192057115643,0.2842706521577624,0.7389669168448922
0.067,1.6943900494809208,1.0,2790.3894355737402,0.5295161729892299,1.2855001186176453,0.9818685120743201,0.2842173820781987,0.7400818949914236
0.0675,1.6931217142532125,1.0,2794.738948997403,0.5321552087686583,1.284888235588329,0.9820147340795671,0.2841641119986349,0.7411948125745176
0.068,1.6918533790255041,1.0,2799.109139118439,0.5347794490790485,1.2842761973706878,0.9821579554762784,0.28411084191907116,0.7423056237514725
0.0685,1.6905850437977958,1.0,2803.4981606986717,0.5373889741079234,1.2836640208776964,0.9822982567009986,0.2840575718395074,0.7434142961080926
0.069,1.6893167085700873,1.0,2807.9041627313322,0.539983864042806,1.2830517230223302,0.9824357154920066,0.2840043017599437,0.7445207974939096
0.0695,1.688048373342379,1.0,2812.3252883923797,0.542564199071219,1.2824393207175644,0.982570406998934,0.28395103168037994,0.7456250960223241
0.07,1.6867800381146707,1.0,2816.7596749982276,0.5451300593806855,1.281826830876374,0.9827024038872105,0.28389776160081615,0.7467271600707259
0.07050000000000001,1.6855117028869624,1.0,2821.205453969751,0.5476815251587283,1.281214270411734,0.9828317764376199,0.2838444915212524,0.7478269582806001
0.07100000000000001,1.684243367659254,1.0,2825.66075080243,0.5502186765928703,1.2806016562366196,0.982958592641225,0.28379122144168867,0.7489244595576083
0.07150000000000001,1.6829750324315456,1.0,2830.123685043173,0.5527415938706345,1.279989005264006,0.9830829182899056,0.28373795136212493,0.7500196330716596
0.07200000000000001,1.6817066972038373,1.0,2834.5923702734117,0.5552503571795437,1.2793763344068683,0.9832048170627411,0.2836846812825612,0.751112448256957
0.0725,1.680438361976129,1.0,2839.064914098377,0.5577450467071208,1.2787636605781814,0.983324350608454,0.2836314112029974,0.7522028748120296
