Time [s],Phi [rad],STIM [ ],Fsee [N],Gamma [ ],Lcerel [ ],q [ ],Lmtc [m],fisomrel [ ]
0.0,1.8,1.0,17.970373666585672,5.215734446477839e-05,1.379339385992413,0.005000715642058385,0.288653,0.5411404025347548
0.0005,1.79999375,1.0,18.293688385714304,0.005661074091817385,1.3793005060503383,0.013057963807173008,0.2886527375,0.5412344582587925
0.001,1.799975,1.0,21.666625808515963,0.011238529250932784,1.3789333774195762,0.035828586137942535,0.28865195,0.5421221156804624
0.0015,1.79994375,1.0,31.18424596391572,0.016784699297343705,1.3780364143264023,0.0709026546993397,0.2886506375,0.5442872112348108
0.002,1.7999,1.0,53.83059060848761,0.022299759714866394,1.3763520481741842,0.11507412749103878,0.2886488,0.548339081106813
0.0025,1.79984375,1.0,97.53641593431664,0.027783885003453933,1.3739150715501092,0.1649622158033372,0.28864643749999996,0.5541693854198877
0.003,1.7997750000000001,1.0,161.50169513186694,0.03323724868652436,1.371194016120589,0.21767999700093746,0.28864354999999997,0.5606345739676908
0.0035,1.79969375,1.0,238.2976155872456,0.038660023310861664,1.3685658248693808,0.27101025552049024,0.2886401375,0.5668342880687274
0.004,1.7996,1.0,322.1204014214917,0.04405238045731423,1.366138789022998,0.3233005465846533,0.2886362,0.5725203672601169
0.0045000000000000005,1.7994937500000001,1.0,409.94466625489673,0.04941449074600377,1.363906930945299,0.3733997216449362,0.2886317375,0.5777160255420072
0.005,1.799375,1.0,500.10423676162117,0.05474652382761355,1.3618436694082874,0.4205891395094037,0.28862675,0.5824909403990626
0.0055,1.79924375,1.0,591.4873081519731,0.060048648428632535,1.3599252234904131,0.46449003587478965,0.2886212375,0.5869063568092352
0.006,1.7991000000000001,1.0,683.2159108797831,0.06532103229991983,1.3581337337947865,0.504970671019771,0.2886152,0.5910083823922353
0.006500000000000001,1.79894375,1.0,774.5774450926759,0.07056384226796862,1.356455371916062,0.5420665378045694,0.2886086375,0.5948328055873151
0.007,1.798775,1.0,864.9761590840269,0.07577724421892165,1.354879245891898,0.5759189614503247,0.28860155,0.5984079108265239
0.0075,1.79859375,1.0,953.9190107474003,0.08096140302868474,1.3533963866020784,0.6067302076384083,0.2885939375,0.601756995971283
0.008,1.7984,1.0,1041.027093256607,0.08611648301230246,1.351998803568615,0.6347321602770067,0.2885858,0.6049006450454835
0.0085,1.79819375,1.0,1125.969378765136,0.09124264689792029,1.3506799683150572,0.6601661933045874,0.2885771375,0.6078557392300716
0.009000000000000001,1.797975,1.0,1208.5094210289171,0.09634005691100472,1.3494337115534978,0.6832695819167282,0.28856795,0.6106380141261063
0.0095,1.79774375,1.0,1288.4888341976837,0.1014088749101123,1.3482542297272966,0.7042678576500226,0.2885582375,0.6132620901691561
0.01,1.7975,1.0,1365.7577087786976,0.10644926067380692,1.3471367945288055,0.7233710610684766,0.288548,0.6157399422329907
0.0105,1.79724375,1.0,1440.2273310536234,0.11146137365581375,1.346076840236568,0.7407714314274869,0.2885372375,0.6180829740174523
0.011,1.796975,1.0,1511.8616467295878,0.11644537261889053,1.3450699648291415,0.7566431030723924,0.28852595000000003,0.6203020388163745
0.0115,1.79669375,1.0,1580.6498774375034,0.12140141578062072,1.3441121654797792,0.7711427970921515,0.2885141375,0.6224069437781157
0.012,1.7964,1.0,1646.5750637747333,0.12632965917181818,1.343200101714622,0.7844109906025926,0.28850180000000003,0.6244058998184729
0.0125,1.79609375,1.0,1709.6616819354945,0.13123025882329684,1.3423304330598107,0.7965729255881415,0.2884889375,0.6263069980901865
0.013000000000000001,1.7957750000000001,1.0,1769.954743703442,0.13610336960029956,1.3415000133961845,0.807740113772245,0.28847555,0.6281177960791001
0.0135,1.79544375,1.0,1827.5294905812973,0.1409491471759249,1.3407057296862666,0.8180116779318528,0.2884616375,0.6298456816293005
0.014,1.7951000000000001,1.0,1882.424171855602,0.14576774361800918,1.3399452022265885,0.827475946362685,0.2884472,0.6314963631477164
0.0145,1.79474375,1.0,1934.7004772244597,0.15055931098896227,1.339216052268587,0.8362113905870976,0.2884322375,0.6330754779442451
0.015,1.794375,1.0,1984.440367666652,0.15532400124679405,1.3385159142499723,0.8442877664397779,0.28841675,0.6345885707892391
0.0155,1.79399375,1.0,2031.7271615583616,0.16006196504930256,1.33784261437864,0.8517671915782924,0.2884007375,0.6360407139981046
0.016,1.7936,1.0,2076.660616860189,0.1647733539732601,1.3371939847323486,0.858704987670229,0.2883842,0.6374369153709204
0.0165,1.7931937500000001,1.0,2119.304715658361,0.1694583156702971,1.33656838597819,0.8651506384964884,0.2883671375,0.638780999872564
0.017,1.792775,1.0,2159.7355520113706,0.17411699779204387,1.3359641787832564,0.8711483217055866,0.28834955,0.6400767556584572
0.0175,1.7923437500000001,1.0,2198.0403194685337,0.17874954799013087,1.3353797238146394,0.8767375360416004,0.2883314375,0.6413279363967352
0.018000000000000002,1.7919,1.0,2234.303311850064,0.18335611257086853,1.334813512809574,0.8819536857868743,0.2883128,0.6425379835462797
0.0185,1.79144375,1.0,2268.6233004290525,0.18793683934086827,1.334263981436498,0.8868285107958981,0.2882936375,0.6437104295734072
0.019,1.790975,1.0,2301.074550361968,0.19249187257676284,1.3337298895457215,0.891390602909146,0.28827395,0.6448480893616089
0.0195,1.79049375,1.0,2331.7263986266216,0.1970213552482405,1.3332101105787166,0.8956657134295452,0.2882537375,0.6459535146942584
0.02,1.79,1.0,2360.653955837403,0.20152543032498943,1.3327035179769546,0.8996770485730737,0.288233,0.6470292382836678
0.0205,1.78949375,1.0,2387.93762181111,0.20600424077669788,1.3322089851819072,0.9034455552661355,0.2882117375,0.648077774758952
0.021,1.788975,1.0,2413.6491007187064,0.21045792765211996,1.3317255164029178,0.9069901993107751,0.28818995000000003,0.6491013449209743
0.021500000000000002,1.78844375,1.0,2437.8754676619096,0.21488663467684074,1.3312520077707706,0.9103281336337282,0.2881676375,0.6501023831244686
0.022,1.7879,1.0,2460.6794451150777,0.2192905011580826,1.3307876267054017,0.9134749690767856,0.2881448,0.6510827360287239
0.0225,1.78734375,1.0,2482.1185453420194,0.2236696650899052,1.3303316200607218,0.9164449005058154,0.28812143749999997,0.652044071390494
0.023,1.786775,1.0,2502.2530039308276,0.22802426446636817,1.3298832346906406,0.9192508409666339,0.28809755,0.6529880467794634
0.0235,1.78619375,1.0,2521.1455519773194,0.23235443728153116,1.3294417174490682,0.9219045551730825,0.28807313749999996,0.6539163099623989
0.024,1.7856,1.0,2538.8575983312476,0.23666032087030214,1.329006349142573,0.9244167833509173,0.2880482,0.6548304280098067
0.0245,1.78499375,1.0,2555.4445828977173,0.24094205124001153,1.328576485725733,0.9267973518552137,0.2880227375,0.6557318017478546
0.025,1.784375,1.0,2570.980155956627,0.24519976717216754,1.328151329001523,0.9290552265328121,0.28799675,0.6566221469213465
0.025500000000000002,1.78374375,1.0,2585.507138566809,0.24943360136521203,1.3277303853415443,0.9311986713391529,0.2879702375,0.6575025335583
0.026000000000000002,1.7831000000000001,1.0,2599.069615105344,0.25364368651758684,1.3273131611173985,0.9332352680250312,0.2879432,0.6583740260182906
0.0265,1.78244375,1.0,2611.712828075322,0.25783015532773373,1.3268991627006868,0.9351719816613056,0.2879156375,0.6592376831173148
0.027,1.781775,1.0,2623.483078316577,0.26199314049409467,1.3264878964630107,0.937015219071589,0.28788755,0.6600945582371123
0.0275,1.7810937500000001,1.0,2634.4276306186202,0.2661327747151114,1.3260788687759717,0.9387708810165446,0.2878589375,0.6609456994189498
0.028,1.7804,1.0,2644.5888304555488,0.2702491869149289,1.3256716395178005,0.9404444152074274,0.2878298,0.6617920383092724
0.0285,1.77969375,1.0,2654.0148161516186,0.27434251246571323,1.325265722082737,0.9420408470895991,0.2878001375,0.6626345983354454
0.029,1.778975,1.0,2662.7389746756976,0.27841287907131096,1.324860772179052,0.9435648388406822,0.28776995,0.663474102994994
0.029500000000000002,1.7782437500000001,1.0,2670.794469979496,0.2824604139536975,1.3244564525866434,0.9450207053284141,0.2877392375,0.6643112575729951
0.03,1.7775,1.0,2678.214959137207,0.28648524433484823,1.3240524260854099,0.9464124437010578,0.287708,0.6651467638653061
0.0305,1.77674375,1.0,2685.0345466865924,0.29048749743673863,1.3236483554552496,0.947743760816098,0.2876762375,0.6659813201884961
0.031,1.775975,1.0,2691.2877414912828,0.29446730048134423,1.3232439034760608,0.9490180979767779,0.28764395,0.6668156213825226
0.0315,1.7751937500000001,1.0,2697.00388272648,0.29842477688070856,1.3228387835263113,0.9502386583867278,0.2876111375,0.6676502546277152
0.032,1.7744,1.0,2702.2104180855135,0.30236005093390256,1.3224327290430637,0.9514084245622348,0.2875778,0.6684857628885276
0.0325,1.77359375,1.0,2706.950081886477,0.30627325917654197,1.322025336362229,0.952530160896304,0.2875439375,0.669322967923448
0.033,1.772775,1.0,2711.2430152845895,0.3101645219461555,1.321616410484827,0.9536064637817641,0.28750955,0.6701622592693091
0.0335,1.7719437500000002,1.0,2715.1095432750303,0.3140339595802718,1.321205756411878,0.9546397554011243,0.2874746375,0.6710040243873512
0.034,1.7711000000000001,1.0,2718.5701573365172,0.31788169241641945,1.3207931791444025,0.9556322974900037,0.2874392,0.6718486486429441
0.0345,1.7702437500000001,1.0,2721.6454989184394,0.32170784079212705,1.3203784836834205,0.9565862038584113,0.2874032375,0.6726965152828837
0.035,1.7693750000000001,1.0,2724.3563437703597,0.3255125250449234,1.3199614750299526,0.957503451795029,0.28736675,0.6735480054102583
0.035500000000000004,1.76849375,1.0,2726.723587115541,0.32929586551233697,1.3195419581850187,0.958385892465828,0.2873297375,0.6744034979568997
0.036000000000000004,1.7676,1.0,2728.7682296663093,0.3330579825318965,1.3191197381496393,0.9592352604061565,0.2872922,0.6752633696533981
0.0365,1.76669375,1.0,2730.511364483706,0.33679899644113054,1.3186946199248348,0.9600531821947024,0.2872541375,0.6761279949966998
0.037,1.765775,1.0,2731.9741646792413,0.34051902757756786,1.3182664085116251,0.9608411843882523,0.28721555,0.6769977462152785
0.0375,1.76484375,1.0,2733.1644492477744,0.34421818549017036,1.3178350308364497,0.9616007104135731,0.2871764375,0.6778727460879881
0.038,1.7639,1.0,2734.111053461744,0.3478966004235579,1.3174002233987627,0.9623331030029719,0.28713679999999997,0.6787535018699474
0.0385,1.76294375,1.0,2734.827646114262,0.3515543875771982,1.3169618609248483,0.9630396351786609,0.28709663750000003,0.6796402382622995
0.039,1.761975,1.0,2735.325433499131,0.3551916598772479,1.3165198408406713,0.963721506923975,0.28705595,0.680533132507003
0.0395,1.7609937500000001,1.0,2735.615653225431,0.3588085302498636,1.316074060572196,0.9643798486135737,0.2870147375,0.68143236043815
0.04,1.76,1.0,2735.7095698133976,0.362405111621202,1.3156244175453862,0.9650157257921296,0.286973,0.6823380964577033
0.0405,1.7589937500000001,1.0,2735.618470524541,0.36598151691741976,1.3151708091862064,0.9656301435761019,0.2869307375,0.6832505135105608
0.041,1.757975,1.0,2735.353661424469,0.3695378590646735,1.3147131329206212,0.9662240507119927,0.28688795,0.6841697830589523
0.0415,1.75694375,1.0,2734.9264636792263,0.37307425098911995,1.314251286174595,0.9667983433212013,0.2868446375,0.6850960750561633
0.042,1.7559,1.0,2734.348210085136,0.3765908056169157,1.3137851663740916,0.9673538683586853,0.28680079999999997,0.6860295579195907
0.0425,1.75484375,1.0,2733.630241831686,0.3800876358742174,1.3133146709450756,0.9678914268100142,0.2867564375,0.6869703985031219
0.043000000000000003,1.753775,1.0,2732.7767574175778,0.38356484712052025,1.3128397622478467,0.9684117807286942,0.28671155,0.6879186325150215
0.043500000000000004,1.75269375,1.0,2731.8021752982127,0.3870225569330181,1.3123603098563226,0.9689156461529654,0.28666613750000003,0.6888744796762186
0.044,1.7516,1.0,2730.717730192248,0.39046087733540286,1.3118762122633172,0.9694037028993243,0.2866202,0.6898381002049947
0.0445,1.75049375,1.0,2729.5294447637502,0.3938799143363741,1.3113874153210954,0.9698765982092771,0.2865737375,0.6908095586085703
0.045,1.7493750000000001,1.0,2728.243342674273,0.3972797739446312,1.3108938648819215,0.9703349460082499,0.28652675,0.691788918299686
0.0455,1.74824375,1.0,2726.8654474797418,0.4006605621688737,1.3103955067980606,0.970779328941226,0.2864792375,0.6927762415802778
0.046,1.7471,1.0,2725.4017815926154,0.404022385017801,1.3098922869217777,0.9712103002649827,0.2864312,0.69377158962497
0.0465,1.7459437500000001,1.0,2723.8583653091823,0.4073653485001126,1.309384151105337,0.9716283856083088,0.28638263750000004,0.6947750224643814
0.047,1.744775,1.0,2722.241215900811,0.41068955862450784,1.3088710452010037,0.9720340846105919,0.28633355,0.6957865989682382
0.0475,1.74359375,1.0,2720.5563467721113,0.4139951213996863,1.3083529150610425,0.9724278724482479,0.28628393750000003,0.6968063768283086
0.048,1.7424,1.0,2718.8097666820086,0.41728214283434745,1.3078297065377178,0.9728102012576558,0.2862338,0.6978344125411433
0.0485,1.74119375,1.0,2716.9958432154767,0.42055072814203615,1.307301471491448,0.9731815087477478,0.2861831375,0.6988705536326238
0.049,1.739975,1.0,2715.141371244207,0.42380098031273905,1.3067679663428526,0.9735421912011147,0.28613195,0.6999152258478012
0.0495,1.73874375,1.0,2713.2596012432505,0.427033001845724,1.3062290706743767,0.9738926345871284,0.2860802375,0.7009686105673075
0.05,1.7375004285234468,1.0,2711.346792077582,0.430246894104346,1.3056850123968349,0.9742332301098082,0.2860280179979848,0.702030207895239
0.0505,1.736253701608562,1.0,2709.8069904059853,0.43344275845196006,1.3051360194210417,0.9745643508488472,0.2859756554675596,0.7030995205736021
0.051000000000000004,1.7350069746936772,1.0,2708.783452622628,0.43662069625192107,1.304582319657812,0.9748863527669763,0.2859232929371344,0.7041760540556967
0.051500000000000004,1.7337602477787923,1.0,2708.249769836863,0.4397808079979224,1.3040241514255662,0.975199576230838,0.2858709304067093,0.7052592963965703
0.052000000000000005,1.7325135208639073,1.0,2708.1551281928955,0.4429231949023086,1.30346197709673,0.9755043606934469,0.2858185678762841,0.7063483050272441
0.0525,1.7312667939490225,1.0,2708.464889255757,0.44604795592558605,1.3028961125308598,0.9758010209637012,0.28576620534585895,0.7074424267018262
0.053,1.7300200670341377,1.0,2709.1493253385406,0.4491551892002809,1.3023268295866535,0.9760898551239707,0.28571384281543377,0.7085410972961818
0.0535,1.7287733401192527,1.0,2710.178775706498,0.4522449928589193,1.3017544001228087,0.9763711482348849,0.2856614802850086,0.7096437563983542
0.054,1.7275266132043678,1.0,2711.5236267924474,0.45531746503402737,1.301179095998023,0.9766451730227037,0.2856091177545834,0.7107498473654773
0.0545,1.726279886289483,1.0,2713.1581048265007,0.458372702710152,1.3006011543283031,0.9769121883119246,0.2855567552241583,0.7118588839811597
0.055,1.7250331593745982,1.0,2715.0549079110297,0.4614108039722793,1.300020826319145,0.9771724428908213,0.2855043926937331,0.7129703564246728
0.0555,1.7237864324597132,1.0,2717.194667313984,0.4644318640793458,1.2994382909230628,0.9774261705403742,0.28545203016330795,0.7140838964575102
0.056,1.7225397055448284,1.0,2719.558729327888,0.4674359780360274,1.2988537206113444,0.9776735949033878,0.28539966763288277,0.7151991507549633
0.0565,1.7212929786299436,1.0,2722.1284364751027,0.470423240847,1.2982672878552775,0.9779149303948933,0.28534730510245765,0.7163157684804116
0.057,1.7200462517150585,1.0,2724.8866275322093,0.4733937465425132,1.2976791514121624,0.9781503817879078,0.2852949425720325,0.7174334273422669
0.0575,1.7187995248001737,1.0,2727.82190989256,0.47634758578300423,1.2970894174542509,0.9783801422727297,0.2852425800416073,0.7185519070047637
0.058,1.717552797885289,1.0,2730.9053804408027,0.47928486156847394,1.2964983512093757,0.9786044073107705,0.2851902175111821,0.7196706879149288
0.0585,1.716306070970404,1.0,2734.1276984672486,0.48220566441527707,1.2959060397648379,0.978823353575234,0.28513785498075694,0.7207895906590887
0.059000000000000004,1.715059344055519,1.0,2737.4795114639483,0.4851100848397686,1.2953125702079382,0.9790371507724152,0.28508549245033177,0.7219084371083596
0.059500000000000004,1.7138126171406343,1.0,2740.9514528045297,0.4879982133583032,1.2947180296259775,0.9792459619734218,0.28503312991990665,0.7230270504253236
0.06,1.7125658902257495,1.0,2744.534139591701,0.49087014048723576,1.2941225051062568,0.9794499439276344,0.28498076738948147,0.7241452550702167
0.0605,1.7113191633108646,1.0,2748.2181706742163,0.4937259567429212,1.2935260837360767,0.9796492473590337,0.2849284048590563,0.725262876806638
0.061,1.7100724363959796,1.0,2751.994124830288,0.49656575264171426,1.292928852602738,0.979844017246468,0.2848760423286312,0.726379742706771
0.0615,1.7088257094810948,1.0,2755.852559120204,0.49938961869996984,1.292330898793542,0.9800343930888361,0.284823679798206,0.7274956811561222
0.062,1.70757898256621,1.0,2759.784007407063,0.5021976454340427,1.291732309395789,0.9802205091561114,0.2847713172677808,0.7286105218577793
0.0625,1.706332255651325,1.0,2763.784611897793,0.5049899153047044,1.2911331206148153,0.980402491479829,0.28471895473735565,0.7297241903095644
0.063,1.7050855287364401,1.0,2767.843615978332,0.5077665246377053,1.2905334308454144,0.9805804656812848,0.28466659220693047,0.7308364973252321
0.0635,1.7038388018215553,1.0,2771.952657812549,0.5105275657273085,1.2899333166108193,0.9807545513696592,0.2846142296765053,0.7319472956602373
0.064,1.7025920749066705,1.0,2776.1081923742377,0.5132731232809444,1.2893328108057889,0.9809248610567688,0.28456186714608017,0.7330565197424157
0.0645,1.7013453479917855,1.0,2780.3066647857095,0.5160032820060438,1.2887319463250821,0.9810915032065096,0.284509504615655,0.7341641045004141
0.065,1.7000986210769007,1.0,2784.544510044738,0.5187181266100372,1.2881307560634583,0.9812545824109116,0.2844571420852298,0.7352699853644767
0.0655,1.6988518941620159,1.0,2788.8181527747633,0.5214177418003553,1.2875292729156758,0.9814141995573168,0.28440477955480464,0.7363740982671647
0.066,1.6976051672471308,1.0,2793.1240069992878,0.5241022122844287,1.286927529776494,0.9815704519871907,0.2843524170243795,0.7374763796440025
0.0665,1.696358440332246,1.0,2797.458475940062,0.526771622769688,1.2863255595406715,0.9817234336470375,0.28430005449395435,0.7385767664340606
0.067,1.6951117134173612,1.0,2801.817951839959,0.5294260579635639,1.2857233951029676,0.981873235231868,0.28424769196352917,0.7396751960804638
0.0675,1.6938649865024764,1.0,2806.198815808845,0.532065602573487,1.2851210693581412,0.98201994432164,0.284195329433104,0.7407716065308356
0.068,1.6926182595875914,1.0,2810.597437694239,0.5346903413068879,1.2845186152009511,0.9821636455110561,0.2841429669026788,0.7418659362376694
0.0685,1.6913715326727066,1.0,2815.0101759754925,0.5373003588711972,1.2839160655261563,0.9823044205330914,0.28409060437225364,0.7429581241586329
0.069,1.6901248057578218,1.0,2819.4391523283966,0.5398957167192854,1.2833134015831202,0.9824423444817149,0.2840382418418285,0.7440482030720716
0.0695,1.6888780788429367,1.0,2823.8760979381113,0.5424765277073775,1.2827106975347022,0.982577497505413,0.28398587931140334,0.7451360379446496
0.07,1.687631351928052,1.0,2828.319508572166,0.5450428720221139,1.2821079669073066,0.9827099522586485,0.28393351678097817,0.7462216039777616
0.07050000000000001,1.686384625013167,1.0,2832.7683560470205,0.5475948276584929,1.281505218937411,0.9828397786799519,0.28388115425055305,0.7473048842825265
0.07100000000000001,1.6851378980982823,1.0,2837.2216089291337,0.5501324726115131,1.280902462861493,0.9829670444294515,0.28382879172012787,0.7483858621120778
0.07150000000000001,1.6838911711833973,1.0,2841.678232532597,0.552655884876173,1.28029970791603,0.9830918149787603,0.2837764291897027,0.7494645208615696
0.07200000000000001,1.6826444442685125,1.0,2846.137188918148,0.5551651424474712,1.2796969633375002,0.983214153696741,0.2837240666592775,0.7505408440681796
0.0725,1.6813977173536276,1.0,2850.5974368944835,0.5576603233204058,1.2790942383623805,0.98333412193137,0.28367170412885234,0.7516148154111058
