Time [s],Phi [rad],STIM [ ],Fsee [N],Gamma [ ],Lcerel [ ],q [ ],Lmtc [m],fisomrel [ ]
0.0,1.8,1.0,18.15662147289434,0.0004421210886935374,1.3793185756577415,0.005050556594411921,0.288653,0.5411907466868056
0.0005,1.79999375,1.0,18.602712915578156,0.006048850447869086,1.3792663390278197,0.014183599270157492,0.2886527375,0.5413171048483256
0.001,1.799975,1.0,22.264987658377702,0.011624130488265194,1.3788727473918647,0.03789583040650509,0.28865195,0.5422686265425392
0.0015,1.79994375,1.0,32.418342051227505,0.017168137616628415,1.377932485888765,0.07370936181797975,0.2886506375,0.544537742697508
0.002,1.7999,1.0,56.326780780357225,0.022681047248119316,1.3761923127852145,0.11838330769768836,0.2886488,0.5487223973256102
0.0025,1.79984375,1.0,101.59524677665661,0.028163033815634883,1.3737218944133123,0.1685528955276826,0.28864643749999996,0.5546299286866234
0.003,1.7997750000000001,1.0,166.69799443247163,0.0336142707731115,1.3710013785198572,0.22137816721643522,0.28864354999999997,0.5610904883174925
0.0035,1.79969375,1.0,244.11817839897233,0.03903493060206605,1.368387847615946,0.27468424550303694,0.2886401375,0.5672525310232482
0.004,1.7996,1.0,328.28521426369576,0.044425184815224714,1.3659764454842676,0.32685491963916036,0.2886362,0.5728993665519801
0.0045000000000000005,1.7994937500000001,1.0,416.3094667678062,0.049785203960946066,1.3637582232060317,0.37677163897892824,0.2886317375,0.5780610811543074
0.005,1.799375,1.0,506.58692767179883,0.05511515764260695,1.361706451177989,0.4237423591187757,0.28862675,0.5828075356384727
0.0055,1.79924375,1.0,598.0200335599374,0.06041521450161462,1.3597980153647486,0.46740844800586007,0.2886212375,0.5871983040165437
0.006,1.7991000000000001,1.0,689.7456102351831,0.06568554222317863,1.3580153839734663,0.5076521002001043,0.2886152,0.5912786506324346
0.006500000000000001,1.79894375,1.0,781.058813080195,0.07092630756297001,1.3563450108290338,0.5445179391093059,0.2886086375,0.5950836519682902
0.007,1.798775,1.0,871.3767690824341,0.07613767640496809,1.354776087282937,0.5781527315720549,0.28860155,0.5986413516970976
0.0075,1.79859375,1.0,960.2037453576369,0.08131981342315941,1.3532999137737487,0.6087617755255285,0.2885939375,0.6019743970901204
0.008,1.7984,1.0,1047.1754086840997,0.08647288299330921,1.3519084443054794,0.6365780738745658,0.2885858,0.6051034656457184
0.0085,1.79819375,1.0,1131.9704380582364,0.09159704785786021,1.3505951529577231,0.6618430533818844,0.2885771375,0.6080454040897663
0.009000000000000001,1.797975,1.0,1214.3458479094425,0.09669246999935976,1.3493540798504464,0.68479348318404,0.28856795,0.6108154556500253
0.0095,1.79774375,1.0,1294.142179846619,0.10175931101901978,1.3481795200269846,0.7056539324779934,0.2885582375,0.6134280032964881
0.01,1.7975,1.0,1371.229193401634,0.10679773124171692,1.3470665566453142,0.724633139674252,0.288548,0.6158954249310107
0.0105,1.79724375,1.0,1445.5131818421055,0.11180788964211313,1.3460107573782865,0.7419221538135831,0.2885372375,0.6182288130692111
0.011,1.796975,1.0,1516.9472885907376,0.11678994461297534,1.3450079047445453,0.7576939514964697,0.28852595000000003,0.6204386022441923
0.0115,1.79669375,1.0,1585.5413158543165,0.12174405496512791,1.3440537846145266,0.772103966444944,0.2885141375,0.6225350551416484
0.012,1.7964,1.0,1651.2867828203987,0.1266703768320044,1.3431449999326979,0.785291557339411,0.28850180000000003,0.6245264956032806
0.0125,1.79609375,1.0,1714.192611454899,0.13156906545673042,1.3422784296117392,0.7973810629247595,0.2884889375,0.6264205249442657
0.013000000000000001,1.7957750000000001,1.0,1774.3038011825906,0.13644027608243156,1.341450952564331,0.8084830996545067,0.28847555,0.628224639645762
0.0135,1.79544375,1.0,1831.6810811904757,0.14128416290651838,1.3406596379290414,0.8186960461091716,0.2884616375,0.6299458261672654
0.014,1.7951000000000001,1.0,1886.3990435446083,0.14610088022265053,1.3399017189094447,0.8281073608783522,0.2884472,0.6315906297270564
0.0145,1.79474375,1.0,1938.5106716652738,0.15089057940139394,1.3391749359728804,0.8367949261386824,0.2884322375,0.633164422218726
0.015,1.794375,1.0,1988.0879019602921,0.155653411690024,1.3384770483877122,0.8448279775024367,0.28841675,0.6346724735801733
0.0155,1.79399375,1.0,2035.2142467904266,0.16038952773240817,1.337805891981706,0.8522681352730016,0.2884007375,0.6361198320868751
0.016,1.7936,1.0,2079.98280673037,0.16509907837461626,1.3371593784079043,0.8591703035951297,0.2883842,0.6375113314783023
0.0165,1.7931937500000001,1.0,2122.4804176529474,0.16978221322817,1.336535639257518,0.8655835068504016,0.2883671375,0.6388512867013192
0.017,1.792775,1.0,2162.7749251697455,0.17443907916509727,1.3359331318720788,0.8715516113779366,0.28834955,0.640143274587425
0.0175,1.7923437500000001,1.0,2200.9448245709445,0.17906982305742594,1.3353503135931195,0.8771138407047276,0.2883314375,0.6413908391996059
0.018000000000000002,1.7919,1.0,2237.0783679341575,0.18367459177718395,1.3347856417621717,0.882305321309048,0.2883128,0.6425974938453152
0.0185,1.79144375,1.0,2271.258608425989,0.18825353069501757,1.3342377143746897,0.8871575961373296,0.2882936375,0.6437664231172937
0.019,1.790975,1.0,2303.582474682715,0.19280678688896863,1.3337050686085494,0.8916989896345389,0.28827395,0.644900915768378
0.0195,1.79049375,1.0,2334.1216241656884,0.1973345036031759,1.3331865609800904,0.8959550650047935,0.2882537375,0.646003557341392
0.02,1.79,1.0,2362.9441335861306,0.20183682295422625,1.3326811392637663,0.8999488822451837,0.288233,0.6470767205936305
0.0205,1.78949375,1.0,2390.123138835262,0.20631388705870668,1.332187751234031,0.9037012581218878,0.2882117375,0.6481227612566248
0.021,1.788975,1.0,2415.7364102730735,0.2107658380332041,1.3317053446653375,0.9072310149410612,0.28818995000000003,0.6491440188789849
0.021500000000000002,1.78844375,1.0,2439.8530950103395,0.21519281603828508,1.331232990944909,0.910555224001227,0.2881676375,0.6501425564722253
0.022,1.7879,1.0,2462.5572141622943,0.21959496400492512,1.330769653762137,0.9136893493964988,0.2881448,0.6511206509887628
0.0225,1.78734375,1.0,2483.909919077859,0.22397242053016508,1.330314548077187,0.9166474876789584,0.28812143749999997,0.6520800361242467
0.023,1.786775,1.0,2503.9660982496316,0.22832532270608685,1.32986697438403,0.9194424796424705,0.28809755,0.6530222551362429
0.0235,1.78619375,1.0,2522.783020220184,0.23265380762477245,1.329426233176637,0.922086025126173,0.28807313749999996,0.653948842139834
0.024,1.7856,1.0,2540.4201346409877,0.23695801237830383,1.3289916249489797,0.9245888001496001,0.2880482,0.654861322428029
0.0245,1.78499375,1.0,2556.938809141889,0.2412380740361961,1.3285624508997302,0.9269605607238464,0.2880227375,0.6557612112843187
0.025,1.784375,1.0,2572.390917072254,0.24549412608998974,1.3281381181159222,0.9292102510838528,0.28799675,0.656649794130552
0.025500000000000002,1.78374375,1.0,2586.845886085804,0.24972630822219188,1.3277178839896775,0.931346045171746,0.2879702375,0.6575286623511745
0.026000000000000002,1.7831000000000001,1.0,2600.3451144065402,0.2539347521709782,1.327301281420117,0.9333754848622454,0.2879432,0.6583988239182059
0.0265,1.78244375,1.0,2612.931113812673,0.25811958967452453,1.3268878433063618,0.9353054991508293,0.2879156375,0.6592612815641438
0.027,1.781775,1.0,2624.647415982681,0.26228095247100663,1.3264771025475321,0.9371424621733035,0.28788755,0.6601170328831893
0.0275,1.7810937500000001,1.0,2635.5384836786884,0.2664189722986002,1.3260685920427493,0.9388922450268616,0.2878589375,0.660967070418556
0.028,1.7804,1.0,2645.649626767044,0.270533780895481,1.3256618446911341,0.9405602621217616,0.2878298,0.6618123817358662
0.0285,1.77969375,1.0,2655.0129671293575,0.27462550512590295,1.3252565220130859,0.942151529258087,0.2878001375,0.6626536826784152
0.029,1.778975,1.0,2663.6828365545657,0.2786942809444678,1.3248520867146338,0.9436706583837776,0.28776995,0.6634920974398852
0.029500000000000002,1.7782437500000001,1.0,2671.6978503184127,0.2827402378637117,1.3244481521477145,0.9451219360215234,0.2877392375,0.6643284329334614
0.03,1.7775,1.0,2679.0865851946396,0.28676350145076623,1.3240444284880377,0.9465093449882904,0.287708,0.6651632919829752
0.0305,1.77674375,1.0,2685.878028133816,0.290764197272763,1.3236406259113132,0.947836579039361,0.2876762375,0.6659972744251705
0.031,1.775975,1.0,2692.101539564613,0.29474245089683343,1.3232364545932511,0.9491070674819129,0.28764395,0.666830977110922
0.0315,1.7751937500000001,1.0,2697.786818556956,0.2986983878901091,1.3228316247095613,0.9503239974040152,0.2876111375,0.6676649939011001
0.032,1.7744,1.0,2702.963869847699,0.3026321338197216,1.3224258464359535,0.9514903337758267,0.2875778,0.6684999156570757
0.0325,1.77359375,1.0,2707.6629727290583,0.30654381425280247,1.322018829948138,0.9526088376495995,0.2875439375,0.6693363302258681
0.033,1.772775,1.0,2711.908986658269,0.3104335520234411,1.321610337082523,0.9536820879162557,0.28750955,0.6701747164593941
0.0335,1.7719437500000002,1.0,2715.7276669555886,0.31430147129025865,1.3212001233520216,0.9547124902612927,0.2874746375,0.6710155636436419
0.034,1.7711000000000001,1.0,2719.152149679767,0.31814769907336965,1.3207878787140175,0.9557022845976982,0.2874392,0.6718594925706658
0.0345,1.7702437500000001,1.0,2722.2004792270995,0.32197235450142503,1.3203734321057372,0.9566535777791587,0.2874032375,0.6727068367372149
0.035,1.7693750000000001,1.0,2724.8908236310644,0.3257755567030759,1.319956612464408,0.9575683406836081,0.28736675,0.6735579277433057
0.035500000000000004,1.76849375,1.0,2727.2414618278226,0.3295574248069731,1.3195372487272568,0.9584484185626998,0.2873297375,0.674413095267268
0.036000000000000004,1.7676,1.0,2729.2707715701213,0.3333180779417677,1.3191151698315104,0.9592955404898295,0.2872922,0.675272667038923
0.0365,1.76669375,1.0,2730.997217990545,0.33705763523611065,1.318690204714396,0.9601113279945295,0.2872541375,0.676136968810894
0.037,1.765775,1.0,2732.439342812707,0.340776215818653,1.3182621823131406,0.9608973029616555,0.28721555,0.6770063243280524
0.0375,1.76484375,1.0,2733.615754212519,0.34447393881804583,1.317830931564971,0.9616548948654653,0.2871764375,0.677881055295098
0.038,1.7639,1.0,2734.5382450157654,0.34815091671673576,1.317396343816212,0.9623854520137226,0.28713679999999997,0.6787613550130771
0.0385,1.76294375,1.0,2735.2357636110382,0.3518072744881973,1.3169581550443559,0.9630902306204927,0.28709663750000003,0.6796477294351979
0.039,1.761975,1.0,2735.7181568010456,0.3554431256835031,1.3165162750654789,0.9637704271534173,0.28705595,0.6805403304166905
0.0395,1.7609937500000001,1.0,2735.99453140299,0.359058583304372,1.3160706206834771,0.9644271692413766,0.2870147375,0.6814392944539589
0.04,1.76,1.0,2736.07402006919,0.36265376035252284,1.3156211087022474,0.9650615198715372,0.286973,0.6823447568289673
0.0405,1.7589937500000001,1.0,2735.965777913174,0.36622876982967434,1.315167655925686,0.9656744817766866,0.2869307375,0.6832568515889937
0.041,1.757975,1.0,2735.678979289073,0.3697837247375454,1.314710179157689,0.9662670014803668,0.28688795,0.6841757115259417
0.0415,1.75694375,1.0,2735.2228147243745,0.37331873807785476,1.3142485952021532,0.9668399730297931,0.2868446375,0.6851014681552081
0.042,1.7559035111630563,1.0,2734.781104118917,0.37683392285232126,1.3137828208629747,0.9673942414436395,0.2868009474688484,0.6860342516941146
0.0425,1.7548628802119093,1.0,2734.805111119305,0.3803293834292832,1.3133126404946551,0.9679305935674318,0.2867572409689002,0.6869744556960045
0.043000000000000003,1.7538222492607625,1.0,2735.2352870162795,0.3838052390337138,1.3128387719412544,0.9684498523578401,0.28671353446895204,0.6879206083236218
0.043500000000000004,1.7527816183096154,1.0,2736.0185368056295,0.387261605201706,1.3123616981086779,0.9689527771707652,0.28666982796900387,0.6888717141411453
0.044,1.7517409873584684,1.0,2737.1338438031116,0.39069858810139724,1.311881611139889,0.9694400628105152,0.28662612146905564,0.6898273617116935
0.0445,1.7507003564073214,1.0,2738.560237109367,0.39411629390092506,1.311398703177851,0.969912367882738,0.2865824149691075,0.6907871417702574
0.045,1.7496597254561743,1.0,2740.276779182538,0.3975148287684268,1.3109131663655276,0.9703703170404302,0.2865387084691593,0.6917506472594445
0.0455,1.7486190945050273,1.0,2742.262554230722,0.40089429887204,1.3104251928458819,0.9708145030697106,0.2864950019692111,0.6927174733628733
0.046,1.7475784635538802,1.0,2744.496657421158,0.404254810379902,1.3099349747618778,0.9712454888282206,0.28645129546926296,0.6936872175362059
0.0465,1.7465378326027332,1.0,2746.958184909347,0.4075964694601503,1.309442704256479,0.9716638090478658,0.2864075889693148,0.6946594795358334
0.047,1.7454972016515862,1.0,2749.6262246864235,0.4109193822809224,1.308948573472648,0.9720699720125893,0.2863638824693666,0.6956338614452036
0.0475,1.7444565707004391,1.0,2752.4798482443175,0.41422365501035563,1.3084527745533494,0.9724644611209265,0.28632017596941844,0.6966099676987902
0.048,1.743415939749292,1.0,2755.4981030607496,0.41750939381658747,1.307955499641546,0.9728477363422573,0.2862764694694703,0.6975874051037176
0.0485,1.742375308798145,1.0,2758.662637961245,0.42077670319493193,1.30745691708256,0.9732202337134923,0.2862327629695221,0.6985658295219637
0.049,1.741334677846998,1.0,2761.9626090493216,0.42402568620270986,1.3069571271116045,0.9735823637201769,0.28618905646957393,0.6995450322557089
0.0495,1.740294046895851,1.0,2765.3840562380606,0.42725644774175925,1.3064562579576733,0.9739345196891884,0.2861453499696257,0.7005247511434312
0.05,1.739253415944704,1.0,2768.9180015733987,0.43046908820650065,1.3059543926461135,0.9742770730943774,0.2861016434696776,0.7015048138410327
0.0505,1.7382127849935571,1.0,2772.555450592734,0.4336637079913546,1.3054516142022714,0.9746103783154968,0.28605793696972937,0.7024850490472792
0.051000000000000004,1.73717215404241,1.0,2776.2873905683064,0.4368404074907417,1.3049480056514937,0.9749347735794269,0.28601423046978125,0.7034652865088538
0.051500000000000004,1.736131523091263,1.0,2780.1047889017004,0.4399992870990825,1.3044436500191272,0.9752505818415654,0.285970523969833,0.7044453570249719
0.052000000000000005,1.735090892140116,1.0,2783.9985916734936,0.44314044721079754,1.3039386303305183,0.9755581116116827,0.28592681746988485,0.7054250924515579
0.0525,1.734050261188969,1.0,2787.9597223431892,0.4462639882203074,1.3034330296110137,0.9758576577281941,0.2858831109699367,0.7064043257049799
0.053,1.733009630237822,1.0,2791.987394782351,0.44936999806151967,1.3029268561636471,0.9761494961426029,0.2858394044699885,0.7073830351237533
0.0535,1.731968999286675,1.0,2796.06423357374,0.4524585934275646,1.3024202672717353,0.9764339029396752,0.28579569797004034,0.7083609118089674
0.054,1.7309283683355279,1.0,2800.185842691921,0.45552987009654594,1.3019133032941894,0.9767111330418328,0.28575199147009217,0.7093378740242053
0.0545,1.7298877373843808,1.0,2804.3486501158736,0.45858392250403673,1.3014059970909224,0.976981429915981,0.285708284970144,0.7103138549669225
0.055,1.7288471064332338,1.0,2808.5490737730765,0.46162084508561,1.300898381521847,0.9772450267414156,0.28566457847019583,0.7112887882574397
0.0555,1.7278064754820868,1.0,2812.783521302087,0.4646407322768389,1.3003904894468754,0.9775021469311077,0.28562087197024766,0.7122626079396258
0.056,1.7267658445309397,1.0,2817.0483898390494,0.4676436785132964,1.2998823537259212,0.9777530046224211,0.28557716547029943,0.7132352484815099
0.0565,1.7257252135797927,1.0,2821.340065828688,0.4706297782305557,1.2993740072188966,0.9779978051392882,0.2855334589703513,0.7142066447758293
0.057,1.7246845826286457,1.0,2825.654924857829,0.47359912586418973,1.2988654827857145,0.9782367454277304,0.2854897524704031,0.7151767321405033
0.0575,1.7236439516774986,1.0,2829.9893315148724,0.47655181584977163,1.2983568132862877,0.9784700144664571,0.2854460459704549,0.7161454463190411
0.058,1.7226033207263516,1.0,2834.3396392714326,0.4794879426228744,1.2978480315805287,0.9786977936541644,0.28540233947050675,0.7171127234808812
0.0585,1.7215626897752045,1.0,2838.702190388784,0.48240760061907123,1.2973391705283506,0.9789202571750281,0.2853586329705586,0.7180785002216596
0.059000000000000004,1.7205220588240577,1.0,2843.0756200392466,0.4853108735410333,1.2968302424680405,0.9791375703174998,0.2853149264706104,0.719042752411876
0.059500000000000004,1.7194814278729107,1.0,2847.457936067715,0.48819785434482016,1.296321265283055,0.9793498929918676,0.28527121997066224,0.7200054456028361
0.06,1.7184407969217637,1.0,2851.843462007497,0.4910686539625518,1.2958122895647874,0.9795573821289926,0.28522751347071407,0.7209664838725713
0.0605,1.7174001659706166,1.0,2856.2312484420872,0.49392335943541255,1.295303323746068,0.9797601844327045,0.2851838069707659,0.7219258513537147
0.061,1.7163595350194696,1.0,2860.6203430383184,0.49676205780458693,1.2947943762597263,0.9799584410223473,0.2851401004708177,0.7228835322883895
0.0615,1.7153189040683225,1.0,2865.0097905493344,0.4995848361112592,1.2942854555385916,0.9801522876883714,0.28509639397086955,0.7238395110282003
0.062,1.7142782731171755,1.0,2869.39863281827,0.5023917813966138,1.2937765700154944,0.9803418551343579,0.2850526874709214,0.7247937720342198
0.0625,1.7132376421660285,1.0,2873.785908784683,0.5051829807018351,1.2932677281232638,0.9805272692062903,0.28500898097097316,0.7257462998769751
0.063,1.7121970112148814,1.0,2878.1706544916183,0.5079585210681076,1.29275893829473,0.9807086511098388,0.28496527447102504,0.7266970792364238
0.0635,1.7111563802637344,1.0,2882.551903094219,0.5107184895366155,1.2922502089627224,0.9808861176163668,0.2849215679710768,0.7276460949019297
0.064,1.7101157493125874,1.0,2886.9286848709894,0.5134629731485433,1.291741548560071,0.9810597812583255,0.28487786147112865,0.7285933317722314
0.0645,1.7090751183614403,1.0,2891.3000272353224,0.5161920589450754,1.291232965519605,0.981229750514655,0.2848341549711805,0.7295387748554099
0.065,1.7080344874102933,1.0,2895.6649547492752,0.5189058339673962,1.290724468274155,0.9813961299867757,0.2847904484712323,0.7304824092688452
0.0655,1.7069938564591463,1.0,2900.0224891389585,0.52160438525669,1.29021606525655,0.9815590205657091,0.28474674197128413,0.7314242202391771
0.066,1.7059532255079992,1.0,2904.3716493112943,0.5242877998541412,1.2897077648996198,0.9817185195908367,0.28470303547133596,0.7323641931022533
0.0665,1.7049125945568524,1.0,2908.711451372428,0.5269561648009343,1.2891995756361947,0.9818747210007746,0.2846593289713878,0.7333023133030769
0.067,1.7038719636057054,1.0,2913.0423137997236,0.5296095406068436,1.2886914935357205,0.982027713126164,0.2846156224714396,0.7342385891585301
0.0675,1.7028313326545583,1.0,2917.3633299058492,0.5322480294066084,1.28818352633098,0.9821775845661775,0.28457191597149145,0.7351730074982187
0.068,1.7017907017034113,1.0,2921.673223431283,0.5348717356206308,1.2876756849795108,0.9823244211738582,0.2845282094715433,0.7361055493353612
0.0685,1.7007500707522643,1.0,2925.9718912589674,0.5374807379670561,1.2871679701082164,0.9824683037496519,0.2844845029715951,0.7370362147446637
0.069,1.6997094398011172,1.0,2930.2592301680384,0.54007511516403,1.2866603823440002,0.9826093103822475,0.28444079647164694,0.7379650038086468
0.0695,1.6986688088499702,1.0,2934.5351368356205,0.5426549459296978,1.2861529223137658,0.9827475165584,0.28439708997169877,0.7388919166176401
0.07,1.6976281778988231,1.0,2938.7995078382955,0.5452203089822053,1.2856455906444169,0.9828829952675839,0.28435338347175054,0.7398169532697776
0.07050000000000001,1.696587546947676,1.0,2943.052239654591,0.5477712830396978,1.2851383879628568,0.9830158171017584,0.2843096769718024,0.7407401138709928
0.07100000000000001,1.695546915996529,1.0,2947.2932286656164,0.5503079468203209,1.2846313148959894,0.9831460503504974,0.2842659704718542,0.7416613985350132
0.07150000000000001,1.694506285045382,1.0,2951.522371158186,0.5528303790422202,1.284124372070718,0.9832737610917339,0.28422226397190603,0.7425808073833552
0.07200000000000001,1.693465654094235,1.0,2955.739563325638,0.5553386584235412,1.2836175601139461,0.9833990132783474,0.28417855747195786,0.7434983405453194
