Time [s],Phi [rad],STIM [ ],Fsee [N],Gamma [ ],Lcerel [ ],q [ ],Lmtc [m],fisomrel [ ]
0.0,1.8,1.0,17.978920745095575,0.00010997925843151795,1.3793384286332755,0.005003163207238182,0.288653,0.5411427186289457
0.0005,1.79999375,1.0,18.32129763847338,0.005718571670587064,1.3792974417761492,0.013220406005679083,0.2886527375,0.5412418707336375
0.001,1.799975,1.0,21.737225247941968,0.01129570431375092,1.3789261806161592,0.0361314601595875,0.28865195,0.5421395077922508
0.0015,1.79994375,1.0,31.347181639574465,0.01684155365328728,1.3780225764400842,0.07131623114568787,0.2886506375,0.5443205730280636
0.002,1.7999,1.0,54.177484918399095,0.02235629516278083,1.376329631457752,0.11556328634297539,0.2886488,0.5483928842055885
0.0025,1.79984375,1.0,98.1158314536663,0.027840103332243234,1.3738872519710112,0.16549397566970198,0.28864643749999996,0.5542357232575432
0.003,1.7997750000000001,1.0,162.25316541646234,0.033293151674930514,1.3711659678342947,0.21822833391695773,0.28864354999999997,0.5607009704133653
0.0035,1.79969375,1.0,239.14533361931916,0.03871561272767101,1.3685397697404698,0.27155546436971256,0.2886401375,0.5668955297182448
0.004,1.7996,1.0,323.0214865277231,0.04410765806143063,1.3661149635970948,0.3238283358578995,0.2886362,0.5725759994588582
0.0045000000000000005,1.7994937500000001,1.0,410.87721122194796,0.04946945828656303,1.3638850710656345,0.3739006476592921,0.2886317375,0.5777667571924685
0.005,1.799375,1.0,501.05538143797304,0.05480118304443406,1.3618234812201035,0.4210577356289464,0.28862675,0.5825375269061397
0.0055,1.79924375,1.0,592.446359032689,0.06010300104945279,1.3599065045882375,0.46492384804479536,0.2886212375,0.5869493238363425
0.006,1.7991000000000001,1.0,684.1753255111101,0.06537508004512449,1.3581163092137796,0.5053693230321706,0.2886152,0.5910481794486626
0.006500000000000001,1.79894375,1.0,775.5283560576546,0.07061758683565979,1.3564391515152785,0.5424310535279543,0.2886086375,0.5948696787852945
0.007,1.798775,1.0,865.9166393792204,0.07583068733602778,1.354864064310686,0.5762511294264232,0.28860155,0.5984422699646089
0.0075,1.79859375,1.0,954.8493381701333,0.08101454645588858,1.3533820857603927,0.6070322573250203,0.2885939375,0.6017892266059774
0.008,1.7984,1.0,1041.9225931894646,0.08616932805575586,1.3519856262042804,0.6350067399409711,0.2885858,0.60493022622953
0.0085,1.79819375,1.0,1126.8528268386967,0.09129519575817178,1.3506674680289528,0.6604155502220621,0.2885771375,0.6078836953640414
0.009000000000000001,1.797975,1.0,1209.379509631475,0.09639231125193104,1.3494218279626886,0.6834961073818576,0.28856795,0.6106644966301443
0.0095,1.79774375,1.0,1289.3190651619675,0.10146083574424929,1.3482432478640014,0.7044739783488094,0.2885582375,0.6132864806030985
0.01,1.7975,1.0,1366.560014316185,0.10650092997606997,1.3471264864775185,0.7235587433949229,0.288548,0.6157627627097358
0.0105,1.79724375,1.0,1441.0145833290364,0.1115127534883033,1.3460669904585614,0.7409424719555067,0.2885372375,0.6181047133767665
0.011,1.796975,1.0,1512.6209739531832,0.11649646435427632,1.34506069213781,0.7567992812468204,0.28852595000000003,0.6203224449661207
0.0115,1.79669375,1.0,1581.3601913818975,0.12145222010006544,1.3441036820573147,0.7712857478992634,0.2885141375,0.6224255612072656
0.012,1.7964,1.0,1647.2610745076215,0.12638017868355694,1.343192074178034,0.7845419373255749,0.28850180000000003,0.6244234700936823
0.0125,1.79609375,1.0,1710.3388219572978,0.13128049564225291,1.3423226568534672,0.7966930116906903,0.2884889375,0.6263239751428041
0.013000000000000001,1.7957750000000001,1.0,1770.616269131311,0.13615332524424612,1.3414925469787755,0.8078504618404213,0.28847555,0.6281340572638674
0.0135,1.79544375,1.0,1828.1478298554666,0.14099882175762932,1.34069886144912,0.8181133716347591,0.2884616375,0.6298606052527849
0.014,1.7951000000000001,1.0,1882.9977665802717,0.14581713858546802,1.3399389245245126,0.827569840012001,0.2884472,0.6315099731923397
0.0145,1.79474375,1.0,1935.258137985316,0.1506084294176094,1.3392100319523643,0.8362981296807691,0.2884322375,0.6330885019862117
0.015,1.794375,1.0,1984.9908306756074,0.15537284501687737,1.338510046570564,0.8443680017793843,0.28841675,0.6346012384272788
0.0155,1.79399375,1.0,2032.2633929636856,0.16011053550522547,1.3378369652914543,0.85184155815331,0.2884007375,0.6360528854676679
0.016,1.7936,1.0,2077.1596164339703,0.16482165100460716,1.337188785027378,0.8587741014620264,0.2883842,0.6374480971038285
0.0165,1.7931937500000001,1.0,2119.7600147188946,0.1695063405030613,1.3365636895887099,0.8652149967468385,0.2883671375,0.6387910805179674
0.017,1.792775,1.0,2160.1720902618185,0.17416475374328802,1.3359597182431457,0.8712082767923786,0.28834955,0.6400863128762313
0.0175,1.7923437500000001,1.0,2198.4676191643603,0.1787970370660525,1.3353753958766537,0.8767934482130104,0.2883314375,0.6413371933691896
0.018000000000000002,1.7919,1.0,2234.7214381833496,0.18340333639193496,1.3348093122851292,0.8820059042866983,0.2883128,0.6425469528289502
0.0185,1.79144375,1.0,2269.016905504899,0.18798379764151577,1.3342600572644676,0.88687738768022,0.2882936375,0.6437187950177131
0.019,1.790975,1.0,2301.4353456499484,0.19253856557671187,1.3337263179206102,0.8914364367392102,0.28827395,0.644855691094234
0.0195,1.79049375,1.0,2332.0682297750086,0.19706778610024484,1.3332067489921366,0.8957087222354918,0.2882537375,0.6459606582464645
0.02,1.79,1.0,2360.986635132772,0.20157160177698985,1.332700266492468,0.8997174386654324,0.288233,0.647036137359186
0.0205,1.78949375,1.0,2388.258790982904,0.20605015413248337,1.3322058641720602,0.9034835393302959,0.2882117375,0.6480843871482611
0.021,1.788975,1.0,2413.9574694938146,0.21050358469226182,1.3317225357813687,0.9070259678800193,0.28818995000000003,0.6491076506848807
0.021500000000000002,1.78844375,1.0,2438.15910050353,0.21493203489949278,1.3312492798892475,0.9103618796103564,0.2881676375,0.6501081459593591
0.022,1.7879,1.0,2460.9264834176893,0.2193356436757093,1.3307852618028373,0.9135068668867039,0.2881448,0.6510877250447333
0.0225,1.78734375,1.0,2482.3490328005873,0.22371455426977047,1.3303294231453084,0.9164750509362778,0.28812143749999997,0.6520486996316575
0.023,1.786775,1.0,2502.478718524491,0.22806890326027413,1.329881091940095,0.9192793505812276,0.28809755,0.6529925547844726
0.0235,1.78619375,1.0,2521.3698423995593,0.23239882722581806,1.3294395962106305,0.9219315355900544,0.28807313749999996,0.653920766736533
0.024,1.7856,1.0,2539.078847222481,0.23670446274500012,1.3290042639803485,0.9244423447418093,0.2880482,0.654834803197542
0.0245,1.78499375,1.0,2555.664135836387,0.24098594639641807,1.328574423272683,0.9268215903386839,0.2880227375,0.655736123632091
0.025,1.784375,1.0,2571.1810728659407,0.24524341375726483,1.3281494473204345,0.9290782581607453,0.28799675,0.656626084895706
0.025500000000000002,1.78374375,1.0,2585.6833689115692,0.24947699995414202,1.3277287395008435,0.9312205864988704,0.2879702375,0.6575059735497075
0.026000000000000002,1.7831000000000001,1.0,2599.235112608379,0.25368684168852074,1.3273116195484482,0.9332561210621132,0.2879432,0.6583772439686604
0.0265,1.78244375,1.0,2611.8760685763373,0.25787307016912686,1.3268976458396358,0.9351918300375675,0.2879156375,0.6592408454863012
0.027,1.781775,1.0,2623.646993767982,0.26203581660468644,1.326486376750793,0.9370341230506732,0.28788755,0.6600977225642195
0.0275,1.7810937500000001,1.0,2634.5895535495993,0.2661752122039253,1.326077370658307,0.9387889033771728,0.2878589375,0.6609488148742506
0.028,1.7804,1.0,2644.746242106693,0.27029138817556947,1.325670185938565,0.940461614640636,0.2878298,0.661795057368433
0.0285,1.77969375,1.0,2654.1603071738596,0.2743844757283448,1.3252643809679532,0.9420572826377318,0.2878001375,0.662637380336525
0.029,1.778975,1.0,2662.87043147926,0.27845460283564827,1.324859562414685,0.9435805584014637,0.28776995,0.6634766093996791
0.029500000000000002,1.7782437500000001,1.0,2670.9198123342017,0.2825019024474266,1.3244553008321966,0.9450357427573155,0.2877392375,0.6643136408223494
0.03,1.7775,1.0,2678.339475018353,0.2865265011076476,1.3240512835113476,0.9464268333519794,0.287708,0.665149125174261
0.0305,1.77674375,1.0,2685.1598184470886,0.2905285247067548,1.3236472074059065,0.947757538538042,0.2876762375,0.6659836898544584
0.031,1.775975,1.0,2691.4116249148847,0.2945080991351914,1.3232427694696423,0.9490313009892246,0.28764395,0.6668179591377414
0.0315,1.7751937500000001,1.0,2697.126023578612,0.29846535028340077,1.3228376666563237,0.950251320048245,0.2876111375,0.6676525541706008
0.032,1.7744,1.0,2702.3344559767675,0.3024004040418264,1.32243159591972,0.9514205719339851,0.2875778,0.6684880929612962
0.0325,1.77359375,1.0,2707.0566765206636,0.30631338050833984,1.3220243634395596,0.9525418393817937,0.2875439375,0.6693249660438343
0.033,1.772775,1.0,2711.328505560413,0.3102044098034542,1.3216156308047269,0.9536177019414243,0.28750955,0.6701638584887679
0.0335,1.7719437500000002,1.0,2715.1830207331586,0.31407361922483235,1.3212050867664844,0.9546505685342714,0.2874746375,0.6710053961585944
0.034,1.7711000000000001,1.0,2718.6387694760083,0.3179211282372102,1.320792554237492,0.9556427015860084,0.2874392,0.6718499271230411
0.0345,1.7702437500000001,1.0,2721.7144405517865,0.3217470563053236,1.3203778561304091,0.9565962155530663,0.2874032375,0.6726977975168459
0.035,1.7693750000000001,1.0,2724.4288500389985,0.32555152289390826,1.3199608153578957,0.957513088329653,0.28736675,0.6735493515162966
0.035500000000000004,1.76849375,1.0,2726.800928018365,0.3293346474677001,1.319541254832611,0.9583951716490478,0.2873297375,0.6744049313137765
0.036000000000000004,1.7676,1.0,2728.8497059531182,0.33309654949143497,1.3191189974672148,0.9592442005782893,0.2872922,0.6752648770903054
0.0365,1.76669375,1.0,2730.5943047659684,0.33683734842984864,1.3186938661743666,0.9600618021946531,0.2872541375,0.6761295269860808
0.037,1.765775,1.0,2732.0539236103514,0.340557163747677,1.3182656838667262,0.9608495035228231,0.28721555,0.6769992170690216
0.0375,1.76484375,1.0,2733.247829337826,0.34425611490965596,1.317834273456953,0.9616087388033077,0.2871764375,0.67787428130131
0.038,1.7639,1.0,2734.189610031768,0.34793431217050225,1.317399509956724,0.9623408592496294,0.28713679999999997,0.6787549460434679
0.0385,1.76294375,1.0,2734.900029019102,0.3515918835115197,1.3169612036371081,0.9630471333926844,0.28709663750000003,0.6796415669289404
0.039,1.761975,1.0,2735.3913468624064,0.355228943083766,1.316519242355034,0.9637287597501352,0.28705595,0.6805343406217961
0.0395,1.7609937500000001,1.0,2735.674947895123,0.3588456034143836,1.3160735222117568,0.9643868677639009,0.2870147375,0.681433445652596
0.04,1.76,1.0,2735.762243382853,0.3624419770305149,1.3156239393085305,0.9650225221130305,0.286973,0.6823390591051182
0.0405,1.7589937500000001,1.0,2735.664667298254,0.3660181764593023,1.3151703897466098,0.9656367271099507,0.2869307375,0.6832513565911036
0.041,1.757975,1.0,2735.3936723343604,0.36957431422788817,1.314712769627249,0.966230430753696,0.28688795,0.6841705122243181
0.0415,1.75694375,1.0,2734.9607261577985,0.37311050286341496,1.3142509750517022,0.9668045284701867,0.2868446375,0.6850966985939237
0.042,1.7559,1.0,2734.3773079013085,0.3766268548930251,1.3137849021212245,0.967359866566722,0.28680079999999997,0.6860300867371607
0.0425,1.75484375,1.0,2733.6549048954803,0.38012348284386094,1.31331444693707,0.9678972454252337,0.2867564375,0.6869708461113457
0.043000000000000003,1.753775,1.0,2732.800169170067,0.383600491208223,1.3128395495719394,0.9684174247564291,0.28671155,0.6879190568355424
0.043500000000000004,1.75269375,1.0,2731.8165172972595,0.3870579834506893,1.3123601795480841,0.9689211261420502,0.28666613750000003,0.6888747392624
0.044,1.7516,1.0,2730.7274416530504,0.39049609640018795,1.311876124009571,0.9694090239063858,0.2866202,0.6898382757422405
0.0445,1.75049375,1.0,2729.538108294506,0.3939149343866291,1.311387336573362,0.9698817653345074,0.2865737375,0.6908097149928183
0.045,1.7493750000000001,1.0,2728.2536845723307,0.397314601739923,1.3108937708564183,0.9703399644043634,0.28652675,0.6917891047279237
0.0455,1.74824375,1.0,2726.879338215632,0.40069520278997967,1.3103953804757023,0.9707842038212571,0.2864792375,0.6927764916433164
0.046,1.7471,1.0,2725.42023646458,0.4040568418667094,1.309892119048175,0.9712150369090642,0.2864312,0.6937719214025249
0.0465,1.7459437500000001,1.0,2723.8815452500476,0.4073996233000224,1.3093839401907983,0.9716329893695634,0.28638263750000004,0.6947754386225018
0.047,1.744775,1.0,2722.268428421503,0.41072365141982875,1.308870797520534,0.9720385609202483,0.28633355,0.6957870868591495
0.0475,1.74359375,1.0,2720.586047022871,0.4140290305560387,1.3083526446543436,0.9724322268200803,0.28628393750000003,0.6968069085927043
0.048,1.7424,1.0,2718.8395586150045,0.41731586503856233,1.3078294352091888,0.9728144392918375,0.2862338,0.6978349452129842
0.0485,1.74119375,1.0,2717.0341166471726,0.4205842591973099,1.3073011228020315,0.9731856288489591,0.2861831375,0.6988712370044987
0.049,1.739975,1.0,2715.1748698752276,0.4238343173621916,1.306767661049833,0.9735462055341265,0.28613195,0.6999158231314244
0.0495,1.73874375,1.0,2713.266961827967,0.42706614386311764,1.3062290035695552,0.9738965600762046,0.2860802375,0.7009687416224406
0.05,1.7375,1.0,2711.315530321256,0.4302798430299981,1.3056851039781598,0.9742370649716237,0.286028,0.702030029355426
0.0505,1.73624375,1.0,2709.3257070194295,0.4334755191927432,1.3051359158926084,0.974568075495767,0.2859752375,0.703099722042025
0.051000000000000004,1.734975,1.0,2707.2996244380356,0.43665325467000327,1.304581420242822,0.9748899299790704,0.28592195,0.7041778011570963
0.051500000000000004,1.73369375,1.0,2705.2443427490048,0.4398131757175858,1.3040215529464565,0.975202953369505,0.2858681375,0.7052643346429368
0.052000000000000005,1.7324,1.0,2703.1623932982448,0.44295538157416225,1.3034562911944692,0.9755074556579272,0.2858138,0.7063593091023519
0.0525,1.73109375,1.0,2701.0558428941267,0.4460799681507259,1.302885616391385,0.9758037329449553,0.28575893750000003,0.7074627021148305
0.053,1.729775,1.0,2698.9267555492816,0.4491870313582704,1.3023095099417294,0.9760920682710823,0.28570355000000003,0.7085744904298195
0.0535,1.72844375,1.0,2696.7771923891955,0.4522766671077892,1.301727953250028,0.9763727323021647,0.2856476375,0.7096946499602961
0.054,1.7271,1.0,2694.6092115678143,0.45534897131027574,1.301140927720806,0.9766459839732786,0.2855912,0.7108231557763149
0.0545,1.7257437500000001,1.0,2692.42486819092,0.4584040398767235,1.3005484147585884,0.9769120710938065,0.2855342375,0.7119599820985316
0.055,1.724375,1.0,2690.226214247362,0.46144196871812604,1.2999503957679006,0.977171230916386,0.28547675,0.7131051022917085
0.0555,1.72299375,1.0,2688.0152985479604,0.46446285374547674,1.2993468521532683,0.9774236906721706,0.2854187375,0.7142584888581931
0.056,1.7216,1.0,2685.7941666717797,0.46746679086976917,1.2987377653192165,0.9776696680746542,0.2853602,0.71542011343138
0.0565,1.72019375,1.0,2683.56486092043,0.4704538760019968,1.2981231166702702,0.9779093717941527,0.28530113749999997,0.7165899467691468
0.057,1.718775,1.0,2681.3294202798033,0.473424205053153,1.2975028876109553,0.9781430019048742,0.28524155,0.7177679587472681
0.0575,1.71734375,1.0,2679.089880389483,0.4763778739342315,1.2968770595457968,0.9783707503063701,0.2851814375,0.7189541183528108
0.058,1.7159,1.0,2676.8465078294375,0.47931496639986204,1.2962456300858547,0.9785928009753708,0.2851208,0.7201483630581471
0.0585,1.71444375,1.0,2674.59743409971,0.48223555284015296,1.2956086164435479,0.9788093304675318,0.2850596375,0.7213505927434039
0.059000000000000004,1.7129750000000001,1.0,2672.3516821442568,0.4851397792890619,1.2949659358082781,0.979020509203432,0.28499795,0.7225608951299323
0.059500000000000004,1.71149375,1.0,2670.109740449404,0.48802773254460063,1.2943175836632554,0.9792265001228244,0.2849357375,0.723779209013465
0.06,1.71,1.0,2667.8720966802207,0.49089949940478084,1.2936635554916902,0.9794274597883067,0.284873,0.7250054724999331
0.0605,1.7084937500000001,1.0,2665.639237683804,0.49375516666761443,1.2930038467767924,0.979623538682387,0.2848097375,0.7262396230038328
0.061,1.7069750000000001,1.0,2663.411649492404,0.4965948211311131,1.2923384530017723,0.9798148814884952,0.28474595,0.7274815972465898
0.0615,1.7054437500000001,1.0,2661.1898173268664,0.49941854959328863,1.2916673696498402,0.9800016273569236,0.2846816375,0.7287313312549218
0.062,1.7039,1.0,2658.9742256017635,0.5022264388521528,1.290990592204206,0.9801839101566187,0.2846168,0.7299887603592012
0.0625,1.70234375,1.0,2656.765357928934,0.5050185757057173,1.29030811614808,0.9803618587136648,0.2845514375,0.731253819191814
0.063,1.7007750000000001,1.0,2654.563697123386,0.5077950469519941,1.2896199369646728,0.9805355970372731,0.28448555,0.7325264416855196
0.0635,1.69919375,1.0,2652.3697252088127,0.5105559393889947,1.288926050137194,0.9807052445340043,0.28441913750000003,0.7338065610718102
0.064,1.6976,1.0,2650.183923423071,0.5133013398147309,1.288226451148854,0.9808709162109271,0.2843522,0.7350941098792645
0.0645,1.69599375,1.0,2648.0067722254116,0.5160313350272147,1.287521135482863,0.9810327228683595,0.2842847375,0.7363890199319041
0.065,1.694375,1.0,2645.8387513029597,0.5187460118244577,1.2868100986224311,0.9811907712827964,0.28421675,0.7376912223475489
0.0655,1.69274375,1.0,2643.6803395780726,0.5214454570044716,1.2860933360507687,0.9813451643805929,0.2841482375,0.7390006475361669
0.066,1.6911,1.0,2641.5320152163076,0.5241297573652683,1.285370843251086,0.9814960014029321,0.2840792,0.7403172251982275
0.0665,1.6894437500000001,1.0,2639.394255635105,0.5267989997048597,1.2846426157065927,0.9816433780625735,0.2840096375,0.7416408843230518
0.067,1.687775,1.0,2637.2675375115286,0.5294532708212571,1.2839086489004996,0.9817873866928473,0.28393955,0.7429715531871584
0.0675,1.68609375,1.0,2635.152336792596,0.5320926575124728,1.2831689383160163,0.9819281163893291,0.2838689375,0.7443091593526152
0.068,1.6844000000000001,1.0,2633.047528508974,0.5347172254729871,1.2824234942455304,0.9820656524674518,0.2837978,0.7456536029915335
0.0685,1.68269375,1.0,2630.9525405165195,0.5373270534234008,1.28167232188019,0.982200077918113,0.2837261375,0.7470047930058121
0.069,1.680975,1.0,2628.870341058013,0.5399222627093323,1.280915393628932,0.9823314740749699,0.28365395,0.7483626964996883
0.0695,1.67924375,1.0,2626.800799212506,0.5425029308105803,1.2801527105732424,0.9824599180235373,0.28358123749999997,0.7497272281838809
0.07,1.6775,1.0,2624.743784323487,0.5450691352069436,1.2793842737946084,0.9825854842451073,0.283508,0.7510983021564391
0.07050000000000001,1.67574375,1.0,2622.699165996136,0.5476209533782207,1.2786100843745167,0.9827082447209049,0.2834342375,0.7524758319031399
0.07100000000000001,1.673975,1.0,2620.6668140947004,0.5501584628042107,1.2778301433944539,0.9828282690313882,0.28335995,0.7538597302978864
0.07150000000000001,1.67219375,1.0,2618.6465987401266,0.5526817409647119,1.277044451935907,0.9829456244509532,0.2832851375,0.7552499096031025
0.07200000000000001,1.6704,1.0,2616.63839030752,0.5551908653395232,1.2762530110803625,0.9830603760382864,0.2832098,0.7566462814701311
0.0725,1.66859375,1.0,2614.6420594234055,0.5576859134084432,1.275455821909307,0.9831725867225868,0.2831339375,0.7580487569396305
0.073,1.6667750000000001,1.0,2612.657476963409,0.5601669626512709,1.2746528855042278,0.9832823173858771,0.28305755,0.7594572464419691
0.0735,1.66494375,1.0,2610.684514049755,0.5626340905478048,1.2738442029466113,0.9833896269416038,0.2829806375,0.7608716597976249
0.074,1.6631,1.0,2608.7230420487754,0.5650873745778436,1.2730297753179443,0.9834945724097155,0.2829032,0.7622919062175794
0.0745,1.6612437500000001,1.0,2606.772932568723,0.5675268922211861,1.2722096036997133,0.9835972089883976,0.2828252375,0.7637178943037151
0.075,1.659375,1.0,2604.834057457098,0.569952720957631,1.2713836891734054,0.9836975901226375,0.28274675,0.7651495320492108
0.0755,1.65749375,1.0,2602.906288798424,0.572364938266977,1.2705520328205073,0.9837957675697729,0.2826677375,0.7665867268389386
