Time [s],Phi [rad],STIM [ ],Fsee [N],Gamma [ ],Lcerel [ ],q [ ],Lmtc [m],fisomrel [ ]
0.0,1.8,1.0,19.133163892388218,0.0011019448755276355,1.3792111678661663,0.005311639634878018,0.288653,0.5414505426198286
0.0005,1.79999375,1.0,19.760280424408336,0.006704973145009741,1.379140810653452,0.01624759101290534,0.2886527375,0.5416206814318983
0.001,1.799975,1.0,23.916156437870466,0.012276572856126355,1.3787095433419139,0.04152299109245769,0.28865195,0.5426628883346909
0.0015,1.79994375,1.0,35.230804313422496,0.017816920298310432,1.377702790746567,0.07854930750829624,0.2886506375,0.5450912049179049
0.002,1.7999,1.0,61.37808256294973,0.023326190771983425,1.375879554706457,0.12403512807376577,0.2886488,0.5494724501073838
0.0025,1.79984375,1.0,109.24423502627779,0.028804558594652238,1.3733680585213348,0.17465063731229172,0.28864643749999996,0.5554728726913556
0.003,1.7997750000000001,1.0,176.12799136055372,0.034252197105382194,1.3706593060319088,0.22763542636583162,0.28864354999999997,0.5618994861350248
0.0035,1.79969375,1.0,254.49762818697548,0.039669278670712425,1.3680756588902399,0.280884015958362,0.2886401375,0.567985680269502
0.004,1.7996,1.0,339.165076884304,0.04505597469006225,1.3656936120479406,0.3328411398771454,0.2886362,0.5735592541687828
0.0045000000000000005,1.7994937500000001,1.0,427.4696538349683,0.05041245560931034,1.363500193943926,0.38244240397871837,0.2886317375,0.5786594674831895
0.005,1.799375,1.0,517.8913407864925,0.0557388909062683,1.3614692561228507,0.42903993058724843,0.28862675,0.5833545181058448
0.0055,1.79924375,1.0,609.3652601035401,0.061035449115103654,1.3595787361835674,0.47230798938309226,0.2886212375,0.5877013153208815
0.006,1.7991000000000001,1.0,701.0457247767594,0.06630229778651413,1.3578118870643177,0.5121515990457595,0.2886152,0.5917431552151531
0.006500000000000001,1.79894375,1.0,792.2522949350046,0.07153960366984066,1.3561554873504702,0.5486300615772653,0.2886086375,0.5955142500961387
0.007,1.798775,1.0,882.3928010809232,0.07674753228132958,1.3545994251614628,0.5818992207903022,0.28860155,0.5990409683519138
0.0075,1.79859375,1.0,971.0196648319715,0.0819262487053122,1.3531346219904195,0.6121686558839404,0.2885939375,0.6023467434683787
0.008,1.7984,1.0,1057.7396773054772,0.08707591654433271,1.3517538028642422,0.6396735827116234,0.2885858,0.6054504533499485
0.0085,1.79819375,1.0,1142.247507597543,0.09219669865979666,1.3504504235654236,0.6646553548754391,0.2885771375,0.6083689433125485
0.009000000000000001,1.797975,1.0,1224.334599643556,0.09728875753832532,1.349218236915038,0.6873494358306362,0.28856795,0.6111180580546951
0.0095,1.79774375,1.0,1303.8182629563817,0.10235225389097283,1.3480520269942962,0.7079789173743763,0.2885582375,0.6137110539067658
0.01,1.7975,1.0,1380.5725143361292,0.10738734780961985,1.3469469388756403,0.7267505147379668,0.288548,0.6161601454235418
0.0105,1.79724375,1.0,1454.5333771550622,0.11239419900853553,1.3458982667461559,0.7438530005603866,0.2885372375,0.6184770059375166
0.011,1.796975,1.0,1525.6549169078671,0.11737296596026571,1.3449018866203992,0.7594573083531213,0.28852595000000003,0.620671838666101
0.0115,1.79669375,1.0,1593.9093871961932,0.12232380567178502,1.3439541174556924,0.7737171281263756,0.2885141375,0.6227537151953948
0.012,1.7964,1.0,1659.3059984287568,0.12724687463888573,1.343051398671004,0.7867698858555875,0.28850180000000003,0.6247313069829972
0.0125,1.79609375,1.0,1721.8922374929841,0.1321423297134878,1.342190215037735,0.7987380721380135,0.2884889375,0.6266130635600407
0.013000000000000001,1.7957750000000001,1.0,1781.7047337708618,0.1370103256006277,1.341367602169362,0.809730865956195,0.28847555,0.6284061230521054
0.0135,1.79544375,1.0,1838.7808425380783,0.14185101545475323,1.3405809358929766,0.8198454151627811,0.2884616375,0.6301167924306894
0.014,1.7951000000000001,1.0,1893.184750849042,0.14666455243031212,1.3398275920356713,0.8291680181380005,0.2884472,0.6317513000358335
0.0145,1.79474375,1.0,1944.9920194106537,0.15145108889264958,1.3391050876399488,0.8377754007025358,0.2884322375,0.6333154959716283
0.015,1.794375,1.0,1994.2945778567555,0.15621077759201427,1.338410995761253,0.845735793315725,0.28841675,0.634815044476649
0.0155,1.79399375,1.0,2041.1634172803556,0.16094376858757084,1.3377433139786847,0.853110042302808,0.2884007375,0.6362546360417589
0.016,1.7936,1.0,2085.668489478659,0.16565021077598885,1.337100216299371,0.8599523975477446,0.2883842,0.6376385337082822
0.0165,1.7931937500000001,1.0,2127.893611229673,0.1703302530539379,1.3364798767304393,0.8663112392276345,0.2883671375,0.6389709584039169
0.017,1.792775,1.0,2167.9268506192866,0.17498404349412847,1.335880555225377,0.8722297974502892,0.28834955,0.6402559075940449
0.0175,1.7923437500000001,1.0,2205.8636414145476,0.17961173070111985,1.3353005512286793,0.8777467476125159,0.2883314375,0.6414972587555606
0.018000000000000002,1.7919,1.0,2241.7844676472464,0.18421346105149952,1.3347384159234776,0.88289679891608,0.2883128,0.6426983192125029
0.0185,1.79144375,1.0,2275.7600329079605,0.18878937898761333,1.3341928822800524,0.8877111351561545,0.2882936375,0.643861981611451
0.019,1.790975,1.0,2307.8682760050788,0.1933396289518073,1.3336626832686844,0.8922177759639056,0.28827395,0.6449911154143546
0.0195,1.79049375,1.0,2338.1937638044183,0.19786435538642733,1.3331465518596541,0.8964419391496837,0.2882537375,0.6460885681888482
0.02,1.79,1.0,2366.810474038379,0.20236370065681086,1.3326433835051328,0.9004063945662178,0.288233,0.6471568220990344
0.0205,1.78949375,1.0,2393.813393800651,0.2068378101672329,1.3321519196443021,0.9041316689016223,0.2882117375,0.6481986679738683
0.021,1.788975,1.0,2419.265429875688,0.21128682412169228,1.3316712600691047,0.9076364017345339,0.28818995000000003,0.6492161200388147
0.021500000000000002,1.78844375,1.0,2443.22900301683,0.21571088211901684,1.3312005460783423,0.9109374845164705,0.2881676375,0.6502110914458159
0.022,1.7879,1.0,2465.769969367471,0.22011012375803443,1.3307389189708163,0.914050240925308,0.2881448,0.6511854830293872
0.0225,1.78734375,1.0,2486.9573318078533,0.22448468863757293,1.330285520045328,0.9169885940690743,0.28812143749999997,0.6521411838277653
0.023,1.786775,1.0,2506.856005185536,0.22883471471281583,1.329839556637382,0.9197652256589645,0.28809755,0.6530799326443091
0.0235,1.78619375,1.0,2525.533831357003,0.23316034175866,1.3294002321878844,0.9223916934716646,0.28807313749999996,0.6540034663092087
0.024,1.7856,1.0,2543.0500126080988,0.23746170725189095,1.3289668531328207,0.9248785635473059,0.2880482,0.6549132957266874
0.0245,1.78499375,1.0,2559.4539852229086,0.24173894558768302,1.3285388358511137,0.9272355106466629,0.2880227375,0.6558106930408004
0.025,1.784375,1.0,2574.7968188308378,0.24599219116121052,1.328115596721686,0.9294713892564374,0.28799675,0.6566969234310329
0.025500000000000002,1.78374375,1.0,2589.131077755636,0.25022157836764775,1.3276965521234603,0.9315943143276173,0.2879702375,0.6575732453010086
0.026000000000000002,1.7831000000000001,1.0,2602.510689916091,0.254427241602169,1.32728111843536,0.9336117330822975,0.2879432,0.6584409104454718
0.0265,1.78244375,1.0,2614.981375260067,0.2586093126416616,1.3268687997754578,0.9355305016931438,0.2879156375,0.6593009812925755
0.027,1.781775,1.0,2626.5947598762746,0.2627679267739185,1.32645905517377,0.9373569229438207,0.28788755,0.6601546087214585
0.0275,1.7810937500000001,1.0,2637.3997712943856,0.26690321741688655,1.3260513777364016,0.9390968075309016,0.2878589375,0.6610028669521504
0.028,1.7804,1.0,2647.4314385969437,0.27101531321617317,1.3256453968104327,0.9407555330647942,0.2878298,0.6618465418883158
0.0285,1.77969375,1.0,2656.725466389447,0.27510434281738577,1.3252407417429435,0.9423380652784348,0.2878001375,0.662686415530931
0.029,1.778975,1.0,2665.3181759898334,0.2791704348661318,1.3248370418810138,0.9438489949265697,0.28776995,0.6635232660140067
0.029500000000000002,1.7782437500000001,1.0,2673.2464496638067,0.28321371800801864,1.324433926571724,0.9452925709367613,0.2877392375,0.6643578676315472
0.03,1.7775,1.0,2680.5476779065857,0.2872343208886538,1.3240310251621543,0.9466727302336891,0.287708,0.6651909908557504
0.0305,1.77674375,1.0,2687.257472247974,0.29123237115316125,1.3236279874968482,0.9479931269371095,0.2876762375,0.6660233600406247
0.031,1.775975,1.0,2693.4049943071427,0.29520799445093604,1.3232245261146154,0.9492571613992423,0.28764395,0.6668555667027498
0.0315,1.7751937500000001,1.0,2699.029820098446,0.2991613212890189,1.3228202613901452,0.9504679842299572,0.2876111375,0.6676883891454028
0.032,1.7744,1.0,2704.1556917191406,0.3030924744512631,1.3224149613780614,0.9516285425238589,0.2875778,0.6685222980854056
0.0325,1.77359375,1.0,2708.8065938122018,0.30700157672152206,1.3220083941329877,0.9527415809310696,0.2875439375,0.6693577618236431
0.033,1.772775,1.0,2713.006730456023,0.31088875088364903,1.3216003277095474,0.9538096580159539,0.28750955,0.670195246228035
0.0335,1.7719437500000002,1.0,2716.7805032469346,0.31475411972149736,1.3211905301623645,0.9548351611073563,0.2874746375,0.6710352147130714
0.034,1.7711000000000001,1.0,2720.152490574595,0.31859780601892035,1.3207787695460622,0.9558203197954795,0.2874392,0.6718781282159257
0.0345,1.7702437500000001,1.0,2723.1474280901407,0.3224199325597713,1.3203648139152646,0.9567672182130394,0.2874032375,0.6727244451691259
0.035,1.7693750000000001,1.0,2725.7820951489944,0.3262206149640697,1.3199485049571795,0.9576778123479444,0.28736675,0.6735744712234237
0.035500000000000004,1.76849375,1.0,2728.0889176111427,0.3299999836613192,1.319529543084042,0.9585539224185486,0.2873297375,0.6744287981393604
0.036000000000000004,1.7676,1.0,2730.0843717750677,0.33375815664863473,1.3191077747536164,0.9593972664057462,0.2872922,0.6752877171294491
0.0365,1.76669375,1.0,2731.783322388888,0.3374952504788108,1.3186830617953778,0.9602094568086583,0.2872541375,0.6761514863671029
0.037,1.765775,1.0,2733.20070332414,0.34121138170464227,1.3182552660388005,0.9609920071653029,0.28721555,0.6770203623678964
0.0375,1.76484375,1.0,2734.3515095147022,0.3449066668789237,1.3178242493133585,0.9617463392277825,0.2871764375,0.6778945999630106
0.038,1.7639,1.0,2735.2507893184033,0.34858122255444973,1.3173898734485268,0.9624737895409313,0.28713679999999997,0.6787744522714547
0.0385,1.76294375,1.0,2735.9136373028323,0.35223516528401516,1.3169520002737796,0.9631756154800047,0.28709663750000003,0.6796601706710779
0.039,1.761975,1.0,2736.3551874531076,0.3558686116204146,1.3165104916185915,0.9638530007972992,0.28705595,0.6805520047683595
0.0395,1.7609937500000001,1.0,2736.5906068044733,0.3594816781164427,1.3160652093124365,0.9645070607225125,0.2870147375,0.6814502023669824
0.04,1.76,1.0,2736.622038170919,0.36307446553926176,1.3156161336618,0.9651388543230847,0.286973,0.6823547709578344
0.0405,1.7589937500000001,1.0,2736.481218039508,0.3666471100615176,1.3151629765294732,0.9657493635579397,0.2869307375,0.6832662570952892
0.041,1.757975,1.0,2736.1770368622083,0.3701997217856923,1.3147056573239089,0.9663395287432527,0.28688795,0.6841847871438981
0.0415,1.75694375,1.0,2735.7176350254986,0.3737324099163073,1.3142441023834737,0.9669102385872859,0.2868446375,0.6851104723125157
0.042,1.7559,1.0,2735.1111638765296,0.3772452836578838,1.3137782380465344,0.9674623331459985,0.28680079999999997,0.6860434226033558
0.0425,1.75484375,1.0,2734.3657834815817,0.3807384522149431,1.313307990651458,0.9679966069801206,0.2867564375,0.6869837467919194
0.043000000000000003,1.753775,1.0,2733.489660504165,0.3842120247920067,1.3128332865366112,0.9685138120764393,0.28671155,0.6879315524065768
0.043500000000000004,1.75269375,1.0,2732.4909662045748,0.3876661105935959,1.3123540520403612,0.9690146605531186,0.28666613750000003,0.6888869457078042
0.044,1.7516,1.0,2731.3778745585023,0.3911008188242319,1.3118702135010745,0.9694998271670179,0.2866202,0.6898500316670735
0.0445,1.75049375,1.0,2730.1585604970323,0.39451625868843626,1.311381697257118,0.9699699516393259,0.2865737375,0.6908209139453971
0.045,1.7493750000000001,1.0,2728.841198266088,0.3979125393907301,1.3108884296468586,0.9704256408143357,0.28652675,0.691799694871525
0.0455,1.74824375,1.0,2727.433959906645,0.401289770135635,1.3103903370086631,0.970867470664851,0.2864792375,0.6927864754197977
0.046,1.7471,1.0,2725.9426022676203,0.4046480549292714,1.309887367615613,0.9712959890723185,0.2864312,0.6937813118375826
0.0465,1.7459437500000001,1.0,2724.371385552397,0.4079874966782618,1.309379483338309,0.9717117174676401,0.28638263750000004,0.6947842324276817
0.047,1.744775,1.0,2722.7328526257406,0.41130821646912546,1.3088665706569795,0.9721151484954642,0.28633355,0.6957954130439958
0.0475,1.74359375,1.0,2721.0308695785684,0.4146103158161567,1.3083485949324973,0.9725067537790113,0.28628393750000003,0.6968148724590392
0.048,1.7424,1.0,2719.269300088305,0.4178938962336496,1.3078255215257348,0.9728869821312709,0.2862338,0.6978426284993922
0.0485,1.74119375,1.0,2717.4520049859048,0.4211590592358984,1.3072973157975643,0.9732562608661727,0.2861831375,0.6988786980344773
0.049,1.739975,1.0,2715.582841847737,0.4244059063371973,1.3067639431088585,0.9736149970227307,0.28613195,0.6999230969652586
0.0495,1.73874375,1.0,2713.6656646157826,0.4276345390518405,1.3062253688204897,0.9739635785086819,0.2860802375,0.700975840212867
0.05,1.7375,1.0,2711.7043232434735,0.4308450588941222,1.3056815582933303,0.9743023751695951,0.286028,0.702036941707147
0.0505,1.73624375,1.0,2709.7026633680807,0.43403756737833665,1.3051324768882528,0.9746317397889371,0.2859752375,0.7031064143751271
0.051000000000000004,1.734975,1.0,2707.6645260102587,0.43721216601877794,1.30457808996613,0.9749520090241294,0.28592195,0.7041842701294136
0.051500000000000004,1.73369375,1.0,2705.5937472998576,0.4403689563297404,1.304018362887834,0.9752635042832254,0.2858681375,0.7052705198565095
0.052000000000000005,1.7324,1.0,2703.4941582281226,0.4435080398255181,1.3034532610142373,0.9755665325464646,0.2858138,0.7063651734050548
0.0525,1.73109375,1.0,2701.369652970723,0.446629515317825,1.3028827490799424,0.9758613868132193,0.28575893750000003,0.7074682407837266
0.053,1.729775,1.0,2699.2247947069754,0.44973346326707697,1.302306785652792,0.9761483448940363,0.28570355000000003,0.7085797428197607
0.0535,1.72844375,1.0,2697.061291752008,0.45282001465884547,1.3017253553426285,0.9764276792395709,0.2856476375,0.7096996490540963
0.054,1.7271,1.0,2694.880946437935,0.45588926300158383,1.3011384418765994,0.9766996466265541,0.2855912,0.7108279299238964
0.0545,1.7257437500000001,1.0,2692.6855584058344,0.45894130180374554,1.3005460289818518,0.9769644928233737,0.2855342375,0.7119645550485967
0.055,1.724375,1.0,2690.476924550163,0.46197622457378384,1.2999481003855322,0.9772224531517404,0.28547675,0.713109493224205
0.0555,1.72299375,1.0,2688.256838969114,0.4649941248201521,1.299344639814788,0.9774737530151755,0.2854187375,0.7142627124175854
0.056,1.7216,1.0,2686.0270929210424,0.46799509605130374,1.2987356309967661,0.9777186083965285,0.2853602,0.715424179760727
0.0565,1.72019375,1.0,2683.7894747863975,0.47097923177569206,1.2981210576586133,0.9779572263265889,0.28530113749999997,0.7165938615449929
0.057,1.718775,1.0,2681.5457700357915,0.47394662550177047,1.2975009035274767,0.9781898053256829,0.28524155,0.717771723215354
0.0575,1.71734375,1.0,2679.2977612035465,0.47689737073799227,1.2968751523305035,0.9784165358200263,0.2851814375,0.7189577293646057
0.058,1.7159,1.0,2677.0472278678626,0.4798315609928108,1.2962437877948403,0.9786376005344618,0.2851208,0.720151843727569
0.0585,1.71444375,1.0,2674.7959466360767,0.48274928977467957,1.2956067936476345,0.9788531748631006,0.2850596375,0.7213540291752705
0.059000000000000004,1.7129750000000001,1.0,2672.545691136212,0.48565065059205176,1.2949641536160326,0.9790634272192752,0.28499795,0.7225642477091121
0.059500000000000004,1.71149375,1.0,2670.298232014403,0.4885357369533808,1.294315851427182,0.9792685193661127,0.2849357375,0.7237824604550158
0.06,1.71,1.0,2668.0553369377644,0.49140464236712006,1.2936618708082297,0.9794686067289399,0.284873,0.7250086276575594
0.0605,1.7084937500000001,1.0,2665.813186449996,0.49425742342075984,1.2930022468468745,0.9796638384826833,0.2848097375,0.7262426126998828
0.061,1.7069750000000001,1.0,2663.573347367002,0.4970941897778162,1.2923369651284715,0.9798543596834722,0.28474595,0.7274843712355703
0.0615,1.7054437500000001,1.0,2661.341708081351,0.4999150685873193,1.2916659714327887,0.98004030907025,0.2846816375,0.7287339321051265
0.062,1.7039,1.0,2659.1184764390637,0.5027201437939891,1.2909892637616884,0.9802218194617482,0.2846168,0.7299912256869596
0.0625,1.70234375,1.0,2656.9038599538007,0.5055094993425459,1.2903068401170341,0.9803990186858967,0.2845514375,0.7312561817004554
0.063,1.7007750000000001,1.0,2654.698065810669,0.5082832191777096,1.2896186985006886,0.9805720298028962,0.28448555,0.7325287292052527
0.0635,1.69919375,1.0,2652.5013008694,0.5110413872442005,1.2889248369145145,0.9807409713167152,0.28441913750000003,0.733808796600514
0.064,1.6976,1.0,2650.3137716669776,0.5137840874867385,1.2882252533603753,0.9809059573756898,0.2843522,0.7350963116241948
0.0645,1.69599375,1.0,2648.1356844218326,0.516511403850044,1.2875199458401336,0.9810670979628648,0.2842847375,0.7363912013523171
0.065,1.694375,1.0,2645.967245036775,0.519223420278837,1.2868089123556528,0.9812244990766706,0.28421675,0.7376933921982383
0.0655,1.69274375,1.0,2643.808659102657,0.5219202207178374,1.2860921509087953,0.9813782629024915,0.2841482375,0.7390028099119232
0.066,1.6911,1.0,2641.6601319019364,0.5246018891117656,1.2853696595014246,0.9815284879756471,0.2840792,0.7403193795792125
0.0665,1.6894437500000001,1.0,2639.521868412673,0.5272685094053416,1.2846414361354033,0.9816752693362765,0.2840096375,0.7416430256210942
0.067,1.687775,1.0,2637.3940733117547,0.5299201655432857,1.2839074788125944,0.981818698676578,0.28393955,0.7429736717929729
0.0675,1.68609375,1.0,2635.2769509794284,0.5325569414703177,1.283167785534861,0.9819588644808332,0.2838689375,0.7443112411839379
0.068,1.6844000000000001,1.0,2633.1707055029583,0.5351789211311578,1.282422354304066,0.9820958521586217,0.2837978,0.745655656216035
0.0685,1.68269375,1.0,2631.075540680498,0.5377861884705264,1.2816711831220726,0.982229744171593,0.2837261375,0.7470068386435327
0.069,1.680975,1.0,2628.9916600257916,0.5403788274331432,1.2809142699907436,0.9823606201541601,0.28365395,0.7483647095521926
0.0695,1.67924375,1.0,2626.919266771873,0.5429569219637287,1.2801516129119417,0.982488557028436,0.28358123749999997,0.7497291893585383
0.07,1.6775,1.0,2624.8585638756535,0.5455205560070028,1.2793832098875304,0.9826136291137317,0.283508,0.7511001978091204
0.07050000000000001,1.67574375,1.0,2622.8097540224385,0.5480698135076856,1.2786090589193722,0.9827359082309043,0.2834342375,0.7524776539797889
0.07100000000000001,1.673975,1.0,2620.7730396300853,0.5506047784104973,1.2778291580093304,0.9828554638018311,0.28335995,0.753861476274957
0.07150000000000001,1.67219375,1.0,2618.7499412254456,0.5531254916223022,1.2770434929249939,0.9829723597927481,0.2832851375,0.7552516040431086
0.07200000000000001,1.6704,1.0,2616.7391639890207,0.5556320784402189,1.2762520755487512,0.9830866642976396,0.2832098,0.7566479297034664
0.0725,1.66859375,1.0,2614.7403352239535,0.5581246216359307,1.2754549092183114,0.9831984402639755,0.2831339375,0.7580503602918744
0.073,1.6667750000000001,1.0,2612.75331605314,0.5606031959671439,1.274651995104872,0.9833077480273585,0.28305755,0.759458806074341
0.0735,1.66494375,1.0,2610.7779678614456,0.5630678761915646,1.273843334379632,0.9834146459768278,0.2829806375,0.7608731767086896
0.074,1.6631,1.0,2608.8141522934447,0.5655187370668991,1.2730289282137892,0.9835191906288533,0.2829032,0.7622933812449921
0.0745,1.6612437500000001,1.0,2606.861731250928,0.5679558533508534,1.2722087777785418,0.9836214366980435,0.2828252375,0.7637193281259964
0.075,1.659375,1.0,2604.920566889867,0.5703792998011338,1.2713828842450883,0.9837214371647366,0.28274675,0.7651509251875543
