Time [s],Phi [rad],STIM [ ],Fsee [N],Gamma [ ],Lcerel [ ],q [ ],Lmtc [m],fisomrel [ ]
0.0,1.8,1.0,18.03429585926097,0.0002625870037236334,1.379332231566408,0.005017908395031169,0.288653,0.5411577107616358
0.0005,1.79999375,1.0,18.425450742532714,0.005870323407131458,1.3792859028452682,0.01365660627774008,0.2886527375,0.5412697828534752
0.001,1.799975,1.0,21.95458811581147,0.011446604843055475,1.378904096041462,0.03693693870808154,0.28865195,0.5421928762850845
0.0015,1.79994375,1.0,31.811815250585713,0.016991607749979914,1.3779833120979867,0.07241210575713439,0.2886506375,0.5444152288757524
0.002,1.7999,1.0,55.13278955116792,0.022505507574530292,1.3762682668568904,0.11685683699708367,0.2886488,0.5485401510092854
0.0025,1.79984375,1.0,99.68358914850839,0.027988478780432032,1.373812388110296,0.16689851493905858,0.28864643749999996,0.5544142171405533
0.003,1.7997750000000001,1.0,164.26872063178428,0.033440694854141764,1.3710910572824824,0.21967556355748488,0.28864354999999997,0.5608782755260504
0.0035,1.79969375,1.0,241.40925935934382,0.038862328306236385,1.3684704120869555,0.2729936631521452,0.2886401375,0.5670585313025165
0.004,1.7996,1.0,325.4222332416298,0.04425355068156922,1.3660516476191875,0.32522003035594416,0.2886362,0.5727238242196371
0.0045000000000000005,1.7994937500000001,1.0,413.3579936048102,0.049614532564670924,1.3638270392769665,0.3752211225516917,0.2886317375,0.5779014205706527
0.005,1.799375,1.0,503.58248765331433,0.054945443571533234,1.3617699359093947,0.42229273093164427,0.28862675,0.5826610761228077
0.0055,1.79924375,1.0,594.9929375095314,0.0602464523875158,1.3598568734790508,0.4660669913369927,0.2886212375,0.5870632353631455
0.006,1.7991000000000001,1.0,686.7219301018382,0.06551772673516225,1.3580701177603849,0.506419698922524,0.2886152,0.5911536695378321
0.006500000000000001,1.79894375,1.0,778.0564265894512,0.07075943338253361,1.356396076620359,0.5433913639771849,0.2886086375,0.5949675911020891
0.007,1.798775,1.0,868.4101359644781,0.07597173825263755,1.354823853224782,0.5771262426446753,0.28860155,0.5985332690775458
0.0075,1.79859375,1.0,957.2918104221077,0.0811548060963975,1.3533445735954537,0.6078282237145557,0.2885939375,0.6018737637456857
0.008,1.7984,1.0,1044.3264912593645,0.08630880120013522,1.351950280599489,0.6357298467055537,0.2885858,0.6050095662816997
0.0085,1.79819375,1.0,1129.1929708294385,0.09143388639446592,1.350634379987649,0.6610724825378591,0.2885771375,0.6079576899575159
0.009000000000000001,1.797975,1.0,1211.6465191565303,0.09653022371615347,1.3493908854171308,0.6840931797711856,0.28856795,0.6107334476640095
0.0095,1.79774375,1.0,1291.5269070620047,0.10159797494027344,1.3482140608716968,0.7050169599454953,0.2885582375,0.613351300418502
0.01,1.7975,1.0,1368.6968399125317,0.1066373000507953,1.3470990472153708,0.7240531443387971,0.288548,0.6158235058105288
0.0105,1.79724375,1.0,1443.0667997990104,0.11164835831745021,1.3460413266080735,0.741393318101056,0.2885372375,0.6181613529315197
0.011,1.796975,1.0,1514.5963980545255,0.1166313083633355,1.3450365797098216,0.7572109837396515,0.28852595000000003,0.6203755059379716
0.0115,1.79669375,1.0,1583.2809688179561,0.1215863085879087,1.3440807513629918,0.7716621967762316,0.2885141375,0.622475881828696
0.012,1.7964,1.0,1649.1053889948334,0.126513514949306,1.343170500726816,0.7848868413442117,0.28850180000000003,0.6244706869607985
0.0125,1.79609375,1.0,1712.0932579407665,0.13141308329318052,1.3423025162491555,0.7970096311228373,0.2884889375,0.6263679444180377
0.013000000000000001,1.7957750000000001,1.0,1772.2833893686354,0.13628516855273953,1.3414737369315832,0.8081416242624483,0.28847555,0.6281750222767216
0.0135,1.79544375,1.0,1829.7582072339208,0.14112992627521823,1.3406809795444616,0.8183814754161799,0.2884616375,0.6298994584713843
0.014,1.7951000000000001,1.0,1884.5609765353258,0.14594750874791937,1.3399218208398425,0.8278171082245958,0.2884472,0.6315470526687693
0.0145,1.79474375,1.0,1936.7496677996387,0.1507380678617086,1.3391939341640986,0.8365266699183794,0.2884322375,0.6331233259766618
0.015,1.794375,1.0,1986.4034091232907,0.15550175550745152,1.338494992863602,0.8445796247672595,0.28841675,0.6346337366271364
0.0155,1.79399375,1.0,2033.6036988770322,0.1602387223570791,1.337822848703887,0.852037828339928,0.2884007375,0.6360833000433377
0.016,1.7936,1.0,2078.45128249319,0.16494911964566217,1.3371753284321004,0.8589563606208531,0.2883842,0.6374770341093917
0.0165,1.7931937500000001,1.0,2121.0127365860703,0.1696330952610589,1.3365507704209214,0.8653844878727407,0.2883671375,0.6388188103606003
0.017,1.792775,1.0,2161.3645539065187,0.17429079693224275,1.3359475359673476,0.8713662026622975,0.28834955,0.6401124141500883
0.0175,1.7923437500000001,1.0,2199.594285238662,0.17892237238818717,1.3353639863683773,0.8769408404628827,0.2883314375,0.6413615964512465
0.018000000000000002,1.7919,1.0,2235.7823153436957,0.18352796768195534,1.334798656406957,0.8821436725382856,0.2883128,0.6425697055742869
0.0185,1.79144375,1.0,2270.035046047699,0.18810773084978813,1.3342499081644255,0.8870062908272756,0.2882936375,0.6437404301405394
0.019,1.790975,1.0,2302.419226346573,0.192661805350801,1.3337165796010868,0.8915571940312368,0.28827395,0.6448764174086463
0.0195,1.79049375,1.0,2333.0062043797207,0.1971903344717642,1.3331975261628604,0.8958220281072304,0.2882537375,0.6459802568844069
0.02,1.79,1.0,2361.8731342919473,0.2016934614994481,1.3326916032956648,0.8998239058719637,0.288233,0.6470545188028061
0.0205,1.78949375,1.0,2389.0988214602776,0.20617132911652414,1.3321977020413625,0.903583698962622,0.2882117375,0.6481016797144075
0.021,1.788975,1.0,2414.7605498257535,0.2106240795164843,1.3317147742852469,0.907120291784918,0.28818995000000003,0.649124070538545
0.021500000000000002,1.78844375,1.0,2438.937490138532,0.21505185523552145,1.3312417944249533,0.9104507910832134,0.2881676375,0.6501239592670185
0.022,1.7879,1.0,2461.6877801866412,0.2194547947435213,1.3307779746402244,0.913590759521457,0.2881448,0.6511030978728032
0.0225,1.78734375,1.0,2483.072593741052,0.22383303651036962,1.3303225271108028,0.916554333707002,0.28812143749999997,0.6520632273059087
0.023,1.786775,1.0,2503.15588883043,0.22818671900595205,1.3298746640164312,0.9193543746027818,0.28809755,0.6530060779338223
0.0235,1.78619375,1.0,2522.004169777237,0.23251598070015433,1.329433597536852,0.9220026002984599,0.28807313749999996,0.6539333699423704
0.024,1.7856,1.0,2539.673725379177,0.23682095685646726,1.3289986579961235,0.9245097231784014,0.2880482,0.6548465658059623
0.0245,1.78499375,1.0,2556.2364692397477,0.24110178838451451,1.328569047260185,0.9268855121302082,0.2880227375,0.6557473889749181
0.025,1.784375,1.0,2571.7392701528033,0.24535860903478868,1.3281442199268694,0.9291389465941704,0.28799675,0.6566370246447271
0.025500000000000002,1.78374375,1.0,2586.2284511647363,0.2495915519919536,1.327723649253767,0.9312782570675805,0.2879702375,0.657516612626894
0.026000000000000002,1.7831000000000001,1.0,2599.7516441514636,0.253800750440673,1.3273068084984683,0.9333109951106227,0.2879432,0.6583872867045505
0.0265,1.78244375,1.0,2612.357677253947,0.2579863375656108,1.3268931709185638,0.9352440985182848,0.2879156375,0.6592501747666027
0.027,1.781775,1.0,2624.096468465879,0.2621484465514307,1.3264822097716438,0.9370839494413901,0.28788755,0.6601063989241849
0.0275,1.7810937500000001,1.0,2635.0084875639545,0.2662872071270932,1.326073494877078,0.9388364394235728,0.2878589375,0.6609568748043628
0.028,1.7804,1.0,2645.145075648221,0.2704027546003102,1.3256665032018085,0.9405069900645261,0.2878298,0.6618027062892426
0.0285,1.77969375,1.0,2654.5481779251986,0.27449522013913547,1.3252608058121838,0.9421006190164196,0.2878001375,0.6626447965638038
0.029,1.778975,1.0,2663.2500666948745,0.2785647310258029,1.324856068893559,0.9436219762084723,0.28776995,0.6634838472672937
0.029500000000000002,1.7782437500000001,1.0,2671.283551766754,0.2826114145425466,1.3244519586312884,0.9450753645434231,0.2877392375,0.6643205565699003
0.03,1.7775,1.0,2678.6819328053743,0.28663539797160054,1.324048141210728,0.946464770237582,0.287708,0.6651556191896434
0.0305,1.77674375,1.0,2685.47895414716,0.29063680859519864,1.323644282817232,0.9477938901479083,0.2876762375,0.6659897264021672
0.031,1.775975,1.0,2691.708762087567,0.2946157736955749,1.3232400496361556,0.9490661564180666,0.28764395,0.6668235660434173
0.0315,1.7751937500000001,1.0,2697.4057681981385,0.29857242046906357,1.3228351087346613,0.9502847588185268,0.2876111375,0.6676578206896666
0.032,1.7744,1.0,2702.5980235773427,0.3025068707352171,1.3224291882369632,0.951452670599021,0.2875778,0.6684930439185361
0.0325,1.77359375,1.0,2707.3201520153693,0.30641925618219384,1.3220219586982418,0.952572656499128,0.2875439375,0.6693299047071042
0.033,1.772775,1.0,2711.5936106260524,0.31030969811366677,1.3216132130974436,0.9536473048261852,0.28750955,0.6701688174781197
0.0335,1.7719437500000002,1.0,2715.4400453932753,0.3141783178333091,1.3212027444135148,0.9546790303073157,0.2874746375,0.671010194455441
0.034,1.7711000000000001,1.0,2718.881272693219,0.3180252366447938,1.3207903456254018,0.9556700877969768,0.2874392,0.6718544456426507
0.0345,1.7702437500000001,1.0,2721.939261767552,0.32185057585179416,1.3203758097120508,0.9566225847478117,0.2874032375,0.6727019787989408
0.035,1.7693750000000001,1.0,2724.636118146441,0.3256544567579831,1.3199589296524084,0.9575384925693854,0.28736675,0.6735531994122614
0.035500000000000004,1.76849375,1.0,2726.9940680218856,0.32943700066703385,1.3195394984254205,0.9584196569856156,0.2873297375,0.6744085106697407
0.036000000000000004,1.7676,1.0,2729.026306640141,0.33319832030612323,1.3191173920684223,0.9592678140794606,0.2872922,0.6752681443859977
0.0365,1.76669375,1.0,2730.758468237774,0.3369385414827855,1.3186923743118961,0.9600845834976053,0.2872541375,0.6761325591691527
0.037,1.765775,1.0,2732.2172503422594,0.340657791883022,1.3182642000046818,0.9608714848463621,0.28721555,0.6770022289393491
0.0375,1.76484375,1.0,2733.4150236935584,0.34435618555422604,1.3178327547889495,0.9616299552905182,0.2871764375,0.6778773596405214
0.038,1.7639,1.0,2734.364208794327,0.34803383654379116,1.3173979243068694,0.9623613457152287,0.28713679999999997,0.6787581557579426
0.0385,1.76294375,1.0,2735.077270035275,0.35169085889911067,1.3169595942006123,0.9630669268496834,0.28709663750000003,0.6796448202939516
0.039,1.761975,1.0,2735.5667101098134,0.3553273666675781,1.3165176501123483,0.9637478948920531,0.28705595,0.6805375547428477
0.0395,1.7609937500000001,1.0,2735.8450647197765,0.35894347389658676,1.316071977684248,0.964405376681275,0.2870147375,0.6814365590649498
0.04,1.76,1.0,2735.924897569616,0.3625392946335303,1.3156224625584818,0.96504043445665,0.286973,0.6823420316598207
0.0405,1.7589937500000001,1.0,2735.8187956518323,0.36611494292580193,1.3151689903772201,0.9656540702421336,0.2869307375,0.6832541693386599
0.041,1.757975,1.0,2735.539364821563,0.36967053282079526,1.3147114467826335,0.9662472298885609,0.28688795,0.6841731672958598
0.0415,1.75694375,1.0,2735.0992256614277,0.37320617836590364,1.314249717416892,0.9668208068037919,0.2868446375,0.6850992190797309
0.042,1.7559,1.0,2734.5110096362882,0.37672199360852054,1.3137836879221663,0.9673756453978652,0.28680079999999997,0.6860325165623871
0.0425,1.75484375,1.0,2733.776756293408,0.38021807805118507,1.3133133402082735,0.9679125498485293,0.2867564375,0.6869730575495365
0.043000000000000003,1.753775,1.0,2732.917150789062,0.38369455995043267,1.3128384869068332,0.968432272014314,0.28671155,0.6879211770084284
0.043500000000000004,1.75269375,1.0,2731.9403558701833,0.3871515484219616,1.312359054392366,0.9689355299061508,0.28666613750000003,0.6888769806731727
0.044,1.7516,1.0,2730.852583997772,0.3905891497106285,1.3118749867816524,0.9694230047729453,0.2866202,0.6898405376911485
0.0445,1.75049375,1.0,2729.6600497780905,0.39400747006129044,1.3113862281914723,0.9698953424468957,0.2865737375,0.6908119161118889
0.045,1.7493750000000001,1.0,2728.368968744811,0.39740661571880403,1.3108927227386065,0.9703531555286223,0.28652675,0.691791182870459
0.0455,1.74824375,1.0,2726.985556211915,0.4007866929280262,1.3103944145398347,0.9707970254169082,0.2864792375,0.6927784037706417
0.046,1.7471,1.0,2725.5160261952096,0.4041478079338138,1.3098912477119375,0.9712275041954954,0.2864312,0.6937736434679164
0.0465,1.7459437500000001,1.0,2723.966590403084,0.40749006698102347,1.3093831663716955,0.9716451163882893,0.28638263750000004,0.6947769654522442
0.047,1.744775,1.0,2722.3434572966353,0.41081357631451215,1.3088701146358885,0.9720503605933118,0.28633355,0.695788432030654
0.0475,1.74359375,1.0,2720.6528312191704,0.4141184421791366,1.3083520366212973,0.9724437110048525,0.28628393750000003,0.6968081043096241
0.048,1.7424,1.0,2718.9009115944814,0.41740477081975375,1.3078288764447017,0.972825618832446,0.2862338,0.6978360421772722
0.0485,1.74119375,1.0,2717.0929879165624,0.4206726638958705,1.3073005864611766,0.97319651363172,0.2861831375,0.6988722881397222
0.049,1.739975,1.0,2715.2330985722624,0.42392222241976824,1.306767130381443,0.9735568052525717,0.28613195,0.6999168613441797
0.0495,1.73874375,1.0,2713.327422903857,0.4271535618989855,1.3062284523627556,0.9739068846471352,0.2860802375,0.7009698181234423
0.05,1.7375,1.0,2711.379146398512,0.43036678130965195,1.3056845237995867,0.9742471243919444,0.286028,0.7020311604254462
0.0505,1.73624375,1.0,2709.3914511243256,0.4335619796278971,1.305135316086407,0.9745778798616468,0.2859752375,0.7031008892756649
0.051000000000000004,1.734975,1.0,2707.367515489018,0.4367392558298508,1.3045808006176884,0.9748994901735271,0.28592195,0.7041790047674998
0.051500000000000004,1.73369375,1.0,2705.3105140167436,0.43989870889164256,1.3040209487879024,0.9752122790720765,0.2858681375,0.7052655060526263
0.052000000000000005,1.7324,1.0,2703.2236171434292,0.4430404377894021,1.3034557319915205,0.9755165557579092,0.2858138,0.7063603913312834
0.0525,1.73109375,1.0,2701.1099910297976,0.44616454149925905,1.3028851216230144,0.9758126156649773,0.28575893750000003,0.707463657842512
0.053,1.729775,1.0,2698.972797392768,0.44927111899734307,1.3023090890768552,0.9761007411897374,0.28570355000000003,0.7085753018543433
0.0535,1.72844375,1.0,2696.8151933550903,0.45236026925978384,1.3017276057475144,0.9763812023756175,0.2856476375,0.7096953186539301
0.054,1.7271,1.0,2694.6403313128635,0.455432091262711,1.3011406430294639,0.9766542575558917,0.2855912,0.7108237025376308
0.0545,1.7257437500000001,1.0,2692.4513588213613,0.45848668398225423,1.3005481723171748,0.9769201539578162,0.2855342375,0.711960446801039
0.055,1.724375,1.0,2690.244695233663,0.4615241142449313,1.2999502265612701,0.9771791288575172,0.28547675,0.7131054259752638
0.0555,1.72299375,1.0,2688.0275739537005,0.46454451001308555,1.2993467397168843,0.9774314095117795,0.2854187375,0.7142587035104335
0.056,1.7216,1.0,2685.804729453593,0.4675479815965937,1.2987376685295715,0.9776772132708939,0.2853602,0.7154202978364664
0.0565,1.72019375,1.0,2683.5770704944343,0.47053461933972285,1.2981230047441763,0.9779167486276227,0.28530113749999997,0.716590159573673
0.057,1.718775,1.0,2681.3455043631166,0.47350451358674006,1.2975027401055437,0.9781502155026407,0.28524155,0.7177682386150936
0.0575,1.71734375,1.0,2679.110936863104,0.47645775468191254,1.296876866358519,0.9783778056641135,0.2851814375,0.7189544841235525
0.058,1.7159,1.0,2676.874272307474,0.47939443296950723,1.296245375247947,0.9785997031234817,0.2851208,0.7201488445287088
0.0585,1.71444375,1.0,2674.636413513003,0.4823146387937914,1.295608258518673,0.9788160845089742,0.2850596375,0.7213512675240988
0.059000000000000004,1.7129750000000001,1.0,2672.3982617957085,0.485218462499032,1.2949655079155418,0.9790271194182703,0.28499795,0.7225617000641789
0.059500000000000004,1.71149375,1.0,2670.160716968091,0.48810599442949626,1.2943171151833983,0.9792329707516296,0.2849357375,0.7237800883613592
0.06,1.71,1.0,2667.9246773377595,0.4909773249294512,1.2936630720670879,0.9794337950267156,0.284873,0.7250063778830369
0.0605,1.7084937500000001,1.0,2665.6910397078886,0.4938325443431639,1.2930033703114554,0.9796297426762518,0.2848097375,0.7262405133486229
0.061,1.7069750000000001,1.0,2663.4606993785455,0.4966717430149016,1.2923380016613457,0.9798209583295706,0.28474595,0.7274824387265658
0.0615,1.7054437500000001,1.0,2661.2345501501673,0.4994950112889313,1.291666957861604,0.9800075810790454,0.2846816375,0.728732097231369
0.062,1.7039,1.0,2659.013484328266,0.5023024395095201,1.2909902306570755,0.9801897447323235,0.2846168,0.7299894313206059
0.0625,1.70234375,1.0,2656.7983927295695,0.5050941180209351,1.290307811792605,0.9803675780512164,0.2845514375,0.7312543826919307
0.063,1.7007750000000001,1.0,2654.5901646899138,0.5078701371674434,1.2896196930130375,0.980541204978053,0.28448555,0.7325268922800827
0.0635,1.69919375,1.0,2652.3896880735033,0.5106305872933122,1.288925866063218,0.9807107448502345,0.28441913750000003,0.7338069002538886
0.064,1.6976,1.0,2650.197849283366,0.5133755587428085,1.2882263226879915,0.9808763126036951,0.2843522,0.7350943460132582
0.0645,1.69599375,1.0,2648.011214108731,0.5161050950855977,1.2875210944912703,0.9810380176121946,0.2842847375,0.7363890950973917
0.065,1.694375,1.0,2645.8365741565417,0.5188193399434398,1.286810118722309,0.9811959677207024,0.28421675,0.7376911855819355
0.0655,1.69274375,1.0,2643.674065440351,0.5215183760723521,1.2860933939986032,0.981350265585924,0.2841482375,0.7390005418059948
0.066,1.6911,1.0,2641.523660899954,0.5242022846253698,1.2853709204428025,0.9815010101594709,0.2840792,0.7403170847118229
0.0665,1.6894437500000001,1.0,2639.385333568589,0.5268711467555279,1.2846426981775563,0.9816482968836897,0.2840096375,0.7416407346116091
0.067,1.687775,1.0,2637.25905657188,0.5295250436158617,1.2839087273255139,0.9817922178394491,0.28393955,0.7429714111875224
0.0675,1.68609375,1.0,2635.144803128362,0.5321640563594062,1.2831690080093252,0.9819328618866886,0.2838689375,0.7443090334917561
0.068,1.6844000000000001,1.0,2633.0425465489093,0.5347882661391967,1.2824235403516397,0.9820703147981322,0.2837978,0.7456535199465744
0.0685,1.68269375,1.0,2630.952260236198,0.5373977541082684,1.281672324475107,0.9822046593865443,0.2837261375,0.7470047883443561
0.069,1.680975,1.0,2628.873917684844,0.5399926014196562,1.2809153605023764,0.9823359756258786,0.28365395,0.74836275584764
0.0695,1.67924375,1.0,2626.8074924808634,0.5425728892263956,1.2801526485560977,0.9824643407666581,0.28358123749999997,0.7497273389891698
0.07,1.6775,1.0,2624.7529583013975,0.5451386986815214,1.2793841887589203,0.9825898294458946,0.283508,0.7510984536719387
0.07050000000000001,1.67574375,1.0,2622.7102889146195,0.547690110938069,1.278609981233494,0.9827125137918412,0.2834342375,0.7524760151692353
0.07100000000000001,1.673975,1.0,2620.6794581792055,0.5502272071490734,1.277830026102468,0.9828324635238538,0.28335995,0.7538599381246873
0.07150000000000001,1.67219375,1.0,2618.6604400442434,0.5527500684675698,1.277044323488492,0.9829497460476234,0.2832851375,0.755250136552308
0.07200000000000001,1.6704,1.0,2616.6532085488593,0.5552587760465935,1.2762528735142158,0.9830644265460181,0.2832098,0.7566465238365392
0.0725,1.66859375,1.0,2614.65773782207,0.5577534110391794,1.2754556763022886,0.9831765680657693,0.2831339375,0.7580490127322985
0.073,1.6667750000000001,1.0,2612.674002082342,0.5602340545983628,1.2746527319753602,0.983286231600215,0.28305755,0.7594575153650222
0.0735,1.66494375,1.0,2610.701975637349,0.5627007878771789,1.2738440406560798,0.9833934761683064,0.2829806375,0.7608719432307121
0.074,1.6631,1.0,2608.71303663422,0.5651536890011317,1.2730298683449186,0.9834983704918779,0.2829032,0.7622917442332794
0.0745,1.6612437500000001,1.0,2606.765947114249,0.5675928329218025,1.2722096686723863,0.9836009452536782,0.2828252375,0.7637177815091508
0.075,1.659375,1.0,2604.85363528774,0.5700182961380239,1.2713835070100157,0.9837012568100052,0.28274675,0.7651498473308188
