Time [s],Phi [rad],STIM [ ],Fsee [N],Gamma [ ],Lcerel [ ],q [ ],Lmtc [m],fisomrel [ ]
0.0,1.8,1.0,18.26314281698518,0.0005534204383641785,1.37930672149425,0.005079069810299489,0.288653,0.541219422925011
0.0005,1.79999375,1.0,18.742029600027905,0.006159525496204524,1.3792510284519126,0.0145177754237877,0.2886527375,0.5413541371752761
0.001,1.799975,1.0,22.48695499308251,0.011734184737093846,1.3788504637160117,0.03849636388580254,0.28865195,0.5423224685655705
0.0015,1.79994375,1.0,32.82844979651359,0.017277574548098064,1.3778983883594957,0.07451785961963182,0.2886506375,0.5446199237094891
0.002,1.7999,1.0,57.10603979764668,0.022789870324958886,1.376143174792815,0.11933210401681889,0.2886488,0.5488402807933094
0.0025,1.79984375,1.0,102.82470973393536,0.028271246480078,1.3736641435950325,0.1695794389848088,0.28864643749999996,0.5547675631103027
0.003,1.7997750000000001,1.0,168.23322243976347,0.03372187645096629,1.3709450408880057,0.22243369330892476,0.28864354999999997,0.5612237775529201
0.0035,1.79969375,1.0,245.82223356987976,0.039141932697135874,1.3683361446981654,0.27573153173660486,0.2886401375,0.5673739939696816
0.004,1.7996,1.0,330.0799234502212,0.04453158671323579,1.3659294708451537,0.3278671685303147,0.2886362,0.5730089998947252
0.0045000000000000005,1.7994937500000001,1.0,418.15816420293714,0.04989100903164807,1.3637152434710251,0.37773123718321533,0.2886317375,0.5781607833763167
0.005,1.799375,1.0,508.45819672315463,0.05522036920713562,1.3616670058001374,0.4246393644674593,0.28862675,0.5828985233276893
0.0055,1.79924375,1.0,599.9067412670544,0.060519835941152664,1.359761406016428,0.46823831019606776,0.2886212375,0.5872823046590652
0.006,1.7991000000000001,1.0,691.6252446369704,0.06578957680946156,1.3579814198260582,0.5084144306715414,0.2886152,0.5913561959799727
0.006500000000000001,1.79894375,1.0,782.924315226487,0.07102975861002574,1.3563133310477695,0.5452147418265127,0.2886086375,0.5951556445077889
0.007,1.798775,1.0,873.2161301816348,0.07624054715033554,1.3547465124443308,0.5787876248256089,0.28860155,0.5987082650146183
0.0075,1.79859375,1.0,962.0091274208913,0.0814221071497295,1.353272258955633,0.6093391645589201,0.2885939375,0.6020367061619394
0.008,1.7984,1.0,1048.9428604231603,0.08657460297232221,1.3518825179132523,0.6371026724088765,0.2885858,0.6051616504688446
0.0085,1.79819375,1.0,1133.6917534502895,0.09169819721948061,1.3505708664382094,0.6623196391007035,0.2885771375,0.6080997053723314
0.009000000000000001,1.797975,1.0,1216.0184342496837,0.09679305196230392,1.3493312945237297,0.6852266177348094,0.28856795,0.610866220237166
0.0095,1.79774375,1.0,1295.7641481699175,0.1018593289057426,1.348158115642819,0.7060478967736624,0.2885582375,0.6134755309695199
0.01,1.7975,1.0,1372.7945151371941,0.10689718803336345,1.3470464882762327,0.7249919090707725,0.288548,0.61593984367071
0.0105,1.79724375,1.0,1447.0221798212974,0.11190678853800848,1.3459919143061656,0.7422493083532847,0.2885372375,0.6182703929679687
0.011,1.796975,1.0,1518.4072598459175,0.11688828895384618,1.3449901079420685,0.7579926854892723,0.28852595000000003,0.620477759636862
0.0115,1.79669375,1.0,1586.9473956001568,0.12184184774499168,1.3440370192771933,0.7723772170559265,0.2885141375,0.6225718410933168
0.012,1.7964,1.0,1652.628800916417,0.12676762078125187,1.3431293199244922,0.785541975335083,0.28850180000000003,0.6245608093372303
0.0125,1.79609375,1.0,1715.475372653865,0.1316657637831853,1.3422637192904356,0.7976109376569261,0.2884889375,0.6264526353873657
0.013000000000000001,1.7957750000000001,1.0,1775.5289345538515,0.1365364316759772,1.341437142941825,0.8086944846247199,0.28847555,0.6282547111598333
0.0135,1.79544375,1.0,1832.8674383373368,0.1413797799205834,1.3406464763621802,0.8188906973752995,0.2884616375,0.6299744200957611
0.014,1.7951000000000001,1.0,1887.5395975309777,0.1461959609754883,1.3398892502199424,0.8282869457570545,0.2884472,0.6316176581151958
0.0145,1.79474375,1.0,1939.6022094543755,0.1509851265537746,1.3391631644965745,0.8369609124704167,0.2884322375,0.6331898847215229
0.015,1.794375,1.0,1989.1329878315048,0.15574742836852506,1.3384659191735389,0.8449816510659435,0.28841675,0.6346964973150876
0.0155,1.79399375,1.0,2036.21048272672,0.16048301712211635,1.337795406427792,0.852410659215487,0.2884007375,0.6361424215442694
0.016,1.7936,1.0,2080.938845166703,0.16519204402162274,1.3371494247442237,0.859302679129085,0.2883842,0.6375327340390275
0.0165,1.7931937500000001,1.0,2123.389261677446,0.16987465711918273,1.3365262720874655,0.865706675902323,0.2883671375,0.6388713909276567
0.017,1.792775,1.0,2163.6361208696126,0.17453100393088264,1.3359243388059099,0.8716663967933932,0.28834955,0.6401621128756769
0.0175,1.7923437500000001,1.0,2201.7647023846453,0.17916123197280887,1.3353420152479483,0.8772209607004946,0.2883314375,0.6414085867648114
0.018000000000000002,1.7919,1.0,2237.8574645978506,0.18376548761057893,1.3347778200772755,0.8824054357272212,0.2883128,0.6426141938275107
0.0185,1.79144375,1.0,2272.0131408923694,0.18834391824015714,1.334230196484952,0.8872512588925812,0.2882936375,0.6437824482067298
0.019,1.790975,1.0,2304.304559164191,0.19289666782618653,1.3336979246409362,0.8917867571753696,0.28827395,0.6449161195482529
0.0195,1.79049375,1.0,2334.803192086759,0.19742387956577362,1.3331798620865134,0.89603743872386,0.2882537375,0.6460177917729972
0.02,1.79,1.0,2363.5862847457875,0.20192569665602503,1.3326748663629688,0.9000262940979576,0.288233,0.6470900296249389
0.0205,1.78949375,1.0,2390.7316334076645,0.20640226156248345,1.332181840977795,0.9037740885622924,0.2882117375,0.6481352822850859
0.021,1.788975,1.0,2416.3180435167296,0.21085371677874587,1.3316997253204503,0.9072996067145389,0.28818995000000003,0.6491559063212302
0.021500000000000002,1.78844375,1.0,2440.422957287243,0.21528020444618937,1.3312275125909176,0.9106198725395731,0.2881676375,0.6501541291544435
0.022,1.7879,1.0,2463.10426305744,0.21968186305005702,1.3307644190085728,0.9137503719578703,0.2881448,0.6511316936158205
0.0225,1.78734375,1.0,2484.4228638099507,0.224058831075592,1.330309660792792,0.9167051729615021,0.28812143749999997,0.6520903315910418
0.023,1.786775,1.0,2504.442427413774,0.22841124700803742,1.3298624541629516,0.9194970750687347,0.28809755,0.6530317644566157
0.0235,1.78619375,1.0,2523.2291504862624,0.23273924933263637,1.3294220153384273,0.9221377412593567,0.28807313749999996,0.6539577034769419
0.024,1.7856,1.0,2540.838236260468,0.23704297320967882,1.328987685834643,0.924637835624709,0.2880482,0.654869587274127
0.0245,1.78499375,1.0,2557.3455740701534,0.24132255958499083,1.3285586309870103,0.9270070752025301,0.2880227375,0.6557692155737933
0.025,1.784375,1.0,2572.7962225335946,0.24557814183863003,1.3281343233565328,0.9292544019641306,0.28799675,0.656657735444357
0.025500000000000002,1.78374375,1.0,2587.2361510258006,0.24980985322433694,1.3277142402674778,0.9313880104683877,0.2879702375,0.6575362778249677
0.026000000000000002,1.7831000000000001,1.0,2600.7126261183503,0.25401782699585224,1.3272978590441127,0.9334154197977553,0.2879432,0.6584059676822072
0.0265,1.78244375,1.0,2613.2741002324133,0.25820219640691644,1.3268846570107053,0.9353435383539934,0.2879156375,0.6592679241421988
0.027,1.781775,1.0,2624.970106349505,0.26236309471127023,1.3264741114915233,0.9371787216480233,0.28788755,0.6601232606052947
0.0275,1.7810937500000001,1.0,2635.84261836677,0.2665006512165787,1.3260657788070178,0.9389268341634546,0.2878589375,0.6609729205707046
0.028,1.7804039344008524,1.0,2646.126987845782,0.27061500237162717,1.3256592144606947,0.9405932871611351,0.2878299652448358,0.6618178445052401
0.0285,1.7797138520629414,1.0,2656.2318560179133,0.27470627755146937,1.3252543680733508,0.942183130670835,0.28780098178664354,0.6626581506671085
0.029,1.7790237697250306,1.0,2666.169081036384,0.2787746042543802,1.324851240567711,0.9437010383014648,0.2877719983284513,0.6634938504515915
0.029500000000000002,1.7783336873871196,1.0,2675.9375165211964,0.2828201099786349,1.3244498328665002,0.9451513341458547,0.287743014870259,0.6643249552069519
0.03,1.7776436050492086,1.0,2685.536035024187,0.2868429222225082,1.324050145892443,0.9465380233833633,0.28771403141206675,0.6651514762343318
0.0305,1.7769535227112976,1.0,2694.9635280637285,0.2908431684842753,1.3236521805682644,0.9478648198424345,0.2876850479538745,0.6659734247876518
0.031,1.7762634403733866,1.0,2704.2189061603635,0.2948209762622112,1.323255937816689,0.9491351708579032,0.28765606449568226,0.6667908120735104
0.0315,1.7755733580354756,1.0,2713.3024432856355,0.2987764692136454,1.3228614063038069,0.9503522769823393,0.28762708103748996,0.6676036744882912
0.032,1.7748832756975645,1.0,2722.2149960511915,0.30270977635493584,1.3224685696465404,0.9515191163322144,0.2875980975792977,0.6684120586419463
0.0325,1.7741931933596535,1.0,2730.957976663751,0.3066210248577423,1.3220774066949519,0.952638460636897,0.2875691141211054,0.669216020716373
0.033,1.7735031110217425,1.0,2739.5343588656037,0.3105103359750947,1.3216878824371556,0.9537128898237197,0.2875401306629132,0.6700156450672792
0.0335,1.7728130286838315,1.0,2747.947158697803,0.3143778309600233,1.321299961861266,0.9547448107646007,0.28751114720472093,0.6708110156503477
0.034,1.7721229463459205,1.0,2756.199433241825,0.31822363106555807,1.3209136099553969,0.9557364709514846,0.2874821637465287,0.6716022160248578
0.0345,1.7714328640080095,1.0,2764.294279388075,0.3220478575447292,1.3205287917076625,0.9566899709377562,0.2874531802883364,0.6723893293572256
0.035,1.7707427816700987,1.0,2772.2348326320694,0.32585063165056666,1.3201454721061774,0.9576072756699516,0.28742419683014414,0.6731724384244668
0.035500000000000004,1.7700526993321877,1.0,2780.0242658972975,0.3296320746361006,1.3197636161390554,0.9584902248203406,0.2873952133719519,0.6739516256175857
0.036000000000000004,1.7693626169942767,1.0,2787.665229756433,0.33339230201519526,1.3193831938188827,0.9593405414003436,0.2873662299137596,0.6747269627106187
0.0365,1.7686725346563656,1.0,2795.158699431102,0.33713140485224624,1.3190041904954428,0.9601598373483131,0.28733724645556735,0.6754984899437093
0.037,1.7679824523184546,1.0,2802.5140362792263,0.3408495559784299,1.318626516490647,0.9609496363832662,0.2873082629973751,0.6762663998374856
0.0375,1.7672923699805436,1.0,2809.734390891023,0.34454686736873935,1.3182501383486587,0.9617113616605787,0.28727927953918286,0.677030769901338
0.038,1.7666022876426326,1.0,2816.8229444260596,0.3482234509981677,1.3178750226136415,0.962446351070884,0.28725029608099056,0.6777916772907426
0.0385,1.7659122053047216,1.0,2823.7829076648386,0.35187941884170804,1.3175011358297593,0.9631558632875169,0.2872213126227983,0.6785491988099897
0.039,1.7652221229668106,1.0,2830.6175200842245,0.35551488287435346,1.3171284445411753,0.9638410833218284,0.287192329164606,0.6793034109148428
0.0395,1.7645320406288996,1.0,2837.3300489587923,0.35912995507109713,1.3167569152920535,0.9645031276313024,0.2871633457064138,0.6800543897151239
0.04,1.7638419582909886,1.0,2843.923788486093,0.36272474740693217,1.3163865146265574,0.9651430488208851,0.28713436224822153,0.6808022109772296
0.0405,1.7631518759530778,1.0,2850.402058937262,0.36629937185685163,1.3160172090888507,0.9657618399739069,0.2871053787900293,0.6815469501265741
0.041,1.7624617936151667,1.0,2856.768205832118,0.3698539403958487,1.315648965223097,0.9663604386453835,0.287076395331837,0.6822886822499622
0.0415,1.7617717112772557,1.0,2863.025599139745,0.3733885649989165,1.31528174957346,0.9669397305472769,0.28704741187364474,0.6830274820978894
0.042,1.7610816289393447,1.0,2869.1776325025467,0.37690335764104804,1.3149155286841032,0.9675005529524351,0.28701842841545244,0.6837634240867723
0.0425,1.7603915466014337,1.0,2875.2277224868353,0.3803984302972365,1.3145502690991906,0.9680436978413631,0.2869894449572602,0.6844965823011059
0.043000000000000003,1.7597014642635227,1.0,2881.1793078567525,0.3838738949424751,1.3141859373628855,0.9685699148136917,0.28696046149906795,0.6852270304955517
0.043500000000000004,1.7590113819256117,1.0,2887.03584887385,0.3873298635517568,1.3138225000193515,0.9690799137841432,0.2869314780408757,0.6859548420969519
0.044,1.7583212995877007,1.0,2892.8008266210823,0.3907664481000747,1.3134599236127527,0.9695743674809603,0.2869024945826834,0.6866800902062732
0.0445,1.7576312172497897,1.0,2898.4777423522587,0.3941837605624221,1.313098174687252,0.9700539137630961,0.28687351112449117,0.6874028476004814
0.045,1.7569411349118786,1.0,2904.064449380334,0.3975818661977839,1.3127372697299888,0.9705191548745263,0.2868445276662989,0.6881230871231895
0.0455,1.7562510525739676,1.0,2909.5690656704505,0.4009609174134644,1.3123771348372464,0.970970668162459,0.2868155442081066,0.6888409618331404
0.046,1.7555609702360568,1.0,2914.99615281002,0.40432103754876075,1.3120177277025138,0.9714090001011939,0.2867865607499144,0.6895565612224488
0.0465,1.7548708878981458,1.0,2920.3475607014734,0.4076623273164196,1.3116590300381186,0.9718346686477699,0.28675757729172213,0.6902699266444488
0.047,1.7541808055602348,1.0,2925.625150283909,0.41098488742918754,1.3113010235563884,0.9722481663078045,0.2867285938335299,0.6909810992753345
0.0475,1.7534907232223238,1.0,2930.830793249169,0.41428881859981115,1.3109436899696512,0.9726499616258575,0.2866996103753376,0.6916901201149792
0.048,1.7528006408844128,1.0,2935.966371765634,0.417574221541037,1.310587010990234,0.973040500575053,0.28667062691714534,0.6923970299877305
0.0485,1.7521105585465018,1.0,2941.0337782083475,0.4208411969656118,1.3102309683304652,0.9734202078536528,0.28664164345895304,0.6931018695431822
0.049,1.7514204762085908,1.0,2946.034914898188,0.42408984558628204,1.309875543702672,0.973789488095615,0.2866126600007608,0.6938046792569308
0.0495,1.7507303938706797,1.0,2950.971693846755,0.4273202681157943,1.309520718819182,0.9741487270015794,0.28658367654256856,0.6945054994313039
0.05,1.7500403115327687,1.0,2955.8460365100973,0.4305325652668953,1.3091664753923231,0.9744982923961903,0.2865546930843763,0.6952043701960717
0.0505,1.7493502291948577,1.0,2960.659873548836,0.43372683775233156,1.3088127951344228,0.974838535217179,0.286525709626184,0.6959013315091358
0.051000000000000004,1.7486601468569467,1.0,2965.415144596488,0.43690318628484964,1.308459659757809,0.9751697904411804,0.28649672616799177,0.6965964231571959
0.051500000000000004,1.7479700645190357,1.0,2970.1137980343833,0.44006171157719626,1.3081070509748092,0.9754923779508607,0.28646774270979947,0.6972896847563979
0.052000000000000005,1.747279982181125,1.0,2974.757790774921,0.4432025143421179,1.307754950497751,0.9758066033475622,0.2864387592516072,0.6979811557529554
0.0525,1.7465898998432139,1.0,2979.3490880513855,0.44632569529236116,1.3074033400389622,0.9761127587133358,0.286409775793415,0.6986708754237569
0.053,1.7458998175053029,1.0,2983.8896632156548,0.4494313551406727,1.3070522013107704,0.9764111233259268,0.28638079233522273,0.6993588828769456
0.0535,1.7452097351673919,1.0,2988.381497543327,0.4525195945997991,1.3067015160255033,0.9767019643300028,0.2863518088770305,0.7000452170524807
0.054,1.7445196528294808,1.0,2992.8265800460526,0.455590514382487,1.3063512658954886,0.9769855373676496,0.2863228254188382,0.7007299167226775
0.0545,1.7438295704915698,1.0,2997.226907291527,0.4586442152014829,1.3060014326330538,0.9772620871709373,0.28629384196064595,0.7014130204927254
0.055,1.7431394881536588,1.0,3001.580524379013,0.4616807443200112,1.3056520322653244,0.9775318450678442,0.28626485850245365,0.70209449991096
0.0555,1.7424494058157478,1.0,3005.8925098828436,0.4647002576003843,1.3053030198619475,0.9777950393995677,0.2862358750442614,0.702774445354513
0.056,1.7417593234778368,1.0,3010.1643559778227,0.4677028539305184,1.304954381672883,0.9780518854456531,0.28620689158606916,0.7034528861559617
0.0565,1.7410692411399258,1.0,3014.3969551387436,0.4706886233091333,1.3046061091824208,0.9783025891157203,0.2861779081278769,0.7041298413544232
0.057,1.7403791588020148,1.0,3018.591203509787,0.47365765573494856,1.3042581938748496,0.9785473479308139,0.2861489246696846,0.7048053299107603
0.0575,1.7396890764641038,1.0,3022.748000836247,0.4766100412066839,1.303910627234459,0.978786351432819,0.28611994121149237,0.7054793707077734
0.058,1.738998994126193,1.0,3026.8682503977193,0.4795458697230589,1.3035634007455381,0.9790197815707198,0.28609095775330007,0.7061519825503949
0.0585,1.738308911788282,1.0,3030.952858943424,0.4824652312827932,1.3032165058923764,0.9792478130651864,0.2860619742951078,0.7068231841658753
0.059000000000000004,1.737618829450371,1.0,3035.002736628441,0.48536821588460655,1.3028699341592629,0.9794706137528667,0.2860329908369156,0.707492994203966
0.059500000000000004,1.73692874711246,1.0,3039.018796952036,0.4882549135272185,1.3025236770304869,0.979688344911665,0.28600400737872334,0.7081614312370972
0.06,1.736238664774549,1.0,3043.001956697352,0.49112541420934874,1.302177725990338,0.9799011615681984,0.28597502392053104,0.7088285137605492
0.0605,1.735548582436638,1.0,3046.9531358732675,0.49397980792971696,1.301832072523105,0.9801092127885359,0.2859460404623388,0.7094942601926247
0.061,1.7348585000987269,1.0,3050.8732576567154,0.4968181846870427,1.3014867081130774,0.9803126419532538,0.28591705700414655,0.7101586888748088
0.0615,1.7341684177608159,1.0,3054.7632483377506,0.49964063448004575,1.3011416242445446,0.9805115870177673,0.28588807354595425,0.7108218180719308
0.062,1.7334783354229049,1.0,3058.624037265818,0.5024472473074457,1.3007968124017957,0.9807061807588274,0.285859090087762,0.711483665972318
0.0625,1.7327882530849938,1.0,3062.456556797237,0.5052381131679622,1.3004522640691198,0.9808965510080268,0.28583010662956976,0.7121442506879461
0.063,1.7320981707470828,1.0,3066.2617422449266,0.5080133220603148,1.3001079707308065,0.9810828208730801,0.28580112317137746,0.7128035902545835
0.0635,1.731408088409172,1.0,3070.040531829488,0.5107729639832232,1.2997639238711451,0.9812651089476152,0.2857721397131852,0.7134617026319334
0.064,1.730718006071261,1.0,3073.7938666316572,0.5135171289354072,1.2994201149744244,0.9814435295101469,0.28574315625499297,0.7141186057037705
0.0645,1.73002792373335,1.0,3077.5226905466443,0.5162459069155864,1.299076535524934,0.9816181927128683,0.28571417279680067,0.7147743172780703
0.065,1.729337841395439,1.0,3081.2263565295207,0.5189593454049859,1.2987331906413309,0.9817892024972935,0.2856851893386084,0.7154288291111297
0.0655,1.728647759057528,1.0,3084.906742986967,0.5216575722682163,1.2983900638404253,0.9819566635809781,0.2856562058804162,0.7160821741113104
0.066,1.727957676719617,1.0,3088.564776856938,0.5243406826822203,1.2980471468114327,0.9821206751352272,0.28562722242222394,0.7167343695075391
0.0665,1.727267594381706,1.0,3092.2008835018164,0.5270087570215263,1.2977044355492289,0.9822813320774166,0.28559823896403164,0.7173854242803412
0.067,1.726577512043795,1.0,3095.815489672656,0.529661875660662,1.2973619260486902,0.9824387260372174,0.2855692555058394,0.7180353473744048
0.0675,1.725887429705884,1.0,3099.4090234907385,0.5323001189741559,1.2970196143046926,0.9825929454936752,0.2855402720476471,0.7186841476986341
0.068,1.725197347367973,1.0,3102.9819144305307,0.5349235673365357,1.2966774963121122,0.982744075905652,0.28551128858945485,0.7193318341262012
0.0685,1.724507265030062,1.0,3106.5345933014323,0.5375323011223296,1.2963355680658253,0.9828921998359934,0.2854823051312626,0.7199784154945938
0.069,1.7238171826921511,1.0,3110.0674922315143,0.5401264007060658,1.2959938255607077,0.9830373970697638,0.28545332167307036,0.7206239006056674
0.0695,1.72312710035424,1.0,3113.5810446503588,0.5427059464622721,1.295652264791636,0.9831797447268724,0.2854243382148781,0.7212682982256899
0.07,1.722437018016329,1.0,3117.0756852729896,0.5452710187654769,1.2953108817534857,0.9833193173693942,0.2853953547566858,0.7219116170853914
0.07050000000000001,1.721746935678418,1.0,3120.5518500839094,0.5478216979902081,1.2949696724411333,0.9834561871038657,0.28536637129849357,0.7225538658800081
