Time [s],Phi [rad],STIM [ ],Fsee [N],Gamma [ ],Lcerel [ ],q [ ],Lmtc [m],fisomrel [ ]
0.0,1.8,1.0,19.490167103087963,0.0012603532942028854,1.3791725885724064,0.005407167321696429,0.288653,0.541543839525831
0.0005,1.79999375,1.0,20.156317695537595,0.00686249301771681,1.3790987121149971,0.01677257204884971,0.2886527375,0.5417224696197402
0.001,1.799975,1.0,24.437709806667478,0.01243320916099515,1.3786591710345721,0.042417429949814005,0.28865195,0.5427845414266921
0.0015,1.79994375,1.0,36.0474972647265,0.017972678008290846,1.377637824221322,0.07972768021978145,0.2886506375,0.5452476840477865
0.002,1.7999,1.0,62.73437718818634,0.023481074799375064,1.3757977920094808,0.12540159446888888,0.2886488,0.5496684295943846
0.0025,1.79984375,1.0,111.21329611847851,0.02895857384488837,1.3732789942687331,0.17611860120158582,0.28864643749999996,0.5556849248651885
0.003,1.7997750000000001,1.0,178.49929701885162,0.03440534845183866,1.3705747379919158,0.22913755187799095,0.28864354999999997,0.5620993736040274
0.0035,1.79969375,1.0,257.07183778622834,0.039821570960625885,1.3679992233484073,0.28236938556324775,0.2886401375,0.568165088057937
0.004,1.7996,1.0,341.848226133736,0.04520741274334241,1.3656245610035438,0.3342731498122401,0.2886362,0.5737202818589473
0.0045000000000000005,1.7994937500000001,1.0,430.2104174997694,0.050563044211292624,1.3634373429921491,0.38379744822647516,0.2886317375,0.5788051585421139
0.005,1.799375,1.0,520.6534788053373,0.05588863481167047,1.3614116941707597,0.43030485807521807,0.28862675,0.5834872044535118
0.0055,1.79924375,1.0,612.1328371932442,0.06118435309012522,1.359525555246685,0.47347719077551154,0.2886212375,0.5878232625145501
0.006,1.7991000000000001,1.0,703.7992710645702,0.06645036654686368,1.35776254915283,0.5132248946708424,0.2886152,0.5918557347693524
0.006500000000000001,1.79894375,1.0,794.9716465578504,0.07168684183213474,1.3561096469081446,0.5496107476924745,0.2886086375,0.5956183653665708
0.007,1.798775,1.0,885.0785111602061,0.07689394467090205,1.3545565223805571,0.5827924462273805,0.28860155,0.5991379860886655
0.0075,1.79859375,1.0,973.6378269128716,0.08207183960928575,1.3530947491254106,0.6129810001103714,0.2885939375,0.6024365374364264
0.008,1.7984,1.0,1060.2980260509464,0.08722069092855271,1.351716469652159,0.6404116436914562,0.2885858,0.6055341995389728
0.0085,1.79819375,1.0,1144.7467771824658,0.09234066118398133,1.3504153255140667,0.665325812072189,0.2885771375,0.6084473840716539
0.009000000000000001,1.797975,1.0,1226.750033596003,0.09743191224772992,1.3491854712911566,0.6879589071768579,0.28856795,0.6111910288238931
0.0095,1.79774375,1.0,1306.1555765468709,0.10249460556388816,1.3480213013267892,0.7085333701814337,0.2885582375,0.6137792532615057
0.01,1.7975,1.0,1382.8402111857465,0.107528901367086,1.3469179678058332,0.7272554337417944,0.288548,0.6162242462164251
0.0105,1.79724375,1.0,1456.7150100836882,0.11253495848548356,1.3458711120807458,0.7443135342623735,0.2885372375,0.6185369063393755
0.011,1.796975,1.0,1527.7368655159748,0.11751293514776653,1.3448765830887863,0.7598780774582242,0.28852595000000003,0.6207274950159549
0.0115,1.79669375,1.0,1595.919218282577,0.12246299008603408,1.3439302185353055,0.7741020551591049,0.2885141375,0.6228061376857685
0.012,1.7964,1.0,1661.2573406027616,0.1273852793342952,1.3430286566036589,0.7871225575333628,0.28850180000000003,0.6247810610608708
0.0125,1.79609375,1.0,1723.7620256825114,0.13227995795443973,1.342168822665098,0.7990618620258259,0.2884889375,0.6266597474361628
0.013000000000000001,1.7957750000000001,1.0,1783.4793352287984,0.13714718100835754,1.3413476420908732,0.8100287287519803,0.28847555,0.6284495766549781
0.0135,1.79544375,1.0,1840.4679218015567,0.1419871026083293,1.3405622566918505,0.8201198870323382,0.2884616375,0.6301573638933488
0.014,1.7951000000000001,1.0,1894.810590104213,0.1467998769657459,1.3398098511509864,0.8294212834918099,0.2884472,0.6317897482804352
0.0145,1.79474375,1.0,1946.5610375197973,0.1515856553882387,1.339088196114849,0.8380094893210068,0.2884322375,0.6333520256874288
0.015,1.794375,1.0,1995.7877142882276,0.15634458889346436,1.338395120863046,0.8459525949706577,0.28841675,0.6348493054084327
0.0155,1.79399375,1.0,2042.5745002961569,0.1610768282337913,1.3377284844955066,0.8533111948649988,0.2884007375,0.636286577679746
0.016,1.7936,1.0,2087.011455887992,0.165782523539076,1.3370862539019859,0.8601392972474214,0.2883842,0.6376685504793556
0.0165,1.7931937500000001,1.0,2129.1891252647615,0.1704618246295168,1.33646654187052,0.8664851149090275,0.2883671375,0.6389995733472374
0.017,1.792775,1.0,2169.175950364671,0.17511487833425332,1.3358678172723766,0.8723918068050668,0.28834955,0.6402831929868924
0.0175,1.7923437500000001,1.0,2207.050839094365,0.17974183148242515,1.3352885489788235,0.8778979723748194,0.2883314375,0.6415229238637598
0.018000000000000002,1.7919,1.0,2242.9022872098913,0.18434283090317183,1.3347272058611284,0.8830381870175348,0.2883128,0.6427222501798526
0.0185,1.79144375,1.0,2276.808508068868,0.188918021432815,1.334182446323113,0.8878435186057908,0.2882936375,0.6438842237547825
0.019,1.790975,1.0,2308.8730076705942,0.1934675506953694,1.3336527524580786,0.8923418429369041,0.28827395,0.6450122473761102
0.0195,1.79049375,1.0,2339.1615605437455,0.19799156107185847,1.3331370482989924,0.8965583540654812,0.2882537375,0.6461087597277897
0.02,1.79,1.0,2367.7435103645707,0.20249019471715982,1.332634276797495,0.9005157678968176,0.288233,0.6471761412608656
0.0205,1.78949375,1.0,2394.6932088983585,0.2069635937861509,1.3321433809052272,0.9042345954725727,0.2882117375,0.6482167554873889
0.021,1.788975,1.0,2420.089592990001,0.21141190043370928,1.33166330357383,0.907733387057004,0.28818995000000003,0.6492329498166249
0.021500000000000002,1.78844375,1.0,2443.9995738014654,0.2158352544847169,1.3311931434901414,0.9110289779514894,0.2881676375,0.6502267273760161
0.022,1.7879,1.0,2466.5084963868535,0.22023379917613922,1.3307318566901687,0.914136614858023,0.2881448,0.6512003793694954
0.0225,1.78734375,1.0,2487.6736929744225,0.2246076723588548,1.3302786989522621,0.9170702087432516,0.28812143749999997,0.65215555171684
0.023,1.786775,1.0,2507.5506746589954,0.2289570111397785,1.3298329683760917,0.9198424261950433,0.28809755,0.6530937913654851
0.0235,1.78619375,1.0,2526.1973066801625,0.2332819526258254,1.3293939630613274,0.9224648108359885,0.28807313749999996,0.6540166361567374
0.024,1.7856,1.0,2543.673610449931,0.23758263392391032,1.3289609811076395,0.924947898385331,0.2880482,0.654925615142536
0.0245,1.78499375,1.0,2560.037471809145,0.24185919132953346,1.328533359139893,0.9273013249255779,0.2880227375,0.6558221681513334
0.025,1.784375,1.0,2575.3424722987334,0.2461117601392205,1.3281104903807432,0.9295339194084208,0.28799675,0.6567076087439675
0.025500000000000002,1.78374375,1.0,2589.657722965852,0.25034047814092825,1.327691637317061,0.9316537531046608,0.2879702375,0.6575835166851521
0.026000000000000002,1.7831000000000001,1.0,2603.0241881066236,0.25454547709307807,1.3272763386475903,0.9336682760677165,0.2879432,0.6584508869943488
0.0265,1.78244375,1.0,2615.4839238712325,0.2587268887540911,1.3268641330710749,0.9355843342018947,0.2879156375,0.6593107095398427
0.027,1.781775,1.0,2627.079986532733,0.2628848448823887,1.3264545592862584,0.9374082263446613,0.28788755,0.6601639691365266
0.0275,1.7810937500000001,1.0,2637.856345473,0.2670194772363922,1.3260471559918852,0.9391457552612508,0.2878589375,0.6610116456301126
0.028,1.7804,1.0,2647.857800887491,0.2711309175745228,1.3256414618866985,0.9408022732665837,0.2878298,0.661854713967774
0.0285,1.77969375,1.0,2657.1247611391304,0.27521929458520095,1.3252370630687886,0.9423827286789893,0.2878001375,0.6626940459387398
0.029,1.778975,1.0,2665.7006269984613,0.2792847415941154,1.3248335240653397,0.9438916951754152,0.28776995,0.6635305537094782
0.029500000000000002,1.7782437500000001,1.0,2673.6180975595853,0.2833273859721773,1.3244305131931087,0.9453334180512417,0.2877392375,0.664364930195332
0.03,1.7775,1.0,2680.9088859123576,0.28734735413108875,1.324027712185713,0.9467118323628952,0.287708,0.6651978371673878
0.0305,1.77674375,1.0,2687.605130524759,0.29134477248255186,1.3236248027767703,0.9480305881952997,0.2876762375,0.6660299331240322
0.031,1.775975,1.0,2693.7393550501943,0.2953197674382689,1.3232214666998985,0.949293074878857,0.28764395,0.6668618732919848
0.0315,1.7751937500000001,1.0,2699.344430380471,0.2992724654099419,1.3228173856887149,0.9505024428642895,0.2876111375,0.6676943096208658
0.032,1.7744,1.0,2704.4432000316538,0.30320298742560914,1.3224123358879054,0.9516616333544511,0.2875778,0.6685276966431903
0.0325,1.77359375,1.0,2709.069383625768,0.30711146281547713,1.3220059964245412,0.9527733764922798,0.2875439375,0.6693626857992294
0.033,1.772775,1.0,2713.258533238523,0.31099802090279827,1.3215980320240501,0.9538402157599768,0.28750955,0.6701999547138331
0.0335,1.7719437500000002,1.0,2717.02995014372,0.31486278159425257,1.3211882575349614,0.9548645390939099,0.2874746375,0.6710398699670131
0.034,1.7711000000000001,1.0,2720.4030931066654,0.3187058647965203,1.3207764878058041,0.9558485766728618,0.2874392,0.6718827961446836
0.0345,1.7702437500000001,1.0,2723.397563021156,0.3225273904162816,1.3203625376851074,0.9567944131977255,0.2874032375,0.6727290958161931
0.035,1.7693750000000001,1.0,2726.0330883059696,0.3263274783602166,1.3199462220214,0.9577039990785043,0.28736675,0.6735791295096716
0.035500000000000004,1.76849375,1.0,2728.3295110618774,0.3301062485350054,1.3195273556632112,0.9585791606372623,0.2873297375,0.6744332556851904
0.036000000000000004,1.7676,1.0,2730.306773988459,0.33386382084732835,1.3191057534590702,0.9594216094237995,0.2872922,0.675291830705737
0.0365,1.76669375,1.0,2731.9849080613367,0.33760031520386535,1.3186812302575057,0.960232950730372,0.2872541375,0.6761552088060032
0.037,1.765775,1.0,2733.3840209687537,0.3413158515112968,1.3182536009070471,0.9610146913825383,0.28721555,0.677023742058986
0.0375,1.76484375,1.0,2734.511602039436,0.3450105419354035,1.317822795445608,0.9617682564564259,0.2871764375,0.6778975468594999
0.038,1.7639,1.0,2735.3950736455795,0.34868451196661443,1.317388563355203,0.9624949710904674,0.28713679999999997,0.6787771041177306
0.0385,1.76294375,1.0,2736.052155009617,0.3523378789839021,1.3169507426927365,0.9631960886816496,0.28709663750000003,0.6796627127121262
0.039,1.761975,1.0,2736.49379174865,0.3559707558511979,1.3165092333529615,0.9638727941088628,0.28705595,0.6805545446502568
0.0395,1.7609937500000001,1.0,2736.730959390965,0.3595832554324332,1.3160639352306303,0.96452620368406,0.2870147375,0.6814527705565305
0.04,1.76,1.0,2736.774659144014,0.3631754905915393,1.3156147482204952,0.9651573698484323,0.286973,0.6823575596483209
0.0405,1.7589937500000001,1.0,2736.6359138859593,0.3667475741924476,1.315161572217309,0.9657672854990277,0.2869307375,0.6832690797114604
0.041,1.757975,1.0,2736.325764378218,0.37029961909908937,1.3147043071158238,0.9663568879784714,0.28688795,0.6841874970750934
0.0415,1.75694375,1.0,2735.855265700844,0.37383173817539617,1.3142428528107921,0.9669270627572684,0.2868446375,0.6851129765858892
0.042,1.7559,1.0,2735.23548391016,0.3773440442852991,1.3137771091969666,0.9674786468353141,0.28680079999999997,0.6860456815816165
0.0425,1.75484375,1.0,2734.4774929183377,0.38083665029272973,1.3133069761690996,0.9680124318866886,0.2867564375,0.6869857738640792
0.043000000000000003,1.753775,1.0,2733.5916424887996,0.3843096595961662,1.3128323602442789,0.9685291662109553,0.28671155,0.6879334004591637
0.043500000000000004,1.75269375,1.0,2732.587487179235,0.387763194222788,1.3123531751892148,0.9690295619489812,0.28666613750000003,0.6888886924401011
0.044,1.7516,1.0,2731.4717634625126,0.39119736134492733,1.3118693603871672,0.9695142935897045,0.2866202,0.6898517284811838
0.0445,1.75049375,1.0,2730.2511264421987,0.3946122671974245,1.311380855976271,0.9699840005386653,0.2865737375,0.690822584602949
0.045,1.7493750000000001,1.0,2728.932231667892,0.3980080180151196,1.3108876020946605,0.9704392893625966,0.28652675,0.6918013356627298
0.0455,1.74824375,1.0,2727.5217339064857,0.40138472003285275,1.3103895388804707,0.9708807357913594,0.2864792375,0.6927880553366351
0.046,1.7471,1.0,2726.02628599376,0.4047424794854642,1.309886606471836,0.9713088865791437,0.2864312,0.6937828161013058
0.0465,1.7459437500000001,1.0,2724.4525377640543,0.40808140260779413,1.3093787450068912,0.9717242612360909,0.28638263750000004,0.6947856892154368
0.047,1.744775,1.0,2722.8071350604637,0.4114015956346826,1.308865894623771,0.9721273536405014,0.28633355,0.6957967447010764
0.0475,1.74359375,1.0,2721.0967188243653,0.41470316480096986,1.30834799546061,0.9725186335409228,0.28628393750000003,0.6968160513246926
0.048,1.7424,1.0,2719.3241161247925,0.4179862045342029,1.3078250223347774,0.972898548912413,0.2862338,0.6978436084967915
0.0485,1.74119375,1.0,2717.483580660702,0.42125078820898576,1.307297028151911,0.9732675291373581,0.2861831375,0.6988792617634045
0.049,1.739975,1.0,2715.6001712371444,0.42449708592979196,1.3067637851883922,0.9736259757465618,0.28613195,0.6999234059212053
0.0495,1.73874375,1.0,2713.676267976016,0.4277251946088895,1.3062252721592635,0.9739742764914421,0.2860802375,0.7009760289891103
0.05,1.7375,1.0,2711.7142486615758,0.43093521115854655,1.3056814677795667,0.9743128010916513,0.286028,0.7020371181636789
0.0505,1.73624375,1.0,2709.7164885678626,0.43412723249103113,1.3051323507643442,0.9746419022323267,0.2859752375,0.7031066598119426
0.051000000000000004,1.734975,1.0,2707.685360297438,0.4373013555186114,1.3045778998286377,0.9749619164976093,0.28592195,0.7041846394642103
0.051500000000000004,1.73369375,1.0,2705.6232336289877,0.44045767715355527,1.3040180936874899,0.9752731652450313,0.2858681375,0.7052710418068387
0.052000000000000005,1.7324,1.0,2703.532475375565,0.44359629430813097,1.3034529110559427,0.9755759554250051,0.2858138,0.7063658506749813
0.0525,1.73109375,1.0,2701.4154492530047,0.4467173038946065,1.3028823306490382,0.9758705803493085,0.28575893750000003,0.707469049045302
0.053,1.729775,1.0,2699.274515757893,0.4498208028252501,1.3023063311818186,0.9761573204121532,0.28570355000000003,0.7085806190286628
0.0535,1.72844375,1.0,2697.112032055876,0.4529068880123297,1.3017248913693262,0.9764364437671456,0.2856476375,0.7097005418627815
0.054,1.7271,1.0,2694.9303518802444,0.45597565636811344,1.301137989926603,0.9767082069631899,0.2855912,0.7108287979048635
0.0545,1.7257437500000001,1.0,2692.731825440001,0.45902720480486936,1.300545605568691,0.976972855542151,0.2855342375,0.711965366624199
0.055,1.724375,1.0,2690.5187993382756,0.4620616302348656,1.2999477170106326,0.9772306246008747,0.28547675,0.7131102265947369
0.0555,1.72299375,1.0,2688.293616501037,0.4650790295703702,1.2993443029674698,0.9774817393199756,0.2854187375,0.7142633554876264
0.056,1.7216,1.0,2686.0586161153037,0.4680794997236512,1.298735342154245,0.9777264154616117,0.2853602,0.7154247300637316
0.0565,1.72019375,1.0,2683.816133577816,0.4710631376069768,1.2981208132859998,0.977964859838306,0.28530113749999997,0.7165943261661162
0.057,1.718775,1.0,2681.5685004538227,0.474030040132615,1.297500695077777,0.9781972707547214,0.28524155,0.7177721187124986
0.0575,1.71734375,1.0,2679.31804444526,0.4769803042128339,1.2968749662446186,0.9784238384241554,0.2851814375,0.7189580816876804
0.058,1.7159,1.0,2677.067106925125,0.47991402552068596,1.2962436053404407,0.9786447452448462,0.2851208,0.720152188440361
0.0585,1.71444375,1.0,2674.817939002928,0.4828312765190601,1.295606591711923,0.9788601643571281,0.2850596375,0.7213544098739172
0.059000000000000004,1.7129750000000001,1.0,2672.570905292396,0.4857321766240759,1.294963922000211,0.9790702669515587,0.28499795,0.7225646834127981
0.059500000000000004,1.71149375,1.0,2670.326608288855,0.48861681383300304,1.2943155906547266,0.9792752146935324,0.2849357375,0.723782949928442
0.06,1.71,1.0,2668.085649474044,0.49148527614311094,1.293661592124892,0.9794751629284438,0.284873,0.7250091495876072
0.0605,1.7084937500000001,1.0,2665.84862931846,0.4943376515516694,1.2930019208601295,0.9796702609757642,0.2848097375,0.7262432218503647
0.061,1.7069750000000001,1.0,2663.6161472844997,0.497174028055948,1.2923365713098613,0.9798606524072393,0.28474595,0.7274851054680942
0.0615,1.7054437500000001,1.0,2661.3888018300026,0.49999449365321635,1.2916655379235094,0.9800464753101868,0.2846816375,0.7287347384814731
0.062,1.7039,1.0,2659.167190413059,0.502799136340744,1.2909888151504958,0.9802278625367937,0.2846168,0.7299920582184649
0.0625,1.70234375,1.0,2656.9519094964926,0.5055880441158007,1.290306397440243,0.9804049419402575,0.2845514375,0.7312570012923079
0.063,1.7007750000000001,1.0,2654.743554554264,0.508361304975656,1.2896182792421729,0.9805778365985609,0.28448555,0.7325295035994986
0.0635,1.69919375,1.0,2652.5427200777062,0.5111190069175796,1.2889244550057077,0.9807466650266127,0.28441913750000003,0.7338095003177767
0.064,1.6976,1.0,2650.3499995823568,0.513861237938841,1.2882249191802695,0.9809115413774402,0.2843522,0.7350969259041044
0.0645,1.69599375,1.0,2648.1659856163683,0.5165880860367098,1.2875196662152808,0.9810725756330755,0.2842847375,0.7363917140926453
0.065,1.694375,1.0,2645.9912697686727,0.5192996392084557,1.2868086905601632,0.9812298737857325,0.28421675,0.737693797892744
0.0655,1.69274375,1.0,2643.8264426780834,0.5219959854513483,1.2860919866643394,0.981383538009837,0.2841482375,0.7390031095868987
0.066,1.6911,1.0,2641.673505826272,0.5246771506051006,1.2853695359330828,0.9815336619081699,0.2840792,0.740319604468549
0.0665,1.6894437500000001,1.0,2639.532730596054,0.5273432968468265,1.2846413357336193,0.9816803458613315,0.2840096375,0.7416432078819548
0.067,1.687775,1.0,2637.404000388503,0.5299945099795916,1.2839073870172117,0.9818236816811156,0.28393955,0.7429738380008264
0.0675,1.68609375,1.0,2635.2872691827342,0.5326308689829055,1.2831676900844284,0.9819637574846644,0.2838689375,0.7443114135594677
0.068,1.6844000000000001,1.0,2633.182491080569,0.5352524528362779,1.2824222452358383,0.9821006583342966,0.2837978,0.7456558526656507
0.0685,1.68269375,1.0,2631.089620306105,0.5378593405192182,1.2816710527720099,0.9822344663630922,0.2837261375,0.7470070728007259
0.069,1.680975,1.0,2629.0086112051986,0.5404516110112363,1.280914112993512,0.982365260894468,0.28365395,0.7483649908197334
0.0695,1.67924375,1.0,2626.939418244486,0.5430293432918416,1.280151426200913,0.9824931185560705,0.28358123749999997,0.7497295229515126
0.07,1.6775,1.0,2624.8819960109367,0.5455926163405438,1.279382992694782,0.9826181133882929,0.283508,0.7511005847988119
0.07050000000000001,1.67574375,1.0,2622.836299210944,0.5481415091368526,1.2786088127756874,0.9827403169477025,0.2834342375,0.7524780913383992
0.07100000000000001,1.673975,1.0,2620.8022826698457,0.5506761006602775,1.2778288867441978,0.9828597984056557,0.28335995,0.7538619569211725
0.07150000000000001,1.67219375,1.0,2618.7799013311856,0.5531964698903282,1.2770432149008817,0.9829766246423446,0.2832851375,0.7552520952722701
0.07200000000000001,1.6704,1.0,2616.7691102561057,0.5557026958065143,1.2762517975463084,0.9830908603365254,0.2832098,0.7566484194911782
0.0725,1.66859375,1.0,2614.769864622483,0.5581948573883454,1.2754546349810458,0.9832025680511479,0.2831339375,0.7580508420518457
0.073,1.6667750000000001,1.0,2612.7821197245526,0.5606730336153312,1.274651727505663,0.9833118083151017,0.28305755,0.7594592748027903
0.0735,1.66494375,1.0,2610.80583097195,0.5631373034669811,1.2738430754207286,0.9834186397012757,0.2829806375,0.7608736289672102
0.074,1.6631,1.0,2608.8409538891483,0.565587745922805,1.2730286790268113,0.9835231189011254,0.2829032,0.7622938151430946
0.0745,1.6612437500000001,1.0,2606.8874441149514,0.5680244399623124,1.2722085386244795,0.9836253007959179,0.2828252375,0.7637197433033331
0.075,1.659375,1.0,2604.9452574016786,0.5704474645650129,1.271382654514302,0.9837252385248313,0.28274675,0.7651513227958258
0.0755,1.65749375,1.0,2603.0143496144715,0.5728568987104162,1.2705510269968476,0.9838229835500581,0.2826677375,0.7665884623435939
