Time [s],Phi [rad],STIM [ ],Fsee [N],Gamma [ ],Lcerel [ ],q [ ],Lmtc [m],fisomrel [ ]
0.0,1.8,1.0,17.96656390182413,1.128341984813718e-05,1.3793398127979104,0.005000033899543143,0.288653,0.5411393699822906
0.0005,1.79999375,1.0,18.2763830805365,0.005620429437581223,1.3793024278970545,0.012944079135955137,0.2886527375,0.5412298092838004
0.001,1.799975,1.0,21.61899109431716,0.011198112581070285,1.3789382398589536,0.035615270290308795,0.28865195,0.5421103647085401
0.0015,1.79994375,1.0,31.071787765648526,0.016744509333026174,1.378045986332132,0.070610869994944,0.2886506375,0.5442641333487421
0.002,1.7999,1.0,53.588715194258214,0.022259795184505052,1.3763677212129057,0.1147286915962427,0.2886488,0.5483014618271826
0.0025,1.79984375,1.0,97.13006902707187,0.02774414464248361,1.3739346308802671,0.1645864827955561,0.28864643749999996,0.5541227417998673
0.003,1.7997750000000001,1.0,160.97306210713353,0.03319773123756239,1.3712137862244291,0.2172924090807876,0.28864354999999997,0.5605877707810072
0.0035,1.79969375,1.0,237.70039159302618,0.03862072752356746,1.3685842087479128,0.27062477761942794,0.2886401375,0.566791074814015
0.004,1.7996,1.0,321.48509014349486,0.04401330508833018,1.3661556072079133,0.3229273125383583,0.2886362,0.5724810947391719
0.0045000000000000005,1.7994937500000001,1.0,409.2868628811164,0.049375634558872214,1.3639223655381716,0.3730454339184299,0.2886317375,0.5776802036387163
0.005,1.799375,1.0,499.4331095706351,0.054707885592501525,1.361857925737719,0.4202576831169136,0.28862675,0.5824580407550876
0.0055,1.79924375,1.0,590.8102842544849,0.06001022692420582,1.3599384468859808,0.4641831628063931,0.2886212375,0.5868760027210077
0.006,1.7991000000000001,1.0,682.538075871246,0.06528282630998566,1.358146051793266,0.5046886603537268,0.2886152,0.590980247400814
0.006500000000000001,1.79894375,1.0,773.8854140337335,0.07052585035892181,1.3564671826687766,0.5418088843071053,0.2886086375,0.594805955612835
0.007,1.798775,1.0,864.3133692512745,0.07573946570603761,1.3548899498491436,0.5756839511605534,0.28860155,0.5983836846175777
0.0075,1.79859375,1.0,953.2769306264331,0.08092383658601665,1.3534062606208683,0.6065163759291116,0.2885939375,0.6017347415624199
0.008,1.7984,1.0,1040.3790579804186,0.08607912700105365,1.3520083430027088,0.63453803811755,0.2885858,0.6048792297719622
0.0085,1.79819375,1.0,1125.3384021780812,0.09120550046890473,1.35068889927597,0.659989837107319,0.2885771375,0.6078357650657161
0.009000000000000001,1.797975,1.0,1207.9039008826646,0.09630311903350926,1.349441984217121,0.6831092541003223,0.28856795,0.6106195780178614
0.0095,1.79774375,1.0,1287.890196762875,0.1013721438364462,1.348262150387313,0.7041221205213307,0.2885582375,0.6132444981109842
0.01,1.7975,1.0,1365.1784670258419,0.10641273560724526,1.347144238530481,0.7232383660987513,0.288548,0.6157234619103715
0.0105,1.79724375,1.0,1439.6830546891376,0.11142505388479329,1.346083651573536,0.7406503563970358,0.2885372375,0.6180679404130338
0.011,1.796975,1.0,1511.3381669506332,0.11640925668952233,1.345076358773635,0.7565325428008105,0.28852595000000003,0.62028796752401
0.0115,1.79669375,1.0,1580.1279837130285,0.12136550177955352,1.3441183997764434,0.7710417780006678,0.2885141375,0.6223932619110327
0.012,1.7964,1.0,1646.0740500956858,0.12629394663561902,1.3432059655157764,0.7843184396465697,0.28850180000000003,0.6243930651606623
0.0125,1.79609375,1.0,1709.1969584273593,0.13119474713072118,1.3423357707879013,0.7964879109311002,0.2884889375,0.6262953445122879
0.013000000000000001,1.7957750000000001,1.0,1769.5193749937591,0.13606805764276295,1.3415049280192994,0.807661911244739,0.28847555,0.6281070922784857
0.0135,1.79544375,1.0,1827.0956186150395,0.1409140325496472,1.340710549636452,0.8179397288568862,0.2884616375,0.629835208438861
0.014,1.7951000000000001,1.0,1881.9942724294553,0.14573282505240584,1.3399499078838901,0.8274096262510777,0.2884472,0.6314861611279803
0.0145,1.79474375,1.0,1934.3010799678539,0.15052458897252421,1.3392203645590075,0.8361500548059353,0.2884322375,0.6330661488152234
0.015,1.794375,1.0,1984.0714061971805,0.1552894747190913,1.3385198476630291,0.8442309403865933,0.28841675,0.634580078884565
0.0155,1.79399375,1.0,2031.378662246478,0.16002763269436146,1.337846286146655,0.8517144864681847,0.2884007375,0.6360328027325018
0.016,1.7936,1.0,2076.3097238523537,0.16473921301209699,1.3371976415026046,0.8586560958907793,0.2883842,0.6374290515468144
0.0165,1.7931937500000001,1.0,2118.952844413704,0.16942436490055182,1.336572015859969,0.8651052086256041,0.2883671375,0.6387732083544541
0.017,1.792775,1.0,2159.408053065845,0.17408323828133437,1.3359675254576457,0.8711059707737274,0.28834955,0.6400695849421754
0.0175,1.7923437500000001,1.0,2197.7415348658956,0.17871597905202807,1.3353827503274969,0.8766979814196812,0.2883314375,0.6413214629552421
0.018000000000000002,1.7919,1.0,2234.0288284546955,0.18332273311021627,1.3348162705013855,0.8819166978953273,0.2883128,0.6425320950495633
0.0185,1.79144375,1.0,2268.354049991011,0.1879036463534823,1.3342666660111737,0.8867939195233412,0.2882936375,0.6437047066128012
0.019,1.790975,1.0,2300.7956338531694,0.19245886375175644,1.3337326508191574,0.8913582443691976,0.28827395,0.6448422122998035
0.0195,1.79049375,1.0,2331.4536836321918,0.19698853071613168,1.333212792649896,0.8956353673434037,0.2882537375,0.6459478150971218
0.02,1.79,1.0,2360.4172417994814,0.20149279113790386,1.3327058316719909,0.899648485490736,0.288233,0.6470243289905896
0.0205,1.78949375,1.0,2387.737492603281,0.20597178608521985,1.3322109300737963,0.9034186324695237,0.2882117375,0.6480736541438241
0.021,1.788975,1.0,2413.469750989043,0.21042565662622656,1.3317272500436665,0.906964822739857,0.28818995000000003,0.6490976772272536
0.021500000000000002,1.7884495807993335,1.0,2437.9469248313126,0.21485454382907088,1.3312539537699561,0.9103042730498703,0.288167882393572,0.6500982720400885
0.022,1.787924154323398,1.0,2461.548041154775,0.21925858834548675,1.3307902205474071,0.9134526004225498,0.2881458144815827,0.6510772639993551
0.0225,1.7873987278474623,1.0,2484.304883486123,0.22363793006190338,1.33033561355775,0.9164240666765736,0.2881237465695934,0.6520356582124518
0.023,1.786873301371527,1.0,2506.23842427809,0.22799270810344857,1.3298898087232671,0.9192316650677476,0.28810167865760417,0.6529742158817802
0.0235,1.7863478748955914,1.0,2527.3757688163223,0.23232305907881912,1.3294524346855403,0.9218872202497828,0.28807961074561483,0.6538937923462047
0.024,1.7858224484196559,1.0,2547.745168315029,0.23662911959671185,1.3290231200861502,0.924401519290969,0.28805754283362556,0.6547952374004298
0.0245,1.7852970219437203,1.0,2567.375952029325,0.24091102626582356,1.3286014935666781,0.926784416986472,0.2880354749216363,0.6556793954902691
0.025,1.784771595467785,1.0,2586.2864543307446,0.24516890836775382,1.3281872958989314,0.9290449447394189,0.28801340700964695,0.6565468712071023
0.025500000000000002,1.7842461689918494,1.0,2604.523738756973,0.24940291230814235,1.3277800078059956,0.9311913413492319,0.2879913390976577,0.6573988089371858
0.026000000000000002,1.7837207425159138,1.0,2622.113068389569,0.2536131712990002,1.3273793225438784,0.9332311935843862,0.2879692711856684,0.6582359029678293
0.0265,1.7831953160399783,1.0,2639.0757859219716,0.25779981577902983,1.3269849764833292,0.9351714761566824,0.28794720327367906,0.659058753680474
0.027,1.782669889564043,1.0,2655.4338761065883,0.261962976186934,1.3265967059950967,0.9370186042066949,0.2879251353616898,0.6598679580138787
0.0275,1.7821444630881074,1.0,2671.209929471704,0.26610278296141515,1.3262142474499303,0.9387784856585204,0.2879030674497005,0.660664109568481
0.028,1.7816190366121718,1.0,2686.427107580128,0.2702193665411759,1.325837337218579,0.940456568041517,0.2878809995377112,0.6614477987063331
0.0285,1.7810936101362362,1.0,2701.1091098288416,0.27431285736491884,1.3254657116717914,0.9420578804237355,0.2878589316257219,0.662219612646602
0.029,1.780568183660301,1.0,2715.2801417884934,0.2783833858713464,1.325099107180317,0.9435870710205675,0.2878368637137326,0.6629801355566349
0.029500000000000002,1.7800427571843653,1.0,2728.9648850852273,0.2824310824991613,1.3247372601149048,0.945048440971787,0.28781479580174335,0.6637299486385991
0.03,1.7795173307084298,1.0,2742.1783622762596,0.2864560698129571,1.3243799984982931,0.9464459842009968,0.2877927278897541,0.664469440606656
0.0305,1.7789919042324942,1.0,2754.950709777172,0.2904584843619071,1.3240270165629306,0.9477833918288462,0.28777065997776474,0.6651992746725965
0.031,1.7784664777565589,1.0,2767.301669034008,0.2944384536161026,1.323678106366084,0.9490641000585562,0.28774859206577547,0.6659199089900063
0.0315,1.7779410512806233,1.0,2779.2459836038493,0.29839610064322514,1.3233331078677895,0.9502913068098372,0.2877265241537862,0.6666317007543254
0.032,1.7774156248046877,1.0,2790.7986545280983,0.302331548510956,1.3229918610280822,0.951467986978936,0.28770445624179686,0.6673350054515818
0.0325,1.7768901983287522,1.0,2801.97492673636,0.3062449202869767,1.322654205806998,0.9525969107352454,0.2876823883298076,0.6680301768974979
0.033,1.7763647718528166,1.0,2812.790276018001,0.31013633903896864,1.3223199821645726,0.9536806601064023,0.2876603204178183,0.6687175672749669
0.0335,1.7758393453768813,1.0,2823.260396561915,0.3140059278346132,1.3219890300608415,0.9547216440302988,0.28763825250582903,0.6693975271698933
0.034,1.7753139189009457,1.0,2833.401189064261,0.31785380974159183,1.3216611894558403,0.9557221120320567,0.2876161845938397,0.6700704056054019
0.0345,1.7747884924250101,1.0,2843.2287494038073,0.3216801078275859,1.3213363003096048,0.9566841666661694,0.2875941166818504,0.6707365500744116
0.035,1.7742630659490746,1.0,2852.7569450838932,0.3254849420532393,1.3210142240345992,0.957609776379405,0.28757204876986114,0.6713962626513525
0.035500000000000004,1.7737376394731392,1.0,2861.99594171107,0.3292684291947818,1.3206948563119314,0.9585007870647798,0.28754998085787187,0.6720497740276457
0.036000000000000004,1.7732122129972037,1.0,2870.967696199099,0.3330307021770611,1.3203779894348624,0.9593589215714146,0.28752791294588254,0.672697525145648
0.0365,1.772686786521268,1.0,2879.6812593432865,0.3367718765811336,1.3200635315948572,0.9601858034080712,0.28750584503389326,0.6733397185683285
0.037,1.7721613600453325,1.0,2888.1457843711996,0.34049206798805576,1.3197513909833811,0.9609829564007306,0.287483777121904,0.6739765560082683
0.0375,1.7716359335693972,1.0,2896.370522132633,0.3441913919788837,1.3194414757918993,0.9617518119324113,0.28746170920991465,0.6746082383414969
0.038,1.7711105070934616,1.0,2904.364816476455,0.3478699641346739,1.319133694211877,0.9624937155800609,0.2874396412979254,0.6752349656207914
0.0385,1.770585080617526,1.0,2912.1380998137583,0.35152790003648265,1.3188279544347796,0.9632099332048056,0.2874175733859361,0.6758569370884377
0.039,1.7700596541415905,1.0,2919.69988886836,0.35516531526536627,1.3185241646520718,0.963901656546069,0.28739550547394677,0.6764743511884562
0.0395,1.7695342276656552,1.0,2927.0597806144265,0.35878232540238103,1.3182222330552194,0.9645700083649077,0.28737343756195755,0.6770874055782834
0.04,1.7690088011897196,1.0,2934.2274484000186,0.3623790460285833,1.317922067835687,0.9652160471773522,0.2873513696499682,0.677696297139926
0.0405,1.768483374713784,1.0,2941.212638258744,0.3659555927250294,1.3176235771849405,0.9658407716144607,0.28732930173797894,0.6783012219905681
0.041,1.7679579482378485,1.0,2948.019507850413,0.36951206879387927,1.3173267187768634,0.9664451265498163,0.28730723382598966,0.6789022753517522
0.0415,1.7674325217619131,1.0,2954.6601801156057,0.3730485985324138,1.3170313810501189,0.9670300023635872,0.28728516591400033,0.679499692058209
0.042,1.7669070952859776,1.0,2961.144351593194,0.3765653002730964,1.3167374742604563,0.9675962414873659,0.28726309800201105,0.6800936619869478
0.0425,1.766381668810042,1.0,2967.4771312330495,0.38006228168478956,1.3164449491727526,0.9681446423269995,0.2872410300900218,0.680684292548004
0.043000000000000003,1.7658562423341064,1.0,2973.6636651088247,0.3835396504363554,1.316153756551885,0.9686759605686465,0.28721896217803244,0.6812716907465926
0.043500000000000004,1.7653308158581709,1.0,2979.7091349367824,0.38699751419665634,1.3158638471627306,0.9691909118953458,0.28719689426604317,0.6818559631873697
0.044,1.7648053893822355,1.0,2985.6187566477092,0.3904359806345546,1.315575171770167,0.9696901745046136,0.2871748263540539,0.6824372160785385
0.0445,1.7642799629063,1.0,2991.3977790132694,0.39385515741891264,1.3152876811390708,0.970174391443485,0.2871527584420646,0.6830155552358024
0.045,1.7637545364303644,1.0,2997.051482325652,0.39725515221859264,1.3150013260343194,0.97064417277591,0.2871306905300753,0.683591086086162
0.0455,1.7632291099544288,1.0,3002.585177131516,0.400636072702457,1.3147160572207899,0.9711000975960696,0.287108622618086,0.6841639136715578
0.046,1.7627036834784935,1.0,3008.004203018755,0.403998026539368,1.3144318254633596,0.9715427158999658,0.28708655470609673,0.6847341426523578
0.0465,1.762178257002558,1.0,3013.3139274579667,0.40734112139818796,1.3141485815269056,0.9719725503265257,0.28706448679410745,0.6853018773106925
0.047,1.7616528305266224,1.0,3018.519744696985,0.41066546494777917,1.3138662761763051,0.9723900977784918,0.2870424188821181,0.6858672215536332
0.0475,1.7611274040506868,1.0,3023.624728508837,0.4139711548556776,1.313584880438727,0.9727958310840682,0.28702035097012885,0.6864302383935885
0.048,1.7606019775747515,1.0,3028.6320115001413,0.41725829282393984,1.313304364979966,0.973190200762535,0.28699828305813957,0.6869909913408808
0.0485,1.760076551098816,1.0,3033.550581770019,0.4205270064863714,1.3130246501217042,0.9735736355302123,0.28697621514615024,0.6875496441842623
0.049,1.7595511246228803,1.0,3038.383044347016,0.4237773950006469,1.3127457114746868,0.9739465440616255,0.28695414723416096,0.6881062498539285
0.0495,1.7590256981469448,1.0,3043.1320173608733,0.42700955752444086,1.3124675246496595,0.9743093158967131,0.2869320793221717,0.6886608610947527
0.05,1.7585002716710094,1.0,3047.800131629837,0.43022359321542797,1.3121900652573675,0.9746623225097173,0.2869100114101824,0.6892135304674765
0.0505,1.7579748451950739,1.0,3052.3900302604297,0.43341960123128276,1.3119133089085566,0.9750059183090725,0.28688794349819313,0.6897643103498576
0.051000000000000004,1.7574494187191383,1.0,3056.9043682608644,0.43659768072967997,1.311637231213972,0.9753404415733247,0.2868658755862038,0.6903132529377851
0.051500000000000004,1.7569239922432027,1.0,3061.345812167468,0.43975793086829407,1.3113618077843592,0.9756662153277087,0.2868438076742145,0.6908604102463514
0.052000000000000005,1.7563985657672672,1.0,3065.717039684086,0.44290045080479973,1.3110870142304638,0.9759835481656359,0.28682173976222525,0.6914058341108904
0.0525,1.7558731392913318,1.0,3070.020739335027,0.44602533969687147,1.3108128261630312,0.9762927350190094,0.2867996718502359,0.6919495761879763
0.053,1.7553477128153963,1.0,3074.2596101311906,0.44913269670218403,1.310539219192807,0.9765940578809673,0.28677760393824664,0.6924916879563834
0.0535,1.7548222863394607,1.0,3078.43636124897,0.45222262097841204,1.3102661689305364,0.9768877864843855,0.28675553602625736,0.6930322207180097
0.054,1.7542968598635251,1.0,3082.553711722759,0.45529521168322995,1.3099936509869652,0.9771741789391941,0.28673346811426803,0.6935712255987616
0.0545,1.7537714333875898,1.0,3086.6143901507508,0.45835056797431245,1.3097216409728387,0.977453482331347,0.28671140020227875,0.6941087535494005
0.055,1.7532460069116542,1.0,3090.621134413091,0.46138878900933417,1.3094501144989024,0.9777259332860478,0.2866893322902895,0.6946448553463528
0.0555,1.7527205804357187,1.0,3094.572078513669,0.4644099321720709,1.309179086554484,0.9779917569003898,0.28666726437830015,0.6951795039455835
0.056,1.752195153959783,1.0,3098.473430383869,0.46741413714268815,1.308908503223604,0.9782511725659,0.28664519646631087,0.6957128081509968
0.0565,1.7516697274838477,1.0,3102.3281241134,0.47040151042765366,1.308638338650837,0.9785043891378364,0.2866231285543216,0.6962448211570514
0.057,1.7511443010079122,1.0,3106.137336711626,0.473372141647326,1.308368582026961,0.9787516062673669,0.2866010606423323,0.6967755663861015
0.0575,1.7506188745319766,1.0,3109.9022494272467,0.4763261204220638,1.3080992225427555,0.9789930155306124,0.28657899273034304,0.6973050671828751
0.058,1.750093448056041,1.0,3113.62404765151,0.47926353637222563,1.3078302493889984,0.9792288008198634,0.2865569248183537,0.6978333468147546
0.0585,1.7495680215801057,1.0,3117.3039208246805,0.48218447911817025,1.307561651756469,0.9794591387128294,0.28653485690636443,0.6983604284720424
0.059000000000000004,1.7490425951041702,1.0,3120.943062344362,0.4850890382802562,1.3072934188359457,0.9796841988213223,0.28651278899437516,0.6988863352682272
0.059500000000000004,1.7485171686282346,1.0,3124.5426694770063,0.4879773034788421,1.3070255398182071,0.9799041441206692,0.2864907210823858,0.6994110902402376
0.06,1.747991742152299,1.0,3128.1039432718408,0.49084936433428655,1.3067580038940318,0.9801191312610639,0.28646865317039655,0.6999347163486899
0.0605,1.7474663156763637,1.0,3131.628088477205,0.49370531046694827,1.3064908002541988,0.9803293108619796,0.28644658525840727,0.7004572364781276
0.061,1.7469408892004281,1.0,3135.116313459692,0.4965452314971859,1.3062239180894863,0.9805348277906875,0.286424517346418,0.7009786734372563
0.0615,1.7464154627244926,1.0,3138.569830125775,0.4993692170453579,1.3059573465906735,0.9807358214258534,0.2864024494344287,0.701499049959166
0.062,1.745890036248557,1.0,3141.989853846164,0.5021773567318231,1.3056910749485386,0.9809324259071227,0.2863803815224394,0.7020183887015528
0.0625,1.7453646097726216,1.0,3145.3776033826484,0.50496974017694,1.3054250923538604,0.9811247703715337,0.2863583136104501,0.7025367122469255
0.063,1.744839183296686,1.0,3148.734300817319,0.5077464570010671,1.3051593879974177,0.9813129791775527,0.28633624569846083,0.7030540431028109
0.0635,1.7443137568207505,1.0,3152.0611714846937,0.5105075968245634,1.3048939510699888,0.981497172117463,0.2863141777864715,0.7035704037019492
0.064,1.743788330344815,1.0,3155.359443906581,0.5132532492677871,1.304628770762353,0.9816774646187978,0.2862921098744822,0.7040858164024804
0.0645,1.7432629038688794,1.0,3158.6303497289305,0.5159835039510973,1.3043638362652883,0.9818539679354548,0.28627004196249295,0.7046003034881275
0.065,1.742737477392944,1.0,3161.874769992486,0.5186984427554143,1.304099139756416,0.9820267889455012,0.2862479740505036,0.7051138813756628
0.0655,1.7422120509170085,1.0,3165.0915911456705,0.5213981118860671,1.3038346902690223,0.9821960291371298,0.28622590613851434,0.7056265337663497
0.066,1.741686624441073,1.0,3168.2843276539024,0.5240826616177093,1.3035704577759308,0.9823617915157992,0.28620383822652506,0.7061383200437239
0.0665,1.7411611979651374,1.0,3171.4534854478907,0.5267521718413312,1.3033064376829384,0.9825241719853428,0.28618177031453573,0.7066492501916002
0.067,1.740635771489202,1.0,3174.5995718524414,0.529406722447923,1.303042625395842,0.982683263123262,0.2861597024025465,0.7071593341619751
0.0675,1.7401103450132664,1.0,3177.7230955638192,0.5320463933284751,1.3027790163204382,0.9828391543195288,0.2861376344905572,0.7076685818750886
0.068,1.7395849185373309,1.0,3180.8245666302287,0.534671264373978,1.3025156058625242,0.982991931908657,0.2861155665785679,0.7081770032194831
0.0685,1.7390594920613953,1.0,3183.904496430182,0.5372814154754221,1.3022523894278968,0.9831416792954193,0.2860934986665786,0.7086846080520632
0.069,1.73853406558546,1.0,3186.9633976531027,0.5398769265237975,1.3019893624223524,0.9832884770745547,0.2860714307545893,0.709191406198154
0.0695,1.7380086391095244,1.0,3190.001784279726,0.5424578774100945,1.3017265202516883,0.9834324031447913,0.2860493628426,0.7096974074515545
0.07,1.7374832126335888,1.0,3193.0201715628955,0.5450243480253039,1.3014638583217009,0.9835735328174955,0.28602729493061074,0.7102026215745966
