Time [s],Phi [rad],STIM [ ],Fsee [N],Gamma [ ],Lcerel [ ],q [ ],Lmtc [m],fisomrel [ ]
0.0,1.8,1.0,17.988071556941254,0.0001472796844946877,1.3793374039021116,0.005005659638368288,0.288653,0.5411451977066526
0.0005,1.79999375,1.0,18.342573814886915,0.005755662870764277,1.3792950819673506,0.01332602245943992,0.2886527375,0.541247579066903
0.001,1.799975,1.0,21.786201172184093,0.011332587461625809,1.3789211949459677,0.03632751825487457,0.28865195,0.5421515561885204
0.0015,1.79994375,1.0,31.456112979708998,0.016878229915877327,1.3780133451122965,0.07158350612718452,0.2886506375,0.5443428281792471
0.002,1.7999,1.0,54.405658113313294,0.022392765700508938,1.3763149257464815,0.11587911901974612,0.2886488,0.5484281781263396
0.0025,1.79984375,1.0,98.49387378518524,0.027876369299114356,1.3738691452198362,0.16583712961470706,0.28864643749999996,0.5542788974891233
0.003,1.7997750000000001,1.0,162.74150561970032,0.03332921421839533,1.371147775565753,0.21858206408436717,0.28864354999999997,0.5607440328207698
0.0035,1.79969375,1.0,239.69513765149082,0.0387514729887612,1.3685228958609754,0.2719070908169431,0.2886401375,0.5669351888591858
0.004,1.7996,1.0,323.60526945468195,0.04414331717479963,1.3660995456349718,0.324168666467758,0.2886362,0.5726119983605459
0.0045000000000000005,1.7994937500000001,1.0,411.4809539320768,0.04950491738055809,1.363870931899396,0.3742236135480841,0.2886317375,0.5777995692559474
0.005,1.799375,1.0,501.67083641549596,0.05483644324131732,1.3618104283054147,0.42135982860164556,0.28862675,0.5825676465862641
0.0055,1.79924375,1.0,593.0668137624644,0.06013806346376723,1.3598944025283326,0.4652034961916381,0.2886212375,0.5869771014948166
0.006,1.7991000000000001,1.0,684.7957181953944,0.0654099457869805,1.3581050483443213,0.5056262952199656,0.2886152,0.5910738978007376
0.006500000000000001,1.79894375,1.0,776.1450082752986,0.07065225700997019,1.356428638131223,0.5426659935792909,0.2886086375,0.5948935775507709
0.007,1.798775,1.0,866.5208803182068,0.07586516303952132,1.3548543147793675,0.5764652724063408,0.28860155,0.5984643344466378
0.0075,1.79859375,1.0,955.4335879474423,0.08104882864737398,1.3533731083291107,0.6072271075526006,0.2885939375,0.6018094588961179
0.008,1.7984,1.0,1042.5091614538817,0.08620341822837854,1.3519769978672211,0.635183656013179,0.2885858,0.6049495949374306
0.0085,1.79819375,1.0,1127.4218083145638,0.09132909460540554,1.3506594198598187,0.6605762922917271,0.2885771375,0.6079016940802786
0.009000000000000001,1.797975,1.0,1209.9234498003252,0.09642601980770073,1.3494144010489106,0.6836422567557201,0.28856795,0.6106810470013746
0.0095,1.79774375,1.0,1289.852012164959,0.10149435528690189,1.3482362001815538,0.7046068633774761,0.2885582375,0.6133021329180893
0.01,1.7975,1.0,1367.0826321579868,0.10653426173880648,1.3471197734915492,0.7236796927908584,0.288548,0.6157776238876773
0.0105,1.79724375,1.0,1441.5128887118944,0.11154589803247099,1.3460607572561705,0.7410527866115584,0.2885372375,0.6181184703038453
0.011,1.796975,1.0,1513.0941920414343,0.11652942258336492,1.3450549145082524,0.7569000527704758,0.28852595000000003,0.6203351593549191
0.0115,1.79669375,1.0,1581.8301415737724,0.12148499406719293,1.3440980703947831,0.7713778361698664,0.2885141375,0.6224378761179429
0.012,1.7964,1.0,1647.7206862407597,0.1264127691497533,1.3431866968444799,0.7846262654494788,0.28850180000000003,0.6244352395056603
0.0125,1.79609375,1.0,1710.7710068900237,0.13131290289252462,1.3423176944909196,0.7967704477530402,0.2884889375,0.6263348087959866
0.013000000000000001,1.7957750000000001,1.0,1771.0223856517955,0.13618555035698537,1.3414879639676802,0.8079216913204589,0.28847555,0.6281440384732409
0.0135,1.79544375,1.0,1828.5318549520475,0.1410308658269326,1.3406945964541428,0.8181789935010088,0.2884616375,0.6298698722798113
0.014,1.7951000000000001,1.0,1883.3822198566793,0.14584900381145674,1.3399347174144267,0.827630314541072,0.2884472,0.6315190940573147
0.0145,1.79474375,1.0,1935.631080186803,0.15064011604509386,1.3392060062789883,0.8363539999840558,0.2884322375,0.633097210791642
0.015,1.794375,1.0,1985.3409487846836,0.15540435343596656,1.338506314897819,0.8444197472167058,0.28841675,0.6346092945609014
0.0155,1.79399375,1.0,2032.5928289493588,0.1601418668921975,1.33783349512091,0.8518895586014587,0.2884007375,0.6360603621632335
0.016,1.7936,1.0,2077.467312903413,0.16485280627224075,1.337185579061665,0.8588187061498368,0.2883842,0.63745499130373
0.0165,1.7931937500000001,1.0,2120.0694847451855,0.16953732211660003,1.3365604977071197,0.8652564422289578,0.2883671375,0.6387979317064282
0.017,1.792775,1.0,2160.471903847822,0.17419556169032271,1.3359566550142974,0.8712468785282191,0.28834955,0.6400928761211875
0.0175,1.7923437500000001,1.0,2198.7492536873215,0.17882767168711663,1.335372543549587,0.8768294797774875,0.2883314375,0.6413432941105881
0.018000000000000002,1.7919,1.0,2234.9858808808817,0.18343379880068963,1.3348066558793783,0.882039585186974,0.2883128,0.6425526249326134
0.0185,1.79144375,1.0,2269.2654680559244,0.18801408864826047,1.3342575793157374,0.8869089139445899,0.2882936375,0.6437240773915291
0.019,1.790975,1.0,2301.6807264770155,0.19256868784909936,1.3337238889792011,0.8914659580688793,0.28827395,0.6448608607289472
0.0195,1.79049375,1.0,2332.30498698098,0.19709773990861276,1.3332044208529776,0.8957364155459151,0.2882537375,0.6459656056251013
0.02,1.79,1.0,2361.2077505361026,0.20160138711581138,1.3326981055189582,0.8997434667599079,0.288233,0.6470407225258169
0.0205,1.78949375,1.0,2388.463647350975,0.2060797717597059,1.332203873559035,0.9035080354940382,0.2882117375,0.6480886045675152
0.021,1.788975,1.0,2414.1520038421713,0.21053303612930704,1.331720655555099,0.907049039336769,0.28818995000000003,0.6491116284378039
0.021500000000000002,1.78844375,1.0,2438.3378698518172,0.21496131980425393,1.3312475606296654,0.9103836457966845,0.2881676375,0.6501117779875514
0.022,1.7879,1.0,2461.113278314308,0.21936476685521247,1.3307834736904003,0.9135273817602313,0.2881448,0.6510914972363274
0.0225,1.78734375,1.0,2482.532217044235,0.22374351467082673,1.3303276771781962,0.9164944280012559,0.28812143749999997,0.6520523778381933
0.023,1.786775,1.0,2502.651124462992,0.22809770060948645,1.3298794553236046,0.9192976852265833,0.28809755,0.6529959979445215
0.0235,1.78619375,1.0,2521.5288592926267,0.2324274620295813,1.329438092357177,0.9219489070242108,0.28807313749999996,0.6539239263522454
0.024,1.7856,1.0,2539.2264964409496,0.23673293628950104,1.3290028725094645,0.9244588177112041,0.2880482,0.6548377228332942
0.0245,1.78499375,1.0,2555.8012232064643,0.24101425955514338,1.328573135535874,0.9268372258917815,0.2880227375,0.6557388220794775
0.025,1.784375,1.0,2571.3112633831024,0.24527156817654203,1.3281482280644346,0.9290931079963317,0.28799675,0.6566286365375378
0.025500000000000002,1.78374375,1.0,2585.8205223232885,0.24950499913210689,1.3277274586440877,0.931234682959418,0.2879702375,0.6575086506718361
0.026000000000000002,1.7831000000000001,1.0,2599.370519192257,0.2537146844185458,1.3273103583055872,0.9332695261252826,0.2879432,0.658379876740651
0.0265,1.78244375,1.0,2612.0038956643307,0.25790075603256646,1.3268964580796867,0.9352045967591347,0.2879156375,0.6592433217313637
0.027,1.781775,1.0,2623.764321514197,0.2620633459708769,1.3264852889971401,0.9370462964120331,0.28788755,0.6600999874631821
0.0275,1.7810937500000001,1.0,2634.6964050837,0.2662025862301848,1.3260763820887012,0.9388005210462347,0.2878589375,0.6609508706758398
0.028,1.7804,1.0,2644.8456086252186,0.270318608807198,1.3256692683851237,0.9404727076553845,0.2878298,0.6617969631042675
0.0285,1.77969375,1.0,2654.2513349128744,0.27441154146704155,1.3252635419063739,0.94206788340909,0.2878001375,0.6626391208753846
0.029,1.778975,1.0,2662.963137127398,0.278481519542084,1.3248587092855473,0.9435906857044775,0.28776995,0.663478376917501
0.029500000000000002,1.7782437500000001,1.0,2671.0118422870873,0.28252866973760415,1.3244544551982433,0.9450454272223593,0.2877392375,0.664315390631413
0.03,1.7775,1.0,2678.428237836803,0.28655311848097215,1.3240504690282942,0.9464361036417185,0.287708,0.665150808426475
0.0305,1.77674375,1.0,2685.243539739075,0.2905549921995585,1.323646440159532,0.9477664204728091,0.2876762375,0.6659852735078522
0.031,1.775975,1.0,2691.489352821619,0.2945344173207334,1.3232420579757889,0.9490398177804701,0.28764395,0.6668194258787524
0.0315,1.7751937500000001,1.0,2697.197633263351,0.29849152027186715,1.322837011860897,0.9502594925105688,0.2876111375,0.6676539023365022
0.032,1.7744,1.0,2702.399686729307,0.30242642661847213,1.3224310000276627,0.9514284194934861,0.2875778,0.6684893183072749
0.0325,1.77359375,1.0,2707.1179947736705,0.30633925386436817,1.3220238037773053,0.9525493764038095,0.2875439375,0.6693261154362103
0.033,1.772775,1.0,2711.3953508935388,0.31023014117643644,1.321615021176983,0.9536249369828247,0.28750955,0.6701651089072983
0.0335,1.7719437500000002,1.0,2715.251005535476,0.3140992082343141,1.321204467187121,0.9546575218392899,0.2874746375,0.6710066653668294
0.034,1.7711000000000001,1.0,2718.7043698965936,0.3179465747176382,1.3207919567681448,0.9556493912676328,0.2874392,0.6718511494670432
0.0345,1.7702437500000001,1.0,2721.7750004118866,0.32177236030604606,1.3203773048804797,0.9566026577563648,0.2874032375,0.6726989238441332
0.035,1.7693750000000001,1.0,2724.482584000161,0.3255766846791746,1.3199603264845512,0.9575192973809431,0.28736675,0.6735503490940671
0.035500000000000004,1.76849375,1.0,2726.8469240695295,0.3293596675166611,1.3195408365407846,0.958401160192231,0.2873297375,0.6744057837462232
0.036000000000000004,1.7676,1.0,2728.887927281661,0.3331214284981427,1.3191186500096053,0.9592499796995436,0.2872922,0.675265584234844
0.0365,1.76669375,1.0,2730.6255910755326,0.3368620873032564,1.3186935818514391,0.9600673815365443,0.2872541375,0.6761301048683037
0.037,1.765775,1.0,2732.0799919500632,0.3405817636116395,1.318265447026711,0.9608548913888065,0.28721555,0.6769996977961985
0.0375,1.76484375,1.0,2733.270935715291,0.3442805763620579,1.3178340635732015,0.9616139423962976,0.2871764375,0.6778747067364352
0.038,1.7639,1.0,2734.21237681189,0.34795863540858923,1.3173993031932727,0.9623458849323437,0.28713679999999997,0.6787553645804367
0.0385,1.76294375,1.0,2734.923782307897,0.35161607092770003,1.316960987942417,0.9630519886982646,0.28709663750000003,0.6796420029418593
0.039,1.761975,1.0,2735.416301124402,0.35525299541492283,1.3165190157751325,0.9637334523709266,0.28705595,0.6805347979998132
0.0395,1.7609937500000001,1.0,2735.7011134468858,0.35886952136579003,1.3160732846459182,0.964391405112743,0.2870147375,0.6814339245316976
0.04,1.76,1.0,2735.7894263416233,0.3624657612758342,1.3156236925092724,0.9650269113426189,0.286973,0.6823395558890699
0.0405,1.7589937500000001,1.0,2735.6924696041497,0.3660418276405878,1.3151701373196938,0.9656409751306986,0.2869307375,0.6832518639728488
0.041,1.757975,1.0,2735.4214918376533,0.36959783295558335,1.3147125170316807,0.9662345442502319,0.28688795,0.6841710192078574
0.0415,1.75694375,1.0,2734.9877567627072,0.37313388971635336,1.3142507295997319,0.9668085139166145,0.2868446375,0.6850971905166972
0.042,1.7559,1.0,2734.4025397579726,0.3766501104184303,1.3137846729783458,0.9673637302407498,0.28680079999999997,0.6860305452929611
0.0425,1.75484375,1.0,2733.677124631588,0.3801466075573467,1.313314245122021,0.9679009934212794,0.2867564375,0.6869712493737823
0.043000000000000003,1.753775,1.0,2732.822081603979,0.3836234916756853,1.3128393505168943,0.9684210609189057,0.28671155,0.6879194539801268
0.043500000000000004,1.75269375,1.0,2731.8381798462315,0.3870808470523613,1.3123599827275931,0.9689246530324653,0.28666613750000003,0.6888751313469953
0.044,1.7516,1.0,2730.7493814401932,0.3905188266529098,1.3118759246304221,0.969412446097687,0.2866202,0.689838672308416
0.0445,1.75049375,1.0,2729.5607409647023,0.393937534413729,1.311387130852805,0.9698850871733651,0.2865737375,0.6908101235307977
0.045,1.7493750000000001,1.0,2728.2773143406675,0.3973370742712165,1.3108935560221653,0.9703431900276145,0.28652675,0.6917895306884336
0.0455,1.74824375,1.0,2726.9041579391037,0.40071755016177035,1.3103951547659274,0.9707873371710478,0.2864792375,0.6927769384497321
0.046,1.7471,1.0,2725.446327734974,0.4040790660217885,1.309891881711515,0.9712180817468122,0.2864312,0.6937723904633175
0.0465,1.7459437500000001,1.0,2723.908878506118,0.4074217257876687,1.309383691486352,0.9716359492888409,0.28638263750000004,0.6947759293439981
0.047,1.744775,1.0,2722.2968630779255,0.41074563339580905,1.308870538717862,0.9720414393586777,0.28633355,0.6957875966586022
0.0475,1.74359375,1.0,2720.615331614502,0.4140508927826073,1.3083523780334694,0.9724350270703315,0.28628393750000003,0.6968074329116849
0.048,1.7424,1.0,2718.8693309538735,0.4173376078844615,1.3078291640605975,0.9728171645117992,0.2862338,0.6978354775311026
0.0485,1.74119375,1.0,2717.063903990609,0.4206058826377694,1.3073008514266704,0.9731882820711568,0.2861831375,0.6988717688534549
0.049,1.739975,1.0,2715.2040891025044,0.423855820978929,1.306767394759112,0.9735487896744494,0.28613195,0.6999163441093976
0.0495,1.73874375,1.0,2713.294919624134,0.42708752684433815,1.3062287486853463,0.973899077941999,0.2860802375,0.7009692394088234
0.05,1.7375,1.0,2711.3414233654144,0.43030110417039485,1.3056848678327968,0.9742395192692044,0.286028,0.7020304897259106
0.0505,1.73624375,1.0,2709.3486221757184,0.4334966568934969,1.3051357068288878,0.9745704688373978,0.2859752375,0.7031001288840404
0.051000000000000004,1.734975,1.0,2707.321531554352,0.4366742889500423,1.304581220301043,0.9748922655598714,0.28592195,0.7041781895405853
0.051500000000000004,1.73369375,1.0,2705.261280729886,0.43983407354021764,1.3040213982981785,0.9752052318927199,0.2858681375,0.7052646344924116
0.052000000000000005,1.7324,1.0,2703.1752696033855,0.4429761472428723,1.3034561735850643,0.9755096790360945,0.2858138,0.7063595367127276
0.0525,1.73109375,1.0,2701.0658830540638,0.4461006089600844,1.3028855246509439,0.9758059031270476,0.28575893750000003,0.7074628793269212
0.053,1.729775,1.0,2698.935014883247,0.4492075535169434,1.3023094344435422,0.9760941870894917,0.28570355000000003,0.7085746359898778
0.0535,1.72844375,1.0,2696.7845562398575,0.4522970757385388,1.301727885910585,0.976374801482326,0.2856476375,0.70969477954059
0.054,1.7271,1.0,2694.6163955463617,0.45536927044996,1.3011408619997968,0.9766480051425549,0.2855912,0.710823281996235
0.0545,1.7257437500000001,1.0,2692.432418431546,0.45842423247629654,1.300548345658903,0.9769140457896955,0.2855342375,0.7119601145462261
0.055,1.724375,1.0,2690.2345076690303,0.4614620566426379,1.2999503198356293,0.9771731605941051,0.28547675,0.7131052475462492
0.0555,1.72299375,1.0,2688.024543123662,0.4644828377740735,1.2993467674777002,0.9774255767116722,0.2854187375,0.7142586505122823
0.056,1.7216,1.0,2685.8044017025263,0.46748667069569283,1.298737671532841,0.9776715117871151,0.2853602,0.7154202921145933
0.0565,1.72019375,1.0,2683.5759573138453,0.4704736502325854,1.298123014948777,0.9779111744279821,0.28530113749999997,0.7165901401717196
0.057,1.718775,1.0,2681.3410808317967,0.47344387120984066,1.2975027806732333,0.978144764651277,0.28524155,0.7177681616444325
0.0575,1.71734375,1.0,2679.1016400674225,0.47639742845254807,1.2968769516539351,0.9783724743045039,0.2851814375,0.7189543226296782
0.058,1.7159,1.0,2676.8594997466407,0.4793344167857971,1.2962455108386077,0.9785944874627883,0.2851208,0.7201485883545037
0.0585,1.71444375,1.0,2674.616521494501,0.4822549310346772,1.2956084411749762,0.978810980803615,0.2850596375,0.7213509231699637
0.059000000000000004,1.7129750000000001,1.0,2672.374563825437,0.48515906602427794,1.2949657256107656,0.9790221239606084,0.28499795,0.7225612905450081
0.059500000000000004,1.71149375,1.0,2670.1340382115122,0.48804691554404384,1.2943173603635705,0.9792280804981887,0.2849357375,0.723779628152488
0.06,1.71,1.0,2667.8940460743393,0.4909185676690502,1.293663353689201,0.979429007751728,0.284873,0.7250058504464643
0.0605,1.7084937500000001,1.0,2665.6573960624046,0.4937741121190678,1.2930036797588922,0.9796250552460142,0.2848097375,0.726239935101239
0.061,1.7069750000000001,1.0,2663.4263101987344,0.4966136390158004,1.2923383180984866,0.9798163670520837,0.28474595,0.7274818487606762
0.0615,1.7054437500000001,1.0,2661.201913075859,0.4994372382946106,1.291667258302019,0.9800030822400472,0.2846816375,0.7287315383755846
0.062,1.7039,1.0,2658.9827089179257,0.5022449996948131,1.2909905140782,0.9801853358437174,0.2846168,0.7299889053459976
0.0625,1.70234375,1.0,2656.7701911391873,0.5050370118229043,1.2903080716187387,0.9803632562943032,0.2845514375,0.7312539016358715
0.063,1.7007750000000001,1.0,2654.565496481693,0.5078133627679715,1.2896199203799437,0.9805369673460389,0.28448555,0.7325264723186069
0.0635,1.6991940797905412,1.0,2652.3846788716314,0.5105741404581466,1.2889260611897635,0.9807065887263746,0.2844191513512027,0.7338065407058962
0.064,1.6976094511601665,1.0,2650.6231895155956,0.5133194326212727,1.2882266675115828,0.980872244489376,0.284352596948727,0.7350937121657128
0.0645,1.696024822529792,1.0,2649.4215151738044,0.5160493259420283,1.2875221141250481,0.981034064249154,0.2842860425462512,0.7363872254115523
0.065,1.6944401938994176,1.0,2648.7359814722213,0.5187639065227283,1.2868128005085366,0.9811921742110842,0.2842194881437755,0.7376862801800076
0.0655,1.6928555652690431,1.0,2648.5311233014813,0.5214632585519295,1.286099052067869,0.981346692349662,0.2841529337412998,0.7389902181309528
0.066,1.6912709366386685,1.0,2648.76221697981,0.5241474686311092,1.285381280957319,0.9814977369581945,0.2840863793388241,0.7402982285687492
0.0665,1.689686308008294,1.0,2649.377139886863,0.5268166258395017,1.284659968586458,0.9816454258135976,0.28401982493634836,0.7416093822843011
0.067,1.6881016793779196,1.0,2650.351684492694,0.5294708127586985,1.2839353394861626,0.9817898598197887,0.28395327053387265,0.7429232238229516
0.0675,1.686517050747545,1.0,2651.6617019496975,0.5321101119702911,1.2832076181873096,0.9819311364442014,0.2838867161313969,0.7442393016603033
0.068,1.6849324221171704,1.0,2653.283086140382,0.5347346060558711,1.282477029220775,0.9820693498648586,0.28382016172892116,0.7455571682481041
0.0685,1.683347793486796,1.0,2655.1917588422443,0.5373443775970299,1.2817437971174357,0.9822045911102285,0.28375360732644545,0.7468763800569173
0.069,1.6817631648564215,1.0,2657.3636560111845,0.539939509175359,1.281008146408168,0.9823369481922571,0.2836870529239697,0.7481964976155793
0.0695,1.680178536226047,1.0,2659.774715182416,0.54252008337245,1.2802703016238488,0.9824665062329552,0.28362049852149396,0.7495170855474389
0.07,1.6785939075956724,1.0,2662.4008639888098,0.5450861827698942,1.2795304872953541,0.9825933475848867,0.28355394411901824,0.750837712603386
0.07050000000000001,1.677009278965298,1.0,2665.2256931362917,0.5476378867324603,1.2787888572777688,0.982717548483753,0.2834873897165425,0.7521580773525378
0.07100000000000001,1.6754246503349235,1.0,2668.2268933646355,0.5501752794599464,1.2780456195543002,0.9828391854914846,0.2834208353140668,0.753477785225336
0.07150000000000001,1.673840021704549,1.0,2671.3883767545713,0.5526984417998693,1.277300924651456,0.9829583299188752,0.28335428091159104,0.7547965471538506
0.07200000000000001,1.6722553930741744,1.0,2674.699212025221,0.5552074520406657,1.2765548755290013,0.9830750485128242,0.2832877265091153,0.756114160781692
0.0725,1.6706707644438,1.0,2678.1484529674563,0.5577023884707721,1.275807575146702,0.9831894059139398,0.2832211721066396,0.7574304256750521
0.073,1.6690861358134255,1.0,2681.725135470228,0.5601833293786256,1.2750591264643232,0.9833014647394177,0.28315461770416384,0.7587451433312611
0.0735,1.667501507183051,1.0,2685.418274781941,0.5626503530526625,1.2743096324416305,0.9834112856621675,0.2830880633016881,0.7600581171866632
0.074,1.6659168785526763,1.0,2689.2168630062674,0.5651035377813198,1.2735591960383896,0.9835189274863774,0.2830215088992124,0.7613691526238199
