Time [s],Phi [rad],STIM [ ],Fsee [N],Gamma [ ],Lcerel [ ],q [ ],Lmtc [m],fisomrel [ ]
0.0,1.8,1.0,17.965674879655804,2.537814256715795e-05,1.379339912401004,0.005000170393964586,0.288653,0.5411391290165772
0.0005,1.79999375,1.0,18.280333600794194,0.005634445100057612,1.379301989090528,0.012983266057065845,0.2886527375,0.5412308707652072
0.001,1.799975,1.0,21.633503244355353,0.01121204962676113,1.3789367579259748,0.035688768579264264,0.28865195,0.5421139460859412
0.0015,1.79994375,1.0,31.108624114092255,0.016758368202916946,1.378042849060156,0.0707114563535049,0.2886506375,0.5442716973038271
0.002,1.7999,1.0,53.67008804357995,0.02227357631708121,1.3763624444758065,0.11484780487104351,0.2886488,0.5483141275133785
0.0025,1.79984375,1.0,97.26819715098887,0.027757848473811488,1.3739279775616307,0.1647160607472929,0.28864643749999996,0.5541386084077444
0.003,1.7997750000000001,1.0,161.15354826669045,0.03321135820123002,1.371207032660806,0.2174260849389077,0.28864354999999997,0.5606037592575235
0.0035,1.79969375,1.0,237.90474620122274,0.03863427805073427,1.368577915663566,0.2707577318654421,0.2886401375,0.5668058676183075
0.004,1.7996,1.0,321.70276862528533,0.04402677960774855,1.3661498428762227,0.3230560480218472,0.2886362,0.5724945553626195
0.0045000000000000005,1.7994937500000001,1.0,409.5124572518782,0.04938903349691686,1.363917070831539,0.37316763732141417,0.2886317375,0.5776924922110737
0.005,1.799375,1.0,499.6634289211854,0.054721209373232875,1.3618530321308298,0.42037201325876533,0.28862675,0.5824693339850915
0.0055,1.79924375,1.0,591.0427841418976,0.0600234759688359,1.3599339049251837,0.4642890140242425,0.2886212375,0.5868864288434592
0.006,1.7991000000000001,1.0,682.7709764159797,0.06529600103786036,1.3581418187042913,0.5047859359380903,0.2886152,0.5909899161198424
0.006500000000000001,1.79894375,1.0,774.1155549299554,0.07053895115763764,1.3564632543152642,0.5418978420113715,0.2886086375,0.5948148862339646
0.007,1.798775,1.0,864.5424164144674,0.07575249305047167,1.354886250307585,0.575765002964544,0.28860155,0.5983920578527493
0.0075,1.79859375,1.0,953.5033316048917,0.08093679088421384,1.3534027786081568,0.6065900816280698,0.2885939375,0.6017425895154149
0.008,1.7984,1.0,1040.5998856073754,0.0860920086167629,1.3520050919655078,0.6346050157417743,0.2885858,0.604886528158018
0.0085,1.79819375,1.0,1125.5557358273522,0.09121830981016427,1.3506858228121386,0.6600506658734929,0.2885771375,0.607842645658716
0.009000000000000001,1.797975,1.0,1208.1171172219128,0.09631585654825367,1.3494390710023396,0.6831645190503153,0.28856795,0.6106260703348911
0.0095,1.79774375,1.0,1288.0887887793942,0.10138480965521258,1.3482595225831033,0.7041724411027273,0.2885582375,0.6132503345988168
0.01,1.7975,1.0,1365.3752295612449,0.10642533059118342,1.3471417097017007,0.7232841529657228,0.288548,0.6157290605401153
0.0105,1.79724375,1.0,1439.877179354309,0.11143757834965004,1.3460812220561456,0.7406920762323588,0.2885372375,0.6180733027427452
0.011,1.796975,1.0,1511.5256876109563,0.1164217109119787,1.3450740682108209,0.7565706352360501,0.28852595000000003,0.6202930084452607
0.0115,1.79669375,1.0,1580.3071823533885,0.1213778862470977,1.344116259037826,0.7710766242675017,0.2885141375,0.6223979600312879
0.012,1.7964,1.0,1646.2402831883207,0.12630626135922984,1.3432040198456343,0.7843503938051848,0.28850180000000003,0.6243973238577725
0.0125,1.79609375,1.0,1709.3551933917715,0.13120699276743147,1.3423339532489584,0.7965172422668299,0.2884889375,0.6262993126688137
0.013000000000000001,1.7957750000000001,1.0,1769.6725417544994,0.1360802346721552,1.3415031989402562,0.8076888699177573,0.28847555,0.6281108581427672
0.0135,1.79544375,1.0,1827.2444112323026,0.14092614127385353,1.3407088966119862,0.8179645474481745,0.2884616375,0.6298388002852133
0.014,1.7951000000000001,1.0,1882.1279923659274,0.1457448655933036,1.3399484441346698,0.827432557898439,0.2884472,0.6314893345995449
0.0145,1.79474375,1.0,1934.4269953440696,0.1505365619783825,1.3392190050031956,0.8361712541854253,0.2884322375,0.6330690900658227
0.015,1.794375,1.0,1984.1973618097752,0.15530138086078699,1.3385185048382058,0.8442505443370154,0.28841675,0.634582977940388
0.0155,1.79399375,1.0,2031.5058334715075,0.16003947228606158,1.337844946241701,0.8517326406819041,0.2884007375,0.6360356897287696
0.016,1.7936,1.0,2076.435394181731,0.16475098629975074,1.3371963318156819,0.8586729432250699,0.2883842,0.6374318680167366
0.0165,1.7931937500000001,1.0,2119.0739095847193,0.16943607212215278,1.336570766925221,0.8651208775302313,0.2883671375,0.6387758891944153
0.017,1.792775,1.0,2159.51694343427,0.17409487925382675,1.335966412691224,0.8711205886473037,0.28834955,0.640071969207239
0.0175,1.7923437500000001,1.0,2197.8422647728953,0.17872755461806158,1.3353817299696071,0.8767116297014707,0.2883314375,0.6413236454164335
0.018000000000000002,1.7919,1.0,2234.1239541527716,0.18333424388760836,1.33481531476917,0.8819294536390138,0.2883128,0.6425341358291508
0.0185,1.79144375,1.0,2268.444606156268,0.187915092735218,1.3342657630987131,0.8868058558484477,0.2882936375,0.6437066314414381
0.019,1.790975,1.0,2300.8883356303604,0.19247024604737792,1.333731733052995,0.8913694127547512,0.28827395,0.6448441656678716
0.0195,1.79049375,1.0,2331.542791013919,0.1969998490417684,1.3332119162879417,0.895645844406589,0.2882537375,0.6459496774353245
0.02,1.79,1.0,2360.4905410506367,0.20150404594583257,1.3327051152165996,0.8996583553707312,0.288233,0.64702584919869
0.0205,1.78949375,1.0,2387.7949963484884,0.20598297778685082,1.3322103712336404,0.9034279433956435,0.2882117375,0.648074838153083
0.021,1.788975,1.0,2413.5239915379298,0.21043678559210358,1.3317267257337357,0.9069735915257067,0.28818995000000003,0.649098786460379
0.021500000000000002,1.78844375,1.0,2437.749419219605,0.21486561038887125,1.3312532201115572,0.9103124890353649,0.2881676375,0.6500998219570289
0.022,1.7879,1.0,2460.543188385285,0.21926959254295114,1.3307889311445706,0.913460232548611,0.2881448,0.6510799841589048
0.0225,1.78734375,1.0,2481.9733878327356,0.22364887160400826,1.3303330036971124,0.9164310024921138,0.28812143749999997,0.6520411564682511
0.023,1.786775,1.0,2502.1170926944305,0.22800358860673697,1.3298845249678584,0.9192376889207095,0.28809755,0.6529853322280945
0.0235,1.78619375,1.0,2521.025917998091,0.23233387948522868,1.3294428489322914,0.9218920836119072,0.28807313749999996,0.6539139326765799
0.024,1.7856,1.0,2538.7535725519638,0.23663988017357462,1.3290073295658946,0.9244049450857038,0.2880482,0.6548283708288227
0.0245,1.78499375,1.0,2555.355685276318,0.2409217266058662,1.3285773208441518,0.9267861033710315,0.2880227375,0.6557300517438753
0.025,1.784375,1.0,2570.88964078876,0.24517955471619463,1.3281521767425457,0.9290445528808783,0.28799675,0.6566203727650799
0.025500000000000002,1.78374375,1.0,2585.407292795445,0.24941349879666602,1.327731317840549,0.9311885452608293,0.2879702375,0.6575005845232686
0.026000000000000002,1.7831000000000001,1.0,2598.9641248428215,0.2536236944590918,1.3273141437591254,0.9332256484377957,0.2879432,0.658371974793465
0.0265,1.78244375,1.0,2611.6158358166754,0.257810276738602,1.3269000639932176,0.935162816368868,0.2879156375,0.6592358040855557
0.027,1.781775,1.0,2623.4009712027128,0.2619733761337099,1.326488657721991,0.9370064702553302,0.28788755,0.6600929731469791
0.0275,1.7810937500000001,1.0,2634.358960937306,0.2661131231429287,1.3260795041246103,0.9387625238722049,0.2878589375,0.6609443781564039
0.028,1.7804,1.0,2644.530043755357,0.2702296482647714,1.325672182380241,0.9404364303761169,0.2878298,0.661790910789831
0.0285,1.77969375,1.0,2653.95519546528,0.2743230819977513,1.3252662716680483,0.9420332242287596,0.2878001375,0.6626334582754062
0.029,1.778975,1.0,2662.6760611497075,0.2783935548403814,1.3248613511671974,0.9435575587987399,0.28776995,0.6634729034369352
0.029500000000000002,1.7782437500000001,1.0,2670.7300041607978,0.28244119401836815,1.3244570449651154,0.945013745091689,0.2877392375,0.66431003180008
0.03,1.7775,1.0,2678.156978432719,0.2864661318235519,1.3240529581330247,0.9464057760082645,0.287708,0.6651456643024112
0.0305,1.77674375,1.0,2684.9869325480126,0.2904684943609788,1.323648791820638,0.9477373649273955,0.2876762375,0.6659804194931163
0.031,1.775975,1.0,2691.2488097561136,0.29444840670385486,1.3232442598555019,0.9490119604007957,0.28764395,0.666814886704301
0.0315,1.7751937500000001,1.0,2696.971891147935,0.2984059939253858,1.3228390760651614,0.9502327671632425,0.2876111375,0.6676496523131152
0.032,1.7744,1.0,2702.1857630658146,0.3023413810987776,1.322432954277163,0.9514027663847908,0.2875778,0.6684852997324648
0.0325,1.77359375,1.0,2706.9202863293513,0.30625469329723615,1.3220256083190527,0.9525247340059305,0.2875439375,0.6693224093965053
0.033,1.772775,1.0,2711.201084090153,0.3101460519064379,1.321616792906122,0.9536012610920906,0.28750955,0.6701614748749383
0.0335,1.7719437500000002,1.0,2715.052589592501,0.3140155797865368,1.321206275472147,0.9546347667833636,0.2874746375,0.671002961088365
0.034,1.7711000000000001,1.0,2718.509474893631,0.31786341003561475,1.3207937318356469,0.9556275024318422,0.2874392,0.6718475179048441
0.0345,1.7702437500000001,1.0,2721.589382689085,0.3216896610871989,1.3203789944968658,0.9565815855881251,0.2874032375,0.6726954715726315
0.035,1.7693750000000001,1.0,2724.3100791945008,0.32549445137481625,1.319961895956048,0.957498997017299,0.28736675,0.6735471464802651
0.035500000000000004,1.76849375,1.0,2726.689441639556,0.32927789933199403,1.3195422687134373,0.958381591118605,0.2873297375,0.6744028651322368
0.036000000000000004,1.7676,1.0,2728.7454463824993,0.3330401233922594,1.319119945269278,0.9592311054368581,0.2872922,0.6752629481228734
0.0365,1.76669375,1.0,2730.49615764826,0.3367812419891394,1.318694758123814,0.9600491693541712,0.2872541375,0.6761277141084302
0.037,1.765775,1.0,2731.9597168871655,0.3405013735561612,1.3182665397772895,0.9608373120410371,0.28721555,0.6769974797773948
0.0375,1.76484375,1.0,2733.154332756987,0.34420063652685207,1.3178351227299487,0.9615969697374415,0.2871764375,0.6778725598190001
0.038,1.7639,1.0,2734.09827172598,0.34787914933473896,1.3174003394820357,0.962329492427249,0.28713679999999997,0.6787532668899505
0.0385,1.76294375,1.0,2734.8090667541583,0.35153702882447924,1.3169620296399225,0.9630361503128346,0.28709663750000003,0.6796398972147351
0.039,1.761975,1.0,2735.298994688978,0.35517438516819144,1.3165200809040045,0.963718142230709,0.28705595,0.6805326479098293
0.0395,1.7609937500000001,1.0,2735.586049040361,0.35879134624215203,1.3160743293628248,0.9643765961797921,0.2870147375,0.681431818615563
0.04,1.76,1.0,2735.680209011081,0.36238802328092323,1.3156246841216443,0.965012578827446,0.286973,0.6823375598632405
0.0405,1.7589937500000001,1.0,2735.5914756214947,0.3659645275190674,1.315171054285725,0.9656270963526247,0.2869307375,0.683250020855946
0.041,1.757975,1.0,2735.329868271425,0.3695209701911466,1.3147133489603275,0.9662210985079345,0.28688795,0.6841693494457115
0.0415,1.75694375,1.0,2734.905421485022,0.3730574625317232,1.3142514772507137,0.9667954823680639,0.2868446375,0.6850956921101536
0.042,1.7559,1.0,2734.328181839431,0.37657411577535954,1.3137853482621447,0.967351095791803,0.28680079999999997,0.6860291939285861
0.0425,1.75484375,1.0,2733.6082050761074,0.38007104115661766,1.3133148710998819,0.9678887406222547,0.2867564375,0.6869699985576034
0.043000000000000003,1.753775,1.0,2732.7555533950494,0.38354834991005987,1.3128399548691865,0.9684091756475102,0.28671155,0.6879182482061397
0.043500000000000004,1.75269375,1.0,2731.7802929333593,0.3870061532702485,1.31236050867532,0.9689131193419581,0.28666613750000003,0.6888740836099978
0.044,1.7516,1.0,2730.692491425336,0.39044456247174564,1.311876441623544,0.9694012524065228,0.2866202,0.6898376440058551
0.0445,1.75049375,1.0,2729.49278364499,0.39386365830101705,1.311387748556133,0.9698742222926845,0.2865737375,0.690808896840378
0.045,1.7493750000000001,1.0,2728.2021497437368,0.3972635913237211,1.310894239397731,0.9703326391520869,0.28652675,0.6917881757312065
0.0455,1.74824375,1.0,2726.8255114487197,0.4006444657406354,1.3103958699781364,0.9707770863271842,0.2864792375,0.6927755226419511
0.046,1.7471,1.0,2725.367345738738,0.4040063843570701,1.3098926001669156,0.9712081178520882,0.2864312,0.6937709705414166
0.0465,1.7459437500000001,1.0,2723.832128697951,0.4073494499783351,1.3093843898336355,0.9716262601061708,0.28638263750000004,0.6947745514262407
0.047,1.744775,1.0,2722.224334871004,0.4106737654097403,1.3088711988478623,0.9720320134537004,0.28633355,0.6957862963083046
0.0475,1.74359375,1.0,2720.5484366542573,0.4139794334565958,1.3083529870791633,0.9724258537713176,0.28628393750000003,0.6968062352020326
0.048,1.7424,1.0,2718.808903722064,0.4172665569242115,1.3078297143971043,0.9728082338720101,0.2862338,0.6978343971115983
0.0485,1.74119375,1.0,2717.0102024892717,0.4205352386178973,1.3073013406712526,0.9731795848334938,0.2861831375,0.698870810018019
0.049,1.739975,1.0,2715.156795609117,0.4237855813429633,1.3067678257711746,0.9735403172382419,0.28613195,0.6999155008661553
0.0495,1.73874375,1.0,2713.2531415070084,0.42701768790471933,1.306229129566437,0.9738908223317979,0.2860802375,0.7009684955516019
0.05,1.7375,1.0,2711.3036939500876,0.4302316611084755,1.3056852119266062,0.9742314731054486,0.286028,0.7020298189074803
0.0505,1.73624375,1.0,2709.31290165204,0.4334276037595416,1.3051360327212491,0.9745626253088359,0.2859752375,0.703099494691125
0.051000000000000004,1.734975,1.0,2707.2852079143604,0.4366056186632277,1.3045815518199324,0.9748846183976281,0.28592195,0.7041775455706691
0.051500000000000004,1.73369375,1.0,2705.2250503024743,0.4397658086248438,1.3040217290922225,0.9751977764209563,0.2858681375,0.7052639931115283
0.052000000000000005,1.7324,1.0,2703.136851656218,0.4429082759856799,1.303456524487169,0.9755024088081528,0.2858138,0.7063588576089548
0.0525,1.73109375,1.0,2701.0246077023803,0.446033087978521,1.3028859017993102,0.9757988077371441,0.28575893750000003,0.7074621508010799
0.053,1.729775,1.0,2698.892052018513,0.44914038984559707,1.3023098271663505,0.9760872608089363,0.28570355000000003,0.70857387882223
0.0535,1.72844375,1.0,2696.740872073927,0.45223027524931947,1.3017282853860017,0.9763680388078579,0.2856476375,0.7096940108355342
0.054,1.7271,1.0,2694.5727529094747,0.45530283785209946,1.3011412612559754,0.9766414007885877,0.2855912,0.7108225152077818
0.0545,1.7257437500000001,1.0,2692.3893770800396,0.4583581713163483,1.3005487395739836,0.9769075946808636,0.2855342375,0.7119593595041127
0.055,1.724375,1.0,2690.1924246024873,0.4613963693044774,1.2999507051377381,0.9771668578581044,0.28547675,0.7131045104826967
0.0555,1.72299375,1.0,2687.9835729082142,0.46441752547889803,1.2993471427449512,0.9774194176723824,0.2854187375,0.7142579340893935
0.056,1.7216,1.0,2685.7644968013046,0.46742173350202143,1.2987380371933341,0.9776654919579971,0.2853602,0.7154195954524047
0.0565,1.72019375,1.0,2683.5368684214272,0.4704090870362589,1.2981233732805992,0.9779052895057386,0.28530113749999997,0.7165894588769021
0.057,1.718775,1.0,2681.3023572122793,0.47337967974402184,1.2975031358044582,0.9781390105097706,0.28524155,0.7177674878396496
0.0575,1.71734375,1.0,2679.062629894433,0.47633360528772145,1.2968773095626227,0.9783668469889186,0.2851814375,0.7189536449836056
0.058,1.7159,1.0,2676.819350444058,0.4792709573297691,1.2962458793528049,0.9785889831840311,0.2851208,0.7201478921125108
0.0585,1.71444375,1.0,2674.5741800766405,0.482191829532576,1.2956088299727166,0.9788055959329445,0.2850596375,0.721350190185464
0.059000000000000004,1.7129750000000001,1.0,2672.3287772352674,0.4850963155585536,1.2949661462200697,0.9790168550244849,0.28499795,0.7225604993114811
0.059500000000000004,1.71149375,1.0,2670.084797584753,0.48798450907011304,1.2943178128925759,0.9792229235328361,0.2849357375,0.7237787787440393
0.06,1.71,1.0,2667.8438940103074,0.4908565037296657,1.2936638147879471,0.9794239581335031,0.284873,0.7250049868756068
0.0605,1.7084937500000001,1.0,2665.6077676580085,0.4937123900052979,1.2930041362344697,0.9796201091194806,0.2848097375,0.7262390821093505
0.061,1.7069750000000001,1.0,2663.3788497244213,0.4965522001667503,1.2923387548164378,0.9798115160049214,0.28474595,0.7274810345420111
0.0615,1.7054437500000001,1.0,2661.1563442996585,0.49937610830281426,1.2916676777882292,0.9799983257086524,0.2846816375,0.7287307580791509
0.062,1.7039,1.0,2658.9406204871043,0.5021841982214679,1.2909909016873982,0.9801806719169345,0.2846168,0.7299881860177135
0.0625,1.70234375,1.0,2656.732046782014,0.5049765537306893,1.2903084230514983,0.9803586832856733,0.2845514375,0.7312532509737
0.063,1.7007750000000001,1.0,2654.5309910760466,0.5077532586384566,1.289620238418083,0.9805324836655257,0.28448555,0.732525884880908
0.0635,1.69919375,1.0,2652.337820661929,0.5105143967527478,1.2889263443247065,0.9807021923153084,0.28441913750000003,0.733806018989672
0.064,1.6976,1.0,2650.1529022376794,0.513260051881541,1.2882267373089225,0.9808679241043978,0.2843522,0.7350935838656041
0.0645,1.69599375,1.0,2647.9766019124186,0.5159903078328144,1.2875214139082842,0.9810297897047656,0.2842847375,0.7363885093883327
0.065,1.694375,1.0,2645.809285211285,0.5187052484145461,1.2868103706603458,0.9811878957732514,0.28421675,0.7376907247502394
0.0655,1.69274375,1.0,2643.6513170808403,0.5214049574347142,1.2860936041026612,0.9813423451246359,0.2841482375,0.7390001584551971
0.066,1.6911,1.0,2641.503061895487,0.5240895187012967,1.2853711107727837,0.9814932368960415,0.2840792,0.7403167383173075
0.0665,1.6894437500000001,1.0,2639.364883463276,0.5267590160222717,1.2846428872082674,0.9816406667031516,0.2840096375,0.7416403914596352
0.067,1.687775,1.0,2637.2371450321757,0.5294135332056175,1.2839089299466657,0.981784726788714,0.28393955,0.742971044312944
0.0675,1.68609375,1.0,2635.1202092969943,0.532053154059312,1.2831692355255329,0.9819255061637567,0.2838689375,0.7443086226144302
0.068,1.6844000000000001,1.0,2633.014438406278,0.5346779623913333,1.2824238004824222,0.9820630907419259,0.2837978,0.7456530514064572
0.0685,1.68269375,1.0,2630.9201939693103,0.5372880420096595,1.2816726213548877,0.9821975634673231,0.2837261375,0.7470042550352872
0.069,1.680975,1.0,2628.8378370638015,0.5398834767222689,1.280915694680483,0.9823290044361999,0.28365395,0.748362157149814
0.0695,1.67924375,1.0,2626.767728243454,0.5424643503371394,1.2801530169967617,0.982457491012847,0.28358123749999997,0.749726680700294
0.07,1.6775,1.0,2624.7102275460497,0.5450307466622492,1.279384584841278,0.9825830979399881,0.283508,0.7510977479370752
0.07050000000000001,1.67574375,1.0,2622.6656945017767,0.5475827495055763,1.278610394751585,0.9827058974439781,0.2834342375,0.7524752804093303
0.07100000000000001,1.673975,1.0,2620.634488141396,0.5501204426750987,1.277830443265237,0.9828259593350808,0.28335995,0.7538591989637817
0.07150000000000001,1.67219375,1.0,2618.6150080115317,0.5526438831076735,1.2770447450993978,0.9829433503088595,0.2832851375,0.75524939162248
0.07200000000000001,1.6704,1.0,2616.605178770781,0.5551531446082643,1.2762533194033272,0.9830581360925013,0.2832098,0.7566457382609799
0.0725,1.66859375,1.0,2614.607893636036,0.5576483550624204,1.2754561392122565,0.9831703813881032,0.2831339375,0.7580481995225701
0.073,1.6667750000000001,1.0,2612.6229463612917,0.5601295884924867,1.274653206317056,0.9832801468886221,0.28305755,0.759456684501788
0.0735,1.66494375,1.0,2610.6501310711124,0.5625969189208073,1.2738445225085953,0.9833874913274886,0.2829806375,0.7608711016965545
0.074,1.6631,1.0,2608.689242256457,0.565050420369727,1.2730300895777444,0.9834924715531523,0.2829032,0.7622913590088293
0.0745,1.6612437500000001,1.0,2606.740074770358,0.5674901668615899,1.272209909315374,0.9835951426003179,0.2828252375,0.7637173637452674
0.075,1.659375,1.0,2604.8024238243415,0.5699162324187406,1.2713839835123537,0.9836955577580357,0.28274675,0.765149022617878
0.0755,1.65749375,1.0,2602.8760849838286,0.5723286910635235,1.2705523139595538,0.9837937686348072,0.2826677375,0.766586241744678
