Time [s],Phi [rad],STIM [ ],Fsee [N],Gamma [ ],Lcerel [ ],q [ ],Lmtc [m],fisomrel [ ]
0.0,1.8,1.0,18.458093239396643,0.0007139794037224989,1.3792851157395605,0.005131326386707369,0.288653,0.5412716867934573
0.0005,1.79999375,1.0,18.9826517577162,0.006319183852734595,1.3792247180543054,0.015009888437915526,0.2886527375,0.5414177717367112
0.001,1.799975,1.0,22.847106892343714,0.01189294753650772,1.3788145401703553,0.03937082271985767,0.28865195,0.5424092607000073
0.0015,1.79994375,1.0,33.465424628803234,0.017435446813661645,1.3778458480096423,0.07568990576245738,0.2886506375,0.5447465406309768
0.002,1.7999,1.0,58.281981959642586,0.022946857051985785,1.3760696534192374,0.1207041332843617,0.2886488,0.5490166319423937
0.0025,1.79984375,1.0,104.6332151228043,0.02842735263615829,1.3735798176350573,0.17106194391959553,0.28864643749999996,0.5549684944380018
0.003,1.7997750000000001,1.0,170.4884315377663,0.03387710697448647,1.3708627465195626,0.22395636135068706,0.28864354999999997,0.5614184414667305
0.0035,1.79969375,1.0,248.3159133791319,0.03929629250001963,1.368260805627931,0.27724124601558187,0.2886401375,0.5675509535659029
0.004,1.7996,1.0,332.70138629216854,0.04468508067988355,1.3658610856949969,0.3293256070288887,0.2886362,0.5731685777234636
0.0045000000000000005,1.7994937500000001,1.0,420.8489929990831,0.05004364201331848,1.3636528547377162,0.3791133701541641,0.2886317375,0.578305488651497
0.005,1.799375,1.0,511.1939101039716,0.05537214606479211,1.36160946878199,0.4259307964878441,0.28862675,0.5830312247678795
0.0055,1.79924375,1.0,602.6489566444876,0.06067076141597083,1.3597082990346574,0.46943300915428116,0.2886212375,0.5874041441504895
0.006,1.7991000000000001,1.0,694.3649405706282,0.06593965572899421,1.3579319973072093,0.509511652534435,0.2886152,0.59146902201426
0.006500000000000001,1.79894375,1.0,785.6359766134025,0.07117899568075516,1.3562673490975663,0.5462176249724424,0.2886086375,0.5952601274457681
0.007,1.798775,1.0,875.8888705841177,0.07638894715521385,1.3547035932717664,0.5797013536950627,0.28860155,0.598805360076841
0.0075,1.79859375,1.0,964.6324722285235,0.08156967475710397,1.3532321208023517,0.6101701037250836,0.2885939375,0.6021271327597986
0.008,1.7984,1.0,1051.5038929755367,0.08672134276601484,1.351844989369113,0.6378576896463588,0.2885858,0.605245865611763
0.0085,1.79819375,1.0,1136.1875977594893,0.09184411399262798,1.3505356845985481,0.6630055430511445,0.2885771375,0.6081783604050612
0.009000000000000001,1.797975,1.0,1218.441584926627,0.09693815033292953,1.3492983121789868,0.6858500111899898,0.28856795,0.6109396974136196
0.0095,1.79774375,1.0,1298.1083311594914,0.10200361316638228,1.348127204175578,0.7066149653869395,0.2885582375,0.6135441636253042
0.01,1.7975,1.0,1375.0688947029182,0.10704066311549129,1.3470173497362439,0.7255082546786858,0.288548,0.6160043334886269
0.0105,1.79724375,1.0,1449.2226659655737,0.11204945891176468,1.3459644541243392,0.7427201215270954,0.2885372375,0.6183309836812756
0.011,1.796975,1.0,1520.5253604149457,0.1170301589617181,1.344964303858264,0.7584226771775958,0.28852595000000003,0.6205345314527531
0.0115,1.79669375,1.0,1588.9790990858953,0.12198292159670651,1.3440128074535076,0.7727705880182236,0.2885141375,0.6226249627166962
0.012,1.7964,1.0,1654.5906068948507,0.12690790367033805,1.3431064098266077,0.7859023776297126,0.28850180000000003,0.6246109423976274
0.0125,1.79609375,1.0,1717.3663459409843,0.1318052601164181,1.3422420442010834,0.7979417155366223,0.2884889375,0.6264999463681877
0.013000000000000001,1.7957750000000001,1.0,1777.3483144096583,0.1366751458687521,1.3414166438004544,0.8089986143795302,0.28847555,0.6282993473725562
0.0135,1.79544375,1.0,1834.5939045972796,0.1415177150579634,1.3406273303773297,0.8191709118394502,0.2884616375,0.6300160133929001
0.014,1.7951000000000001,1.0,1889.187131313684,0.1463331222022261,1.339871245808299,0.82854553182948,0.2884472,0.6316566845430955
0.0145,1.79474375,1.0,1941.1864120423957,0.1511215189601631,1.3391460858634525,0.8371999008399755,0.2884322375,0.6332268253938128
0.015,1.794375,1.0,1990.6543744211417,0.15588305610114842,1.3384497230144754,0.8452029052180742,0.28841675,0.634731457243064
0.0155,1.79399375,1.0,2037.671868419852,0.16061788439455607,1.3377800297330538,0.8526158316189612,0.2884007375,0.6361755469181675
0.016,1.7936,1.0,2082.3223558376762,0.1653261536526064,1.337135024559424,0.8594933100389176,0.2883842,0.6375636964774125
0.0165,1.7931937500000001,1.0,2124.706343131038,0.17000801430505677,1.3365127008992284,0.865884050243784,0.2883671375,0.638900517007355
0.017,1.792775,1.0,2164.8988883370957,0.17466361372946726,1.3359114487352517,0.8718316624256626,0.28834955,0.6401897277059452
0.0175,1.7923437500000001,1.0,2202.974234069838,0.17929309841834926,1.335329775864444,0.8773751767968035,0.2883314375,0.6414347621769827
0.018000000000000002,1.7919,1.0,2239.01614726446,0.18389661486421421,1.3347661900837549,0.8825495488778468,0.2883128,0.6426390241607376
0.0185,1.79144375,1.0,2273.109442451755,0.18847430865580767,1.3342192755552762,0.8873861539726691,0.2882936375,0.6438057265539106
0.019,1.790975,1.0,2305.345795362106,0.1930263260773918,1.3336876251053185,0.8919131848203493,0.28827395,0.6449380384297592
0.0195,1.79049375,1.0,2335.803340059319,0.19755281123331964,1.3331700337504933,0.896156060537763,0.2882537375,0.6460386754167576
0.02,1.79,1.0,2364.549028048332,0.20205390609505344,1.3326654633305,0.9001377304094462,0.288233,0.6471099792956116
0.0205,1.78949375,1.0,2391.6548092495423,0.2065297526340555,1.3321728756850384,0.9038789127885976,0.2882117375,0.6481542750610078
0.021,1.788975,1.0,2417.1972142988975,0.21098049282178816,1.3316912326538077,0.9073983423635626,0.28818995000000003,0.6491738717493546
0.021500000000000002,1.78844375,1.0,2441.245836948387,0.2154062667824127,1.3312196029903869,0.9107130087789669,0.2881676375,0.6501708373561559
0.022,1.7879,1.0,2463.883418480658,0.21980721732231243,1.3307569642130295,0.9138383066302216,0.2881448,0.6511474190834845
0.0225,1.78734375,1.0,2485.1725674864792,0.22418348328441765,1.3303025186011306,0.9167882651639999,0.28812143749999997,0.6521053769316001
0.023,1.786775,1.0,2505.168255909027,0.2285352016533279,1.3298555670944456,0.919575667239418,0.28809755,0.6530462527321482
0.0235,1.78619375,1.0,2523.927824353637,0.2328625094136428,1.32941541063273,0.9222121607519675,0.28807313749999996,0.6539715792017533
0.024,1.7856,1.0,2541.510783856965,0.2371655435499619,1.3289813501557395,0.9247083750769205,0.2880482,0.6548828802605444
0.0245,1.78499375,1.0,2557.9786284907723,0.24144444104688473,1.3285526866032291,0.9270740241625793,0.2880227375,0.6557816713195164
0.025,1.784375,1.0,2573.384461823113,0.2456993354143905,1.3281288163715799,0.9293180125879825,0.28799675,0.6566692597786544
0.025500000000000002,1.78374375,1.0,2587.7923312492744,0.24993036621518488,1.3277090479463227,0.9314484888851668,0.2879702375,0.6575471297643966
0.026000000000000002,1.7831000000000001,1.0,2601.245512386325,0.2541376656113563,1.3272928970815994,0.9334729609264033,0.2879432,0.6584163249997883
0.0265,1.78244375,1.0,2613.7867914358317,0.25832136515874377,1.3268798945713025,0.9353983290685699,0.2879156375,0.659277852439586
0.027,1.781775,1.0,2625.4599730406408,0.2624815964131862,1.3264695712093248,0.9372309415099166,0.28788755,0.6601327138852027
0.0275,1.7810937500000001,1.0,2636.309791246256,0.2666184909305224,1.3260614577895589,0.9389766458238301,0.2878589375,0.6609819060718997
0.028,1.7804,1.0,2646.381825343464,0.27073218026659146,1.3256550851058977,0.9406408350568379,0.2878298,0.6618264207419342
0.0285,1.77969375,1.0,2655.7117211779073,0.27482279287424655,1.3252500825475961,0.9422285019507639,0.2878001375,0.6626670401874424
0.029,1.778975,1.0,2664.3421019048224,0.2788904607892539,1.3248460210345234,0.9437442550392473,0.28776995,0.6635046639605803
0.029500000000000002,1.7782437500000001,1.0,2672.3223077466682,0.2829353166174738,1.324442415328436,0.9451923519805182,0.2877392375,0.6643403033668707
0.03,1.7775,1.0,2679.680143734619,0.2869574857508799,1.324038983041378,0.9465767622438466,0.287708,0.6651745455022628
0.0305,1.77674375,1.0,2686.443816712683,0.2909570935814459,1.3236354417853944,0.9479011673794244,0.2876762375,0.6660079745547596
0.031,1.775975,1.0,2692.6418997918736,0.2949342655011453,1.3232315091725297,0.9491689855201514,0.28764395,0.6668411718050027
0.0315,1.7751937500000001,1.0,2698.303298572173,0.2988891269019518,1.3228269028148287,0.9503833935110673,0.2876111375,0.6676747156217638
0.032,1.7744,1.0,2703.4572191325788,0.30282180317583884,1.322421340324336,0.9515473469217499,0.2875778,0.6685091814523558
0.0325,1.77359375,1.0,2708.1331377894708,0.30673241971478016,1.322014539313096,0.952663598167013,0.2875439375,0.6693451418079546
0.033,1.772775,1.0,2712.3589241615514,0.3106211005621775,1.321606234247969,0.953734714519384,0.28750955,0.6701831316735984
0.0335,1.7719437500000002,1.0,2716.1585325756014,0.3144879670972719,1.3211961971839519,0.9547630948865947,0.2874746375,0.6710236062326783
0.034,1.7711000000000001,1.0,2719.5641962941077,0.31833314830294207,1.3207841263883704,0.955750973309046,0.2874392,0.6718671691876594
0.0345,1.7702437500000001,1.0,2722.5940692465797,0.3221567632307995,1.320369849857275,0.9567004496428442,0.2874032375,0.6727141559388621
0.035,1.7693750000000001,1.0,2725.266428811697,0.3259589309324557,1.319953195586716,0.9576134883050295,0.28736675,0.6735648999803846
0.035500000000000004,1.76849375,1.0,2727.599663028999,0.3297397704595222,1.3195339915727449,0.9584919285759846,0.2873297375,0.674419732874965
0.036000000000000004,1.7676,1.0,2729.6122584660334,0.3334994008636104,1.3191120658114115,0.9593374940049959,0.2872922,0.675278984226956
0.0365,1.76669375,1.0,2731.322788741884,0.3372379411963318,1.3186872462987669,0.9601518010063052,0.2872541375,0.6761429816534091
0.037,1.765775,1.0,2732.749903706223,0.340955510509298,1.3182593610308613,0.960936366723625,0.28721555,0.6770120507532777
0.0375,1.76484375,1.0,2733.912319274808,0.3446522278541205,1.3178282380037456,0.9616926162328373,0.2871764375,0.6778865150747272
0.038,1.7639,1.0,2734.8161222867084,0.3483281988117967,1.3173938204088278,0.962421897403482,0.28713679999999997,0.6787664629027066
0.0385,1.76294375,1.0,2735.4943161870997,0.3519835591117749,1.316955807420028,0.9631254613109465,0.28709663750000003,0.679652474944892
0.039,1.761975,1.0,2735.9583932952028,0.35561842188945103,1.3165140939374984,0.963804499381083,0.28705595,0.6805447332236111
0.0395,1.7609937500000001,1.0,2736.2187748161787,0.3592328990986368,1.3160685848579192,0.9644601347055434,0.2870147375,0.6814433981693633
0.04,1.76,1.0,2736.285907502621,0.362827102693144,1.3156191850779706,0.9650934260518821,0.286973,0.682348628860707
0.0405,1.7589937500000001,1.0,2736.170259855285,0.36640114462678425,1.3151657994943329,0.9657053722251518,0.2869307375,0.6832605830009502
0.041,1.757975,1.0,2735.8823185237998,0.36995513685336934,1.3147083330036862,0.9662969160895833,0.28688795,0.6841794168942633
0.0415,1.75694375,1.0,2735.432584908002,0.373489191326711,1.3142466905027106,0.9668689482801119,0.2868446375,0.685105285421217
0.042,1.7559,1.0,2734.8315719597445,0.37700342000062087,1.3137807768880867,0.9674223106306363,0.28680079999999997,0.6860383420137397
0.0425,1.75484375,1.0,2734.0898011857635,0.3804979348289107,1.3133104970564944,0.9679577993433225,0.2867564375,0.6869787386295039
0.043000000000000003,1.753775,1.0,2733.217799850087,0.3839728477653923,1.312835755904614,0.968476167920948,0.28671155,0.6879266257257295
0.043500000000000004,1.75269375,1.0,2732.226098377971,0.38742827076387726,1.312356458329126,0.9689781298822294,0.28666613750000003,0.6888821522324138
0.044,1.7516,1.0,2731.116177978205,0.39086430327639016,1.31187259146321,0.9694643658694473,0.2866202,0.6898453019579776
0.0445,1.75049375,1.0,2729.9045057581448,0.39428106926744383,1.3113840062938769,0.969935514233728,0.2865737375,0.6908163285216036
0.045,1.7493750000000001,1.0,2728.598172924401,0.39767867591162903,1.3108906389712056,0.9703921845411421,0.28652675,0.6917953144135061
0.0455,1.74824375,1.0,2727.20263127821,0.4010572278075494,1.3103924405393312,0.9708349560955495,0.2864792375,0.6927823114031815
0.046,1.7471,1.0,2725.7233317015903,0.40441682955380853,1.3098893620423886,0.9712643790219054,0.2864312,0.6937773701943923
0.0465,1.7459437500000001,1.0,2724.1657233002534,0.40775758574901033,1.3093813545245128,0.9716809760115838,0.28638263750000004,0.6947805404100056
0.047,1.744775,1.0,2722.5352525997187,0.41107960099175844,1.3088683690298384,0.9720852439472669,0.28633355,0.6957918705766823
0.0475,1.74359375,1.0,2720.837362794925,0.4143829798806565,1.3083503566025005,0.9724776554167747,0.28628393750000003,0.6968114081094093
0.048,1.7424,1.0,2719.0774930519988,0.41766782701430827,1.307827268286634,0.9728586601243923,0.2862338,0.6978391992958821
0.0485,1.74119375,1.0,2717.2610778643066,0.4209342469913175,1.3072990551263741,0.9732286862075329,0.2861831375,0.6988752892807324
0.049,1.739975,1.0,2715.393546460856,0.4241823444102878,1.3067656681658553,0.9735881414658926,0.28613195,0.6999197220496058
0.0495,1.73874375,1.0,2713.4803222681703,0.4274122238698229,1.3062270584492124,0.9739374145096695,0.2860802375,0.7009725404130824
0.05,1.7375,1.0,2711.5231545818438,0.43062397294739213,1.3056832104702134,0.9742768760992806,0.286028,0.7020337207800486
0.0505,1.73624375,1.0,2709.529097516833,0.4338177135687815,1.305134060314342,0.9746068806313892,0.2859752375,0.7031033330232255
0.051000000000000004,1.734975,1.0,2707.5017636696334,0.4369935489417732,1.3045795753900182,0.9749277661818224,0.28592195,0.7041813847424625
0.051500000000000004,1.73369375,1.0,2705.443598627556,0.44015157610569466,1.3040197337178538,0.9752398555090496,0.2858681375,0.7052678619583075
0.052000000000000005,1.7324,1.0,2703.357044898255,0.4432918920998734,1.3034545133184603,0.9755434568889991,0.2858138,0.7063627498298992
0.0525,1.73109375,1.0,2701.2445417745334,0.4464145939636368,1.302883892212449,0.9758388648882117,0.28575893750000003,0.7074660326474411
0.053,1.729775,1.0,2699.108525209764,0.44951977873631244,1.3023078484204313,0.9761263610892515,0.28570355000000003,0.7085776938246477
0.0535,1.72844375,1.0,2696.9514277042163,0.4526075434572278,1.301726359963019,0.9764062147717056,0.2856476375,0.7096977158911564
0.054,1.7271,1.0,2694.775678202028,0.4556779851657103,1.3011394048608236,0.976678683551847,0.2855912,0.7108260804849138
0.0545,1.7257437500000001,1.0,2692.5837019987566,0.4587312009010874,1.3005469611344562,0.9769440139837992,0.2855342375,0.7119627683445271
0.055,1.724375,1.0,2690.377920659647,0.4617672877026866,1.2999490068045287,0.9772024421248227,0.28547675,0.7131077593015842
0.0555,1.72299375,1.0,2688.1607519490562,0.46478634260983537,1.2993455198916521,0.9774541940671461,0.2854187375,0.714261032272948
0.056,1.7216,1.0,2685.9346097697558,0.4677884626618612,1.2987364784164384,0.977699486438582,0.2853602,0.7154225652530131
0.0565,1.72019375,1.0,2683.701904113873,0.47077374489809154,1.2981218603994988,0.9779385268740018,0.28530113749999997,0.7165923353059367
0.057,1.718775,1.0,2681.4609100892344,0.47374225728014363,1.2975016817449196,0.9781715140217044,0.28524155,0.7177702466803079
0.0575,1.71734375,1.0,2679.2159995102234,0.4766941172472722,1.2968759024493517,0.9783986396799961,0.2851814375,0.7189563091354688
0.058,1.7159,1.0,2676.9711862639138,0.4796294377258007,1.29624448572781,0.9786200876203341,0.2851208,0.7201505251143667
0.0585,1.71444375,1.0,2674.727149873414,0.4825483069310179,1.2956074253504968,0.9788360337846992,0.2850596375,0.721352838257814
0.059000000000000004,1.7129750000000001,1.0,2672.484568723555,0.4854508130782125,1.2949647150876153,0.9790466471216954,0.28499795,0.7225631914964347
0.059500000000000004,1.71149375,1.0,2670.2441200615367,0.4883370443826731,1.2943163487093678,0.9792520899174353,0.2849357375,0.723781527048424
0.06,1.71,1.0,2668.006479997715,0.4912070890596885,1.293662319985957,0.9794525181082689,0.284873,0.7250077864173006
0.0605,1.7084937500000001,1.0,2665.7723235076774,0.4940610353245475,1.2930026226875855,0.979648081576486,0.2848097375,0.7262419103896569
0.061,1.7069750000000001,1.0,2663.5423244350486,0.4968989713925387,1.2923372505844561,0.9798389244300424,0.28474595,0.727483839032911
0.0615,1.7054437500000001,1.0,2661.317155494955,0.49972098547895083,1.2916661974467711,0.9800251852672871,0.2846816375,0.728733511693052
0.062,1.7039,1.0,2659.0974882790088,0.5025271657990726,1.2909894570447336,0.9802069974276049,0.2846168,0.7299908669923826
0.0625,1.70234375,1.0,2656.883993260072,0.5053176005681927,1.2903070231485458,0.9803844892288193,0.2845514375,0.7312558428272631
0.063,1.7007750000000001,1.0,2654.6773397990587,0.5080923780015999,1.2896188895284104,0.9805577841921529,0.28448555,0.7325283763658496
0.0635,1.69919375,1.0,2652.4781961518097,0.5108515863145828,1.2889250499545304,0.9807270012554824,0.28441913750000003,0.7338084040458295
0.064,1.6976,1.0,2650.2872294768026,0.5135953137224303,1.288225498197108,0.9808922549755796,0.2843522,0.7350958615721586
0.0645,1.69599375,1.0,2648.1051058445605,0.5163236484404309,1.287520228026346,0.9810536557199825,0.2842847375,0.7363906839147896
0.065,1.694375,1.0,2645.9324902468234,0.5190366786838735,1.2868092332124472,0.9812113098491019,0.28421675,0.7376928053064034
0.0655,1.69274375,1.0,2643.7700466074175,0.5217344926680466,1.286092507525614,0.9813653198891233,0.2841482375,0.7390021592401355
0.066,1.6911,1.0,2641.618437793342,0.5244171786082391,1.285370044736049,0.9815157846962385,0.2840792,0.7403186784673004
0.0665,1.6894437500000001,1.0,2639.477394933653,0.5270847819033061,1.2846418472166636,0.9816627971194041,0.2840096375,0.7416422793784615
0.067,1.687775,1.0,2637.3482361332494,0.5297374298460641,1.283907902669857,0.9818064515677788,0.28393955,0.7429729043418463
0.0675,1.68609375,1.0,2635.2312766262417,0.5323752174575174,1.2831682080560898,0.9819468374023224,0.2838689375,0.7443104781450991
0.068,1.6844000000000001,1.0,2633.126467216547,0.534998223662249,1.2824227637042096,0.9820840399730748,0.2837978,0.7456549188191205
0.0685,1.68269375,1.0,2631.0337588377733,0.5376065273848424,1.281671569943064,0.9822181416891184,0.2837261375,0.7470061437685254
0.069,1.680975,1.0,2628.9531025524934,0.5402002075498806,1.280914627101501,0.9823492221387073,0.28365395,0.7483640697717622
0.0695,1.67924375,1.0,2626.8844495513868,0.5427793430819471,1.280151935508368,0.9824773582036843,0.28358123749999997,0.7497286129812348
0.07,1.6775,1.0,2624.8277511526444,0.5453440129056248,1.2793834954925125,0.9826026241684936,0.283508,0.7510996889234223
0.07050000000000001,1.67574375,1.0,2622.782958801057,0.5478942959454972,1.2786093073827824,0.9827250918240796,0.2834342375,0.7524772124989996
0.07100000000000001,1.673975,1.0,2620.7500240672903,0.5504302711261474,1.2778293715080253,0.9828448305669432,0.28335995,0.7538610979829581
0.07150000000000001,1.67219375,1.0,2618.7288986472367,0.5529520173721585,1.2770436881970888,0.9829619074936138,0.2832851375,0.7552512590247266
0.07200000000000001,1.6704,1.0,2616.719534361203,0.555459613608114,1.2762522577788205,0.9830763874907752,0.2832098,0.7566476086482913
0.0725,1.66859375,1.0,2614.7218831531313,0.5579531387585969,1.2754550805820681,0.9831883333212745,0.2831339375,0.7580500592523162
0.073,1.6667750000000001,1.0,2612.735897089925,0.5604326717481904,1.274652156935679,0.9832978057062279,0.28305755,0.7594585226102651
0.0735,1.66494375,1.0,2610.761528360673,0.562898291501478,1.2738434871685014,0.9834048634034214,0.2829806375,0.7608729098705193
0.074,1.6631,1.0,2608.798729275819,0.5653500769430427,1.2730290716093824,0.983509563282201,0.2829032,0.7622931315565011
0.0745,1.6612437500000001,1.0,2606.847452266651,0.5677881069974678,1.2722089105871697,0.9836119603950281,0.2828252375,0.7637190975667929
0.075,1.659375,1.0,2604.907649884343,0.5702124605893366,1.2713830044307113,0.9837121080458665,0.28274675,0.7651507171752568
0.0755,1.65749375,1.0,2602.979274799514,0.5726232166432321,1.2705513534688544,0.9838100578555673,0.2826677375,0.7665878990311576
