Time [s],Phi [rad],STIM [ ],Fsee [N],Gamma [ ],Lcerel [ ],q [ ],Lmtc [m],fisomrel [ ]
0.0,1.8,1.0,18.0054860016518,0.00019844282122153227,1.3793354545080783,0.005010250564139688,0.288653,0.5411499137536662
0.0005,1.79999375,1.0,18.376383052539126,0.005806539022761301,1.3792913348902218,0.01347194345785619,0.2886527375,0.5412566431032959
0.001,1.799975,1.0,21.857958115548684,0.011383178238642152,1.37891390031397,0.03659730066255268,0.28865195,0.5421691841481338
0.0015,1.79994375,1.0,31.610611423978785,0.01692853691865067,1.3780002795930253,0.07195072146925154,0.2886506375,0.5443743259808506
0.002,1.7999,1.0,54.724444266474805,0.022442790520737357,1.376294431591936,0.11631268339652547,0.2886488,0.5484773620947121
0.0025,1.79984375,1.0,99.01804696715766,0.027926113519685703,1.3738440967673708,0.1663079654189063,0.28864643749999996,0.5543386202557037
0.003,1.7997750000000001,1.0,163.41606394326695,0.033378679413210766,1.3711226908963035,0.21906725767907112,0.28864354999999997,0.5608034065748941
0.0035,1.79969375,1.0,240.4531862085151,0.03880066072292044,1.3684996625113446,0.272389290099534,0.2886401375,0.5669897918655139
0.004,1.7996,1.0,324.4093392523171,0.044192229004649315,1.3660783325510215,0.3246352976513237,0.2886362,0.5726615256271164
0.0045000000000000005,1.7994937500000001,1.0,412.3119640370559,0.049553554853789025,1.3638514872682657,0.37466638165410304,0.2886317375,0.577844691366936
0.005,1.799375,1.0,502.51748950234264,0.05488480789715686,1.3617924850877081,0.4217739454797677,0.28862675,0.5826090488968767
0.0055,1.79924375,1.0,593.9200278436058,0.060186156831576285,1.3598777707968048,0.4655868212497147,0.2886212375,0.5870152745099567
0.006,1.7991000000000001,1.0,685.648952146015,0.06545776938931935,1.358089569455826,0.5059785182558874,0.2886152,0.5911092482364197
0.006500000000000001,1.79894375,1.0,776.9911003531487,0.07069981235548993,1.3564142197912261,0.5429880283960044,0.2886086375,0.5949263518195522
0.007,1.798775,1.0,867.3567470446673,0.0759124516427432,1.3548408335280586,0.5767587251552947,0.28860155,0.5984948433071192
0.0075,1.79859375,1.0,956.2568480802465,0.08109585205242657,1.353360462983982,0.6074939788395703,0.2885939375,0.6018379566318429
0.008,1.7984,1.0,1043.3128707979513,0.08625017783999893,1.3519651793558816,0.6354261560700127,0.2885858,0.6049761241102747
0.0085,1.79819375,1.0,1128.203243879668,0.09137559183582099,1.3506483698643266,0.6607966077966403,0.2885771375,0.6079264053300077
0.009000000000000001,1.797975,1.0,1210.684783085012,0.0964722561935987,1.34940400867066,0.6838424637910866,0.28856795,0.6107042051175808
0.0095,1.79774375,1.0,1290.5968527975808,0.10154033259357396,1.348226352860171,0.7047889092111634,0.2885582375,0.6133240024671673
0.01,1.7975,1.0,1367.7968861303962,0.10657998092754016,1.3471106010290543,0.7238454938906788,0.288548,0.6157979293789817
0.0105,1.79724375,1.0,1442.1979320873793,0.11159136056109914,1.3460521899439086,0.7412039860063102,0.2885372375,0.6181373783004624
0.011,1.796975,1.0,1513.7675382078357,0.11657463068926589,1.3450466950256752,0.757038044623421,0.28852595000000003,0.6203532469765902
0.0115,1.79669375,1.0,1582.479980107242,0.1215299487401146,1.3440903120635368,0.7715040379422351,0.2885141375,0.6224549016071999
0.012,1.7964,1.0,1648.3299453633415,0.12645747104050398,1.3431795698326239,0.7847419661221272,0.28850180000000003,0.6244508381680333
0.0125,1.79609375,1.0,1711.345027756914,0.1313573534590114,1.3423111045322316,0.7968766846340092,0.2884889375,0.6263491955163382
0.013000000000000001,1.7957750000000001,1.0,1771.5830597359632,0.1362297520056644,1.3414816376431513,0.8080193164215574,0.28847555,0.628157816175228
0.0135,1.79544375,1.0,1829.0907536426942,0.1410748206172326,1.340688390107583,0.8182688140648096,0.2884616375,0.6298833572892326
0.014,1.7951000000000001,1.0,1883.9151514414473,0.14589271180537117,1.3399288862016923,0.8277131927064718,0.2884472,0.6315317357323882
0.0145,1.79474375,1.0,1936.1273279794482,0.15068357808173521,1.3392006502016454,0.836430647496919,0.2884322375,0.6331087975216232
0.015,1.794375,1.0,1985.8026131049562,0.1554475709821464,1.3385013948322089,0.8444907500083172,0.28841675,0.6346199161245187
0.0155,1.79399375,1.0,2033.0424262287363,0.16018484272864306,1.3378287596644893,0.851955370173016,0.2884007375,0.6360705648710228
0.016,1.7936,1.0,2077.916495647652,0.16489554232891795,1.3371808993416634,0.8588797684077476,0.2883842,0.637465054589117
0.0165,1.7931937500000001,1.0,2120.4973710506333,0.16957981810106323,1.3365560848607685,0.86531325033289,0.2883671375,0.638807403517829
0.017,1.792775,1.0,2160.8700715681484,0.17423781836317107,1.3359525872188411,0.871299837163877,0.28834955,0.6401015916484916
0.0175,1.7923437500000001,1.0,2199.1211025275957,0.1788696904549707,1.3353687778333039,0.8768789174982428,0.2883314375,0.6413513483883804
0.018000000000000002,1.7919,1.0,2235.3457027122877,0.18347558247920204,1.3348030416141714,0.8820857686812925,0.2883128,0.6425603422381997
0.0185,1.79144375,1.0,2269.61995145256,0.18805563961654906,1.3342540456646514,0.886952103100993,0.2882936375,0.6437316101939194
0.019,1.790975,1.0,2302.0162528869523,0.19261000580208898,1.3337205679268536,0.8915064353034428,0.28827395,0.6448679290260788
0.0195,1.79049375,1.0,2332.6135957369715,0.19713882497089888,1.333201386342888,0.8957744214088331,0.2882537375,0.6459720540152344
0.02,1.79,1.0,2361.494894852312,0.2016422407221558,1.332695299392108,0.8997791881361988,0.288233,0.6470466765382514
0.0205,1.78949375,1.0,2388.7351668715446,0.20612039529827395,1.3322012353039958,0.9035416406326584,0.2882117375,0.648094194076847
0.021,1.788975,1.0,2414.4216607809285,0.21057343306546056,1.3317180493742733,0.9070806654929694,0.28818995000000003,0.6491171419621402
0.021500000000000002,1.78844375,1.0,2438.613686724696,0.2150014931317244,1.331244908168797,0.9104134292630386,0.2881676375,0.6501173814165986
0.022,1.7879,1.0,2461.373975612503,0.21940471460507427,1.3307809782534228,0.9135555011184665,0.2881448,0.6510967615615709
0.0225,1.78734375,1.0,2482.7683968940546,0.22378323659351898,1.3303254261940067,0.9165210235842978,0.28812143749999997,0.6520571199290428
0.023,1.786775,1.0,2502.8656917345834,0.2281371982050673,1.329877418556405,0.9193228630230484,0.28809755,0.6530002829290891
0.0235,1.78619375,1.0,2521.7272414277554,0.23246673615031785,1.3294362162855091,0.9219727588430032,0.28807313749999996,0.6539278679830589
0.024,1.7856,1.0,2539.420552150236,0.23677199080877415,1.3290010437575883,0.9244814181744458,0.2880482,0.6548415599694435
0.0245,1.78499375,1.0,2555.9990166519697,0.2410530980399745,1.3285712776144838,0.9268586495642667,0.2880227375,0.655742715327761
0.025,1.784375,1.0,2571.5107164843203,0.24531019162823325,1.3281463602125982,0.929113438326257,0.28799675,0.6566325455332389
0.025500000000000002,1.78374375,1.0,2586.0052117918126,0.24954340535786482,1.327725733908335,0.9312540174149967,0.2879702375,0.6575122555301123
0.026000000000000002,1.7831000000000001,1.0,2599.533415015243,0.25375287301318356,1.3273088410580969,0.9332879406411058,0.2879432,0.6583830438941501
0.0265,1.78244375,1.0,2612.147471488672,0.25793872837850385,1.3268951240182865,0.9352221478681867,0.2879156375,0.659246102975348
0.027,1.781775,1.0,2623.8912632755023,0.26210110277143606,1.3264841121386794,0.93706303556629,0.28788755,0.6601024378858998
0.0275,1.7810937500000001,1.0,2634.812299006889,0.2662401301291595,1.3260753098833322,0.9388164924744511,0.2878589375,0.6609531003969671
0.028,1.7804,1.0,2644.962593475405,0.27035594433257065,1.3256681881655654,0.9404879440335749,0.2878298,0.661799206686728
0.0285,1.77969375,1.0,2654.3752582281704,0.27444867326241873,1.3252623996481057,0.9420824233224088,0.2878001375,0.6626414903544515
0.029,1.778975,1.0,2663.0840072295323,0.278518444799453,1.3248575969936798,0.9436045824432158,0.28776995,0.6634806813631758
0.029500000000000002,1.7782437500000001,1.0,2671.1231044576602,0.28256538682442256,1.3244534328650148,0.9450587262765819,0.2877392375,0.6643175060653932
0.03,1.7775,1.0,2678.5273141768007,0.2865896272180768,1.3240495599248372,0.9464488428424694,0.287708,0.6651526872210438
0.0305,1.77674375,1.0,2685.3318538840726,0.29059129386116483,1.3236456308358742,0.947778630645656,0.2876762375,0.6659869440078096
0.031,1.775975,1.0,2691.5723499312135,0.2945705146344359,1.3232412982608523,0.9490515233378644,0.28764395,0.6668209920237204
0.0315,1.7751937500000001,1.0,2697.277223290946,0.2985274125835763,1.3228362841038077,0.9502707191067532,0.2876111375,0.6676554007208086
0.032,1.7744,1.0,2702.4831453223624,0.30246211909676457,1.3224302376322172,0.9514391868201274,0.2875778,0.6684908860345407
0.0325,1.77359375,1.0,2707.2142160680173,0.30637475726621066,1.3220229255617588,0.9525597026392671,0.2875439375,0.6693279190454271
0.033,1.772775,1.0,2711.4930486795693,0.3102654489741594,1.3216141301891686,0.953634855584039,0.28750955,0.6701669364243128
0.0335,1.7719437500000002,1.0,2715.34245101188,0.31413431610285564,1.3212036338111834,0.9546670610311345,0.2874746375,0.671008372533454
0.034,1.7711000000000001,1.0,2718.7854060602467,0.31798148053454406,1.320791218724539,0.9556585744281411,0.2874392,0.6718526594044165
0.0345,1.7702437500000001,1.0,2721.845053447756,0.32180706415146937,1.320376667225972,0.9566115037701122,0.2874032375,0.6727002267129425
0.035,1.7693750000000001,1.0,2724.5446719640404,0.3256111888358765,1.3199597616122185,0.957527820963318,0.28736675,0.6735515017508046
0.035500000000000004,1.76849375,1.0,2726.9024860084573,0.32939397153135547,1.3195403312607021,0.9584093759644008,0.2873297375,0.6744068134496197
0.036000000000000004,1.7676,1.0,2728.9389292279097,0.3331555323777709,1.3191181863713657,0.959257900987066,0.2872922,0.6752665278286043
0.0365,1.76669375,1.0,2730.683919524419,0.33689600214106874,1.318693051779995,0.9600750142024275,0.2872541375,0.6761311822294431
0.037,1.765775,1.0,2732.150740573724,0.34061549568613814,1.318264804256329,0.9608622459185379,0.28721555,0.6770010024607163
0.0375,1.76484375,1.0,2733.3527346854407,0.34431412787786797,1.317833320570106,0.9616210334669059,0.2871764375,0.6778762128041461
0.038,1.7639,1.0,2734.3032960526507,0.34799201358114734,1.317398477491065,0.9623527278783048,0.28713679999999997,0.678757035989649
0.0385,1.76294375,1.0,2735.015864338771,0.3516492676608651,1.3169601517889444,0.9630586000087854,0.28709663750000003,0.6796436931694174
0.039,1.761975,1.0,2735.503918599966,0.3552860049819103,1.3165182202334835,0.9637398461666663,0.28705595,0.6805364038910333
0.0395,1.7609937500000001,1.0,2735.7809715460553,0.35890234040917196,1.3160725595944205,0.9643975932861035,0.2870147375,0.6814353860696158
0.04,1.76,1.0,2735.860564136205,0.36249838880753904,1.315623046641494,0.9650329036882368,0.286973,0.6823408559589965
0.0405,1.7589937500000001,1.0,2735.756260512525,0.3660742650419005,1.3151695581444431,0.9656467794668374,0.2869307375,0.6832530281219276
0.041,1.757975,1.0,2735.4816432698626,0.3696300839771454,1.3147119708730066,0.9662401665317102,0.28688795,0.6841721153993234
0.0415,1.75694375,1.0,2735.0444702991767,0.37316595354924287,1.3142502146152262,0.9668139616720562,0.2868446375,0.6850982226220801
0.042,1.7559,1.0,2734.457191171797,0.3766819886103283,1.3137841766656493,0.9673690100940914,0.28680079999999997,0.6860315385021065
0.0425,1.75484375,1.0,2733.7369283599382,0.380178309612328,1.3133137019471703,0.9679061085467925,0.2867564375,0.6869723347326522
0.043000000000000003,1.753775,1.0,2732.890017097359,0.38365502382921873,1.312838733388209,0.9684260168615733,0.28671155,0.6879206852425418
0.043500000000000004,1.75269375,1.0,2731.9227978398962,0.38711223853497717,1.3123592139171858,0.9689294545214301,0.28666613750000003,0.6888766628859623
0.044,1.7516,1.0,2730.8416148439737,0.39055006100358,1.3118750864625204,0.9694171032025864,0.2866202,0.689840339426006
0.0445,1.75049375,1.0,2729.6528148188468,0.39396859850900395,1.3113862939526333,0.9698896091317218,0.2865737375,0.6908117855179983
0.045,1.7493750000000001,1.0,2728.362745649777,0.39736795832522576,1.3108927793159442,0.9703475852738566,0.28652675,0.6917910706926265
0.0455,1.74824375,1.0,2726.977755193984,0.4007482477262221,1.3103944854808738,0.9707916133645899,0.2864792375,0.6927782633388508
0.046,1.7471,1.0,2725.504190149239,0.40410957398596964,1.3098913553758416,0.9712222457991738,0.2864312,0.6937734306866195
0.0465,1.7459437500000001,1.0,2723.948394993559,0.4074520443784451,1.309383331929268,0.9716400073897864,0.28638263750000004,0.6947766387893635
0.047,1.744775,1.0,2722.3167109982005,0.4107757661776253,1.3088703580695733,0.9720453970013702,0.28633355,0.6957879525062933
0.0475,1.7435969967278155,1.0,2720.7773742416234,0.4140808464248904,1.308352369010301,0.9724388884940972,0.28628407386256827,0.6968074506560434
0.048,1.7424185060671582,1.0,2719.747264649693,0.4173673883231395,1.3078295266134425,0.9728209482594155,0.28623457725482065,0.6978347657683159
0.0485,1.7412400154065006,1.0,2719.189972743708,0.42063549726788796,1.307302379931762,0.9731920474825357,0.28618508064707304,0.6988687732406729
0.049,1.7400615247458433,1.0,2719.0735451412447,0.42388527517418795,1.3067712186417226,0.9735526165574102,0.28613558403932543,0.6999088629243381
0.0495,1.7388830340851857,1.0,2719.36614372874,0.42711682395709155,1.3062363324197876,0.9739030655664108,0.2860860874315778,0.7009544282719302
0.05,1.7377045434245284,1.0,2720.036020807575,0.4303302455316511,1.3056980109424206,0.9742437854308866,0.2860365908238302,0.7020048664089532
0.0505,1.736526052763871,1.0,2721.051496100663,0.4335256418129187,1.3051565438860844,0.9745751489867301,0.2859870942160826,0.7030595781999371
0.051000000000000004,1.7353475621032135,1.0,2722.3820232274293,0.43670311431584763,1.3046122110283827,0.9748975112981594,0.285937597608335,0.7041179875395411
0.051500000000000004,1.7341690714425562,1.0,2724.0019223760955,0.43986276340455605,1.304065248124549,0.9752112083536356,0.28588810100058737,0.7051796074073868
0.052000000000000005,1.7329905807818986,1.0,2725.882558261541,0.44300469112335444,1.3035159179760376,0.9755165629683614,0.28583860439283976,0.7062439015789643
0.0525,1.7318120901212413,1.0,2728.0057729580417,0.44612899548854323,1.3029643881257202,0.9758138771562233,0.28578910778509214,0.7073105214528315
0.053,1.7306335994605837,1.0,2730.3534137311613,0.4492357745164227,1.3024108261164689,0.9761034396453026,0.28573961117734453,0.708379120687356
0.0535,1.7294551087999264,1.0,2732.907325177613,0.45232512622329324,1.3018553994911548,0.976385526580763,0.2856901145695969,0.709449355223327
0.054,1.7282766181392688,1.0,2735.6493419876,0.4553971486254551,1.3012982757926501,0.976660402184842,0.28564061796184925,0.7105208833047709
0.0545,1.7270981274786115,1.0,2738.5622097028163,0.458451939185613,1.3007396141483145,0.9769283188142979,0.2855911213541017,0.7115933816387848
0.055,1.7259196368179541,1.0,2741.630831728411,0.4614895947660481,1.3001795539294045,0.9771895168929152,0.2855416247463541,0.7126665669730348
0.0555,1.7247411461572966,1.0,2744.8394696222317,0.46451021309251866,1.299618240139263,0.9774442271649983,0.28549212813860647,0.7137401472444225
0.056,1.7235626554966392,1.0,2748.1778299238745,0.4675138884317195,1.2990557682203614,0.9776926675505042,0.28544263153085886,0.7148139269583211
0.0565,1.7223841648359817,1.0,2751.635602999421,0.4705007150503455,1.2984922336151714,0.9779350469897703,0.28539313492311125,0.7158877119624552
0.057,1.7212056741753243,1.0,2755.2024606918962,0.47347078721509167,1.2979277317661642,0.9781715658891752,0.28534363831536363,0.7169613094536624
0.0575,1.7200271835146668,1.0,2758.8680541733347,0.4764241991926528,1.297362358115811,0.9784024165412308,0.285294141707616,0.7180345279840696
0.058,1.7188486928540094,1.0,2762.624967908818,0.4793610415366545,1.2967961814000375,0.9786277816970761,0.2852446450998684,0.719107228017717
0.0585,1.7176702021933519,1.0,2766.464926407682,0.4822814067818655,1.2962292779731956,0.9788478374364387,0.2851951484921208,0.7201792566054821
0.059000000000000004,1.7164917115326945,1.0,2770.372268325733,0.4851853980013336,1.2956617906492804,0.9790627574456691,0.2851456518843732,0.7212503365754499
0.059500000000000004,1.715313220872037,1.0,2774.3424636509253,0.48807310427572126,1.2950937615050921,0.9792727019440018,0.2850961552766256,0.7223203824004331
0.06,1.7141347302113796,1.0,2778.3709710668627,0.49094461468569056,1.2945252326174317,0.9794778249440852,0.28504665866887796,0.72338930915704
0.0605,1.712956239550722,1.0,2782.453237466951,0.4938000183119039,1.2939562460630998,0.9796782745416364,0.28499716206113035,0.7244570325270738
0.061,1.7117777488900647,1.0,2786.584697507814,0.4966394042350235,1.2933868439188971,0.9798741931894387,0.2849476654533827,0.725523468798816
0.0615,1.7105992582294074,1.0,2790.7607732021247,0.49946286153571157,1.2928170682616242,0.9800657179566404,0.2848981688456351,0.7265885348681993
0.062,1.7094207675687498,1.0,2794.976873549997,0.5022704792946304,1.292246961168082,0.9802529807742523,0.28484867223788746,0.7276521482398647
0.0625,1.7082422769080925,1.0,2799.2283942109552,0.5050623465924424,1.291676564715071,0.9804361086676702,0.2847991756301399,0.7287142270281091
0.063,1.707063786247435,1.0,2803.5107172134317,0.5078385525098096,1.291105920979392,0.9806152239770085,0.28474967902239223,0.7297746899577167
0.0635,1.7058852955867776,1.0,2807.8192107055456,0.5105991861273943,1.2905350720378457,0.9807904445659639,0.2847001824146447,0.7308334563646806
0.064,1.70470680492612,1.0,2812.14995502084,0.5133443339781423,1.289964053463375,0.9809618835074146,0.284650685806897,0.7318904582241359
0.0645,1.7035283142654627,1.0,2816.5038016361673,0.5160740695117348,1.2893928580285594,0.9811296467303343,0.28460118919914945,0.7329457070218816
0.065,1.7023498236048051,1.0,2820.87131905291,0.5187885049117679,1.2888215704721646,0.9812938436826318,0.2845516925914018,0.7339990447384963
0.0655,1.7011713329441478,1.0,2825.251113234488,0.5214877225518709,1.288250203462746,0.9814545742902171,0.2845021959836542,0.7350504470780788
0.066,1.6999928422834902,1.0,2829.641785792778,0.5241718048056737,1.2876787696688583,0.9816119349683127,0.28445269937590656,0.7360998899292475
0.0665,1.698814351622833,1.0,2834.0419339682476,0.5268408340468063,1.2871072817590568,0.9817660187703292,0.284403202768159,0.7371473493651964
0.067,1.6976358609621753,1.0,2838.45015061214,0.529494892648898,1.2865357524018959,0.9819169155294121,0.28435370616041133,0.7381928016437482
0.0675,1.696457370301518,1.0,2842.8650241738546,0.5321340629855789,1.2859641942659308,0.982064711993071,0.2843042095526638,0.7392362232073884
0.068,1.6952788796408607,1.0,2847.285138690383,0.5347584274304786,1.2853926200197163,0.9822094919512754,0.2842547129449161,0.7402775906832966
0.0685,1.694100388980203,1.0,2851.7090737807403,0.537368068357227,1.2848210423318078,0.982351336358375,0.28420521633716855,0.7413168808833628
0.069,1.6929218983195458,1.0,2856.1354046422816,0.5399630681394535,1.2842494738707597,0.9824903234491867,0.2841557197294209,0.7423540708041974
0.0695,1.6917434076588882,1.0,2860.562702052654,0.5425435091507882,1.2836779273051273,0.9826265288495623,0.28410622312167333,0.7433891376271267
0.07,1.6905649169982309,1.0,2864.989532373027,0.5451094737648607,1.2831064153034653,0.982760025681737,0.28405672651392566,0.744422058718182
0.07050000000000001,1.6893864263375733,1.0,2869.41445755703,0.5476610443553009,1.2825349505343289,0.9828908846647383,0.2840072299061781,0.7454528116280751
0.07100000000000001,1.688207935676916,1.0,2873.8360351612628,0.5501983032957384,1.2819635456662728,0.9830191742101179,0.28395773329843044,0.7464813740921674
0.07150000000000001,1.6870294450162584,1.0,2878.2528183614204,0.5527213329598029,1.281392213367852,0.9831449605132574,0.2839082366906829,0.7475077240304251
0.07200000000000001,1.685850954355601,1.0,2882.6666792482283,0.5552301790395938,1.2808209369137338,0.9832683041624392,0.2838587400829352,0.7485318921903468
0.0725,1.6846724636949437,1.0,2887.073591543624,0.5577249692656605,1.280249751760307,0.9833892709368227,0.28380924347518766,0.7495538158108619
