Time [s],Phi [rad],STIM [ ],Fsee [N],Gamma [ ],Lcerel [ ],q [ ],Lmtc [m],fisomrel [ ]
0.0,1.8,1.0,17.96787473800472,1.1419682902021156e-05,1.3793396659406698,0.005000034719953637,0.288653,0.5411397252679242
0.0005,1.79999375,1.0,18.27761863232784,0.005620564936306707,1.3793022906522645,0.012944454868118679,0.2886527375,0.5412301412817127
0.001,1.799975,1.0,21.620256785727896,0.011198247319755428,1.3789381105909198,0.03561597179297738,0.28865195,0.5421106771102803
0.0015,1.79994375,1.0,31.073260718125088,0.01674464331593343,1.3780458608482788,0.07061182730276877,0.2886506375,0.5442644358912111
0.002,1.7999,1.0,53.59064002091181,0.022259928415874458,1.3763675963485644,0.11472982458673706,0.2886488,0.5483017615395538
0.0025,1.79984375,1.0,97.13252231383909,0.027744277126530215,1.3739345126697537,0.16458771698671812,0.28864643749999996,0.5541230237067405
0.003,1.7997750000000001,1.0,160.97584070271452,0.03319786297847835,1.3712136822242131,0.2172936848588613,0.28864354999999997,0.5605880169947095
0.0035,1.79969375,1.0,237.70329268250055,0.038620858525521336,1.368584119390162,0.27062604877757757,0.2886401375,0.5667912848640906
0.004,1.7996,1.0,321.4880168854418,0.044013435355466826,1.3661555296920829,0.32292854507567664,0.2886362,0.5724812757522648
0.0045000000000000005,1.7994937500000001,1.0,409.28977612738,0.04937576409531272,1.3639222971548959,0.3730466051743533,0.2886317375,0.5776803623517337
0.005,1.799375,1.0,499.4359852278941,0.05470801440233656,1.3618578646315282,0.42025877992589633,0.28862675,0.5824581817739496
0.0055,1.79924375,1.0,590.8131170839245,0.060010355011532734,1.3599383915403602,0.46418417895220493,0.2886212375,0.5868761297682983
0.006,1.7991000000000001,1.0,682.5408458043448,0.06528295367884919,1.3581460014440427,0.5046895948302895,0.2886152,0.5909803624032006
0.006500000000000001,1.79894375,1.0,773.9039857050008,0.07052597723759749,1.3564668656409162,0.5418095678095325,0.2886086375,0.5948066763397353
0.007,1.798775,1.0,864.3082908406644,0.07573959157657058,1.3548900318805606,0.5756848084866598,0.28860155,0.5983834989534909
0.0075,1.79859375,1.0,953.2648144359396,0.08092396166063023,1.3534064469776963,0.6065172230816437,0.2885939375,0.6017343215389055
0.008,1.7984,1.0,1040.3806327801394,0.08607925153313367,1.3520083198171942,0.6345386906312965,0.2885858,0.6048792818223085
0.0085,1.79819375,1.0,1125.3426634405578,0.09120562430965648,1.3506888389528657,0.6599904075191185,0.2885771375,0.6078358999805198
0.009000000000000001,1.797975,1.0,1207.906114457688,0.09630324213080979,1.34944195397131,0.6831097870773295,0.28856795,0.6106196454231915
0.0095,1.79774375,1.0,1287.8971315444421,0.10137226640005574,1.3482620586216596,0.7041225716944733,0.2885582375,0.6132447019279457
0.01,1.7975,1.0,1365.182849059068,0.10641285757599638,1.3471441822097894,0.7232387930143241,0.288548,0.6157235866004355
0.0105,1.79724375,1.0,1439.672273958419,0.11142517481482539,1.3460837865018032,0.7406508382644859,0.2885372375,0.6180676426038723
0.011,1.796975,1.0,1511.3207507231352,0.11640937664377055,1.3450765715198751,0.7565330221233375,0.28852595000000003,0.6202874993242617
0.0115,1.79669375,1.0,1580.124576359436,0.12136562177061998,1.3441184404824673,0.7710421438671501,0.2885141375,0.6223931725762584
0.012,1.7964,1.0,1646.068784779854,0.12629406613410832,1.3432060271451092,0.7843187851971823,0.28850180000000003,0.6243929302655312
0.0125,1.79609375,1.0,1709.1743024279715,0.13119486541445707,1.342336031029061,0.7964883115506333,0.2884889375,0.6262947763369571
0.013000000000000001,1.7957750000000001,1.0,1769.4925463260868,0.1360681751379991,1.3415052308922364,0.8076623007586781,0.28847555,0.6281064326315061
0.0135,1.79544375,1.0,1827.0766716336907,0.14091414964017443,1.340710760134413,0.817940056819744,0.2884616375,0.6298347510479287
0.014,1.7951000000000001,1.0,1881.9825403874231,0.14573294196299458,1.3399500363097603,0.8274099020783192,0.2884472,0.6314858826944919
0.0145,1.79474375,1.0,1934.2816505676403,0.15052470458173167,1.3392205743495111,0.836150339250261,0.2884322375,0.6330656949553182
0.015,1.794375,1.0,1984.0533069259159,0.15528958951855848,1.338520040624592,0.8442312001521266,0.28841675,0.6345796622944022
0.0155,1.79399375,1.0,2031.367159419943,0.16002774699181485,1.3378464073451204,0.8517147060117304,0.2884007375,0.6360325415943717
0.016,1.7936,1.0,2076.298781448303,0.1647393262883565,1.337197755541927,0.8586562981854019,0.2883842,0.6374288063057616
0.0165,1.7931937500000001,1.0,2118.9490584224463,0.16942447794938922,1.336572054917657,0.8651053755461945,0.2883671375,0.6387731245169188
0.017,1.792775,1.0,2159.408376056681,0.1740833509221618,1.3359675221569143,0.87110611442521,0.28834955,0.6400695920144877
0.0175,1.7923437500000001,1.0,2197.7435118480685,0.1787160911443369,1.3353827303011505,0.8766981107224713,0.2883314375,0.6413215057900056
0.018000000000000002,1.7919,1.0,2234.0306309129114,0.18332284455357728,1.334816252391817,0.881916818986032,0.2883128,0.642532133719066
0.0185,1.79144375,1.0,2268.354505399644,0.1879037570875457,1.334266661470365,0.8867940361092056,0.2882936375,0.6437047162929093
0.019,1.790975,1.0,2300.801939494599,0.19245897394260147,1.3337325883914581,0.8913583389065306,0.28827395,0.6448423451707194
0.0195,1.79049375,1.0,2331.4598940383457,0.19698864012809936,1.3332127315706461,0.8956354557364408,0.2882537375,0.6459479448954992
0.02,1.79,1.0,2360.411142887038,0.2014928998821781,1.3327058912856347,0.8996485966173299,0.288233,0.6470242024994626
0.0205,1.78949375,1.0,2387.719090794217,0.20597189423248102,1.332211108910001,0.9034187646304572,0.2882117375,0.6480732752448579
0.021,1.788975,1.0,2413.4515671106715,0.21042576420665138,1.3317274258173217,0.9069649475654882,0.28818995000000003,0.6490973053590986
0.021500000000000002,1.78844375,1.0,2437.6804597068285,0.21485465083233246,1.3312538833811736,0.9103043389257796,0.2881676375,0.6500984207426399
0.022,1.7879,1.0,2460.4774801454423,0.21925869443539486,1.330789560208256,0.9134525394656902,0.2881448,0.6510786570702443
0.0225,1.78734375,1.0,2481.911159042571,0.22363803466063986,1.3303335968721925,0.916423732161677,0.28812143749999997,0.6520399068159433
0.023,1.786775,1.0,2502.05792600327,0.22799281246452072,1.329885086679485,0.919230811275289,0.28809755,0.6529841504670559
0.0235,1.78619375,1.0,2520.969486919423,0.2323231637894108,1.3294433826596992,0.9218855710637647,0.28807313749999996,0.6539128112937979
0.024,1.7856,1.0,2538.6996437681955,0.23662922457768357,1.3290078378424015,0.9243987722754893,0.2880482,0.6548273043312118
0.0245,1.78499375,1.0,2555.3041206463104,0.2409111307717124,1.3285778052571584,0.9267802469452137,0.2880227375,0.6557290366466483
0.025,1.784375,1.0,2570.8403990846623,0.2451690183138707,1.328152637933536,0.9290389912943339,0.28799675,0.6566194075805537
0.025500000000000002,1.78374375,1.0,2585.3602928047117,0.249403021467577,1.3277317567982163,0.9311832588013716,0.2879702375,0.6574996670470498
0.026000000000000002,1.7831000000000001,1.0,2598.9194274416323,0.2536132759078835,1.3273145601214034,0.9332206188157572,0.2879432,0.6583711056522074
0.0265,1.78244375,1.0,2611.573290693649,0.25779991663989416,1.3269004593455307,0.9351580270648412,0.2879156375,0.6592349798459217
0.027,1.781775,1.0,2623.3604472950215,0.2619630741607295,1.3264890334452109,0.9370019060312652,0.28788755,0.6600921908163648
0.0275,1.7810937500000001,1.0,2634.320346865712,0.26610287896751,1.3260798613950555,0.9387581706527776,0.2878589375,0.6609436351804254
0.028,1.7804,1.0,2644.4932482106638,0.27021946155735616,1.325672522169677,0.9404322751425492,0.2878298,0.6617902050498765
0.0285,1.77969375,1.0,2653.920147549737,0.27431295242738846,1.3252665947436872,0.9420292549236416,0.2878001375,0.6626327880862435
0.029,1.778975,1.0,2662.6427106774704,0.2783834820747274,1.3248616580916985,0.9435537642405921,0.28776995,0.6634722675443634
0.029500000000000002,1.7782437500000001,1.0,2670.6957794961095,0.2824311777420835,1.3244573594595601,0.9450101181081886,0.2877392375,0.6643093810348527
0.03,1.7775,1.0,2678.124806450435,0.28645617169646476,1.324053253354869,0.9464023031802847,0.287708,0.6651450541776949
0.0305,1.77674375,1.0,2684.9590914509645,0.2904585901049563,1.323649046975448,0.9477340346043245,0.2876762375,0.6659798928312635
0.031,1.775975,1.0,2691.2256428005307,0.29443855802686614,1.3232444719260472,0.9490087640195664,0.28764395,0.6668144495192949
0.0315,1.7751937500000001,1.0,2696.951797049804,0.29839620052150256,1.3228392598114163,0.9502296989775978,0.2876111375,0.6676492739936764
0.032,1.7744,1.0,2702.1651883971604,0.3023316426481736,1.3224331422363047,0.9513998232206125,0.2875778,0.6684849132258384
0.0325,1.77359375,1.0,2706.893719685474,0.30624500946618743,1.3220258508054628,0.9525219150400052,0.2875439375,0.6693219113935518
0.033,1.772780594401809,1.0,2711.445717762077,0.31013642388902396,1.321617088341426,0.9535985599414224,0.287509784964876,0.6701608688991818
0.0335,1.7719674206457274,1.0,2716.1533082510523,0.3140060087740449,1.3212069347566315,0.9546322132534266,0.28747563166712053,0.6710016105365084
0.034,1.771154246889646,1.0,2720.9775171532215,0.3178538934767576,1.3207957566570576,0.955625200973131,0.2874414783693651,0.6718433753533989
0.0345,1.7703410731335645,1.0,2725.906539614577,0.3216801970077706,1.3203836641383386,0.9565796649902827,0.2874073250716097,0.6726859303357533
0.035,1.769527899377483,1.0,2730.9285330221733,0.3254850383776925,1.3199707672961094,0.9574976084166883,0.2873731717738543,0.6735290436094994
0.035500000000000004,1.7687147256214018,1.0,2736.031614906318,0.32926853659713184,1.3195571762260045,0.9583809061906514,0.2873390184760989,0.6743724844466272
0.036000000000000004,1.7679015518653203,1.0,2741.203861111531,0.33303081067669715,1.3191430010236591,0.9592313147554511,0.2873048651783434,0.6752160232704487
0.0365,1.7670883781092388,1.0,2746.4333042367775,0.336771979626997,1.3187283517847075,0.9600504809022162,0.28727071188058806,0.6760594316600885
0.037,1.7662752043531573,1.0,2751.7079323430253,0.34049216245864,1.3183133386047847,0.9608399498578665,0.2872365585828326,0.6769024823541954
0.0375,1.7654620305970758,1.0,2757.0156879317497,0.34419147818223467,1.3178980715795252,0.9616011726902333,0.2872024052850772,0.6777449492538874
0.038,1.7646488568409944,1.0,2762.3496123208656,0.34787004014771933,1.3174826143161527,0.9623355074537024,0.28716825198732177,0.6785867015528733
0.0385,1.763835683084913,1.0,2767.698693737085,0.3515279706877544,1.3170670667650448,0.9630442367490422,0.28713409868956635,0.6794275356282227
0.039,1.7630225093288316,1.0,2773.0549021221855,0.35516538782500884,1.3166515016024858,0.9637285643436199,0.28709994539181094,0.680267303995188
0.0395,1.7622093355727502,1.0,2778.4144635887806,0.3587824040438088,1.316235952879376,0.9643896194976425,0.28706579209405547,0.681105937839519
0.04,1.7613961618166687,1.0,2783.7735896631702,0.3623791318284805,1.3158204546466161,0.965028466708447,0.2870316387963001,0.6819433687079232
0.0405,1.7605829880605872,1.0,2789.128477309811,0.36595568366335,1.3154050409551066,0.9656461101145433,0.28699748549854465,0.6827795285079961
0.041,1.7597698143045057,1.0,2794.475308983214,0.3695121720327435,1.314989745855748,0.9662434975556529,0.28696333220078923,0.6836143495080718
0.0415,1.7589566405484243,1.0,2799.8102527038304,0.3730487094209871,1.314574603399441,0.9668215243189325,0.2869291789030338,0.6844477643370039
0.042,1.7581434667923428,1.0,2805.1294621609336,0.3765654083124069,1.314159647637086,0.9673810365986417,0.2868950256052784,0.685279705983871
0.0425,1.7573302930362615,1.0,2810.4290768404135,0.38006238119132907,1.313744912619584,0.9679228346939022,0.286860872307523,0.6861101077976073
0.043000000000000003,1.75651711928018,1.0,2815.7071300350867,0.3835397329822096,1.3133304153236742,0.9684476733804084,0.28682671900976753,0.6869389376055288
0.043500000000000004,1.7557039455240986,1.0,2820.9619895968767,0.38699757269744045,1.3129161696743765,0.9689562678265204,0.28679256571201217,0.6877661695035613
0.044,1.754890771768017,1.0,2826.1877806482926,0.39043602816904066,1.312502227447854,0.9694493015034559,0.2867584124142567,0.6885917022963322
0.0445,1.7540775980119356,1.0,2831.384038330233,0.3938552042304031,1.3120885919515957,0.9699274151015993,0.2867242591165013,0.689415531803796
0.045,1.7532644242558542,1.0,2836.5502970437296,0.39725520571492057,1.3116752664930909,0.9703912164336708,0.2866901058187459,0.6902376538790205
0.0455,1.7524512504997727,1.0,2841.6860904728273,0.4006361374559858,1.3112622543798282,0.9708412824430623,0.28665595252099046,0.6910580644081221
0.046,1.7516380767436912,1.0,2846.7909516076775,0.40399810428699173,1.3108495589192968,0.9712781610707447,0.28662179922323505,0.6918767593101998
0.0465,1.75082490298761,1.0,2851.8644127669672,0.40734121104133103,1.3104371834189859,0.9717023729919841,0.2865876459254796,0.692693734537267
0.047,1.7500117292315285,1.0,2856.9060056222324,0.41066556255239656,1.3100251311863844,0.9721144132330986,0.2865534926277242,0.6935089860741873
0.0475,1.749198555475447,1.0,2861.915261220437,0.41397126365358117,1.3096134055289812,0.9725147526776055,0.28651933932996876,0.6943225099386053
0.048,1.7483853817193655,1.0,2866.891710008572,0.4172584191782776,1.3092020097542656,0.9729038394703017,0.28648518603221335,0.6951343021808771
0.0485,1.747572207963284,1.0,2871.834881857322,0.42052713395987873,1.3087909471697263,0.9732821003270766,0.28645103273445793,0.6959443588840029
0.049,1.7467590342072026,1.0,2876.7443060854116,0.42377751283177734,1.3083802210828526,0.9736499417576081,0.2864168794367025,0.6967526761635554
0.0495,1.745945860451121,1.0,2881.619511484292,0.42700966062736617,1.3079698348011335,0.9740077512074835,0.2863827261389471,0.6975592501676102
0.05,1.7451326866950398,1.0,2886.460427726916,0.4302236700657859,1.3075597880842122,0.9743558964878057,0.28634857284119164,0.6983640840356966
0.0505,1.7443195129389584,1.0,2891.267822439318,0.43341963214486623,1.3071500732987844,0.9746947278546683,0.2863144195434363,0.6991671953844113
0.051000000000000004,1.743506339182877,1.0,2896.0410002037715,0.43659768603384447,1.3067406957539593,0.975024585848197,0.2862802662456808,0.6999685764297734
0.051500000000000004,1.7426931654267954,1.0,2900.78039288343,0.4397579274132913,1.3063316508085125,0.9753457901253862,0.2862461129479254,0.7007682388805214
0.052000000000000005,1.741879991670714,1.0,2905.486434804652,0.4429004519637775,1.3059229338212197,0.9756586460791247,0.28621195965017,0.7015661943948266
0.0525,1.7410668179146325,1.0,2910.159562723287,0.4460253553658738,1.3055145401508566,0.9759634455990436,0.2861778063524146,0.7023624545803913
0.053,1.740253644158551,1.0,2914.800215791097,0.4491327333001511,1.3051064651561983,0.9762604677854207,0.28614365305465916,0.7031570309945457
0.0535,1.7394404704024697,1.0,2919.4088355227605,0.4522226814471801,1.3046987041960205,0.9765499796194126,0.2861094997569037,0.7039499351443431
0.054,1.7386272966463883,1.0,2923.985865763588,0.4552952954875315,1.3042912526290993,0.9768322365926376,0.28607534645914834,0.7047411784866509
0.0545,1.7378141228903068,1.0,2928.5317526566337,0.45835067110177624,1.3038841058142094,0.9771074832989042,0.28604119316139287,0.7055307724282474
0.055,1.7370009491342253,1.0,2933.0469446121133,0.46138890397048493,1.3034772591101271,0.9773759539906555,0.28600703986363746,0.706318728325908
0.0555,1.7361877753781438,1.0,2937.531892275672,0.46441008977422843,1.3030707078756278,0.9776378731025157,0.28597288656588205,0.7071050574864983
0.056,1.7353746016220624,1.0,2941.98704849781,0.4674143241935774,1.3026644474694868,0.9778934557441394,0.28593873326812663,0.7078897711670606
0.0565,1.7345614278659809,1.0,2946.4128683037848,0.4704017029091028,1.3022584732504798,0.9781429081644024,0.2859045799703712,0.7086728805749011
0.057,1.7337482541098996,1.0,2950.809808863987,0.47337232160137527,1.3018527805773825,0.9783864281888228,0.28587042667261575,0.709454396867674
0.0575,1.7329350803538182,1.0,2955.178329464668,0.4763262759509656,1.3014473648089702,0.9786242056319597,0.28583627337486034,0.7102343311534682
0.058,1.7321219065977367,1.0,2959.5188914791333,0.4792636616384445,1.3010422213040187,0.9788564226864133,0.2858021200771049,0.7110126944908872
0.0585,1.7313087328416552,1.0,2963.8319583396255,0.4821845743443829,1.3006373454213036,0.9790832542899289,0.2857679667793495,0.7117894978891319
0.059000000000000004,1.7304955590855737,1.0,2968.1173057637293,0.48508906318774714,1.3002327385318342,0.9793048649238086,0.2857338134815941,0.7125647407961584
0.059500000000000004,1.7296823853294923,1.0,2972.375982175487,0.4879772441831564,1.2998283909211215,0.9795214176061553,0.2856996601838387,0.7133384438700612
0.06,1.7288692115734108,1.0,2976.6092062979774,0.49084925334804713,1.299424291424188,0.9797330705130184,0.2856655068860833,0.7141106304372542
0.0605,1.7280560378173293,1.0,2980.8173666762777,0.4937051757590718,1.2990204361323636,0.979939971987923,0.2856313535883278,0.7148813098699331
0.061,1.727242864061248,1.0,2985.000853525933,0.4965450964928827,1.2986168211369773,0.9801422647259146,0.2855972002905724,0.7156504914988728
0.0615,1.7264296903051666,1.0,2989.160058711444,0.4993691006261322,1.298213442529359,0.9803400860317909,0.285563046992817,0.7164181846134844
0.062,1.725616516549085,1.0,2993.295375725991,0.5021772732354727,1.297810296400838,0.9805335680646378,0.28552889369506157,0.7171843984618782
0.0625,1.7248033427930036,1.0,2997.4071996709795,0.5049696993975564,1.2974073788427436,0.9807228380694911,0.28549474039730616,0.717949142250921
0.063,1.7239901690369221,1.0,3001.495927235926,0.5077464641890359,1.2970046859464055,0.9809080185968967,0.28546058709955074,0.7187124251462915
0.0635,1.7231769952808407,1.0,3005.561956679094,0.5105076526865633,1.2966022138031532,0.981089227711083,0.28542643380179533,0.7194742562725401
0.064,1.7223638215247592,1.0,3009.6056878079517,0.5132533499667912,1.296199958504316,0.9812665791874193,0.28539228050403986,0.7202346447131425
0.0645,1.721550647768678,1.0,3013.6275219605923,0.5159836411063718,1.2957979161412234,0.9814401826997846,0.28535812720628445,0.7209935995105541
0.065,1.7207374740125965,1.0,3017.627861986386,0.5186986111819576,1.2953960828052051,0.9816101439984318,0.28532397390852904,0.721751129666264
0.0655,1.719924300256515,1.0,3021.607112228489,0.5213983452702007,1.2949944545875904,0.9817765650788964,0.2852898206107736,0.7225072441408484
0.066,1.7191111265004335,1.0,3025.565678505415,0.5240829284477537,1.2945930275797088,0.9819395443424596,0.2852556673130182,0.7232619518540208
0.0665,1.718297952744352,1.0,3029.5039680936375,0.5267524457912689,1.2941917978728898,0.9820991767486482,0.2852215140152628,0.7240152616846836
0.067,1.7174847789882706,1.0,3033.4223897101483,0.5294069823773986,1.2937907615584627,0.9822555539602177,0.2851873607175074,0.7247671824709774
0.0675,1.716671605232189,1.0,3037.3213534956662,0.5320466232827953,1.2933899147277572,0.9824087644810402,0.2851532074197519,0.7255177230103296
0.068,1.7158584314761076,1.0,3041.2012709981527,0.5346714535841112,1.2929892534721028,0.982558893787295,0.2851190541219965,0.7262668920595022
0.0685,1.7150452577200264,1.0,3045.062555156281,0.5372815583579986,1.292588773882829,0.9827060244523246,0.2850849008242411,0.7270146983346388
0.069,1.7142320839639449,1.0,3048.9056202836287,0.5398770226811102,1.292188472051265,0.9828502362655097,0.2850507475264857,0.7277611505113109
0.0695,1.7134189102078634,1.0,3052.7308820532767,0.5424579316300979,1.2917883440687405,0.9829916063454891,0.28501659422873027,0.7285062572245609
0.07,1.712605736451782,1.0,3056.5387574822953,0.5450243702816144,1.291388386026585,0.9831302092480236,0.28498244093097486,0.7292500270689475
0.07050000000000001,1.7117925626957005,1.0,3060.329101013781,0.5475763851030779,1.290988598856825,0.9832661149726951,0.28494828763321944,0.729992459615248
0.07100000000000001,1.710979388939619,1.0,3064.1023439720457,0.5501140680953975,1.2905889785417852,0.9833993937387662,0.284914134335464,0.730733563616205
