Time [s],Phi [rad],STIM [ ],Fsee [N],Gamma [ ],Lcerel [ ],q [ ],Lmtc [m],fisomrel [ ]
0.0,1.8,1.0,17.967824099400545,1.0091252093399323e-05,1.3793396716137778,0.005000027138447335,0.288653,0.5411397115432119
0.0005,1.79999375,1.0,18.277125171338373,0.0056192439569438864,1.379302345465234,0.01294076650688556,0.2886527375,0.5412300086880494
0.001,1.799975,1.0,21.61877605894792,0.01119693375004244,1.3789382618213966,0.03560904944275946,0.28865195,0.5421103116319475
0.0015,1.79994375,1.0,31.069679026081477,0.01674333711430733,1.378046165985173,0.0706023515096454,0.2886506375,0.5442637002037979
0.002,1.7999,1.0,53.582861495146034,0.022258629541007827,1.3763681009586899,0.11471860190426003,0.2886488,0.5483005503212673
0.0025,1.79984375,1.0,97.11939640748456,0.027742985537323774,1.3739351451529898,0.16457550709628382,0.28864643749999996,0.5541215153680246
0.003,1.7997750000000001,1.0,160.95872860057398,0.03319657863406627,1.371214322728341,0.21728108784549055,0.28864354999999997,0.560586500642025
0.0035,1.79969375,1.0,237.68394017859003,0.03861958138526674,1.3685847154855793,0.27061351901557523,0.2886401375,0.5667898836429037
0.004,1.7996,1.0,321.46741817356644,0.04401216537895972,1.3661560752639945,0.3229164123481788,0.2886362,0.5724800017451148
0.0045000000000000005,1.7994937500000001,1.0,409.2684399996507,0.049374501242367266,1.3639227979881905,0.3730350876772599,0.2886317375,0.5776791999504041
0.005,1.799375,1.0,499.41421200546057,0.05470675863298601,1.3618583273053264,0.4202480041909201,0.28862675,0.5824571140299466
0.0055,1.79924375,1.0,590.7911441377353,0.06000910628607532,1.3599388208341874,0.46417420218393035,0.2886212375,0.5868751443128022
0.006,1.7991000000000001,1.0,682.5188410873019,0.06528171195776221,1.3581464014277889,0.5046804262041052,0.2886152,0.5909794488020572
0.006500000000000001,1.79894375,1.0,773.8820717655209,0.07052474248069054,1.3564672397233963,0.5418011849587457,0.2886086375,0.5948058259055571
0.007,1.798775,1.0,864.2865669219171,0.07573836374760536,1.3548903827891001,0.5756771698164794,0.28860155,0.5983827047315242
0.0075,1.79859375,1.0,953.2440475089919,0.080922740721091,1.353406766392615,0.6065102700845205,0.2885939375,0.601733601619629
0.008,1.7984,1.0,1040.3451951158731,0.08607803701639925,1.3520088415642848,0.6345325039347278,0.2885858,0.6048781105247776
0.0085,1.79819375,1.0,1125.3151551773308,0.09120441676804954,1.350689228366194,0.6599847301436137,0.2885771375,0.6078350290431233
0.009000000000000001,1.797975,1.0,1207.9013407620612,0.0963020419238991,1.3494420191980905,0.6831044617366007,0.28856795,0.6106195000598258
0.0095,1.79774375,1.0,1287.893785454299,0.10137107298079154,1.3482621028993245,0.7041177199406061,0.2885582375,0.6132446035846312
0.01,1.7975,1.0,1365.1683696117252,0.10641167043557051,1.3471443683092452,0.7232344497183535,0.288548,0.6157231745892063
0.0105,1.79724375,1.0,1439.6598154876788,0.11142399426626194,1.346083942428771,0.7406468688647975,0.2885372375,0.6180672984469362
0.011,1.796975,1.0,1511.3224791177072,0.11640820325464762,1.3450765504067839,0.7565293193804092,0.28852595000000003,0.6202875457887576
0.0115,1.79669375,1.0,1580.121571474965,0.12136445457823683,1.3441184763804215,0.7710387832069457,0.2885141375,0.6223930937934226
0.012,1.7964,1.0,1646.0583011257963,0.12629290489919984,1.343206149854207,0.7843157449469472,0.28850180000000003,0.6243926616780984
0.0125,1.79609375,1.0,1709.1749214371741,0.13119371097010407,1.3423360239187065,0.7964854707334447,0.2884889375,0.6262947918607487
0.013000000000000001,1.7957750000000001,1.0,1769.5073269398727,0.13606702770550044,1.3415050640313402,0.8076596266825955,0.28847555,0.6281067960489486
0.0135,1.79544375,1.0,1827.0919151166295,0.14091300859247724,1.3407105907816468,0.8179375915833657,0.2884616375,0.6298351190345065
0.014,1.7951000000000001,1.0,1881.9927308264437,0.1457318071181228,1.3399499247591657,0.8274076475384441,0.2884472,0.6314861245415739
0.0145,1.79474375,1.0,1934.280957706541,0.15052357565027058,1.3392205818307537,0.8361482969948045,0.2884322375,0.6330656787704241
0.015,1.794375,1.0,1984.0548073589136,0.15528846722835007,1.3385200246280087,0.8442293031040616,0.28841675,0.6345796968298865
0.0155,1.79399375,1.0,2031.3744309840736,0.16002663146958282,1.3378463307289192,0.8517129284113581,0.2884007375,0.6360327066741254
0.016,1.7936,1.0,2076.3128456555946,0.16473821780827133,1.3371976089679145,0.8586546261875067,0.2883842,0.6374291215125045
0.0165,1.7931937500000001,1.0,2118.9574662517257,0.1694233756787181,1.3365719681794235,0.8651038377649766,0.2883671375,0.6387733107009859
0.017,1.792775,1.0,2159.3912256359763,0.1740822529860034,1.3359676974220878,0.8711047562558085,0.28834955,0.6400692164824633
0.0175,1.7923437500000001,1.0,2197.7209335307184,0.17871499911271788,1.3353829590145259,0.8766968605257323,0.2883314375,0.6413210165901175
0.018000000000000002,1.7919,1.0,2234.014589555897,0.18332175927668448,1.3348164135620002,0.8819156356094289,0.2883128,0.6425317895710448
0.0185,1.79144375,1.0,2268.346713963602,0.18790267854382733,1.3342667391576237,0.8867929093631572,0.2882936375,0.6437045506789834
0.019,1.790975,1.0,2300.7993635041303,0.19245790198007062,1.3337326138945091,0.8913572715383713,0.28827395,0.6448422908901099
0.0195,1.79049375,1.0,2331.453137308624,0.196987573555668,1.3332127980229842,0.8956344644077101,0.2882537375,0.6459478036788711
0.02,1.79,1.0,2360.3973971446935,0.20149183826096936,1.3327060256432792,0.8996476813728238,0.288233,0.6470239174127985
0.0205,1.78949375,1.0,2387.707123317882,0.20597083870345462,1.3322112252151348,0.9034179009790915,0.2882117375,0.6480730288299075
0.021,1.788975,1.0,2413.4454994402067,0.21042471525372888,1.3317274844703368,0.9069641230540173,0.28818995000000003,0.6490971812722655
0.021500000000000002,1.78844375,1.0,2437.6796529648987,0.21485360828239727,1.3312538911406722,0.9103035517095138,0.2881676375,0.6500984043500119
0.022,1.7879,1.0,2460.4803265340893,0.2192576581600649,1.330789532957927,0.9134517898161019,0.2881448,0.6510787145582799
0.0225,1.78734375,1.0,2481.916285390186,0.22363700397430405,1.3303335480067213,0.916423019454831,0.28812143749999997,0.6520400097617702
0.023,1.78677797236736,1.0,2502.193112039035,0.22799178581652252,1.3298851456311664,0.9192301570548,0.2880976748394291,0.6529840264410208
0.0235,1.7862115926448494,1.0,2521.7696696660805,0.23232214271457446,1.329443873025908,0.9218850336692123,0.28807388689108365,0.6539117810130404
0.024,1.785645212922339,1.0,2540.6933681236783,0.2366282099308982,1.3290094694017998,0.9243984754294696,0.28805009894273825,0.6548238808799305
0.0245,1.7850788331998286,1.0,2558.9838266895954,0.24091012272793202,1.3285816739696958,0.9267803721637603,0.2880263109943928,0.6557209296277822
0.025,1.784512453477318,1.0,2576.6613607246327,0.2451680163681142,1.3281602259404497,0.9290397711760442,0.28800252304604734,0.6566035271387533
0.025500000000000002,1.7839460737548076,1.0,2593.7469442171423,0.24940202611388304,1.3277448645249155,0.93118496049978,0.2879787350977019,0.6574722696988036
0.026000000000000002,1.7833796940322972,1.0,2610.2597530824864,0.2536122848886959,1.3273353514346438,0.9332235454634814,0.2879549471493565,0.6583277031286934
0.0265,1.7828133143097868,1.0,2626.2230191457,0.25779892853135755,1.3269314159736314,0.9351625080380934,0.28793115920101103,0.6591704376577692
0.027,1.7822469345872762,1.0,2641.6585447932753,0.2619620912618856,1.3265328059146246,0.9370082718850086,0.2879073712526656,0.6600010416502617
0.0275,1.7816805548647658,1.0,2656.583630129556,0.26610190268066647,1.3261393152499863,0.9387667575119076,0.2878835833043202,0.6608199842100448
0.028,1.7811141751422555,1.0,2671.0160059413133,0.27021849238808676,1.32575073797208,0.9404434238003505,0.2878597953559747,0.6616277318579249
0.0285,1.7805477954197448,1.0,2684.9738107858366,0.2743119899845329,1.3253668680732689,0.9420433100630495,0.28783600740762927,0.6624247485975512
0.029,1.7799814156972344,1.0,2698.4755690191837,0.2783825250703914,1.3249874995459159,0.9435710737634505,0.2878122194592838,0.663211495978614
0.029500000000000002,1.779415035974724,1.0,2711.5401697656303,0.28243022724604877,1.3246124263823846,0.9450310243921844,0.2877884315109384,0.6639884331573371
0.03,1.7788486562522137,1.0,2724.180152150763,0.28645521864727846,1.3242415034864778,0.9464271594516047,0.28776464356259296,0.6647558909975395
0.0305,1.778282276529703,1.0,2736.41597232041,0.2904576303523129,1.323874516299984,0.9477631799641246,0.28774085561424756,0.6655143421283525
0.031,1.7777158968071927,1.0,2748.27462272308,0.2944376013819023,1.3235111939403457,0.9490425170759889,0.2877170676659021,0.6662643730717221
0.0315,1.7771495170846823,1.0,2759.7679787455636,0.29839525376001724,1.3231514053617526,0.950268371356978,0.28769327971755665,0.6670062793773095
0.032,1.7765831373621719,1.0,2770.9081217998405,0.3023307095106284,1.3227950195183944,0.9514437201000362,0.2876694917692112,0.6677403551470644
0.0325,1.7760167576396613,1.0,2781.707329246211,0.3062440906577065,1.3224419053644603,0.9525713356417861,0.28764570382086574,0.6684668930642106
0.033,1.7754503779171509,1.0,2792.178064697113,0.3101355192252223,1.3220919318541398,0.9536538019692469,0.28762191587252034,0.6691861844211359
0.0335,1.7748839981946405,1.0,2802.3329687012974,0.3140051172371463,1.3217449679416227,0.9546935297913981,0.2875981279241749,0.6698985191461869
0.034,1.7743176184721299,1.0,2812.1848498098093,0.3178530067174493,1.3214008825810983,0.9556927702338508,0.2875743399758295,0.670604185829372
0.0345,1.7737512387496195,1.0,2821.7466760212988,0.32167930969010194,1.3210595447267564,0.9566536272970071,0.28755055202748403,0.6713034717469641
0.035,1.773184859027109,1.0,2831.0315666093084,0.3254841481790749,1.3207208233327863,0.9575780692023972,0.2875267640791386,0.6719966628850118
0.035500000000000004,1.7726184793045987,1.0,2840.052784329719,0.3292676442083388,1.3203845873533775,0.9584679387380762,0.2875029761307931,0.672684043961754
0.036000000000000004,1.772052099582088,1.0,2848.823728008775,0.3330299198018644,1.3200507057427195,0.959324962701829,0.28747918818244766,0.6733658984489386
0.0365,1.7714857198595777,1.0,2857.3478453125645,0.3367710811277078,1.3197191370068575,0.9601507660110643,0.28745540023410227,0.6740423259935915
0.037,1.7709193401370673,1.0,2865.6456585493115,0.3404912660498245,1.3193896887480694,0.9609468658226193,0.2874316122857568,0.6747137331677658
0.0375,1.770352960414557,1.0,2873.7259325390296,0.3441905910558047,1.3190622741184719,0.9617146928416437,0.2874078243374114,0.6753803100585112
0.038,1.7697865806920463,1.0,2881.595887810776,0.34786916983370336,1.3187368206702226,0.9624555927886426,0.28738403638906596,0.6760422166742295
0.0385,1.769220200969536,1.0,2889.2628158815987,0.35152711607157544,1.3184132559554795,0.9631708316567663,0.2873602484407205,0.6766996123463975
0.039,1.7686538212470255,1.0,2896.734076164388,0.35516454345747583,1.3180915075264001,0.9638616013065621,0.28733646049237505,0.6773526557384635
0.0395,1.768087441524515,1.0,2904.0170929921305,0.35878156567945957,1.3177715029351424,0.9645290246099656,0.2873126725440296,0.678001504854403
0.04,1.7675210618020045,1.0,2911.1193527590053,0.36237829642558145,1.317453169733864,0.9651741601843047,0.2872888845956842,0.6786463170469468
0.0405,1.7669546820794941,1.0,2918.04840117677,0.36595484938389655,1.3171364354747224,0.9657980067530152,0.28726509664733874,0.6792872490254696
0.041,1.7663883023569837,1.0,2924.811840649078,0.3695113382424597,1.3168212277098756,0.9664015071661406,0.28724130869899334,0.6799244568635432
0.0415,1.7658219226344731,1.0,2931.417327760675,0.3730478766893258,1.316507473991481,0.9669855521104548,0.2872175207506479,0.6805580960061606
0.042,1.7652555429119627,1.0,2937.872570883879,0.37656457841255,1.3161951018716969,0.9675509835361459,0.2871937328023024,0.6811883212766174
0.0425,1.7646891631894523,1.0,2944.1830978910853,0.3800615504925866,1.3158840584196205,0.9680985983544343,0.28716994485395697,0.6818152475648909
0.043000000000000003,1.764122783466942,1.0,2950.352803488554,0.3835388980604309,1.3155743053150157,0.9686291517141993,0.28714615690561157,0.6824389599009734
0.043500000000000004,1.7635564037444313,1.0,2956.3941528740784,0.3869967528147851,1.3152657296429757,0.9691433569657226,0.2871223689572661,0.6830596929613589
0.044,1.762990024021921,1.0,2962.311072374619,0.3904352200513269,1.3149582935384256,0.9696418918773051,0.28709858100892066,0.6836775297556216
0.0445,1.7624236442994106,1.0,2968.1075144945025,0.3938544050657342,1.3146519591362908,0.9701253991005363,0.28707479306057526,0.6842925529709629
0.045,1.7618572645769,1.0,2973.7874569742453,0.39725441315368476,1.3143466885714967,0.9705944883348708,0.2870510051122298,0.6849048449749185
0.0455,1.7612908848543896,1.0,2979.354901882292,0.40063534961085634,1.3140424439789686,0.9710497383383967,0.28702721716388435,0.6855144878179731
0.046,1.7607245051318792,1.0,2984.8138747372773,0.40399731973292674,1.313739187493632,0.9714916987971111,0.2870034292155389,0.6861215632360831
0.0465,1.7601581254093688,1.0,2990.1684236627966,0.40734042881557375,1.3134368812504118,0.9719208920639351,0.2869796412671935,0.6867261526531099
0.047,1.7595917456868582,1.0,2995.4226185735192,0.4106647821544751,1.3131354873842338,0.9723378147777028,0.28695585331884804,0.687328337183158
0.0475,1.7590253659643478,1.0,3000.5805503936363,0.4139704850453087,1.3128349680300233,0.9727429393714727,0.2869320653705026,0.6879281976328262
0.048,1.7584589862418374,1.0,3005.6463303067585,0.4172576427837522,1.3125352853227055,0.9731367154787005,0.2869082774221572,0.6885258145033644
0.0485,1.7578926065193268,1.0,3010.624089037223,0.42052636066548355,1.3122364013972057,0.9735195712450802,0.28688448947381173,0.6891212679927394
0.049,1.7573262267968164,1.0,3015.5179761641143,0.4237767439861804,1.3119382783884495,0.9738919145531983,0.2868607015254663,0.6897146379976091
0.0495,1.756759847074306,1.0,3020.332159466428,0.4270088980415206,1.311640878431362,0.9742541341665485,0.2868369135771208,0.6903060041152074
0.05,1.7561934673517956,1.0,3025.0647807684118,0.43022289511368156,1.311344215841655,0.974606600453395,0.2868131256287754,0.6908953420342632
0.0505,1.755627087629285,1.0,3029.7255486312893,0.43341887902332354,1.3110482051287693,0.9749496684037682,0.28678933768042997,0.6914828255298822
0.051000000000000004,1.7550607079067746,1.0,3034.3169268358097,0.4365969492178026,1.310752823548824,0.9752836758429679,0.2867655497320845,0.6920685033687293
0.051500000000000004,1.7544943281842642,1.0,3038.840868480471,0.43975720207363433,1.3104580528492848,0.9756089453187777,0.2867417617837391,0.6926524152456335
0.052000000000000005,1.7539279484617538,1.0,3043.299335506721,0.44289973396733423,1.3101638747776176,0.9759257849799224,0.28671797383539366,0.6932346007108876
0.0525,1.7533615687392432,1.0,3047.6942984559887,0.44602464127541785,1.3098702710812882,0.9762344893440436,0.2866941858870482,0.6938150991709471
0.053,1.7527951890167328,1.0,3052.0277362331317,0.44913202037440075,1.3095772235077623,0.9765353400182912,0.28667039793870275,0.6943939498891103
0.0535,1.7522288092942224,1.0,3056.3016358779337,0.45222196764079853,1.3092847138045058,0.9768286063758407,0.28664660999035735,0.6949711919861764
0.054,1.751662429571712,1.0,3060.517992343427,0.4552945794511267,1.3089927237189847,0.9771145461913816,0.2866228220420119,0.6955468644410816
0.0545,1.7510960498492014,1.0,3064.6788082824055,0.45834995218190083,1.3087012349986646,0.9773934062383955,0.28659903409366644,0.6961210060915155
0.055,1.750529670126691,1.0,3068.786093840418,0.46138818220963645,1.3084102293910111,0.9776654228508271,0.28657524614532104,0.6966936556345149
0.0555,1.7499632904041806,1.0,3072.8418664565297,0.46440936591084914,1.3081196886434905,0.9779308224515438,0.2865514581969756,0.697264851627036
0.056,1.74939691068167,1.0,3076.848150672032,0.46741359966205437,1.3078295945035683,0.9781898220498161,0.28652767024863013,0.6978346324865075
0.0565,1.7488305309591596,1.0,3080.806977945417,0.4704009798397678,1.3075399287187102,0.9784426297098694,0.2865038823002847,0.6984030364913606
0.057,1.7482641512366492,1.0,3084.7203864757225,0.4733716028205049,1.3072506730363822,0.9786894449924153,0.2864800943519393,0.6989701017815375
0.0575,1.7476977715141389,1.0,3088.5904210325225,0.4763255649807812,1.3069618092040503,0.9789304593709268,0.2864563064035938,0.6995358663589804
0.058,1.7471313917916282,1.0,3092.417917604841,0.4792629469043329,1.3066733293464274,0.9791658558504885,0.28643251845524836,0.7001003477920206
0.0585,1.7465650120691179,1.0,3096.202389635398,0.4821838180929044,1.3063852369033306,0.9793958098640404,0.28640873050690296,0.7006635414786032
0.059000000000000004,1.7459986323466075,1.0,3099.9495049875463,0.4850883300415018,1.3060974828221092,0.9796204938897326,0.2863849425585575,0.7012255453123997
0.059500000000000004,1.7454322526240968,1.0,3103.66012184533,0.4879765692862952,1.3058100591741673,0.979840070458409,0.28636115461021205,0.7017863766195547
0.06,1.7448658729015865,1.0,3107.3351013554225,0.49084862236345445,1.3055229580309093,0.9800546958018679,0.2863373666618666,0.7023460526659542
0.0605,1.744299493179076,1.0,3110.9753075700555,0.4937045758091496,1.3052361714637395,0.9802645201456501,0.2863135787135212,0.7029045906573936
0.061,1.7437331134565657,1.0,3114.5816073904575,0.49654451615955075,1.304949691544062,0.9804696879860402,0.28628979076517574,0.7034620077397369
0.0615,1.743166733734055,1.0,3118.154870512819,0.4993685299508278,1.3046635103432813,0.9806703383522535,0.2862660028168303,0.7040183209990731
0.062,1.7426003540115447,1.0,3121.6959693749372,0.5021767037191508,1.3043776199328014,0.9808666050547005,0.2862422148684849,0.7045735474618721
0.0625,1.7420339742890343,1.0,3125.20577910409,0.5049691240006896,1.3040920123840272,0.9810586169201736,0.28621842692013943,0.7051277040951297
0.063,1.7414675945665237,1.0,3128.6851774671413,0.5077458773316142,1.3038066797683623,0.9812464980147335,0.286194638971794,0.7056808078065171
0.0635,1.7409012148440133,1.0,3132.135044820984,0.5105070502480948,1.3035216141572115,0.981430367855028,0.2861708510234485,0.706232875444518
0.064,1.7403348351215029,1.0,3135.556264065439,0.5132527292863014,1.3032368076219787,0.9816103416087221,0.2861470630751031,0.7067839237985686
0.0645,1.7397684553989925,1.0,3138.949720596377,0.5159830009824037,1.3029522522340682,0.9817865302846783,0.28612327512675767,0.7073339695991885
0.065,1.7392020756764819,1.0,3142.3163022615463,0.518697951872572,1.3026679400648846,0.9819590409134829,0.28609948717841227,0.7078830295181104
0.0655,1.7386356959539715,1.0,3145.656899316553,0.521397668492976,1.302383863185832,0.9821279767188699,0.2860756992300668,0.7084311201684057
0.066,1.738069316231461,1.0,3148.972404383193,0.5240822373797859,1.3021000136683147,0.9822934372805711,0.28605191128172136,0.7089782581046047
0.0665,1.7375029365089507,1.0,3152.2637124086473,0.5267517450691716,1.301816383583737,0.9824555186890718,0.2860281233333759,0.7095244598228141
0.067,1.73693655678644,1.0,3155.5317206261725,0.5294062780973031,1.3015329650035032,0.982614313692736,0.28600433538503045,0.7100697417608295
0.0675,1.7363701770639297,1.0,3158.7773285173334,0.5320459230003505,1.3012497499990174,0.9827699118377217,0.28598054743668505,0.7106141202982446
0.068,1.7358037973414193,1.0,3162.001437775305,0.5346707663144837,1.3009667306416843,0.982922399601094,0.2859567594883396,0.7111576117565557
0.0685,1.7352374176189087,1.0,3165.2040035691,0.537280866643972,1.3006839070107556,0.9830718591513744,0.2859329715399942,0.7117002170431992
0.069,1.7346710378963983,1.0,3168.385414762687,0.5398763074637041,1.3004012755285537,0.9832183712672125,0.28590918359164874,0.712241944071486
0.0695,1.734104658173888,1.0,3171.547509319141,0.5424572127177109,1.3001188204072796,0.9833620159165383,0.2858853956433033,0.7127828240986706
0.07,1.7335382784513775,1.0,3174.690657913633,0.5450236591733547,1.2998365382591073,0.9835028681033199,0.28586160769495783,0.7133228645561063
