Time [s],Phi [rad],STIM [ ],Fsee [N],Gamma [ ],Lcerel [ ],q [ ],Lmtc [m],fisomrel [ ]
0.0,1.8,1.0,17.968758380806438,2.7493402152141668e-05,1.3793395669463155,0.005000199855797225,0.288653,0.5411399647607839
0.0005,1.79999375,1.0,18.283848166815112,0.005636548494708779,1.3793015987477466,0.012989148559867658,0.2886527375,0.5412318150108528
0.001,1.799975,1.0,21.63842950765638,0.011214141223032131,1.3789362549851956,0.03569978439667797,0.28865195,0.5421151615363357
0.0015,1.79994375,1.0,31.116884521018736,0.016760448066986535,1.3780421457942047,0.070726520634259,0.2886506375,0.5442733928677083
0.002,1.7999,1.0,53.68508982850431,0.022275644514757095,1.3763614721007407,0.11486563913739446,0.2886488,0.5483164614737354
0.0025,1.79984375,1.0,97.29166612227114,0.027759905070534434,1.3739268475841093,0.16473546382417695,0.28864643749999996,0.55414130311164
0.003,1.7997750000000001,1.0,161.18316346663008,0.033213403262071464,1.371205924858768,0.21744610646496565,0.28864354999999997,0.5606063818550595
0.0035,1.79969375,1.0,237.9376757186207,0.03863631164040091,1.3685769018545166,0.2707776498279721,0.2886401375,0.5668082506993815
0.004,1.7996,1.0,321.73744437956344,0.044028801790584784,1.3661489248096115,0.3230753374220083,0.2886362,0.5724966991733593
0.0045000000000000005,1.7994937500000001,1.0,409.54810060244927,0.04939104433690837,1.363916234414461,0.37318595052901615,0.2886317375,0.5776944334489764
0.005,1.799375,1.0,499.6995773935721,0.05472320893399768,1.3618522641848159,0.4203891487228825,0.28862675,0.5824711062000072
0.0055,1.79924375,1.0,591.0791045329696,0.060025464313649864,1.3599331954752334,0.46430488010403054,0.2886212375,0.5868880573819752
0.006,1.7991000000000001,1.0,682.8071943033237,0.06529797822963368,1.358141160490153,0.5048005180550988,0.2886152,0.5909914195241278
0.006500000000000001,1.79894375,1.0,774.1507459699883,0.07054091724717115,1.3564626536788649,0.5419111834841354,0.2886086375,0.5948162516971354
0.007,1.798775,1.0,864.5772742965661,0.07575444812047688,1.354885687330336,0.5757771602891085,0.28860155,0.5983933320410553
0.0075,1.79859375,1.0,953.5380374083298,0.0809387350011327,1.353402244874707,0.6066011346770259,0.2885939375,0.6017437924665743
0.008,1.7984,1.0,1040.633520973532,0.08609394182398467,1.3520045968139591,0.6346150617230925,0.2885858,0.6048876397380168
0.0085,1.79819375,1.0,1125.58795240432,0.09122023216527726,1.350685366796053,0.6600597968053412,0.2885771375,0.6078436655456562
0.009000000000000001,1.797975,1.0,1208.1482208154334,0.09631776812479106,1.3494386460496017,0.683172818682266,0.28856795,0.6106270173693278
0.0095,1.79774375,1.0,1288.1206033521703,0.10138671055611438,1.3482591016259518,0.7041799779432906,0.2885582375,0.6132512695621334
0.01,1.7975,1.0,1365.4051235526467,0.10642722079572238,1.3471413255144962,0.7232910211663444,0.288548,0.615729911097062
0.0105,1.79724375,1.0,1439.9046486145255,0.11143945791451251,1.3460808782849014,0.7406983467858903,0.2885372375,0.6180740614972935
0.011,1.796975,1.0,1511.5516780037633,0.11642357992116206,1.3450737507496686,0.7565763636500681,0.28852595000000003,0.6202937070904195
0.0115,1.79669375,1.0,1580.3326950721598,0.12137974472231951,1.3441159542682504,0.7710818604018299,0.2885141375,0.6223986288840926
0.012,1.7964,1.0,1646.2665494626738,0.12630810947324825,1.343203712421818,0.7843551819143862,0.28850180000000003,0.6243979967470731
0.0125,1.79609375,1.0,1709.3811239704828,0.13120883055744603,1.3423336554098093,0.7965216331347388,0.2884889375,0.626299962926524
0.013000000000000001,1.7957750000000001,1.0,1769.6974677286469,0.13608206216702504,1.3415029175613529,0.8076929064811236,0.28847555,0.6281114709728439
0.0135,1.79544375,1.0,1827.268121621841,0.1409279584940974,1.3407086332055773,0.8179682657384681,0.2884616375,0.629839372637715
0.014,1.7951000000000001,1.0,1882.1523680214855,0.14574667266997443,1.339948177315088,0.8274359816059133,0.2884472,0.6314899130744561
0.0145,1.79474375,1.0,1934.4496094107587,0.15053835885208217,1.3392187608352744,0.8361744210363691,0.2884322375,0.6330696182952198
0.015,1.794375,1.0,1984.2186072324257,0.15530316762377802,1.3385182783429255,0.8442534774312651,0.28841675,0.6345834669251966
0.0155,1.79399375,1.0,2031.5260792081501,0.16004124902497774,1.3378447329318843,0.8517353607267496,0.2884007375,0.6360361493309431
0.016,1.7936,1.0,2076.4549807230974,0.16475275309559698,1.3371961276959934,0.858675468818645,0.2883842,0.6374323069733014
0.0165,1.7931937500000001,1.0,2119.0921084554143,0.16943782899597484,1.3365705791847804,0.8651232285994678,0.2883671375,0.63877629217864
0.017,1.792775,1.0,2159.534419475906,0.17409662631321254,1.3359662341036398,0.8711227788637304,0.28834955,0.6400723518565635
0.0175,1.7923437500000001,1.0,2197.8590679835497,0.17872929188477535,1.3353815597613758,0.876713673021502,0.2883314375,0.641324009477126
0.018000000000000002,1.7919,1.0,2234.1401337012876,0.18333597139980445,1.3348151522145348,0.8819313626049907,0.2883128,0.6425344829322637
0.0185,1.79144375,1.0,2268.460209891434,0.18791681054744097,1.3342656075196642,0.8868076417502478,0.2882936375,0.6437069631043044
0.019,1.790975,1.0,2300.903408771919,0.1924719542287634,1.333731583827622,0.8913710857718149,0.28827395,0.6448444832777644
0.0195,1.79049375,1.0,2331.5576140993567,0.1970015476897513,1.3332117705060424,0.895647413170968,0.2882537375,0.6459499872328716
0.02,1.79,1.0,2360.50464264279,0.20150573505244343,1.3327049773834287,0.899659829329627,0.288233,0.647026141659095
0.0205,1.78949375,1.0,2387.8082198153966,0.20598465737658933,1.3322102427246265,0.9034293303956121,0.2882117375,0.648075110423612
0.021,1.788975,1.0,2413.5365029487302,0.21043845572193853,1.3317266047944807,0.906974897999241,0.28818995000000003,0.6490990423199186
0.021500000000000002,1.78844375,1.0,2437.761714049253,0.21486727114824053,1.3312531018578362,0.9103137201651876,0.2881676375,0.6501000717779402
0.022,1.7879,1.0,2460.5552055117987,0.21927124384429245,1.3307888160984485,0.9134613940342942,0.2881448,0.6510802268628407
0.0225,1.78734375,1.0,2481.9872473702103,0.22365051384860837,1.3303328715867302,0.9164320956704176,0.28812143749999997,0.6520414347871966
0.023,1.786775,1.0,2502.130966196237,0.22800522171127574,1.3298843932577653,0.9192387220501769,0.28809755,0.6529856093270283
0.0235,1.78619375,1.0,2521.038597710207,0.2323355034127517,1.3294427290078872,0.9218930631057936,0.28807313749999996,0.6539141846423335
0.024,1.7856,1.0,2538.7644832770416,0.23664149493349346,1.3290072267334285,0.9244058757117568,0.2880482,0.6548285865981454
0.0245,1.78499375,1.0,2555.364894483007,0.2409233322539583,1.3285772343307227,0.9267869884289721,0.2880227375,0.6557302330343537
0.025,1.784375,1.0,2570.8978671405625,0.24518115135460336,1.328152099696103,0.9290453943601145,0.28799675,0.656620534008415
0.025500000000000002,1.78374375,1.0,2585.414694029021,0.2494150862424252,1.3277312487168942,0.9311893457315451,0.2879702375,0.6575007290002081
0.026000000000000002,1.7831000000000001,1.0,2598.9723041444436,0.2536252731165551,1.3273140675682227,0.9332264083460322,0.2879432,0.6583721338391102
0.0265,1.78244375,1.0,2611.6243126019776,0.25781184665425994,1.3268999852227248,0.9351635390574683,0.2879156375,0.6592359683079794
0.027,1.781775,1.0,2623.4093957429545,0.261974937341211,1.326488579613023,0.9370071586036418,0.28788755,0.6600931357853022
0.0275,1.7810937500000001,1.0,2634.3671159792643,0.26611467566307984,1.32607942867174,0.9387631803410466,0.2878589375,0.6609445350673204
0.028,1.7804,1.0,2644.537845892888,0.27023119210553753,1.3256721103314983,0.9404370570480173,0.2878298,0.6617910604344017
0.0285,1.77969375,1.0,2653.9626962852617,0.27432461715425555,1.3252662025249207,0.9420338228439975,0.2878001375,0.6626336017060501
0.029,1.778975,1.0,2662.683448176176,0.27839508129490526,1.3248612831846294,0.9435581307876484,0.28776995,0.6634730442845538
0.029500000000000002,1.7782437500000001,1.0,2670.7357970702246,0.2824427118281225,1.3244569917335927,0.9450142939089665,0.2877392375,0.6643101419489394
0.03,1.7775,1.0,2678.1626661115297,0.28646764089427323,1.3240529059409938,0.9464063011525192,0.287708,0.6651457721658082
0.0305,1.77674375,1.0,2684.994602358073,0.2904699949858678,1.323648721529498,0.9477378653518659,0.2876762375,0.6659805645801065
0.031,1.775975,1.0,2691.2594681485016,0.29444989907304087,1.3232441622887767,0.9490124363624179,0.28764395,0.666815087838734
0.0315,1.7751937500000001,1.0,2696.985457761759,0.298407478125927,1.3228389520085015,0.9502332201089125,0.2876111375,0.6676499077361366
0.032,1.7744,1.0,2702.201065987003,0.30234285711466097,1.3224328144783433,0.9514031988483893,0.2875778,0.6684855872052751
0.0325,1.77359375,1.0,2706.935058385754,0.3062561610093773,1.3220254734879737,0.9525251495150687,0.2875439375,0.6693226863037192
0.033,1.772775,1.0,2711.215612930134,0.3101475140727351,1.3216166603997166,0.953601661033938,0.28750955,0.6701617466624151
0.0335,1.7719437500000002,1.0,2715.0651537682743,0.3140170346610257,1.321206160965221,0.9546351532861044,0.2874746375,0.6710031956568384
0.034,1.7711000000000001,1.0,2718.521047018973,0.3178648565827758,1.3207936264371012,0.9556278749408924,0.2874392,0.6718477335374158
0.0345,1.7702437500000001,1.0,2721.6007757847665,0.3216910985672671,1.3203788907876457,0.956581943826893,0.2874032375,0.672695683474738
0.035,1.7693750000000001,1.0,2724.321945950624,0.32549587934378094,1.3199617879891425,0.9574993409613303,0.28736675,0.6735473667946141
0.035500000000000004,1.76849375,1.0,2726.7022738117257,0.329279317641599,1.3195421520138801,0.9583819209723158,0.2873297375,0.674403102953885
0.036000000000000004,1.7676,1.0,2728.75957431237,0.33304153219000276,1.3191198168341467,0.9592314216125876,0.2872922,0.6752632095144793
0.0365,1.76669375,1.0,2730.511749896108,0.3367826417182737,1.3186946164222306,0.9600494724533084,0.2872541375,0.6761280021157121
0.037,1.765775,1.0,2731.976779967008,0.3405027649556934,1.3182663847504201,0.9608376028370146,0.28721555,0.6769977944448264
0.0375,1.76484375,1.0,2733.172710962145,0.3442020206315434,1.3178349557910034,0.9615972491603973,0.2871764375,0.6778728982057747
0.038,1.7639,1.0,2734.117647035028,0.3478805274751053,1.3174001635162689,0.9623297615501956,0.28713679999999997,0.678753623086243
0.0385,1.76294375,1.0,2734.8271905760243,0.35153840021149724,1.3169618650614838,0.963036411367663,0.28709663750000003,0.6796402299003371
0.039,1.761975,1.0,2735.3195242252527,0.35517575769515786,1.3165198944965397,0.9637183940637485,0.28705595,0.6805330241961077
0.0395,1.7609937500000001,1.0,2735.6057657114843,0.35879271324817325,1.3160741503455269,0.9643768405624508,0.2870147375,0.6814321794749786
0.04,1.76,1.0,2735.697027550979,0.3623893801588133,1.3156245314204844,0.9650128169372598,0.286973,0.6823378672372438
0.0405,1.7589937500000001,1.0,2735.6044446683704,0.3659658717153477,1.315170936533451,0.9656273287956804,0.2869307375,0.6832502575402661
0.041,1.757975,1.0,2735.3391705379645,0.3695223012060464,1.3147132644964654,0.9662213253405811,0.28688795,0.6841695189731435
0.0415,1.75694375,1.0,2734.912373552417,0.3730587819191792,1.3142514141215669,0.9667957031178669,0.2868446375,0.6850958186307254
0.042,1.7559,1.0,2734.3213368669394,0.3765754259980612,1.3137854104254414,0.9673513198779174,0.28680079999999997,0.6860290695284991
0.0425,1.75484375,1.0,2733.6146155087195,0.38007234526443723,1.3133148128753067,0.9678889482197385,0.2867564375,0.6869701149008659
0.043000000000000003,1.753776007689147,1.0,2732.8249720938074,0.3835496495820483,1.3128397793448368,0.968409367847537,0.2867115923229442,0.6879185984039344
0.043500000000000004,1.7527060268752042,1.0,2732.387260152065,0.38700744857871944,1.3123605385773327,0.9689133225349706,0.28666665312875855,0.6888740240423427
0.044,1.7516360460612612,1.0,2732.387493448504,0.39044585188227576,1.3118773193160962,0.9694015167845503,0.286621713934573,0.6898358982659623
0.0445,1.7505660652473183,1.0,2732.7971305725146,0.3938649682814763,1.3113903808350478,0.9698746205460888,0.28657677474038734,0.6908036693986095
0.045,1.7494960844333753,1.0,2733.575133285525,0.39726490689762234,1.3109000967128743,0.9703332779392653,0.28653183554620176,0.6917765620660886
0.0455,1.7484261036194324,1.0,2734.693605573564,0.4006457745121458,1.310406721700369,0.9707780907705841,0.2864868963520162,0.6927540405715232
0.046,1.7473561228054892,1.0,2736.1253681134417,0.4040076777462421,1.3099105044433257,0.9712096299172569,0.28644195715783055,0.69373558429746
0.0465,1.7462861419915463,1.0,2737.843269918716,0.4073507232211067,1.3094116935875377,0.9716284376707509,0.2863970179636449,0.6947206756099862
0.047,1.7452161611776034,1.0,2739.8240571047645,0.4106750161592766,1.3089105025435521,0.9720350267089006,0.28635207876945934,0.695708869318527
0.0475,1.7441461803636604,1.0,2742.0406925932125,0.41398066384010607,1.308407179085549,0.9724298873006672,0.28630713957527376,0.6966996552566778
0.048,1.7430761995497175,1.0,2744.4756164609134,0.4172677697125893,1.3079018849753636,0.9728134793525368,0.2862622003810881,0.6976926952443174
0.0485,1.7420062187357745,1.0,2747.1116355035956,0.42053643707412364,1.3073947786126126,0.9731862404480215,0.2862172611869025,0.6986876596993078
0.049,1.7409362379218316,1.0,2749.931546131177,0.42378676922210634,1.3068860183969124,0.9735485873806273,0.2861723219927169,0.6996842210219705
0.0495,1.7398662571078887,1.0,2752.9181282815907,0.42701886945393486,1.30637576272788,0.9739009173357016,0.28612738279853134,0.7006820536125948
0.05,1.7387962762939457,1.0,2756.063606307966,0.4302328340676859,1.3058640843745735,0.9742436024419963,0.2860824436043457,0.7016810009238004
0.0505,1.7377262954800028,1.0,2759.340365830582,0.43342877572726324,1.3053512354145245,0.9745770114383998,0.2860375044101601,0.7026805581340041
0.051000000000000004,1.7366563146660599,1.0,2762.7376096224743,0.43660679461116164,1.3048373154827044,0.9749014847965458,0.2859925652159745,0.7036805200551599
0.051500000000000004,1.735586333852117,1.0,2766.247005304153,0.43976698900356714,1.3043224017872586,0.9752173459438483,0.2859476260217889,0.7046807263087831
0.052000000000000005,1.734516353038174,1.0,2769.860205714494,0.44290945718866587,1.3038065715363327,0.9755249038374838,0.28590268682760334,0.7056810175106478
0.0525,1.733446372224231,1.0,2773.568847275941,0.44603429745064377,1.3032899019380724,0.9758244537399328,0.2858577476334177,0.7066812352754925
0.053,1.732376391410288,1.0,2777.3645484918766,0.44914160807368697,1.302772470200623,0.9761162779465007,0.28581280843923207,0.7076812222213422
0.0535,1.731306410596345,1.0,2781.2389085755917,0.4522314873419815,1.3022543535321303,0.9764006464681898,0.2857678692450465,0.7086808219734504
0.054,1.7302364297824022,1.0,2785.18350621176,0.4553040335397134,1.3017356291407396,0.976677817673011,0.2857229300508609,0.7096798791678638
0.0545,1.729166448968459,1.0,2789.189898449971,0.4583593449510686,1.3012163742345964,0.9769480388885995,0.2856779908566753,0.7106782394546034
0.055,1.7280964681545161,1.0,2793.250992101812,0.46139751733722095,1.3006966536906843,0.9772115459901997,0.28563305166248965,0.7116757731480379
0.0555,1.7270264873405732,1.0,2797.3646090316506,0.46441864016112944,1.300176488080903,0.9774685617494013,0.28558811246830407,0.7126724362353811
0.056,1.7259565065266302,1.0,2801.517260966804,0.46742282561516013,1.2996559994036532,0.9777193077312006,0.2855431732741185,0.7136679911396614
0.0565,1.7248865257126873,1.0,2805.7059536468073,0.47041016555253523,1.2991352152215083,0.9779639890112274,0.28549823407993286,0.7146623820611668
0.057,1.7238165448987444,1.0,2809.927684247209,0.4733807518264767,1.2986141630970414,0.9782028022992407,0.2854532948857473,0.7156555535645841
0.0575,1.7227465640848014,1.0,2814.179441206811,0.4763346762902067,1.2980928705928256,0.9784359363488718,0.28540835569156164,0.7166474505794928
0.058,1.7216765832708585,1.0,2818.458204072884,0.47927203079694725,1.2975713652714342,0.978663572344124,0.28536341649737607,0.7176380184008121
0.0585,1.7206066024569155,1.0,2822.760943362023,0.48219290719992036,1.2970496746954403,0.9788858842641275,0.28531847730319043,0.7186272026892
0.059000000000000004,1.7195366216429726,1.0,2827.0846204393506,0.48509739735234814,1.2965278264274174,0.9791030392275332,0.28527353810900485,0.7196149494714013
0.059500000000000004,1.7184666408290297,1.0,2831.4261874129625,0.48798559310745265,1.2960058480299381,0.9793151978178364,0.2852285989148192,0.7206012051405521
0.06,1.7173966600150867,1.0,2835.782587046549,0.49085758631845594,1.295483767065576,0.9795225143908234,0.28518365972063364,0.7215859164564298
0.0605,1.7163266792011438,1.0,2840.150752687929,0.49371346883858014,1.2949616110969044,0.9797251373652592,0.28513872052644806,0.7225690305456585
0.061,1.7152566983872009,1.0,2844.527608214822,0.4965533325210472,1.2944394076864965,0.9799232094978478,0.28509378133226243,0.7235504949018658
0.0615,1.714186717573258,1.0,2848.9113122494464,0.4993772621005597,1.2939171733267072,0.9801168670092917,0.2850488421380768,0.7245302781366019
0.062,1.7131167367593148,1.0,2853.3019915058503,0.5021853367418186,1.2933949069624249,0.9803062396797053,0.2850039029438912,0.7255083819148918
0.0625,1.7120467559453718,1.0,2857.693412002453,0.5049776743632606,1.2928726640464594,0.9804914583109391,0.28495896374970564,0.7264847023416127
0.063,1.7109767751314289,1.0,2862.084814837422,0.5077543593585295,1.2923504512612407,0.9806726438492944,0.28491402455552,0.7274592271918014
0.0635,1.709906794317486,1.0,2866.475438803277,0.5105154761212694,1.2918282752891985,0.9808499128188269,0.2848690853613344,0.7284319443295018
0.064,1.708836813503543,1.0,2870.864520391708,0.5132611090451241,1.2913061428127632,0.9810233775160174,0.2848241461671488,0.7294028417077487
0.0645,1.7077668326896,1.0,2875.251293799394,0.5159913425237377,1.2907840605143646,0.9811931461944972,0.2847792069729632,0.7303719073685535
0.065,1.7066968518756571,1.0,2879.6349909350743,0.518706260950754,1.290262035076433,0.9813593232404041,0.2847342677787776,0.7313391294428815
0.0655,1.7056268710617142,1.0,2884.0148414276837,0.521405948719817,1.289740073181398,0.9815220093389085,0.284689328584592,0.732304496150632
0.066,1.7045568902477712,1.0,2888.390072634796,0.5240904902245708,1.2892181815116899,0.9816813016324184,0.28464438939040637,0.7332679958006098
0.0665,1.7034869094338283,1.0,2892.7599096530416,0.5267599698586591,1.2886963667497386,0.9818372938709283,0.2845994501962208,0.7342296167904987
0.067,1.7024169286198854,1.0,2897.1235753286023,0.529414472015726,1.2881746355779744,0.9819900765549636,0.2845545110020352,0.7351893476068293
0.0675,1.7013469478059424,1.0,2901.480290269268,0.5320540810894154,1.2876529946788273,0.9821397370715272,0.2845095718078496,0.7361471768249443
0.068,1.7002769669919995,1.0,2905.829272857487,0.5346788814733713,1.287131450734727,0.982286359823445,0.28446463261366395,0.7371030931089639
0.0685,1.6992069861780565,1.0,2910.1697392639658,0.5372889575612376,1.2866100104281037,0.9824300263524675,0.28441969341947837,0.7380570852117418
0.069,1.6981370053641136,1.0,2914.500903462663,0.5398843937466583,1.2860886804413874,0.9825708154564744,0.2843747542252928,0.739009141974827
0.0695,1.6970670245501704,1.0,2918.8219772463667,0.5424652744232773,1.2855674674570083,0.9827088033011036,0.28432981503110716,0.7399592523284135
0.07,1.6959970437362275,1.0,2923.1339207241176,0.5450316398859918,1.285046362782215,0.9828440601065522,0.2842848758369215,0.7409074332418044
0.07050000000000001,1.6949270629222846,1.0,2927.435281841063,0.54758361399614,1.2845253789220579,0.9829766598693201,0.28423993664273595,0.7418536631035058
0.07100000000000001,1.6938570821083416,1.0,2931.7252567835817,0.5501212942071396,1.2840045226602281,0.9831066722835757,0.28419499744855037,0.7427979308307908
0.07150000000000001,1.6927871012943987,1.0,2936.003788142838,0.5526447561675311,1.2834837942198944,0.9832341631806348,0.28415005825436473,0.7437402372917492
0.07200000000000001,1.6917171204804557,1.0,2940.2708185446427,0.5551540755258548,1.2829631938242256,0.9833591962772416,0.28410511906017916,0.7446805833571228
