Time [s],Phi [rad],STIM [ ],Fsee [N],Gamma [ ],Lcerel [ ],q [ ],Lmtc [m],fisomrel [ ]
0.0,1.8,1.0,17.967484027132524,1.0503214817480552e-05,1.3793397097127191,0.005000029390183368,0.288653,0.5411396193720345
0.0005,1.79999375,1.0,18.27695530418509,0.005619653608883156,1.3793023643340152,0.012941910942651506,0.2886527375,0.541229963044088
0.001,1.799975,1.0,21.618931725689173,0.011197341104158105,1.378938245922504,0.03561119841297478,0.28865195,0.5421103500547704
0.0015,1.79994375,1.0,31.070488440818398,0.016743742183488803,1.3780460970267574,0.070605294016362,0.2886506375,0.5442638664631236
0.002,1.7999,1.0,53.58496652282594,0.022259032338071,1.3763679643972864,0.11472208711554867,0.2886488,0.5483008781104688
0.0025,1.79984375,1.0,97.1231651858388,0.02774338607501423,1.3739349635467466,0.16457929848497216,0.28864643749999996,0.5541219484607567
0.003,1.7997750000000001,1.0,160.96375636107754,0.033196976925056895,1.3712141345362783,0.2172849987856598,0.28864354999999997,0.5605869461750062
0.0035,1.79969375,1.0,237.68969198820025,0.03861997744215947,1.3685845383159265,0.2706174084881458,0.2886401375,0.5667903001098065
0.004,1.7996,1.0,321.47358430564407,0.04401255921428623,1.3661559119476552,0.3229201781280342,0.2886362,0.5724803831179242
0.0045000000000000005,1.7994937500000001,1.0,409.2748591101013,0.04937489286858994,1.3639226473079187,0.37303866217301274,0.2886317375,0.5776795496696309
0.005,1.799375,1.0,499.4207891277311,0.05470714806250146,1.3618581875425835,0.4202513482126273,0.28862675,0.5824574365701418
0.0055,1.79924375,1.0,590.7978004683118,0.06000949353118874,1.359938690786076,0.4641772980852158,0.2886212375,0.5868754428418546
0.006,1.7991000000000001,1.0,682.5255253207165,0.0652820970307326,1.3581462799265798,0.504683271156339,0.2886152,0.5909797263225509
0.006500000000000001,1.79894375,1.0,773.888894835594,0.07052512539348177,1.3564671232494314,0.5418037843010708,0.2886086375,0.594806090696029
0.007,1.798775,1.0,864.2929086181963,0.07573874451266084,1.354890280350617,0.5756795426970981,0.28860155,0.5983829365837385
0.0075,1.79859375,1.0,953.249788099071,0.08092311935075938,1.3534066780965786,0.6065124329421122,0.2885939375,0.6017338006273639
0.008,1.7984,1.0,1040.3613909811247,0.08607841388901608,1.3520086031122078,0.6345343778641638,0.2885858,0.604878645838623
0.0085,1.79819375,1.0,1125.3262203133888,0.09120479145106357,1.3506890717249997,0.6599864709811424,0.2885771375,0.6078353793770982
0.009000000000000001,1.797975,1.0,1207.890368665591,0.09630241396185855,1.3494421691190146,0.6831062078497764,0.28856795,0.6106191659483355
0.0095,1.79774375,1.0,1287.8777540414014,0.101371442763601,1.3482623150383186,0.7041193452317865,0.2885582375,0.6132441324111956
0.01,1.7975,1.0,1365.170170614236,0.10641203861145568,1.3471443451615135,0.7232358146947897,0.288548,0.6157232258366836
0.0105,1.79724375,1.0,1439.666454563459,0.11142436049500845,1.3460838593357476,0.7406480829393517,0.2885372375,0.6180674818471763
0.011,1.796975,1.0,1511.3147657850034,0.116408566866672,1.34507664462859,0.7565305087696584,0.28852595000000003,0.62028733843072
0.0115,1.79669375,1.0,1580.1182010254133,0.12136481634773426,1.3441185166456522,0.7710398484404882,0.2885141375,0.6223930054260077
0.012,1.7964,1.0,1646.07201257821,0.126293265371907,1.3432059893644466,0.7843166348263609,0.28850180000000003,0.624393012960368
0.0125,1.79609375,1.0,1709.1843941804116,0.13119406927802404,1.3423359151085874,0.7964863055849647,0.2884889375,0.6262950294220856
0.013000000000000001,1.7957750000000001,1.0,1769.4991980996608,0.13606738332905416,1.341505155799132,0.8076604716785253,0.28847555,0.628106596181794
0.0135,1.79544375,1.0,1827.079455162782,0.1409133618884398,1.3407107292097775,0.817938388277071,0.2884616375,0.6298348182440743
0.014,1.7951000000000001,1.0,1881.9927747204326,0.14573215914212959,1.3399499242786765,0.8274083338196497,0.2884472,0.6314861255832975
0.0145,1.79474375,1.0,1934.292294243378,0.15052392650345733,1.3392204594234403,0.8361488887492871,0.2884322375,0.6330659435859379
0.015,1.794375,1.0,1984.0521403635883,0.15528881538575695,1.3385200530616805,0.8442298996727422,0.28841675,0.6345796354436128
0.0155,1.79399375,1.0,2031.3542391592946,0.16002697631286192,1.337846543478658,0.8517135403279961,0.2884007375,0.636032248276541
0.016,1.7936,1.0,2076.2958726029356,0.16473856070239917,1.3371977858573225,0.8586551851440406,0.2883842,0.6374287411126253
0.0165,1.7931937500000001,1.0,2118.9605261069887,0.1694237179050165,1.336571936612883,0.8651042973523293,0.2883671375,0.6387733784587165
0.017,1.792775,1.0,2159.4155409091545,0.17408259481780997,1.335967448937394,0.8711051221326047,0.28834955,0.6400697488982765
0.0175,1.7923437500000001,1.0,2197.7389982400327,0.1787153383378756,1.3353827760229104,0.8766972172038056,0.2883314375,0.6413214079947904
0.018000000000000002,1.7919,1.0,2234.018819649708,0.18332209536230945,1.3348163710614875,0.8819160040973476,0.2883128,0.642531880322756
0.0185,1.79144375,1.0,2268.3409375145065,0.18790301157483785,1.3342667967538313,0.8867932787395829,0.2882936375,0.643704427895194
0.019,1.790975,1.0,2300.799024268724,0.19245823366507397,1.3337326172530388,0.8913576046589148,0.28827395,0.6448422837418262
0.0195,1.79049375,1.0,2331.4685997570955,0.19698790545876127,1.3332126459501716,0.8956347406929702,0.2882537375,0.6459481268459362
0.02,1.79,1.0,2360.4168365395876,0.20149216903319106,1.3327058356331898,0.8996479314555652,0.288233,0.647024320585526
0.0205,1.78949375,1.0,2387.71598534745,0.20597116646565466,1.3322111390900537,0.9034181577107262,0.2882117375,0.6480732113025797
0.021,1.788975,1.0,2413.4429505946496,0.21042503983344338,1.3317275091087235,0.9069643876625123,0.28818995000000003,0.649097129147072
0.021500000000000002,1.78844375,1.0,2437.668755263346,0.2148539295258627,1.3312539959583312,0.9103038172628338,0.2881676375,0.6500981829133863
0.022,1.7879,1.0,2460.4744453115277,0.2192579781278991,1.330789589262712,0.9134520312291711,0.2881448,0.6510785957761681
0.0225,1.78734375,1.0,2481.924241237854,0.22363732484160168,1.3303334721699345,0.9164232230082989,0.28812143749999997,0.6520401695285559
0.023,1.786775,1.0,2502.0733179937456,0.22799210672654777,1.329884940551695,0.9192303251281919,0.28809755,0.6529844578992494
0.0235,1.78619375,1.0,2520.979254226427,0.23232246084231456,1.32944329027969,0.9218851196945624,0.28807313749999996,0.6539130053880482
0.024,1.7856,1.0,2538.7018312242694,0.2366285242484794,1.3290078172256157,0.924398356617929,0.2880482,0.6548273475906756
0.0245,1.78499375,1.0,2555.3028428541566,0.24091043400461956,1.3285778172611684,0.9267798582669851,0.2880227375,0.6557290114919841
0.025,1.784375,1.0,2570.8356968978724,0.24516832372872907,1.328152681973798,0.929038627004324,0.28799675,0.6566193154126382
0.025500000000000002,1.78374375,1.0,2585.364447514959,0.2494023330634468,1.3277317179950283,0.9311829000276142,0.2879702375,0.6574997481505971
0.026000000000000002,1.7831000000000001,1.0,2598.9327127583674,0.25361259430801897,1.3273144363665246,0.9332202649725662,0.2879432,0.6583713639861746
0.0265,1.78244375,1.0,2611.583504779652,0.2577992391023591,1.326900364430421,0.9351576945440139,0.2879156375,0.6592351777272258
0.027,1.781775,1.0,2623.360869695404,0.26196239908638086,1.3264890295288503,0.9370016024887478,0.28788755,0.6600921989710126
0.0275,1.7810937500000001,1.0,2634.3097972690307,0.2661022058999978,1.326079959003946,0.9387578958515335,0.2878589375,0.6609434321938293
0.028,1.7804,1.0,2644.4761355457044,0.2702187911831234,1.3256726801978418,0.9404320217107658,0.2878298,0.6617898768263848
0.0285,1.77969375,1.0,2653.8962704768364,0.2743122835598303,1.3252668148464606,0.9420290214333492,0.2878001375,0.6626323315039488
0.029,1.778975,1.0,2662.6123531716876,0.2783828149424372,1.3248619374735915,0.9435535492990736,0.28776995,0.6634716887146184
0.029500000000000002,1.7782437500000001,1.0,2670.674174167031,0.2824305182239194,1.3244575579944924,0.9450099036581681,0.2877392375,0.6643089702176359
0.03,1.7775,1.0,2678.109667053712,0.28645551887331655,1.3240533922801085,0.9464020915533178,0.287708,0.6651447670655424
0.0305,1.77674375,1.0,2684.9471733584114,0.2904579423596684,1.3236491562013848,0.947733828887803,0.2876762375,0.6659796673792463
0.031,1.775975,1.0,2691.215406529484,0.29443791415201453,1.3232445656292666,0.9490085652413182,0.28764395,0.66681425634932
0.0315,1.7751937500000001,1.0,2696.9434177133135,0.29839555971939485,1.3228393364346989,0.9502295062794003,0.2876111375,0.6676491162321534
0.032,1.7744,1.0,2702.1605633201925,0.302331004530849,1.3224331844886268,0.951399634015803,0.2875778,0.668484826340954
0.0325,1.77359375,1.0,2706.8964743802935,0.30624437405541666,1.322025825661996,0.9525217251566733,0.2875439375,0.6693219630316003
0.033,1.772775,1.0,2711.1794942314364,0.3101357925517105,1.3216169898113186,0.9535983690205634,0.28750955,0.6701610709971499
0.0335,1.7719437500000002,1.0,2715.0337662561324,0.3140053811603953,1.321206447024078,0.9546319849968423,0.2874746375,0.6710026096625259
0.034,1.7711000000000001,1.0,2718.491233240821,0.31785326923135465,1.3207938979804903,0.9556248266441325,0.2874392,0.671847177992611
0.0345,1.7702437500000001,1.0,2721.570215720029,0.321679575886476,1.3203791689706912,0.9565790113177494,0.2874032375,0.6726951150817899
0.035,1.7693750000000001,1.0,2724.289160022351,0.32548442024764684,1.3199620862848163,0.9574965195938409,0.28736675,0.6735467581003438
0.035500000000000004,1.76849375,1.0,2726.6666252596015,0.3292679214367547,1.3195424762130015,0.958379205689234,0.2873297375,0.6744024422693349
0.036000000000000004,1.7676,1.0,2728.721270983944,0.33303019857568705,1.319120165045382,0.9592288069729245,0.2872922,0.6752625008335718
0.0365,1.76669375,1.0,2730.471845515102,0.3367713707863314,1.3186949790720943,0.9600469526577726,0.2872541375,0.6761272650326446
0.037,1.765775,1.0,2731.9371749355437,0.3404915571905753,1.3182667445832734,0.9608351717514825,0.28721555,0.6769970640700427
0.0375,1.76484375,1.0,2733.1361527558115,0.3441908769103061,1.3178352878690551,0.9615949003375546,0.2871764375,0.6778722250803408
0.038,1.7639,1.0,2734.0878325120657,0.3478694472229757,1.3174004342908094,0.9623274877773652,0.28713679999999997,0.6787530749745075
0.0385,1.76294375,1.0,2734.802127853884,0.3515273843310088,1.3169620926506933,0.9630342110155851,0.28709663750000003,0.6796397698421344
0.039,1.761975,1.0,2735.293659704269,0.35516480318212473,1.316520129345592,0.9637162678350266,0.28705595,0.680532550124521
0.0395,1.7609937500000001,1.0,2735.577373098483,0.3587818186362851,1.316074408136148,0.9643747862856279,0.2870147375,0.6814316598258412
0.04,1.76,1.0,2735.668201418826,0.3623785442898839,1.3156247931428855,0.965010829526293,0.286973,0.6823373404129807
0.0405,1.7589953212187217,1.0,2735.6532485646326,0.3659550950606218,1.31517120300433,0.9656254054839899,0.2869308034911863,0.683249721928582
0.041,1.7579890886319076,1.0,2735.9772977396087,0.3695115867462257,1.3147138333015267,0.9662194896767434,0.28688854172254014,0.6841683773235296
0.0415,1.7569828560450933,1.0,2736.6890305707675,0.37304813004833576,1.314252944381888,0.9667940079016136,0.2868462799538939,0.6850927517452615
0.042,1.7559766234582792,1.0,2737.759912653002,0.3765648356685921,1.3137887965928272,0.9673498349203893,0.2868040181852477,0.6860222931531419
0.0425,1.754970390871465,1.0,2739.1614616904044,0.380061814308635,1.313321650281757,0.967887797802303,0.2867617564166015,0.6869564523747331
0.043000000000000003,1.7539641582846508,1.0,2740.865229436837,0.38353917667010445,1.3128517657960905,0.9684086790154683,0.2867194946479553,0.6878946831577428
0.043500000000000004,1.7529579256978367,1.0,2742.842785138685,0.3869970334546407,1.3123794034832406,0.9689132192882447,0.28667723287930913,0.6888364422176492
0.044,1.7519516931110224,1.0,2745.076911681324,0.39043548932705463,1.3119047220744846,0.9694021113270662,0.28663497111066294,0.6897813914146637
0.0445,1.7509454605242083,1.0,2747.5372531557955,0.39385465790087687,1.311427999416055,0.9698760223479641,0.28659270934201675,0.6907289578434748
0.045,1.7499392279373942,1.0,2750.1919629909667,0.3972546544962739,1.3109495266304796,0.9703355863337996,0.28655044757337056,0.6916785455621195
0.0455,1.7489329953505799,1.0,2753.0287188235798,0.4006355836554734,1.3104694177769545,0.9707813899227129,0.28650818580472437,0.6926299127080322
0.046,1.7479267627637658,1.0,2756.0351909727897,0.4039975499207034,1.309987786914676,0.9712139901751421,0.2864659240360782,0.6935828187619304
0.0465,1.7469205301769515,1.0,2759.1990384472883,0.40734065783419166,1.309504748102841,0.9716339163515403,0.286423662267432,0.6945370245593014
0.047,1.7459142975901374,1.0,2762.507905240437,0.410665011938166,1.3090204154006457,0.9720416715670255,0.2863814004987858,0.6954922923010598
0.0475,1.7449080650033233,1.0,2765.949416914241,0.4139707167748543,1.3085349028672861,0.9724377343325686,0.2863391387301396,0.6964483855633747
0.048,1.743901832416509,1.0,2769.5111774709603,0.41725787688648447,1.3080483245619592,0.9728225599914845,0.28629687696149336,0.697405069306664
0.0485,1.7428955998296949,1.0,2773.1807665144993,0.4205265968152843,1.3075607945438608,0.9731965820592483,0.2862546151928472,0.6983621098837662
0.049,1.7418893672428806,1.0,2776.9457366985002,0.4237769811034816,1.3070724268721876,0.9735602134739738,0.286212353424201,0.6993192750472736
0.0495,1.7408831346560665,1.0,2780.793611464543,0.42700913429330434,1.3065833356061358,0.973913847764272,0.2861700916555548,0.7002763339560443
0.05,1.7398769020692524,1.0,2784.7195500801395,0.4302231520769744,1.3060935658090294,0.974257854491534,0.2861278298869086,0.701233191869622
0.0505,1.738870669482438,1.0,2788.7104598784144,0.4334191456425738,1.3056032366523316,0.9745925928958804,0.2860855681182624,0.7021896101646015
0.051000000000000004,1.737864436895624,1.0,2792.7582620844487,0.43659721786702504,1.3051124219328805,0.9749184018935062,0.2860433063496162,0.7031454399944258
0.051500000000000004,1.7368582043088097,1.0,2796.8584966512517,0.43975746660765075,1.3046211627549142,0.9752356024244372,0.28600104458097,0.7041005969446559
0.052000000000000005,1.7358519717219956,1.0,2801.0066915041,0.4428999897217734,1.3041295002226705,0.9755445010834319,0.2859587828123238,0.7050549971119537
0.0525,1.7348457391351815,1.0,2805.1983621541162,0.4460248850667154,1.3036374754403874,0.9758453908873704,0.2859165210436776,0.7060085571051917
0.053,1.7338395065483672,1.0,2809.4290113494003,0.44913225049979927,1.3031451295123029,0.9761385519951946,0.2858742592750314,0.7069611940464576
0.0535,1.732833273961553,1.0,2813.6941287638288,0.4522221838783475,1.302652503542655,0.9764242523837082,0.2858319975063852,0.7079128255719489
0.054,1.7318270413747388,1.0,2817.989190722911,0.4552947830596826,1.3021596386356813,0.976702748482309,0.285789735737739,0.7088633698327631
0.0545,1.7308208087879247,1.0,2822.309659967303,0.45835014590112694,1.3016665758956203,0.9769742857694669,0.28574747396909284,0.7098127454955738
0.055,1.7298145762011106,1.0,2826.6509854540177,0.461388370260003,1.3011733564267094,0.9772390993335628,0.28570521220044665,0.7107608717432088
0.0555,1.7288083436142963,1.0,2831.0086021945967,0.4644095539936334,1.3006800213331866,0.9774974144004946,0.28566295043180046,0.7117076682751098
0.056,1.7278021110274822,1.0,2835.3835737789286,0.46741377732225803,1.300186561396509,0.9777494422597648,0.28562068866315427,0.7126531516484056
0.0565,1.7267958784406678,1.0,2839.7673264319774,0.4704011590496658,1.2996930533098041,0.9779953940122676,0.2855784268945081,0.7135971741002771
0.057,1.7257896458538537,1.0,2844.1581373569884,0.4733717914817458,1.2991995125251992,0.9782354662060914,0.2855361651258619,0.714539705690954
0.0575,1.7247834132670397,1.0,2848.554655775277,0.4763257655547555,1.2987059511371313,0.9784698471294979,0.2854939033572157,0.7154807230716256
0.058,1.7237771806802253,1.0,2852.955526714826,0.47926317220495207,1.2982123812400383,0.9786987175229347,0.28545164158856945,0.7164202030457463
0.0585,1.7227709480934112,1.0,2857.359391006653,0.4821841023685928,1.2977188149283578,0.978922250942234,0.28540937981992326,0.7173581225690504
0.059000000000000004,1.721764715506597,1.0,2861.764885283843,0.48508864698193516,1.2972252642965274,0.9791406141015649,0.28536711805127707,0.7182944587495518
0.059500000000000004,1.7207584829197828,1.0,2866.1706419841703,0.48797689698123636,1.2967317414389845,0.9793539671974069,0.2853248562826309,0.7192291888475371
0.06,1.7197522503329687,1.0,2870.5752893559893,0.49084894330275364,1.2962382584501673,0.979562464214742,0.2852825945139847,0.7201622902755482
0.0605,1.7187460177461544,1.0,2874.977451467371,0.4937048768827444,1.295744827424513,0.9797662532165715,0.2852403327453385,0.7210937405983581
0.061,1.7177397851593403,1.0,2879.3757482184155,0.49654478865746593,1.2952514604564591,0.9799654766177832,0.2851980709766923,0.7220235175329336
0.0615,1.716733552572526,1.0,2883.768795356472,0.4993687695631755,1.2947581696404438,0.9801602714443359,0.28515580920804606,0.7229515989483908
0.062,1.715727319985712,1.0,2888.155204495575,0.5021769105361304,1.294264967070904,0.9803507695786455,0.2851135474393999,0.7238779628659431
0.0625,1.7147210873988978,1.0,2892.533673765688,0.5049693012261695,1.2937718640420575,0.9805370978540559,0.2850712856707537,0.7248025889580832
0.063,1.7137148548120835,1.0,2896.906302276867,0.5077459896028941,1.293278841807358,0.9807193737983768,0.2850290239021075,0.7257255132274704
0.0635,1.7127086222252694,1.0,2901.26855418402,0.5105071234762534,1.2927859401739514,0.9808977209512697,0.2849867621334613,0.7266466621060439
0.064,1.7117023896384551,1.0,2905.620243460564,0.5132527854530287,1.2922931605088053,0.9810722516508144,0.2849445003648151,0.7275660341829522
0.0645,1.710696157051641,1.0,2909.9611837131492,0.5159830581400013,1.2918005041788871,0.9812430741930497,0.2849022385961689,0.7284836280642452
0.065,1.709689924464827,1.0,2914.291188185481,0.5186980241439532,1.2913079725511645,0.9814102930070441,0.28485997682752273,0.7293994423728636
0.0655,1.7086836918780126,1.0,2918.6100697620063,0.5213977660716652,1.290815566992605,0.9815740088211617,0.28481771505887654,0.730313475748628
0.066,1.7076774592911985,1.0,2922.917640971583,0.5240823665299191,1.2903232888701757,0.9817343188210287,0.28477545329023035,0.7312257268482287
0.0665,1.7066712267043842,1.0,2927.2137139916226,0.5267519081254963,1.2898311395508444,0.9818913167996663,0.28473319152158416,0.7321361943452136
0.067,1.70566499411757,1.0,2931.4981006517396,0.5294064734651782,1.2893391204015785,0.9820450933002385,0.28469092975293797,0.7330448769299773
0.0675,1.704658761530756,1.0,2935.77061243774,0.5320461451557462,1.2888472327893454,0.9821957357518197,0.2846486679842918,0.7339517733097503
0.068,1.7036525289439417,1.0,2940.0310604954543,0.5346710058039819,1.288355478081113,0.9823433285985776,0.28460640621564554,0.7348568822085866
0.0685,1.7026462963571276,1.0,2944.2792556352533,0.5372811380166664,1.2878638576438484,0.9824879534227268,0.28456414444699935,0.735760202367354
0.069,1.7016400637703133,1.0,2948.515008335314,0.5398766244005815,1.2873723728445192,0.9826296890616012,0.28452188267835316,0.7366617325437201
0.0695,1.7006338311834992,1.0,2952.7381287463254,0.5424575475625085,1.286881025050093,0.9827686117191615,0.28447962090970697,0.7375614715121426
0.07,1.699627598596685,1.0,2956.9484266954105,0.5450239901092289,1.286389815627537,0.9829047950722386,0.2844373591410608,0.7384594180638563
0.07050000000000001,1.6986213660098708,1.0,2961.145711690202,0.5475760346475239,1.2858987459438191,0.9830383103717962,0.2843950973724146,0.7393555710068609
0.07100000000000001,1.6976151334230567,1.0,2965.3297929232585,0.5501137637841753,1.2854078173659065,0.9831692265394791,0.2843528356037684,0.74024992916591
0.07150000000000001,1.6966089008362424,1.0,2969.500479276084,0.5526372601259643,1.284917031260767,0.9832976102596942,0.28431057383512215,0.7411424913824973
0.07200000000000001,1.6956026682494283,1.0,2973.6575793239,0.5551466062796724,1.2844263889953675,0.9834235260674621,0.28426831206647596,0.7420332565148465
