Time [s],Phi [rad],STIM [ ],Fsee [N],Gamma [ ],Lcerel [ ],q [ ],Lmtc [m],fisomrel [ ]
0.0,1.8,1.0,17.970007517139713,4.7563148561684356e-05,1.3793394270099348,0.005000595555452919,0.288653,0.5411403033028519
0.0005,1.79999375,1.0,18.291791975715697,0.005656505665718795,1.3793007166124522,0.013045123897857034,0.2886527375,0.5412339489071436
0.001,1.799975,1.0,21.661309639730426,0.01123398645009238,1.3789339198164028,0.0358045761745652,0.28865195,0.542120804887041
0.0015,1.79994375,1.0,31.17162434184477,0.01678018197802232,1.3780374877691288,0.0708698330179195,0.2886506375,0.5442846232181306
0.002,1.7999,1.0,53.803399361222326,0.022295267734138435,1.3763538083529951,0.11503528424587761,0.2886488,0.5483348563080261
0.0025,1.79984375,1.0,97.49073987387933,0.027779418219183255,1.3739172681121499,0.16491997474282935,0.28864643749999996,0.5541641473454931
0.003,1.7997750000000001,1.0,161.44229159147955,0.03323280695738231,1.371196236111037,0.21763642933601432,0.28864354999999997,0.5606293185491048
0.0035,1.79969375,1.0,238.23051270367645,0.03865560649631089,1.3685678892952364,0.27096692947570156,0.2886401375,0.5668294355244081
0.004,1.7996,1.0,322.04902050643705,0.044047988417602324,1.3661406778163034,0.32325859988138256,0.2886362,0.5725159567864091
0.0045000000000000005,1.7994937500000001,1.0,409.87075722338034,0.04941012334215403,1.3639086645171459,0.3733599064940156,0.2886317375,0.5777120021981741
0.005,1.799375,1.0,500.02882515391025,0.05474218092138316,1.3618452708520186,0.42055189173927704,0.28862675,0.5824872447768792
0.0055,1.79924375,1.0,591.4112450289751,0.06004432988276456,1.3599267087514166,0.46445555154332047,0.2886212375,0.5869029474724902
0.006,1.7991000000000001,1.0,683.1397651927738,0.06531673797770454,1.3581351172522251,0.5049389810988367,0.2886152,0.5910052225469865
0.006500000000000001,1.79894375,1.0,774.5011963994455,0.0705595720277072,1.3564566729782281,0.5420375691939768,0.2886086375,0.5948298478612645
0.007,1.798775,1.0,864.9019774264881,0.07577299794647424,1.3548804437107782,0.5758925508461052,0.28860155,0.5984051998457947
0.0075,1.79859375,1.0,953.8429010844825,0.0809571805567872,1.3533975568559524,0.6067062172228865,0.2885939375,0.6017543584446552
0.008,1.7984,1.0,1040.9515972911174,0.08611228421652418,1.3519999147577324,0.6347103708712319,0.2885858,0.6048981505438429
0.0085,1.79819375,1.0,1125.8989259506798,0.09123847168092433,1.3506809653932752,0.6601463730321273,0.2885771375,0.607853509282017
0.009000000000000001,1.797975,1.0,1208.4412306956933,0.09633590514555689,1.3494346430715958,0.6832515675516005,0.28856795,0.6106359382060793
0.0095,1.79774375,1.0,1288.41938706827,0.10140474637447336,1.3482551484981287,0.7042514971051539,0.2885582375,0.6132600495680687
0.01,1.7975,1.0,1365.6901086089217,0.10644515527596794,1.3471376631965761,0.7233561671102297,0.288548,0.6157380191021062
0.0105,1.79724375,1.0,1440.1633839373437,0.11145729123692817,1.3460776404348955,0.7407578434364841,0.2885372375,0.6180812078795127
0.011,1.796975,1.0,1511.8042827702827,0.1164413132682788,1.3450706654363345,0.7566306711532194,0.28852595000000003,0.6203004969876446
0.0115,1.79669375,1.0,1580.5915701073059,0.12139737913188127,1.344112861940613,0.7711314439230773,0.2885141375,0.6224054153285732
0.012,1.7964,1.0,1646.5160862466907,0.12632564507836097,1.3432007919338693,0.7844006043392917,0.28850180000000003,0.624404389081521
0.0125,1.79609375,1.0,1709.6033822174716,0.13122626692222494,1.3423311026397684,0.7965634008669151,0.2884889375,0.6263055362418379
0.013000000000000001,1.7957750000000001,1.0,1769.9102418158784,0.13609940064351064,1.3415005157242685,0.8077313060294982,0.28847555,0.6281167020410032
0.0135,1.79544375,1.0,1827.4869350475542,0.1409452005105845,1.3407062024169059,0.8180035665354155,0.2884616375,0.6298446544472269
0.014,1.7951000000000001,1.0,1882.3787280580134,0.1457638188902686,1.3399456996266912,0.8274684822931203,0.2884472,0.6314952847746156
0.0145,1.79474375,1.0,1934.654907460083,0.15055540814938487,1.3392165442626351,0.8362045005423808,0.2884322375,0.6330744135794506
0.015,1.794375,1.0,1984.39743783529,0.15532011993988043,1.3385163718961957,0.8442813851273266,0.28841675,0.6345875827749891
0.0155,1.79399375,1.0,2031.6972014760017,0.16005810625731592,1.3378429300239123,0.8517612371038722,0.2884007375,0.6360400339057969
0.016,1.7936,1.0,2076.6303493339947,0.16476951688289065,1.337194300147916,0.8586994636448788,0.2883842,0.6374362370783071
0.0165,1.7931937500000001,1.0,2119.267251111676,0.16945449983005773,1.3365687724457787,0.8651455270271797,0.2883671375,0.6387801703263447
0.017,1.792775,1.0,2159.6907010549485,0.17411320311227016,1.335964637095071,0.871143586459419,0.28834955,0.6400757736657436
0.0175,1.7923437500000001,1.0,2197.9924123693536,0.17874577447420154,1.3353802090716202,0.8767331316295787,0.2883314375,0.6413268984791973
0.018000000000000002,1.7919,1.0,2234.2577148030236,0.183352360456895,1.3348139709042526,0.8819495692870891,0.2883128,0.6425370053805048
0.0185,1.79144375,1.0,2268.584214114042,0.18793310882100273,1.3342643711386306,0.8868246470331975,0.2882936375,0.64370959881153
0.019,1.790975,1.0,2301.037279912014,0.19248816290036017,1.3337302585134885,0.8913869819013425,0.28827395,0.6448473040577811
0.0195,1.79049375,1.0,2331.6886549176943,0.1970176660288028,1.3332104817675607,0.895662320504756,0.2882537375,0.6459527258935909
0.02,1.79,1.0,2360.615930250124,0.2015217615401661,1.3327038896395822,0.8996738649763708,0.288233,0.6470284496769538
0.0205,1.78949375,1.0,2387.899598856873,0.20600059234390747,1.332209354689592,0.9034425637920186,0.2882117375,0.6480769918900667
0.021,1.788975,1.0,2413.614155327506,0.2104543000860055,1.3317258541890307,0.9069873788988062,0.28818995000000003,0.6491006303015241
0.021500000000000002,1.78844375,1.0,2437.842697454638,0.21488302810210935,1.331252322953395,0.9103254731752478,0.2881676375,0.650101717276721
0.022,1.7879,1.0,2460.643202111893,0.21928691475015338,1.3307879736703745,0.9134724671976685,0.2881448,0.6510820040658407
0.0225,1.78734375,1.0,2482.076689222917,0.223666098388072,1.3303320190276597,0.9164425493464746,0.28812143749999997,0.6520432308836411
0.023,1.786775,1.0,2502.206969812231,0.22802071737379948,1.3298836717129405,0.919248626940739,0.28809755,0.65298712735073
0.0235,1.78619375,1.0,2521.1004077993607,0.23235091006527026,1.3294421444139073,0.9219024596401898,0.28807313749999996,0.6539154128953006
0.024,1.7856,1.0,2538.814844214043,0.2366568122728506,1.329006752089621,0.9244147946565189,0.2880482,0.6548295825237205
0.0245,1.78499375,1.0,2555.4173599509136,0.24093856385148912,1.3285767414608896,0.9267954420422702,0.2880227375,0.6557312658512238
0.025,1.784375,1.0,2570.9597289337494,0.2451962999683718,1.32815152031429,0.929053403725112,0.28799675,0.6566217465415184
0.025500000000000002,1.78374375,1.0,2585.487407704403,0.24943015360723164,1.327730569614416,0.9311969388944268,0.2879702375,0.6575021484062834
0.026000000000000002,1.7831000000000001,1.0,2599.04715561537,0.25364025775180166,1.3273133703258624,0.9332336250244041,0.2879432,0.6583735893046074
0.0265,1.78244375,1.0,2611.686923709448,0.25782674538581485,1.3268994034132233,0.9351704233474758,0.2879156375,0.6592371812757611
0.027,1.781775,1.0,2623.4557495727395,0.2619897494930042,1.3264881498410932,0.9370137372410808,0.28788755,0.6600940306547828
0.0275,1.7810937500000001,1.0,2634.3988690488727,0.2661294015889095,1.3260791348840215,0.9387694704514172,0.2878589375,0.6609451460245157
0.028,1.7804,1.0,2644.5570961285825,0.2702458326996922,1.325671932565889,0.9404430740653134,0.2878298,0.6617914296517827
0.0285,1.77969375,1.0,2653.9846492445167,0.27433917769712923,1.3252660001614383,0.9420395653714343,0.2878001375,0.662634021489092
0.029,1.778975,1.0,2662.7129470134146,0.27840956368904785,1.3248610117087156,0.9435636096220221,0.28776995,0.6634736067333856
0.029500000000000002,1.7782437500000001,1.0,2670.7739389921458,0.28245711778327526,1.3244566412457675,0.9450195236932695,0.2877392375,0.6643108671923321
0.03,1.7775,1.0,2678.2000592357135,0.2864819670876387,1.32405256281064,0.9464113065595621,0.287708,0.6651464813005618
0.0305,1.77674375,1.0,2685.0241822109374,0.2904842387099653,1.3236484504413797,0.9477426667400456,0.2876762375,0.6659811241291257
0.031,1.775975,1.0,2691.2795810658927,0.2944640597580825,1.3232439781760328,0.9490170470512151,0.28764395,0.6668154673881774
0.0315,1.7751937500000001,1.0,2696.999888254899,0.29842155733981723,1.3228388200526455,0.9502376469591666,0.2876111375,0.6676501794228813
0.032,1.7744,1.0,2702.2122881994655,0.3023568542469952,1.3224327119588188,0.9514074490300664,0.2875778,0.6684857980193921
0.0325,1.77359375,1.0,2706.951546394977,0.3062700804358076,1.3220253229950705,0.9525292246402106,0.2875439375,0.6693229953760221
0.033,1.772775,1.0,2711.241509154725,0.31016135881890133,1.3216164242209962,0.9536055667925614,0.28750955,0.6701622310947073
0.0335,1.7719437500000002,1.0,2715.103754636227,0.3140308106033508,1.3212058091676984,0.9546388966264917,0.2874746375,0.6710039163167225
0.034,1.7711000000000001,1.0,2718.5600318372226,0.3178785569962303,1.3207932713662793,0.955631474907028,0.2874392,0.6718484599684971
0.0345,1.7702437500000001,1.0,2721.6322430829664,0.3217047192046142,1.3203786043478414,0.9565854145405701,0.2874032375,0.6726962687376572
0.035,1.7693750000000001,1.0,2724.342427458391,0.32550941843557696,1.3199616016434872,0.957502691974015,0.28736675,0.673547747046347
0.035500000000000004,1.76849375,1.0,2726.71274518601,0.3292927758961928,1.3195420567843188,0.9583851575885851,0.2873297375,0.6744032970218341
0.036000000000000004,1.7676,1.0,2728.760374967119,0.3330549076365973,1.3191198095555108,0.9592345487706213,0.2872922,0.67526322432798
0.0365,1.76669375,1.0,2730.5053939035506,0.33679593396195845,1.3186946741851304,0.9600524931496186,0.2872541375,0.6761278847131172
0.037,1.765775,1.0,2731.9752220205064,0.34051598415477397,1.3182663989051466,0.9608405136514395,0.28721555,0.6769977657141266
0.0375,1.76484375,1.0,2733.1825837783076,0.34421517249013395,1.317834866111231,0.9616000505483625,0.2871764375,0.6778730799874233
0.038,1.7639,1.0,2734.1402542716796,0.3478936132431286,1.3173999581990552,0.962332457608898,0.28713679999999997,0.6787540386965498
0.0385,1.76294375,1.0,2734.8610531577956,0.351551420688848,1.3169615575642906,0.9630390082399586,0.28709663750000003,0.6796408514873052
0.039,1.761975,1.0,2735.357838889786,0.3551887091023822,1.3165195466026092,0.9637209011285828,0.28705595,0.6805337264619857
0.0395,1.7609937500000001,1.0,2735.6435032587056,0.3588055927588215,1.316073807709682,0.964379265428951,0.2870147375,0.6814328701527517
0.04,1.76,1.0,2735.730966240212,0.3624021859332559,1.3156242232811808,0.9650151655358202,0.286973,0.6823384874941051
0.0405,1.7589937500000001,1.0,2735.633171149172,0.36597860290077566,1.3151706757127772,0.9656296054814065,0.2869307375,0.683250781794488
0.041,1.757975,1.0,2735.3630801005243,0.36953495793647084,1.314713047400143,0.9662235329890719,0.28688795,0.6841699547070006
0.0415,1.75694375,1.0,2734.933669776629,0.37307136531543156,1.3142512207389492,0.9667978432139206,0.2868446375,0.6850962061992355
0.042,1.7559,1.0,2734.3537561610533,0.3765879320743724,1.3137851160070948,0.9673533841674519,0.28680079999999997,0.686029658713055
0.0425,1.75484375,1.0,2733.6343089665884,0.380084774576846,1.3133146340043087,0.9678909577731034,0.2867564375,0.6869704723174301
0.043000000000000003,1.753775,1.0,2732.7870853163004,0.38356200954159686,1.3128396684275374,0.9684113223422248,0.28671155,0.6879188197007285
0.043500000000000004,1.75269375,1.0,2731.8189983722223,0.3870197438839065,1.3123601570056191,0.9689151978783556,0.28666613750000003,0.6888747841690848
0.044,1.7516,1.0,2730.7369647894984,0.39045808451905645,1.3118760374673917,0.969403266546574,0.2866202,0.6898384478751216
0.0445,1.75049375,1.0,2729.547903241838,0.39387713836232835,1.3113872475416934,0.9698761750327954,0.2865737375,0.6908098917997709
0.045,1.7493750000000001,1.0,2728.258733032709,0.3972770123290037,1.3108937249573624,0.9703345367335559,0.28652675,0.6917891957338517
0.0455,1.74824375,1.0,2726.8763727922465,0.400657813334364,1.310395407443237,0.9707789337900011,0.2864792375,0.6927764382593973
0.046,1.7471,1.0,2725.407739260789,0.40401964829369075,1.309892232728155,0.9712099189785705,0.2864312,0.6937716967307366
0.0465,1.7459437500000001,1.0,2723.859746157804,0.4073626241222656,1.3093841385409548,0.9716280174697531,0.28638263750000004,0.6947750472553293
0.047,1.744775,1.0,2722.239303136682,0.41068684773536995,1.3088710626104745,0.9720337284652987,0.28633355,0.6957865646743506
0.0475,1.74359375,1.0,2720.55331482656,0.41399242604828546,1.308352942665552,0.9724275267233512,0.28628393750000003,0.6968063225430319
0.048,1.7424,1.0,2718.8041659650953,0.417279464732767,1.307829757546131,0.9728098667241266,0.2862338,0.6978343124014355
0.0485,1.74119375,1.0,2716.997284020183,0.42054806638517833,1.307301458364978,0.9731811788038077,0.2861831375,0.6988705793582835
0.049,1.739975,1.0,2715.139464750297,0.4237983337405253,1.306767983717926,0.9735418719991551,0.28613195,0.699915191854714
0.0495,1.73874375,1.0,2713.235594196004,0.42703036939952205,1.3062292895419443,0.9738923372503197,0.2860802375,0.7009681831206507
0.05,1.7375,1.0,2711.2840106238723,0.4302442757398935,1.305685391440296,0.9742329512351008,0.286028,0.7020294689413045
0.0505,1.73624375,1.0,2709.302906169769,0.4334401549372215,1.305136123914343,0.9745640611915941,0.2859752375,0.7030993172274576
0.051000000000000004,1.7349756513254677,1.0,2707.320708896991,0.4366181079203514,1.3045815219562398,0.9748860114587679,0.28592197735566965,0.704177603580423
0.051500000000000004,1.7337046865623496,1.0,2705.7511053533717,0.4397782348490157,1.304021865370971,0.9751991464951951,0.28586859683561866,0.7052637288786837
0.052000000000000005,1.7324337217992314,1.0,2704.70507937955,0.44292063582246805,1.303457431823885,0.9755037951021007,0.2858152163155677,0.706357101628993
0.0525,1.731162757036113,1.0,2704.1445649581956,0.4460454104784013,1.3028885661666632,0.9758002756128685,0.2857618357955167,0.7074570040991803
0.053,1.7298917922729948,1.0,2704.026839283318,0.44915265796303455,1.3023156571788044,0.9760888949907577,0.2857084552754658,0.7085626384711341
0.0535,1.7286208275098767,1.0,2704.3186709178917,0.45224247605319223,1.3017390080596134,0.9763699413410514,0.28565507475541485,0.7096733769617365
0.054,1.7273498627467583,1.0,2704.986919535543,0.45531496252569864,1.3011589220083943,0.9766436902934372,0.28560169423536386,0.7107885959653759
0.0545,1.7260788979836401,1.0,2706.0095180281946,0.4583702113704153,1.3005756017485788,0.9769103992100662,0.28554831371531286,0.7119078687292084
0.055,1.724807933220522,1.0,2707.3397045925803,0.4614083257806342,1.2999894758944759,0.9771703289298753,0.2854949331952619,0.7130303391344314
0.0555,1.7235369684574038,1.0,2708.9545628281476,0.464429401066011,1.2994007556028,0.9774237156838929,0.285441552675211,0.7141555725270167
0.056,1.7222660036942854,1.0,2710.8352725977416,0.46743353112514674,1.2988096148485204,0.9776707835523493,0.28538817215516,0.7152832081443842
0.0565,1.7209950389311672,1.0,2712.9630281958785,0.47042080985664236,1.2982162276066058,0.9779117473680987,0.285334791635109,0.7164128877298632
0.057,1.719724074168049,1.0,2715.3190293477614,0.47339133115909876,1.2976207678520255,0.9781468131781936,0.28528141111505806,0.7175442555585803
0.0575,1.7184531094049307,1.0,2717.8844728793706,0.476345188931117,1.2970234095597482,0.9783761786788776,0.28522803059500706,0.7186769584614225
0.058,1.7171821446418125,1.0,2720.6405450588836,0.479282477071298,1.2964243267047428,0.9786000336257239,0.2851746500749561,0.719810645847066
0.0585,1.7159111798786943,1.0,2723.56841460891,0.48220328947824276,1.2958236932619787,0.9788185602205265,0.28512126955490513,0.7209449697220751
0.059000000000000004,1.7146402151155762,1.0,2726.656342466424,0.48510771557993615,1.2952216184902163,0.9790319295259862,0.2850678890348542,0.7220797065561771
0.059500000000000004,1.7133692503524578,1.0,2729.8843528461193,0.48799585256952,1.2946182863963662,0.9792403106512311,0.28501450851480326,0.7232144940078722
0.06,1.7120982855893396,1.0,2733.2393671295226,0.4908677926065812,1.2940138180080432,0.9794438623197788,0.28496112799475226,0.7243490906260628
0.0605,1.7108273208262215,1.0,2736.7128200358807,0.4937236246378206,1.293408293169178,0.9796427346832715,0.28490774747470127,0.7254833338633602
0.061,1.7095563560631033,1.0,2740.2961317621125,0.4965634376099389,1.2928017917237005,0.9798370721713614,0.28485436695465033,0.7266170623832613
0.0615,1.708285391299985,1.0,2743.98070618306,0.49938732046963674,1.2921943935155416,0.9800270137555588,0.2848009864345994,0.7277501160653217
0.062,1.7070144265368667,1.0,2747.7579291935754,0.5021953621636148,1.2915861783886313,0.9802126931990041,0.2847476059145484,0.7288823360099275
0.0625,1.7057434617737486,1.0,2751.6191671918195,0.504987651638574,1.2909772261869,0.9803942392930158,0.28469422539449746,0.7300135645426584
0.063,1.7044724970106304,1.0,2755.5557657032496,0.5077642778412147,1.2903676167542781,0.9805717760812096,0.28464084487444646,0.7311436452182418
0.0635,1.703201532247512,1.0,2759.559048147105,0.5105253297182378,1.2897574299346963,0.9807454230719235,0.2845874643543955,0.7322724228241058
0.064,1.7019305674843939,1.0,2763.6267552581708,0.5132708864584498,1.2891466873927784,0.9809152917894061,0.28453408383434453,0.7333998506689505
0.0645,1.7006596027212757,1.0,2767.7464723629696,0.5160010466237908,1.288535502417163,0.9810814957325653,0.2844807033142936,0.7345257137910566
0.065,1.6993886379581573,1.0,2771.9116088066703,0.5187158989714635,1.2879239354417586,0.9812441410208429,0.2844273227942426,0.7356498960450575
0.0655,1.6981176731950391,1.0,2776.1188843319383,0.5214155267795265,1.2873120168921204,0.9814033281517012,0.28437394227419166,0.7367723372110393
0.066,1.696846708431921,1.0,2780.3650093166725,0.5241000133260376,1.2866997771938038,0.981559154092021,0.28432056175414067,0.7378929775415283
0.0665,1.6955757436688028,1.0,2784.646684547993,0.5267694418890553,1.2860872467723643,0.9817117124282243,0.2842671812340897,0.739011757762144
0.067,1.6943047789056844,1.0,2788.960601015138,0.5294238957466375,1.2854744560533573,0.9818610935089935,0.28421380071403873,0.7401286190721932
0.0675,1.6930338141425663,1.0,2793.3034397240694,0.5320634581768425,1.2848614354623382,0.9820073845810019,0.2841604201939878,0.7412435031452045
0.068,1.691762849379448,1.0,2797.671871531849,0.5346882124577286,1.2842482154248624,0.9821506699180493,0.2841070396739368,0.7423563521294037
0.0685,1.6904918846163297,1.0,2802.0625570021302,0.5372982418673538,1.2836348263664852,0.9822910309439598,0.28405365915388586,0.7434671086481308
0.069,1.6892209198532115,1.0,2806.472146280512,0.5398936296837763,1.2830212987127618,0.9824285463495888,0.28400027863383487,0.7445757158001965
0.0695,1.6879499550900934,1.0,2810.897278991216,0.5424744591850544,1.282407662889248,0.9825632922042596,0.28394689811378393,0.7456821171601813
0.07,1.6866789903269752,1.0,2815.334584153355,0.5450408136492462,1.2817939493214991,0.9826953420619288,0.28389351759373294,0.7467862567786747
0.07050000000000001,1.6854080255638568,1.0,2819.7855127196945,0.5475927548075722,1.2811801452174885,0.9828247637589734,0.283840137073682,0.7478881566819902
0.07100000000000001,1.6841370608007387,1.0,2824.2434975828164,0.5501303892354557,1.280566309474205,0.9829516289144903,0.283786756553631,0.7489877104209969
0.07150000000000001,1.6828660960376205,1.0,2828.706324747713,0.5526537999464407,1.279952461934864,0.9830760036386313,0.28373337603358006,0.7500848821958183
0.07200000000000001,1.681595131274502,1.0,2833.173066439519,0.5551630634930447,1.2793386109047573,0.9831979510158197,0.28367999551352907,0.7511796570720682
0.0725,1.680324166511384,1.0,2837.642791947581,0.5576582564277845,1.2787247646891784,0.9833175321200286,0.28362661499347813,0.752272020245415
0.073,1.6790532017482658,1.0,2842.1145676251745,0.5601394553031779,1.2781109315934194,0.9834348060924492,0.2835732344734272,0.7533619570415829
