Time [s],Phi [rad],STIM [ ],Fsee [N],Gamma [ ],Lcerel [ ],q [ ],Lmtc [m],fisomrel [ ]
0.0,1.8,1.0,17.97637045283357,9.603318959473587e-05,1.379338714267948,0.005002414427283398,0.288653,0.5411420276069517
0.0005,1.79999375,1.0,18.314166751075415,0.00570470382816478,1.3792982329922314,0.013181083696010582,0.2886527375,0.5412399567888104
0.001,1.799975,1.0,21.719724123522198,0.01128191425895855,1.3789279635643312,0.036058292242698756,0.28865195,0.5421351990720309
0.0015,1.79994375,1.0,31.307342217883814,0.016827840949794018,1.3780259566152484,0.07121639610359337,0.2886506375,0.5443124238683875
0.002,1.7999,1.0,54.09318001143359,0.02234265937672264,1.3763350727225379,0.11544525570162156,0.2886488,0.5483798247414611
0.0025,1.79984375,1.0,97.97546398199961,0.027826544032154538,1.3738939839030546,0.16536569776145413,0.28864643749999996,0.5542196709218825
0.003,1.7997750000000001,1.0,162.07141036342156,0.03327966843179669,1.371172745793604,0.21809607827543767,0.28864354999999997,0.5606849259567493
0.0035,1.79969375,1.0,238.9404608505574,0.03870220511487802,1.368546062392297,0.27142397824808656,0.2886401375,0.5668807394615216
0.004,1.7996,1.0,322.80380866633874,0.044094325654748454,1.3661207161300915,0.3237010615085097,0.2886362,0.5725625676670567
0.0045000000000000005,1.7994937500000001,1.0,410.6519940500133,0.04945620066411841,1.3638903481298263,0.37377985877713477,0.2886317375,0.5777545106439853
0.005,1.799375,1.0,500.8257162900963,0.05478799978661224,1.3618283541412362,0.4209447475725825,0.28862675,0.5825262823324113
0.0055,1.79924375,1.0,592.2147963790069,0.06008989173958544,1.3599110228753206,0.4648192507202505,0.2886212375,0.5869389528470678
0.006,1.7991000000000001,1.0,683.9436880967478,0.06536204426836817,1.358120515018912,0.5052732055232844,0.2886152,0.5910385737327464
0.006500000000000001,1.79894375,1.0,775.2986766370191,0.07060462419109745,1.3564430684179458,0.5423431690948164,0.2886086375,0.5948607747984682
0.007,1.798775,1.0,865.6866766309308,0.07581779735946337,1.3548677756927339,0.5761710731137333,0.28860155,0.598433870455649
0.0075,1.79859375,1.0,954.6234225493699,0.08100172883077986,1.3533855578578267,0.6069594463020255,0.2885939375,0.6017814014589051
0.008,1.7984,1.0,1041.7051432388957,0.08615658241633213,1.351988825479667,0.6349405507683586,0.2885858,0.6049230444433817
0.0085,1.79819375,1.0,1126.63648000879,0.09128252147343426,1.3506705287599479,0.6603554558552367,0.2885771375,0.6078768503163858
0.009000000000000001,1.797975,1.0,1209.168351625239,0.09637970801982626,1.349424711546548,0.6834415008899459,0.28856795,0.6106580706652158
0.0095,1.79774375,1.0,1289.1193304849473,0.10144830333264904,1.348245889527334,0.7044242779158224,0.2885582375,0.6132806136075126
0.01,1.7975,1.0,1366.363973162248,0.10648846791335174,1.347129004942115,0.7235135089935054,0.288548,0.6157571872700802
0.0105,1.79724375,1.0,1440.8117233837102,0.11150036082489975,1.3460695283017245,0.7409013124043732,0.2885372375,0.6180991121843811
0.011,1.796975,1.0,1512.430917957049,0.11648414132187736,1.345063012829983,0.7567616648890843,0.28852595000000003,0.6203173379358897
0.0115,1.79669375,1.0,1581.2000275713767,0.12143996712419525,1.3441055947595566,0.7712512212331236,0.2885141375,0.6224213636963387
0.012,1.7964,1.0,1647.104124066287,0.1263679942771611,1.343193910627772,0.7845103216531853,0.28850180000000003,0.6244194505995437
0.0125,1.79609375,1.0,1710.1698668877862,0.13126837882608267,1.342324596971956,0.7966640840246425,0.2884889375,0.6263197395025126
0.013000000000000001,1.7957750000000001,1.0,1770.4452961596849,0.13614127595623152,1.3414944765601453,0.807823906195129,0.28847555,0.6281298548434706
0.0135,1.79544375,1.0,1827.9935775735473,0.14098684074817797,1.340700574705987,0.81808887354581,0.2884616375,0.6298568826371498
0.014,1.7951000000000001,1.0,1882.8614367980958,0.14580522559557613,1.3399404164979025,0.8275471933712693,0.2884472,0.6315067386200018
0.0145,1.79474375,1.0,1935.1166107726217,0.1505965826969107,1.3392115597499545,0.8362772424642269,0.2884322375,0.6330851968494995
0.015,1.794375,1.0,1984.8333474404913,0.15536106350379672,1.33851172518544,0.8443487441933611,0.28841675,0.6345976145152334
0.0155,1.7939939494244375,1.0,2032.1214493500843,0.16009882012840893,1.3378385506282413,0.8518236990653387,0.28840074587582637,0.6360494697366366
0.016,1.7936086822726047,1.0,2077.388749193712,0.16481000244054236,1.3371903186401772,0.8587575253107016,0.28838456465544937,0.6374447991560452
0.0165,1.793223415120772,1.0,2120.8588222564545,0.16949475837572342,1.3365657546663263,0.8651997640386753,0.28836838343507243,0.6387866479141782
0.017,1.7928381479689393,1.0,2162.585547055093,0.17415323586947862,1.335963584151766,0.8711946397498669,0.28835220221469543,0.6400780297318214
0.0175,1.7924528808171065,1.0,2202.6311076845745,0.1787855828573343,1.335382532541575,0.8767816890544918,0.2883360209943185,0.6413219287818861
0.018000000000000002,1.7920676136652738,1.0,2241.0543587275456,0.1833919459188842,1.3348214358295034,0.8819963408152401,0.2883198397739415,0.6425210653988194
0.0185,1.791682346513441,1.0,2277.9189800621866,0.18797247191314848,1.3342791491671162,0.8868703722342547,0.28830365855356455,0.6436780944901431
0.019,1.791297079361608,1.0,2313.2753359445555,0.1925273046476274,1.3337547203070912,0.8914323722905235,0.28828747733318755,0.6447952381145898
0.0195,1.7909118122097754,1.0,2347.178511053541,0.19705658786377983,1.3332472012917298,0.8957080620923259,0.28827129611281055,0.6458746901506037
0.02,1.7905265450579426,1.0,2379.6866505009525,0.20156046495982508,1.3327556608931959,0.8997206233200931,0.2882551148924336,0.6469185910189172
0.0205,1.7901412779061099,1.0,2410.8525849582265,0.206039077649476,1.3322792617289119,0.9034909998632074,0.2882389336720566,0.6479288655130399
0.021,1.7897560107542771,1.0,2440.749865503777,0.21049257158356427,1.3318170040462702,0.9070380931652915,0.2882227524516796,0.6489077673015227
0.021500000000000002,1.7893707436024444,1.0,2469.420915172114,0.21492108561380852,1.3313682233169974,0.9103790860875048,0.28820657123130267,0.6498568258154864
0.022,1.7889854764506117,1.0,2496.911025233861,0.2193247585919272,1.330932255012819,0.9135295615919515,0.28819039001092567,0.6507775592861305
0.0225,1.7886002092987787,1.0,2523.2681615275465,0.2237037293696389,1.330508434605461,0.9165036738477709,0.28817420879054867,0.6516714753018105
0.023,1.788214942146946,1.0,2548.542780581724,0.22805813679866213,1.3300960975666496,0.9193142990485699,0.2881580275701717,0.6525400713369546
0.0235,1.7878296749951132,1.0,2572.7862976731276,0.2323881193429911,1.329694592080844,0.9219731706934632,0.2881418463497948,0.6533848085224676
0.024,1.7874444078432805,1.0,2596.0395786249405,0.23669381252108723,1.3293033844886832,0.9244910148011991,0.2881256651294178,0.6542068908300334
0.0245,1.7870591406914478,1.0,2618.3623513957345,0.24097535757722743,1.328921782398986,0.9268776068525698,0.2881094839090408,0.6550078477789352
0.025,1.786673873539615,1.0,2639.7881475151553,0.24523288769483514,1.3285493532856272,0.9291419327823662,0.28809330268866384,0.6557886557895285
0.025500000000000002,1.786288606387782,1.0,2660.3518373841284,0.24946653605733374,1.3281856646224812,0.9312922259519579,0.28807712146828685,0.6565502855111616
0.026000000000000002,1.7859033392359493,1.0,2680.0895443825793,0.25367643584814664,1.3278302838834233,0.9333360404203477,0.28806094024790985,0.6572937020692414
0.0265,1.7855180720841166,1.0,2699.0385631243885,0.25786272025069723,1.327482778542328,0.9352803161877472,0.2880447590275329,0.6580198653003717
0.027,1.7851328049322839,1.0,2717.237281860071,0.262025522448409,1.3271427160730698,0.9371314373766969,0.2880285778071559,0.6587297299755577
0.0275,1.7847475377804511,1.0,2734.7190097679822,0.2661649730521903,1.3268097193365351,0.9388952914568156,0.28801239658677896,0.6594241305713493
0.028,1.7843622706286184,1.0,2751.5211321788406,0.2702812053228027,1.3264833822222992,0.9405773045977641,0.28799621536640196,0.6601039576935206
0.0285,1.7839770034767857,1.0,2767.680392882648,0.27437435230806206,1.3261633121382217,0.9421824886393473,0.287980034146025,0.6607700695632174
0.029,1.7835917363249527,1.0,2783.2209118998626,0.2784445411731548,1.3258492371555723,0.9437154910830253,0.287963852925648,0.6614230696592206
0.029500000000000002,1.78320646917312,1.0,2798.16739353451,0.28249189908326716,1.3255408853456208,0.9451806127152466,0.287947671705271,0.6620635585726703
0.03,1.7828212020212872,1.0,2812.5450910488707,0.28651655320358554,1.325237984779637,0.9465818379279898,0.2879314904848941,0.6626921341086756
0.0305,1.7824359348694545,1.0,2826.3797729775706,0.29051863069929634,1.3249402635288903,0.947922862027396,0.2879153092645171,0.6633093913832122
0.031,1.7820506677176218,1.0,2839.697691081759,0.29449825873558577,1.3246474496646505,0.9492071158624954,0.2878991280441401,0.6639159229153004
0.0315,1.781665400565789,1.0,2852.525549942221,0.2984555644776403,1.3243592712581875,0.9504377880661409,0.28788294682376314,0.6645123187144691
0.032,1.781280133413956,1.0,2864.8800627313,0.30239066840927276,1.3240755487893399,0.9516178543674267,0.28786676560338614,0.6650989753727303
0.0325,1.7808948662621233,1.0,2876.7947492234016,0.3063037040764329,1.3237959566824666,0.9527500723566419,0.28785058438300914,0.665676589400785
0.033,1.7805095991102906,1.0,2888.288360919495,0.3101947943510408,1.3235203036093437,0.9538370251507275,0.2878344031626322,0.6662455776547134
0.0335,1.7801243319584579,1.0,2899.3768112369685,0.3140640599358253,1.3232484257334172,0.9548811253699154,0.28781822194225526,0.6668062986634806
0.034,1.7797390648066251,1.0,2910.076253421608,0.31791162153351527,1.3229801592181332,0.95588462608115,0.28780204072187826,0.6673591095389967
0.0345,1.7793537976547924,1.0,2920.4030671317514,0.3217375998468396,1.322715340226938,0.9568496332425513,0.28778585950150126,0.6679043660147055
0.035,1.7789685305029597,1.0,2930.3738456175092,0.32554211557852714,1.322453804923278,0.9577781170382244,0.2877696782811243,0.6684424224824638
0.035500000000000004,1.7785832633511267,1.0,2940.0053834950177,0.32932528943130684,1.3221953894705991,0.9586719222139889,0.2877534970607473,0.6689736320277071
0.036000000000000004,1.778197996199294,1.0,2949.3146651163747,0.3330872421079075,1.3219399300323478,0.9595327775125071,0.2877373158403703,0.6694983464629051
0.0365,1.7778127290474612,1.0,2958.3179778909334,0.3368280932921059,1.3216872704172264,0.9603623048355411,0.2877211346199934,0.6700169006744714
0.037,1.7774274618956285,1.0,2967.023544331856,0.34054795445039276,1.3214373261672554,0.9611620318458457,0.2877049533996164,0.6705294813343287
0.0375,1.7770421947437958,1.0,2975.456425412917,0.3442469579265726,1.3211898671625666,0.9619333839037819,0.28768877217923944,0.6710365728064185
0.038,1.776656927591963,1.0,2983.6261735386543,0.34792521743867727,1.3209447997969859,0.9626777100684657,0.28767259095886244,0.6715383784543134
0.0385,1.7762716604401303,1.0,2991.542439175813,0.3515828467047385,1.3207020304643386,0.9633962795126225,0.2876564097384855,0.6720351009440383
0.039,1.7758863932882973,1.0,2999.2149659865177,0.35521995944278806,1.3204614655584501,0.9640902871255168,0.2876402285181085,0.6725269422580686
0.0395,1.7755011261364646,1.0,3006.653586156331,0.35883666937085784,1.320223011473146,0.9647608586647028,0.2876240472977315,0.6730141037087675
0.04,1.7751158589846319,1.0,3013.8682159164155,0.36243309020697956,1.3199865746022514,0.9654090554973784,0.28760786607735456,0.6734967859512684
0.0405,1.7747305918327991,1.0,3020.8688512594754,0.36600933566918503,1.319752061339592,0.9660358789680618,0.28759168485697756,0.6739751889957963
0.041,1.7743453246809664,1.0,3027.665563850799,0.36956551947550603,1.3195193780789936,0.9666422744256797,0.28757550363660056,0.6744495122194298
0.0415,1.7739600575291337,1.0,3034.268497133226,0.3731017553439744,1.319288431214281,0.96722913493992,0.2875593224162236,0.6749199543773067
0.042,1.7735747903773007,1.0,3040.6878626256557,0.3766181569926219,1.31905912713928,0.9677973047338102,0.2875431411958466,0.6753867136132679
0.0425,1.773189523225468,1.0,3046.9257241688833,0.38011482220609566,1.3188314428988026,0.9683475855330119,0.2875269599754696,0.6758498438108023
0.043000000000000003,1.7728042560736352,1.0,3052.9992345355736,0.3835918826940638,1.318605226100025,0.9688807311868745,0.2875107787550927,0.6763096616765051
0.043500000000000004,1.7724189889218025,1.0,3058.914898218839,0.38704944706858246,1.318380416516845,0.9693974592634654,0.28749459753471573,0.6767662958500011
0.044,1.7720337217699698,1.0,3064.6780790262583,0.3904876214626236,1.3181569640572797,0.9698984501618322,0.28747841631433874,0.6772198540237719
0.0445,1.771648454618137,1.0,3070.294175295534,0.39390651200915916,1.3179348186293474,0.9703843490252132,0.28746223509396174,0.6776704435686353
0.045,1.7712631874663043,1.0,3075.7686184155878,0.39730622484116107,1.3177139301410654,0.9708557679140161,0.2874460538735848,0.6781181715380045
0.0455,1.7708779203144713,1.0,3081.106871402039,0.4006868660916012,1.3174942485004515,0.9713132878244009,0.2874298726532078,0.678563144671982
0.046,1.7704926531626386,1.0,3086.3144275298105,0.4040485418934516,1.3172757236155235,0.9717574605648441,0.2874136914328308,0.6790054694012946
0.0465,1.7701073860108059,1.0,3091.3968090201847,0.40739135837968404,1.3170583053942988,0.9721888105019425,0.28739751021245385,0.6794452518510701
0.047,1.7697221188589731,1.0,3096.3595657837345,0.4107154216832705,1.3168419437447954,0.972607836185734,0.28738132899207686,0.6798825978444514
0.0475,1.7693368517071404,1.0,3101.2082742197267,0.41402083793718303,1.3166265885750306,0.9730150118639244,0.2873651477716999,0.6803176129060533
0.048,1.7689515845553077,1.0,3105.948536069585,0.4173077132743934,1.3164121897930223,0.9734107888935754,0.2873489665513229,0.6807504022652564
0.0485,1.768566317403475,1.0,3110.5859773278407,0.42057615382787367,1.316198697306788,0.9737955970581068,0.287332785330946,0.6811810708593438
0.049,1.768181050251642,1.0,3115.118668014562,0.4238262357518015,1.3159861255114313,0.9741698465573227,0.287316604110569,0.6816095933809756
0.0495,1.7677957830998092,1.0,3119.5593105460043,0.4270580999217227,1.3157743643972137,0.9745339277598749,0.287300422890192,0.6820361951196929
0.05,1.7674105159479765,1.0,3123.9117553802535,0.4302718489655816,1.3155633795184667,0.9748882133570631,0.28728424166981503,0.6824609486826664
0.0505,1.7670252487961438,1.0,3128.1786505415216,0.4334675803964845,1.3153531467699882,0.9752330589997511,0.28726806044943803,0.6828839056832472
0.051000000000000004,1.766639981644311,1.0,3132.3626556462873,0.43664539172753764,1.3151436420465759,0.9755688041550571,0.28725187922906104,0.6833051175944505
0.051500000000000004,1.7662547144924783,1.0,3136.4664415075504,0.4398053804718475,1.3149348412430277,0.9758957729854957,0.2872356980086841,0.6837246357500922
0.052000000000000005,1.7658694473406453,1.0,3140.492689751971,0.44294764414252025,1.3147267202541413,0.9762142751728983,0.2872195167883071,0.6841425113458912
0.0525,1.7654841801888126,1.0,3144.4440924503465,0.44607228025266227,1.3145192549747147,0.9765246066910411,0.2872033355679301,0.6845587954405308
0.053,1.7650989130369799,1.0,3148.3233517609065,0.44917938631537996,1.3143124212995452,0.9768270505305828,0.28718715434755315,0.6849735389566876
0.0535,1.7647136458851471,1.0,3152.1331795846045,0.45226905984377963,1.3141061951234312,0.9771218773796494,0.2871709731271762,0.6853867926820185
0.054,1.7643283787333144,1.0,3155.8762972347376,0.45534139835096754,1.31390055234117,0.9774093462631328,0.2871547919067992,0.6857986072701161
0.0545,1.7639431115814816,1.0,3159.5554351184333,0.45839649935005006,1.3136954688475595,0.9776897051435353,0.2871386106864222,0.6862090332414217
0.055,1.763557844429649,1.0,3163.173332431258,0.4614344603541335,1.3134909205373977,0.9779631914859847,0.28712242946604527,0.686618120984104
0.0555,1.763172577277816,1.0,3166.732736864713,0.4644553788763242,1.3132868833054823,0.978230032789828,0.28710624824566827,0.6870259207549017
0.056,1.7627873101259832,1.0,3170.2364043267544,0.4674593524297285,1.313083333046611,0.9784904470890535,0.2870900670252913,0.6874324826799263
0.0565,1.7624020429741505,1.0,3173.687098675267,0.4704464785274527,1.3128802456555815,0.9787446434236023,0.28707388580491433,0.6878378567554304
0.057,1.7620167758223177,1.0,3177.0852882071645,0.4734168343579206,1.3126776164322593,0.9789928215860828,0.28705770458453733,0.688242054152554
0.0575,1.761631508670485,1.0,3180.433093313742,0.47637051914971307,1.3124754267867362,0.9792351744358169,0.28704152336416033,0.6886451136940276
0.058,1.7612462415186523,1.0,3183.735178366461,0.4793076539250045,1.3122736367685668,0.9794718877475606,0.2870253421437834,0.6890471166432819
0.0585,1.7608609743668195,1.0,3186.9927456697806,0.48222832701184587,1.3120722356424535,0.9797031386933142,0.28700916092340645,0.6894480859091869
0.059000000000000004,1.7604757072149866,1.0,3190.2070011623136,0.4851326267382879,1.3118712126730991,0.9799290974557718,0.28699297970302945,0.6898480443425082
0.059500000000000004,1.7600904400631538,1.0,3193.379154325893,0.48802064143238144,1.3116705571252067,0.9801499275587277,0.28697679848265245,0.690247014736171
0.06,1.7597051729113211,1.0,3196.5104180966287,0.49089245942217735,1.311470258263479,0.9803657861793739,0.2869606172622755,0.6906450198255156
0.0605,1.7593199057594884,1.0,3199.602008778487,0.4937481690357265,1.3112703053526187,0.980576824443618,0.2869444360418985,0.6910420822885444
0.061,1.7589346386076556,1.0,3202.655145960128,0.49658785860107973,1.3110706876573284,0.9807831877054629,0.2869282548215215,0.6914382247461635
0.0615,1.758549371455823,1.0,3205.6710524337004,0.4994116164462879,1.3108713944423112,0.9809850158114289,0.28691207360114457,0.691833469762414
0.062,1.7581641043039902,1.0,3208.6509541159426,0.5022195308994019,1.3106724149722697,0.9811824433509225,0.28689589238076757,0.6922278398446998
0.0625,1.7577788371521572,1.0,3211.596079972866,0.5050116902884723,1.3104737385119067,0.9813755998934014,0.28687971116039057,0.6926213574440057
0.063,1.7573935700003245,1.0,3214.507661945929,0.5077881829415503,1.310275354325925,0.9815646102131259,0.28686352994001363,0.6930140449551077
0.0635,1.7570083028484917,1.0,3217.386934881158,0.5105490971866865,1.3100772516790273,0.9817495945022306,0.28684734871963663,0.6934059247167766
0.064,1.756623035696659,1.0,3220.235136461322,0.5132945213519319,1.3098794198359165,0.9819306685728115,0.2868311674992597,0.6937970190119764
0.0645,1.7562377685448263,1.0,3223.053507139449,0.5160245437653371,1.3096818480612953,0.9821079440486642,0.2868149862788827,0.6941873500680511
0.065,1.7558525013929935,1.0,3225.8432900765397,0.5187392527549534,1.3094845256198664,0.9822815285472791,0.28679880505850575,0.6945769400569077
0.0655,1.7554672342411606,1.0,3228.6057310800893,0.5214387366488311,1.3092874417763327,0.9824515258526556,0.28678262383812875,0.6949658110951902
0.066,1.7550819670893278,1.0,3231.3418399895536,0.5241230786064587,1.3090905877883092,0.9826180358346936,0.28676644261775175,0.695353981315936
0.0665,1.754696699937495,1.0,3234.049786928666,0.5267923062969226,1.3088939786443492,0.982781152385692,0.2867502613973748,0.6957414220576033
0.067,1.7543114327856624,1.0,3236.7341115185222,0.5294465890394335,1.3086975761444624,0.9829409727673921,0.2867340801769978,0.6961282094468555
0.0675,1.7539261656338296,1.0,3239.3953220022927,0.5320860054139,1.3085013757910393,0.9830975866177454,0.2867178989566208,0.6965143531091708
0.068,1.753540898481997,1.0,3242.033927785232,0.5347106340002311,1.30830537308647,0.9832510805106904,0.28670171773624387,0.6968998626467238
0.0685,1.7531556313301642,1.0,3244.6504394138906,0.5373205533783352,1.3081095635331448,0.9834015380821594,0.2866855365158669,0.6972847476384407
0.069,1.7527703641783312,1.0,3247.2453685573746,0.5399158421281213,1.307913942633454,0.9835490401500675,0.2866693552954899,0.6976690176400573
0.0695,1.7523850970264985,1.0,3249.8192279881373,0.5424965788294979,1.3077185058897878,0.983693664828608,0.2866531740751129,0.698052682184173
