Time [s],Phi [rad],STIM [ ],Fsee [N],Gamma [ ],Lcerel [ ],q [ ],Lmtc [m],fisomrel [ ]
0.0,1.8,1.0,18.058875750484294,0.0003070706969984487,1.3793294838631136,0.005024459340260567,0.288653,0.5411643580106628
0.0005,1.79999375,1.0,18.463883401220542,0.005914557582068035,1.3792816532021903,0.013785790291690438,0.2886527375,0.5412800623221092
0.001,1.799975,1.0,22.026001131258372,0.011490590899249718,1.3788968641921393,0.037173392262883284,0.28865195,0.542210351739042
0.0015,1.79994375,1.0,31.956304188169376,0.01703534707918747,1.37797116044252,0.07273272323651307,0.2886506375,0.5444445212810421
0.002,1.7999,1.0,55.421691969755216,0.02254900156065913,1.3762498139093051,0.11723458467042996,0.2886488,0.5485844309094812
0.0025,1.79984375,1.0,100.15064672953638,0.0280317287997108,1.3737901990887915,0.1673082217830022,0.28864643749999996,0.554467114365949
0.003,1.7997750000000001,1.0,164.86459906942386,0.033483702275000166,1.3710689988676854,0.22009742536524532,0.28864354999999997,0.5609304785693039
0.0035,1.79969375,1.0,242.07602945367697,0.03890509448945489,1.3684500469675938,0.2734126812498247,0.2886401375,0.567106386765236
0.004,1.7996,1.0,326.12783561672177,0.04429607698030745,1.3660330828918088,0.3256253483960826,0.2886362,0.5727671627191271
0.0045000000000000005,1.7994937500000001,1.0,414.08616216607817,0.04965682032455059,1.3638100386477385,0.3756055931422934,0.2886317375,0.5779408666426371
0.005,1.799375,1.0,504.32339686795,0.05498749413055036,1.361754262718942,0.4226522439449375,0.28862675,0.5826972366220493
0.0055,1.79924375,1.0,595.7391689021124,0.06028826707609506,1.3598423500596029,0.46639971719061313,0.2886212375,0.587096566019076
0.006,1.7991000000000001,1.0,687.4677265213735,0.06555930687645889,1.3580566063915904,0.5067253943419339,0.2886152,0.5911845236586024
0.006500000000000001,1.79894375,1.0,778.7966535060666,0.07080078028994877,1.3563834774065435,0.5436708274540829,0.2886086375,0.5949962277793995
0.007,1.798775,1.0,869.1410366391212,0.0760128532406417,1.3548120773834231,0.5773808920744641,0.28860155,0.5985599162718742
0.0075,1.79859375,1.0,958.0097892400378,0.08119569045993008,1.3533335557816288,0.6080598167415908,0.2885939375,0.6018985917050721
0.008,1.7984,1.0,1045.0290272300417,0.0863494562284837,1.3519399585776093,0.6359402734174707,0.2885858,0.6050327345548172
0.0085,1.79819375,1.0,1129.8782592777345,0.09147431339405618,1.3506246969676325,0.6612636413050507,0.2885771375,0.6079793427179715
0.009000000000000001,1.797975,1.0,1212.313718982435,0.09657042394545093,1.3493817842820865,0.6842668966800332,0.28856795,0.6107537270786529
0.0095,1.79774375,1.0,1292.1729333879878,0.10163794964687257,1.3482055253206058,0.7051749680746511,0.2885582375,0.6133702555363552
0.01,1.7975,1.0,1369.3202051480298,0.10667705057666703,1.347091046535685,0.7241970310925034,0.288548,0.6158412162460556
0.0105,1.79724375,1.0,1443.6672143940837,0.1116878858740842,1.3460338216160648,0.7415245217390255,0.2885372375,0.6181779154903746
0.011,1.796975,1.0,1515.1686417902536,0.11667061405044274,1.345029597724201,0.7573308322172603,0.28852595000000003,0.6203908695608291
0.0115,1.79669375,1.0,1583.8288831608281,0.12162539382423578,1.3440742127823688,0.7717718316729272,0.2885141375,0.6224902299049528
0.012,1.7964,1.0,1649.6347137419662,0.12655238114647405,1.3431643112986642,0.7849872753826302,0.28850180000000003,0.624484232942964
0.0125,1.79609375,1.0,1712.60198498026,0.13145173152143766,1.3422966780859245,0.7971018061240667,0.2884889375,0.6263806893218782
0.013000000000000001,1.7957750000000001,1.0,1772.7779308025836,0.13632360013117206,1.3414681587430979,0.8082263404142088,0.28847555,0.6281871701677249
0.0135,1.79544375,1.0,1830.2279605336023,0.14116814183494814,1.3406757648064527,0.8184595180162242,0.2884616375,0.6299107884998041
0.014,1.7951000000000001,1.0,1885.0116007304978,0.14598550996010437,1.3399168917035313,0.8278891092430529,0.2884472,0.6315577383118933
0.0145,1.79474375,1.0,1937.1839219368426,0.15077585609072858,1.3391892485096724,0.8365932031817078,0.2884322375,0.6331334620390425
0.015,1.794375,1.0,1986.8209403397711,0.1555393318109086,1.338490544300215,0.8446412123446673,0.28841675,0.6346433399851535
0.0155,1.79399375,1.0,2034.0016886319952,0.1602760876517352,1.337818657827395,0.8520949436241163,0.2884007375,0.6360923291571985
0.016,1.7936,1.0,2078.8289503335136,0.1649862752195207,1.3371713946732686,0.8590094192964927,0.2883842,0.6374854930296012
0.0165,1.7931937500000001,1.0,2121.3752245797596,0.16967004270901212,1.336547032838213,0.8654338428036519,0.2883671375,0.6388268325503661
0.017,1.792775,1.0,2161.7135207216647,0.17432753744422233,1.3359439715383616,0.8714121797541247,0.28834955,0.6401200509790577
0.0175,1.7923437500000001,1.0,2199.9277511943756,0.17895890674916418,1.3353606099898476,0.8769837416116567,0.2883314375,0.6413688178164456
0.018000000000000002,1.7919,1.0,2236.1061811622426,0.18356429730358856,1.3347954038717431,0.8821837475049986,0.2883128,0.6425766503391468
0.0185,1.79144375,1.0,2270.339563800983,0.18814385576436138,1.334246873091365,0.8870438038473414,0.2882936375,0.6437468999637912
0.019,1.790975,1.0,2302.712008491269,0.19269772766468032,1.3337136820843156,0.8915923407815968,0.28827395,0.6448825841509194
0.0195,1.79049375,1.0,2333.2908251897757,0.19722605575533508,1.3331947279365457,0.8958549944591729,0.2882537375,0.6459862030462096
0.02,1.79,1.0,2362.149003263844,0.20172898278711543,1.3326889077340063,0.8998548688553819,0.288233,0.6470602381082713
0.0205,1.78949375,1.0,2389.3647387960223,0.20620665151081108,1.3321951185626482,0.903612819975168,0.2882117375,0.6481071530712632
0.021,1.788975,1.0,2415.010887326611,0.21065920309165426,1.3317123551229855,0.9071477255303182,0.28818995000000003,0.6491291883251351
0.021500000000000002,1.78844375,1.0,2439.171729384128,0.21508678076741805,1.3312395420728844,0.9104766676908845,0.2881676375,0.6501287173703629
0.022,1.7879,1.0,2461.9142736557733,0.21948952456944984,1.3307758068533233,0.9136151806625772,0.2881448,0.6511076709200668
0.0225,1.78734375,1.0,2483.2952871430934,0.22386757230278403,1.3303204048913908,0.9165774000108825,0.28812143749999997,0.6520676980624607
0.023,1.786775,1.0,2503.374232244575,0.22822106177245494,1.329872591614176,0.9193761856824586,0.28809755,0.6530104378244486
0.0235,1.78619375,1.0,2522.213042141618,0.23255013078349682,1.3294316224487674,0.9220232547682496,0.28807313749999996,0.653937519549658
0.024,1.7856,1.0,2539.8759084760522,0.23685491714094406,1.3289967528222542,0.9245292988629084,0.2880482,0.6548505632411117
0.0245,1.78499375,1.0,2556.4171962921323,0.2411355552671858,1.328567349789221,0.9269041059612366,0.2880227375,0.6557509459581878
0.025,1.784375,1.0,2571.906727923086,0.24539218537278545,1.3281426518326838,0.9291566134807517,0.28799675,0.656640306276193
0.025500000000000002,1.78374375,1.0,2586.3890225987143,0.2496249403002141,1.3277221498607619,0.9312950500875844,0.2879702375,0.6575197464625011
0.026000000000000002,1.7831000000000001,1.0,2599.9085508263493,0.2538339524967009,1.3273053471415042,0.9333269675102092,0.2879432,0.65839033715746
0.0265,1.78244375,1.0,2612.510940443798,0.25801935440947493,1.3268917469429595,0.9352593036751394,0.2879156375,0.6592531434329723
0.027,1.781775,1.0,2624.242876442213,0.26218127848576545,1.326480852533177,0.9370984408290876,0.28788755,0.6601092249018173
0.0275,1.7810937500000001,1.0,2635.15200625899,0.26631985717280154,1.3260721671802056,0.93885025744953,0.2878589375,0.6609596358112375
0.028,1.7804,1.0,2645.2767959168127,0.2704352192487195,1.325665286988277,0.9405201868532653,0.2878298,0.6618052323049846
0.0285,1.77969375,1.0,2654.6664295104433,0.27452749959502426,1.3252597158932247,0.9421132346442344,0.2878001375,0.6626470574523557
0.029,1.778975,1.0,2663.3606823297127,0.27859682862065893,1.324855051020988,0.943634039255468,0.28776995,0.6634859560782885
0.029500000000000002,1.7782437500000001,1.0,2671.390544547584,0.2826433328409313,1.3244509755769829,0.9450869034663123,0.2877392375,0.6643225907115564
0.03,1.7775,1.0,2678.787481297517,0.2866671387711492,1.3240471727666243,0.9464758133862656,0.287708,0.6651576206057319
0.0305,1.77674375,1.0,2685.5833899954905,0.2906683729266204,1.3236433257953275,0.9478044657785951,0.2876762375,0.6659917017478938
0.031,1.775975,1.0,2691.8105598868037,0.29464716182265277,1.3232391178685081,0.9490762927036822,0.28764395,0.6668254868609333
0.0315,1.7751937500000001,1.0,2697.501633818476,0.29860363197455414,1.3228342321915814,0.9502944837740734,0.2876111375,0.6676596253994647
0.032,1.7744,1.0,2702.6895722362897,0.3025379098976323,1.3224283519699624,0.9514620062785257,0.2875778,0.6684947635393305
0.0325,1.77359375,1.0,2707.404690824926,0.30645012052548615,1.3220211871371699,0.9525816261281943,0.2875439375,0.6693314892690301
0.033,1.772775,1.0,2711.6699077268645,0.3103403872358152,1.3216125173044397,0.9536559291372729,0.28750955,0.6701702446208593
0.0335,1.7719437500000002,1.0,2715.5073869982357,0.3142088324504463,1.3212021307249384,0.9546873284363684,0.2874746375,0.6710114515872436
0.034,1.7711000000000001,1.0,2718.939444914191,0.3180555785075056,1.320789815833179,0.9556780773918039,0.2874392,0.6718555295207752
0.0345,1.7702482292234192,1.0,2722.2069310399256,0.3218807473330821,1.3203753962577498,0.9566302858281212,0.28740342562738364,0.6727028235736282
0.035,1.769396311311374,1.0,2725.687265246134,0.32568446036027965,1.3199589919835177,0.9575459590858335,0.2873676450750777,0.6735530722222297
0.035500000000000004,1.7685443933993286,1.0,2729.3656040030914,0.32946683742601934,1.3195408080566786,0.9584269827453384,0.2873318645227718,0.674405841793638
0.036000000000000004,1.7676924754872834,1.0,2733.220278657601,0.33322799817513865,1.319121044898911,0.9592751225648212,0.2872960839704659,0.6752607101486837
0.0365,1.766840557575238,1.0,2737.2309268169543,0.3369680617614362,1.3186998906742795,0.9600920326006466,0.28726030341816,0.6761172821562573
0.037,1.7659886396631927,1.0,2741.3788326608615,0.34068714688723817,1.3182775181893764,0.960879263185727,0.2872245228658541,0.6769751958393213
0.0375,1.7651367217511473,1.0,2745.648813163248,0.3443853706995431,1.3178540678093906,0.9616382666272928,0.2871887423135482,0.6778341568144877
0.038,1.7642848038391021,1.0,2750.0258481305937,0.3480628502434768,1.3174296780650037,0.9623704075960376,0.2871529617612423,0.6786938759041714
0.0385,1.7634328859270567,1.0,2754.4958825316894,0.35171970211836284,1.3170044783717463,0.9630769686187216,0.28711718120893637,0.6795540838401054
0.039,1.7625809680150115,1.0,2759.0464590455176,0.3553560421931706,1.3165785833246648,0.9637591553014374,0.28708140065663046,0.6804145426662891
0.0395,1.761729050102966,1.0,2763.6671917959534,0.35897198506076783,1.3161520884615578,0.9644181012297467,0.28704562010432455,0.6812750540860819
0.04,1.760877132190921,1.0,2768.3505149772755,0.3625676419104443,1.3157250635720872,0.9650548719787577,0.28700983955201864,0.6821354726798518
0.0405,1.7600252142788755,1.0,2773.087269580652,0.3661431259388299,1.315297592595664,0.9656704743061442,0.28697405899971273,0.6829956253296514
0.041,1.7591732963668303,1.0,2777.8600057823196,0.36969856157639985,1.3148698339000906,0.9662658669044644,0.2869382784474069,0.683855190369035
0.0415,1.7583213784547849,1.0,2782.664239786105,0.37323405815640887,1.31444182859134,0.9668419425579923,0.28690249789510097,0.6847140830106326
0.042,1.7574694605427397,1.0,2787.4954724757963,0.37674972501211185,1.314013617775385,0.9673995451365538,0.28686671734279506,0.685572218914587
0.0425,1.7566175426306943,1.0,2792.3491892087213,0.3802456714767636,1.3135852425581989,0.9679394727787103,0.28683093679048915,0.6864295141891441
0.043000000000000003,1.7557656247186488,1.0,2797.220859647311,0.38372200688361885,1.3131567440457546,0.9684624808366746,0.28679515623818325,0.6872858853911409
0.043500000000000004,1.7549137068066036,1.0,2802.1059376279723,0.38717884056593255,1.3127281633440253,0.9689692846030228,0.28675937568587734,0.6881412495263796
0.044,1.7540617888945582,1.0,2806.999861067611,0.3906162818569594,1.3122995415589842,0.9694605618373996,0.28672359513357143,0.6889955240498989
0.0445,1.753209870982513,1.0,2811.8980519072293,0.39403444008995436,1.311870919796604,0.9699369551097335,0.2866878145812656,0.6898486268661357
0.045,1.7523579530704676,1.0,2816.795916093244,0.39743342459817216,1.3114423391628582,0.9703990739749652,0.28665203402895967,0.690700476328977
0.0455,1.7515060351584224,1.0,2821.6888435963765,0.4008133447148676,1.3110138407637197,0.9708474969929399,0.28661625347665376,0.6915509912417079
0.046,1.750654117246377,1.0,2826.577234890705,0.40417429452323667,1.3105854208082814,0.971282768174934,0.28658047292434785,0.6924001797874451
0.0465,1.7498021993343318,1.0,2831.4540287425607,0.4075163999293809,1.3101571421108915,0.9717054136896748,0.28654469237204194,0.6932479183597074
0.047,1.7489502814222864,1.0,2836.3173125811186,0.41083976628256835,1.309729021360805,0.9721159276251969,0.28650891181973603,0.6940941751494834
0.0475,1.7480983635102412,1.0,2841.166107751382,0.4141444955253683,1.3093010668709986,0.9725147789426011,0.2864731312674301,0.6949389350524939
0.048,1.7472464455981958,1.0,2845.999432589997,0.4174306896003497,1.3088732869544484,0.9729024139815168,0.2864373507151242,0.6957821830547035
0.0485,1.7463945276861506,1.0,2850.8163024568616,0.4206984504500817,1.3084456899241308,0.9732792577617457,0.2864015701628183,0.6966239042322289
0.049,1.7455426097741051,1.0,2855.6157297678,0.42394788001713335,1.3080182840930226,0.9736457151984299,0.2863657896105124,0.6974640837512438
0.0495,1.74469069186206,1.0,2860.3967240292714,0.4271790802440738,1.3075910777740998,0.9740021722372358,0.2863300090582065,0.6983027068678818
0.05,1.7438387739500145,1.0,2865.158291874141,0.4303921530734721,1.3071640792803394,0.9743489969154924,0.2862942285059006,0.6991397589281294
0.0505,1.7429868560379693,1.0,2869.899437099588,0.43358720044789745,1.3067372969247173,0.9746865403547494,0.2862584479535947,0.6999752253677227
0.051000000000000004,1.742134938125924,1.0,2874.61916070574,0.43676432430991874,1.3063107390202104,0.9750151376897574,0.2862226674012888,0.7008090917120298
0.051500000000000004,1.7412830202138787,1.0,2879.3164609364435,0.4399236266021052,1.305884413879795,0.9753351089384757,0.2861868868489829,0.7016413435759385
0.052000000000000005,1.7404311023018333,1.0,2883.9903333216334,0.4430652092670259,1.3054583298164473,0.9756467598173397,0.286151106296677,0.7024719666637326
0.0525,1.739579184389788,1.0,2888.641834527693,0.4461891402160642,1.3050324769079786,0.9759503777959961,0.2861153257443711,0.7033009822429321
0.053,1.7387272664777427,1.0,2893.269187591637,0.4492955536086481,1.3046068702844111,0.9762462462102562,0.2860795451920652,0.7041283628046426
0.0535,1.7378753485656973,1.0,2897.871607453219,0.45238456040582953,1.304181516280628,0.9765346330891784,0.2860437646397593,0.7049540980651086
0.054,1.737023430653652,1.0,2902.4492524844886,0.4554562535775915,1.3037564128990522,0.9768157925979964,0.28600798408745337,0.7057781939499379
0.0545,1.7361715127416066,1.0,2907.0022821925977,0.4585107260939171,1.303331558142107,0.9770899680758278,0.28597220353514746,0.7066006563618672
0.055,1.7353195948295614,1.0,2911.530857208808,0.4615480709247891,1.3029069500122152,0.977357392587692,0.2859364229828416,0.7074214911807951
0.0555,1.734467676917516,1.0,2916.0351392773587,0.46456838104019066,1.3024825865118004,0.9776182894439379,0.2859006424305357,0.7082407042638112
0.056,1.7336157590054708,1.0,2920.51529124489,0.4675717494101047,1.3020584656432856,0.977872872689258,0.2858648618782298,0.7090583014452297
0.0565,1.7327638410934254,1.0,2924.971477049449,0.47055826900451414,1.3016345854090938,0.9781213475633079,0.2858290813259239,0.7098742885366203
0.057,1.7319119231813802,1.0,2929.4038617097567,0.47352803279340194,1.3012109438116481,0.9783639109347981,0.285793300773618,0.7106886713268372
0.0575,1.7310600052693348,1.0,2933.8126113146604,0.47648113374675116,1.300787538853372,0.9786007517107874,0.28575752022131207,0.711501455582051
0.058,1.7302080873572896,1.0,2938.1978930127116,0.47941766483454473,1.3003643685366884,0.9788320512227875,0.28572173966900616,0.7123126470457796
0.0585,1.7293561694452442,1.0,2942.559875001559,0.4823377190267656,1.2999414308640203,0.9790579835911613,0.28568595911670025,0.7131222514389164
0.059000000000000004,1.728504251533199,1.0,2946.898726517636,0.4852413892933967,1.299518723837791,0.9792787160692065,0.28565017856439434,0.7139302744597611
0.059500000000000004,1.7276523336211536,1.0,2951.214617825934,0.4881287686044211,1.2990962454604238,0.979494409368199,0.28561439801208843,0.7147367217840495
0.06,1.7268004157091084,1.0,2955.507720209968,0.4909999499298217,1.2986739937343417,0.9797052179645991,0.2855786174597825,0.7155415990649823
0.0605,1.725948497797063,1.0,2959.7782059614224,0.49385502623958155,1.2982519666619676,0.9799112903905253,0.2855428369074766,0.7163449119332543
0.061,1.7250965798850177,1.0,2964.0262483703605,0.4966940905036835,1.2978301622457251,0.9801127695085322,0.28550705635517076,0.7171466659970824
0.0615,1.7242446619729723,1.0,2968.251975638371,0.49951722680010674,1.2974085788896603,0.980309792108042,0.28547127580286485,0.7179468660804614
0.062,1.7233927440609271,1.0,2972.4555827891636,0.5023244813578419,1.2969872144231718,0.9805024869570329,0.28543549525055895,0.7187455180776945
0.0625,1.7225408261488817,1.0,2976.6379118251043,0.5051160151909148,1.2965660610532148,0.9806909863893252,0.28539971469825304,0.7195426384929238
0.063,1.7216889082368363,1.0,2980.799239003273,0.5078919112441522,1.2961451159321475,0.9808754122358534,0.28536393414594713,0.7203382344054046
0.0635,1.720836990324791,1.0,2984.9398417864777,0.5106522524623818,1.2957243762123278,0.9810558818746177,0.2853281535936412,0.721132312862977
0.064,1.7199850724127457,1.0,2989.0599988299255,0.5133971217904305,1.2953038390461131,0.9812325084263614,0.2852923730413353,0.7219248808821024
0.0645,1.7191331545007005,1.0,2993.1599899684106,0.5161266021731257,1.2948835015858617,0.9814054009402648,0.2852565924890294,0.7227159454478989
0.065,1.718281236588655,1.0,2997.240096203684,0.5188407765552945,1.294463360983931,0.9815746645702368,0.2852208119367235,0.7235055135141808
0.0655,1.7174293186766099,1.0,3001.3005996918323,0.5215397278817642,1.2940434143926791,0.9817404007423411,0.28518503138441764,0.7242935920034923
0.066,1.7165774007645644,1.0,3005.341783730836,0.5242235390973619,1.2936236589644636,0.9819027073138673,0.28514925083211173,0.725080187807144
0.0665,1.7157254828525192,1.0,3009.3639327487185,0.5268922931469149,1.2932040918516425,0.9820616787245178,0.2851134702798058,0.7258653077852473
0.067,1.7148735649404738,1.0,3013.367332291328,0.5295460729752505,1.2927847102065735,0.982217406140155,0.2850776897274999,0.72664895876675
0.0675,1.7140216470284286,1.0,3017.3522690106365,0.5321849615271957,1.2923655111816146,0.9823699775895254,0.285041909175194,0.7274311475494681
0.068,1.7131697291163832,1.0,3021.3190306530573,0.5348090417475779,1.2919464919291235,0.9825194780943497,0.2850061286228881,0.7282118809001219
0.0685,1.712317811204338,1.0,3025.2679060480687,0.5374183965812244,1.2915276496014578,0.9826659897931467,0.2849703480705822,0.7289911655543675
0.069,1.7114658932922926,1.0,3029.1991850968525,0.5400131089729622,1.2911089813509757,0.9828095920591293,0.2849345675182763,0.729769008216828
0.0695,1.7106139753802474,1.0,3033.113158761352,0.5425932618676186,1.2906904843300349,0.9829503616125025,0.2848987869659704,0.7305454155611281
0.07,1.709762057468202,1.0,3037.010119053266,0.5451589382100208,1.2902721556909933,0.9830883726274579,0.28486300641366447,0.7313203942299227
0.07050000000000001,1.7089101395561568,1.0,3040.8903590234318,0.5477102209449962,1.2898539925862085,0.9832236968341553,0.28482722586135856,0.7320939508349305
0.07100000000000001,1.7080582216441114,1.0,3044.7541727510784,0.5502471930173717,1.2894359921680383,0.9833564036159552,0.28479144530905265,0.7328660919569621
