Time [s],Phi [rad],STIM [ ],Fsee [N],Gamma [ ],Lcerel [ ],q [ ],Lmtc [m],fisomrel [ ]
0.0,1.8,1.0,18.268135622338853,0.0005585841756054486,1.379306166722195,0.005080546093042781,0.288653,0.5412207649442422
0.0005,1.79999375,1.0,18.748565847632868,0.0061646602689634285,1.3792503115335502,0.01453341925823265,0.2886527375,0.5413558711789068
0.001,1.799975,1.0,22.497355879215167,0.011739290707837847,1.3788494222569943,0.03852434177138414,0.28865195,0.5423249848709875
0.0015,1.79994375,1.0,32.84765485583375,0.017282651878381402,1.377896796831288,0.07455545509786485,0.2886506375,0.5446237593898349
0.002,1.7999,1.0,57.14245842424546,0.022794919175435382,1.37614088655744,0.1193761765735138,0.2886488,0.548845769961043
0.0025,1.79984375,1.0,102.88159731311728,0.028276267010503283,1.3736614798292905,0.16962709854980407,0.28864643749999996,0.5547739110069665
0.003,1.7997750000000001,1.0,168.30459614189994,0.033726868820178474,1.370942427982736,0.22248267091244037,0.28864354999999997,0.5612299589358186
0.0035,1.79969375,1.0,245.90140739699768,0.03914689706310224,1.3683337468401071,0.27578011147763376,0.2886401375,0.5673796267178823
0.004,1.7996,1.0,330.1633238885879,0.044536523233032865,1.3659272910347249,0.327914111440002,0.2886362,0.5730140869770018
0.0045000000000000005,1.7994937500000001,1.0,418.2440064389515,0.04989591786150854,1.3637132500647438,0.3777757314971607,0.2886317375,0.5781654072938176
0.005,1.799375,1.0,508.5452689392177,0.0552252505020578,1.3616651721319195,0.4246809488033416,0.28862675,0.5829027527639957
0.0055,1.79924375,1.0,599.9943496424877,0.06052468985621284,1.3597597074783823,0.46827678050629534,0.2886212375,0.58728620176999
0.006,1.7991000000000001,1.0,691.712663858583,0.06579440349782474,1.3579798413239288,0.5084497665031663,0.2886152,0.5913597997630573
0.006500000000000001,1.79894375,1.0,783.0109816141199,0.07103455822438914,1.3563118602052897,0.5452470398968341,0.2886086375,0.5951589868528255
0.007,1.798775,1.0,873.3016027487197,0.0762453198427426,1.3547451389001794,0.5788170522630179,0.28860155,0.5987113725340957
0.0075,1.79859375,1.0,962.0930239880098,0.0814268530710894,1.3532709744603786,0.6093659262145391,0.2885939375,0.6020396001397148
0.008,1.7984,1.0,1049.024877164693,0.08657932227274276,1.351881315356768,0.6371269881126274,0.2885858,0.6051643491798178
0.0085,1.79819375,1.0,1133.7716787528461,0.09170289004847024,1.350569739197878,0.6623417289777808,0.2885771375,0.6081022256337113
0.009000000000000001,1.797975,1.0,1216.0960964553226,0.09679771846831993,1.3493302369270341,0.6852466937638244,0.28856795,0.6108685764301729
0.0095,1.79774375,1.0,1295.8394117480163,0.10186396923616646,1.348157122748666,0.7060661577368159,0.2885582375,0.613477735584727
0.01,1.7975,1.0,1372.86729527506,0.10690180233522277,1.3470455554693792,0.7250085379423605,0.288548,0.6159419082555806
0.0105,1.79724375,1.0,1447.0924273234443,0.11191137695732553,1.3459910373550203,0.7422644715819664,0.2885372375,0.618272328029327
0.011,1.796975,1.0,1518.4749461165022,0.11689285163543835,1.3449892830654602,0.7580065332811116,0.28852595000000003,0.6204795745216193
0.0115,1.79669375,1.0,1587.0125210163337,0.1218463848337586,1.344036242936826,0.7723898841085777,0.2885141375,0.6225735444703866
0.012,1.7964,1.0,1652.6913849551784,0.12677213242090152,1.3431285888541025,0.7855535819843773,0.28850180000000003,0.62456240915495
0.0125,1.79609375,1.0,1715.535445712537,0.13167025011605998,1.3422630305254242,0.797621591165417,0.2884889375,0.6264541388251039
0.013000000000000001,1.7957750000000001,1.0,1775.5865698202313,0.13654089284383092,1.341436493398265,0.8087042803040583,0.28847555,0.6282561255608947
0.0135,1.79544375,1.0,1832.9226660313934,0.14138421606402396,1.3406458637643008,0.8188997202193511,0.2884616375,0.6299757509575045
0.014,1.7951000000000001,1.0,1887.5924895159437,0.1462003722362098,1.3398886720890644,0.8282952711944185,0.2884472,0.6316189113059072
0.0145,1.79474375,1.0,1939.652834439965,0.1509895130715651,1.339162618621679,0.8369686076222546,0.2884322375,0.6331910654645585
0.015,1.794375,1.0,1989.181408223689,0.1557517902812664,1.338465403611268,0.8449887757111734,0.28841675,0.6346976101985379
0.0155,1.79399375,1.0,2036.2568037550545,0.16048735456707894,1.337794918953445,0.8524172664722267,0.2884007375,0.6361434717131235
0.016,1.7936,1.0,2080.983107329173,0.16519635713600803,1.3371489639701462,0.8593088166024638,0.2883842,0.6375337247890851
0.0165,1.7931937500000001,1.0,2123.431546732662,0.1698789460416041,1.3365258363174846,0.8657123859780961,0.2883671375,0.638872326182454
0.017,1.792775,1.0,2163.6765033540482,0.17453526879723807,1.335923926531599,0.8716717173975376,0.28834955,0.6401629961211508
0.0175,1.7923437500000001,1.0,2201.8032480164607,0.17916547291628077,1.335341625148628,0.8772259258238997,0.2883314375,0.6414094210544548
0.018000000000000002,1.7919,1.0,2237.894308205321,0.1837697047640942,1.334777450222248,0.8824100756704137,0.2883128,0.6426149834907214
0.0185,1.79144375,1.0,2272.048286772841,0.1883481117358088,1.3342298463344875,0.8872556012233919,0.2882936375,0.6437831945766099
0.019,1.790975,1.0,2304.3380625893806,0.19290083780182624,1.3336975932008226,0.8917908265720289,0.28827395,0.6449168249106452
0.0195,1.79049375,1.0,2334.835097218455,0.19742802615470204,1.3331795485260507,0.8960412574470198,0.2882537375,0.6460184580483962
0.02,1.79,1.0,2363.616623779648,0.20192981998699167,1.332674570014969,0.9000298822630114,0.288233,0.6470906583716695
0.0205,1.78949375,1.0,2390.760547158093,0.2064063617716813,1.3321815601597062,0.9037774641189128,0.2882117375,0.6481358771998198
0.021,1.788975,1.0,2416.345434787971,0.2108577939684694,1.33169946070129,0.907302786399452,0.28818995000000003,0.6491564661048259
0.021500000000000002,1.78844375,1.0,2440.4488792862307,0.215284258764421,1.3312272634057645,0.9106228712520957,0.2881676375,0.6501546555380368
0.022,1.7879,1.0,2463.1288027283117,0.2196858946355481,1.3307641842001712,0.9137532031549681,0.2881448,0.6511321889362094
0.0225,1.78734375,1.0,2484.446142107065,0.22406284005786264,1.330309439011551,0.9167078488125888,0.28812143749999997,0.6520907987878649
0.023,1.786775,1.0,2504.4645995021506,0.22841523350737655,1.3298622437669454,0.9194996065921203,0.28809755,0.653032207069631
0.0235,1.78619375,1.0,2523.2504058801005,0.2327432134601018,1.3294218143933954,0.9221401384426875,0.28807313749999996,0.6539581256433782
0.024,1.7856,1.0,2540.82825147287,0.23704691508612932,1.3289877799018237,0.9246401602819424,0.2880482,0.654869389908384
0.0245,1.78499375,1.0,2557.3468491375534,0.2413264793214163,1.3285586190133822,0.9270092616107479,0.2880227375,0.6557692406633264
0.025,1.7843750402490461,1.0,2572.820653472975,0.24558203959750866,1.3281341128031579,0.9292564433063275,0.2879967516904599,0.6566581760678715
0.025500000000000002,1.7837510433572918,1.0,2587.606646599093,0.24981372914881875,1.3277140751511962,0.9313899571135408,0.2879705438210063,0.6575366229202683
0.026000000000000002,1.7831270464655375,1.0,2601.9749879597803,0.25402168120975904,1.3272983199375434,0.9334173731038629,0.28794433595155255,0.6584050056315736
0.0265,1.7825030495737832,1.0,2615.9419076472627,0.2582060290147418,1.3268866610422452,0.9353456451570651,0.2879181280820989,0.6592637462775903
0.027,1.781879052682029,1.0,2629.5239651610173,0.2623669057981796,1.3264789123453473,0.9371811693600424,0.2878919202126452,0.6601132646485939
0.0275,1.7812550557902747,1.0,2642.7349437947682,0.2665044438093673,1.3260749162627947,0.93892984005435,0.2878657123431915,0.6609539189547557
0.028,1.7806310588985204,1.0,2655.5799995818084,0.2706187742145643,1.3256745971744333,0.940597103855146,0.28783950447373785,0.6617858952655313
0.0285,1.780007062006766,1.0,2668.068712908956,0.2747100264503618,1.3252778403530063,0.9421879824145577,0.2878132966042842,0.6626094597426152
0.029,1.7793830651150118,1.0,2680.211236006551,0.2787783296151157,1.3248845276898187,0.9437071164002029,0.2877870887348305,0.6634248841446538
0.029500000000000002,1.7787590682232575,1.0,2692.0160573934936,0.28282380812297864,1.3244945581115803,0.9451588005059641,0.2877608808653768,0.6642324035585785
0.03,1.7781350713315032,1.0,2703.4921434314338,0.28684658611864816,1.3241078277591134,0.9465470127276722,0.28773467299592315,0.665032257606087
0.0305,1.7775110744397489,1.0,2714.6577742461127,0.29084681049589617,1.3237241494142429,0.9478754390035653,0.28770846512646947,0.6658248567794163
0.031,1.7768870775479946,1.0,2725.5214855165914,0.29482460367635466,1.3233434266226018,0.9491475044702354,0.2876822572570158,0.6666104223850577
0.0315,1.7762630806562403,1.0,2736.091956924551,0.2987800880816555,1.3229655629298236,0.9503663922553605,0.28765604938756206,0.6673891746218819
0.032,1.775639083764486,1.0,2746.378005937717,0.3027133861334306,1.3225904618815407,0.9515350635731448,0.28762984151810844,0.668161332599025
0.0325,1.7750150868727317,1.0,2756.3885817973514,0.3066246202533118,1.3222180270233868,0.9526562759190532,0.2876036336486547,0.6689271143531761
0.033,1.7743910899809774,1.0,2766.132759714982,0.310513912862931,1.321848161900994,0.9537325995639943,0.28757742577920103,0.669686736865279
0.0335,1.773767093089223,1.0,2775.6197352723684,0.3143813863839202,1.3214807700599964,0.9547664325250472,0.28755121790974736,0.6704404160766317
0.034,1.7731430961974688,1.0,2784.8588190300143,0.31822716323791134,1.3211157550460262,0.9557600141696498,0.2875250100402937,0.6711883669044021
0.0345,1.7725190993057145,1.0,2793.8594313407657,0.32205136584653615,1.3207530204047166,0.9567154375924476,0.28749880217084,0.6719308032565415
0.035,1.7718951024139602,1.0,2802.63109737011,0.32585411663142666,1.3203924696817009,0.9576346608884583,0.28747259430138633,0.6726679380461109
0.035500000000000004,1.7712711055222057,1.0,2811.183442322579,0.3296355380142148,1.3200340064226117,0.9585195174325338,0.28744638643193265,0.6733999832050119
0.036000000000000004,1.7706471086304514,1.0,2819.523236733564,0.33339574533150673,1.319677560557176,0.9593717263352687,0.2874201785624789,0.6741270959062917
0.0365,1.770023111738697,1.0,2827.6597086493034,0.33713486111758506,1.319323040730093,0.9601928994086999,0.2873939706930253,0.6748494759530845
0.037,1.7693991148469428,1.0,2835.60334669462,0.34085301096579795,1.3189703450968424,0.9609845491324702,0.28736776282357157,0.6755673435867388
0.0375,1.7687751179551885,1.0,2843.3601399007857,0.34455030918875895,1.318619412660127,0.9617480977932459,0.2873415549541179,0.6762808350641446
0.038,1.7681511210634342,1.0,2850.9361358578903,0.34822687009908154,1.3182701824226488,0.9624848824810812,0.2873153470846642,0.6769900860352482
0.0385,1.76752712417168,1.0,2858.3374383713717,0.3518828080093792,1.317922593387111,0.9631961611316234,0.28728913921521054,0.6776952315497884
0.039,1.7669031272799256,1.0,2865.5702052015045,0.3555182372322656,1.317576584556216,0.9638831180765471,0.28726293134575687,0.678396406063803
0.0395,1.7662791303881713,1.0,2872.640645884879,0.35913327208035417,1.3172320949326666,0.9645468691471322,0.2872367234763032,0.6790937434458917
0.04,1.765655133496417,1.0,2879.555019638715,0.3627280268662585,1.3168890635191652,0.9651884663713723,0.2872105156068495,0.6797873769832476
0.0405,1.7650311366046627,1.0,2886.3196333473875,0.36630261590259205,1.3165474293184145,0.9658089023009776,0.28718430773739584,0.680477439387447
0.041,1.7644071397129084,1.0,2892.940839631659,0.36985715350196846,1.3162071313331174,0.9664091140010341,0.28715809986794216,0.6811640628000021
0.0415,1.7637831428211541,1.0,2899.425035000398,0.3733917539770012,1.3158681085659765,0.9669899867318866,0.2871318919984885,0.6818473787976802
0.042,1.7631591459293998,1.0,2905.775805721932,0.37690652229947047,1.3155303251478703,0.9675523578941105,0.2871056841290348,0.6825274678318854
0.0425,1.7625351490376455,1.0,2912.0007321656562,0.38040157927664003,1.315193710309224,0.9680970193499563,0.2870794762595811,0.6832044801706155
0.043000000000000003,1.7619111521458912,1.0,2918.1053456706745,0.38387703810082147,1.3148582116790108,0.9686247208371377,0.28705326839012746,0.6838785285022169
0.043500000000000004,1.761287155254137,1.0,2924.093431723117,0.38733300575165064,1.3145237925123343,0.9691361726963863,0.2870270605206737,0.6845496936978893
0.044,1.7606631583623826,1.0,2929.968800884862,0.3907695892087635,1.3141904160642979,0.9696320480996368,0.28700085265122005,0.6852180562925492
0.0445,1.7600391614706283,1.0,2935.7352879280547,0.39418689545179597,1.3138580455900044,0.9701129853632787,0.2869746447817664,0.6858836964873174
0.045,1.759415164578874,1.0,2941.3967510009934,0.39758503146038404,1.3135266443445575,0.9705795900954853,0.2869484369123127,0.6865466941519177
0.0455,1.7587911676871197,1.0,2946.957070823675,0.40096410421416356,1.31319617558306,0.971032437191021,0.286922229042859,0.6872071288269934
0.046,1.7581671707953654,1.0,2952.4201499127685,0.4043242206927705,1.3128666025606153,0.971472072685751,0.28689602117340535,0.687865079726333
0.0465,1.7575431739036111,1.0,2957.7899118372397,0.40766548787584084,1.3125378885323267,0.971899015481973,0.28686981330395167,0.6885206257390146
0.047,1.7569191770118568,1.0,2963.070300503326,0.41098801274301044,1.3122099967532976,0.9723137589547247,0.286843605434498,0.6891738454314601
0.0475,1.7562951801201026,1.0,2968.2652794700034,0.41429190227391527,1.3118828904786308,0.97271677244833,0.2868173975650443,0.6898248170494081
0.048,1.7556711832283483,1.0,2973.3732980361665,0.4175772308685787,1.3115565811519212,0.9731085019608299,0.28679118969559064,0.690473522770811
0.0485,1.755047186336594,1.0,2978.4042094519823,0.4208441445006229,1.3112309809819689,0.9734893742485884,0.28676498182613697,0.6911201418271726
0.049,1.7544231894448397,1.0,2983.361036542772,0.4240927476954799,1.3109060618913724,0.9738597948150278,0.28673877395668323,0.6917647343086675
0.0495,1.7537991925530854,1.0,2988.2458015413044,0.42732313884564,1.310581804615886,0.9742201500485028,0.2867125660872296,0.6924073426069505
0.05,1.753175195661331,1.0,2993.060536903319,0.43053541634359344,1.310258189891264,0.9745708084402197,0.2866863582177759,0.6930480089457793
0.0505,1.7525511987695768,1.0,2997.80728503014,0.43372967858183065,1.3099351984532603,0.974912121573731,0.2866601503483222,0.6936867753818181
0.051000000000000004,1.7519272018778225,1.0,3002.488097997311,0.43690602395284184,1.3096128110376295,0.9752444250511892,0.28663394247886853,0.6943236838054119
0.051500000000000004,1.7513032049860682,1.0,3007.105037293112,0.44006455084911744,1.3092910083801257,0.9755680393609336,0.28660773460941485,0.6949587759413426
0.052000000000000005,1.7506792080943139,1.0,3011.660173564309,0.4432053576631476,1.3089697712165032,0.9758832706906073,0.2865815267399612,0.695592093349559
0.0525,1.7500552112025596,1.0,3016.155586370849,0.4463285427874228,1.3086490802825161,0.9761904116896744,0.2865553188705075,0.696223677425883
0.053,1.7494312143108053,1.0,3020.5933639481673,0.44943420461443323,1.308328916313919,0.9764897421848983,0.2865291110010538,0.6968535694026926
0.0535,1.748807217419051,1.0,3024.9756029781356,0.45252244153666926,1.3080092600464657,0.9767815298520621,0.28650290313160015,0.6974818103495812
0.054,1.7481832205272967,1.0,3029.3044083680647,0.4555933519466212,1.3076900922159105,0.9770660308469633,0.2864766952621465,0.698108441173994
0.0545,1.7475592236355424,1.0,3033.581893037868,0.4586470342367794,1.307371393558008,0.9773434903984723,0.28645048739269274,0.6987335026218373
0.055,1.746935226743788,1.0,3037.810177716004,0.46168358679963406,1.307053144808512,0.9776141433662405,0.2864242795232391,0.6993570352780705
0.0555,1.7463112298520338,1.0,3041.9913907422997,0.4647031080276756,1.3067353267031772,0.9778782147654427,0.2863980716537854,0.6999790795672678
0.056,1.7456872329602793,1.0,3046.127667880939,0.4677056963133943,1.3064179199777575,0.9781359202607584,0.2863718637843317,0.7005996757541602
0.0565,1.745063236068525,1.0,3050.217099170316,0.47069140291687417,1.3061009402173998,0.9783874643822108,0.28634565591487804,0.7012187959120659
0.057,1.7444392391767707,1.0,3054.26533133231,0.4736603785435164,1.3057843380426395,0.9786330485349765,0.28631944804542436,0.7018365389280128
0.0575,1.7438152422850164,1.0,3058.273837726407,0.47661271864171584,1.3054681000510577,0.9788728630509501,0.2862932401759707,0.70245293319897
0.058,1.743191245393262,1.0,3062.2435594798817,0.4795485119203685,1.3051522174505121,0.9791070903033168,0.286267032306517,0.7030679980390158
0.0585,1.7425672485015078,1.0,3066.1754412312985,0.4824678470883704,1.3048366814488606,0.9793359054222369,0.28624082443706333,0.7036817526889219
0.059000000000000004,1.7419432516097535,1.0,3070.0704310622264,0.4853708128546176,1.30452148325396,0.9795594766396651,0.28621461656760966,0.7042942163163526
0.059500000000000004,1.7413192547179992,1.0,3073.92948043029,0.4882574979280061,1.3042066140736681,0.9797779656151373,0.286188408698156,0.7049054080160535
0.06,1.740695257826245,1.0,3077.7535441041405,0.4911279910174319,1.3038920651158428,0.9799915277437159,0.28616220082870225,0.7055153468100395
0.0605,1.7400712609344906,1.0,3081.5435801008025,0.4939823808317911,1.3035778275883412,0.9802003124472035,0.28613599295924863,0.7061240516477787
0.061,1.7394472640427363,1.0,3085.300549622856,0.4968207560799797,1.3032638926990212,0.980404463449655,0.2861097850897949,0.7067315414063666
0.0615,1.738823267150982,1.0,3089.0254170001517,0.49964320547089375,1.3029502516557399,0.9806041190381459,0.2860835772203412,0.7073378348907012
0.062,1.7381992702592277,1.0,3092.7191496303126,0.5024498177134293,1.3026368956663552,0.9807994123096976,0.28605736935088755,0.7079429508336468
0.0625,1.7375752733674734,1.0,3096.3827179230793,0.5052406815164823,1.3023238159387245,0.980990471405185,0.28603116148143387,0.7085469078961998
0.063,1.7369512764757191,1.0,3100.0170952454587,0.5080158855889488,1.3020110036807053,0.9811774197310161,0.2860049536119802,0.7091497246676435
0.0635,1.7363272795839648,1.0,3103.6232578684508,0.510775518639725,1.3016984501001552,0.9813603761692975,0.2859787457425265,0.7097514196657022
0.064,1.7357032826922105,1.0,3107.202184916182,0.5135196693777068,1.3013861464049317,0.981539455277174,0.28595253787307284,0.7103520113366872
0.0645,1.7350792858004562,1.0,3110.7548583159905,0.5162484265117901,1.3010740838028925,0.9817147674759695,0.28592633000361917,0.7109515180556406
0.065,1.734455288908702,1.0,3114.282262750781,0.5189618787508712,1.3007622535018948,0.9818864192307244,0.2859001221341655,0.7115499581264731
0.0655,1.7338312920169476,1.0,3117.7853856127417,0.5216601148038459,1.3004506467097965,0.9820545132206832,0.2858739142647118,0.7121473497820952
0.066,1.7332072951251933,1.0,3121.2642292335263,0.5243431986131293,1.3001392630301831,0.9822191472512373,0.28584770639525814,0.7127436951138346
0.0665,1.732583298233439,1.0,3124.719625169985,0.5270112250557625,1.2998280950257708,0.9823804174326562,0.2858214985258044,0.7133390096722492
0.067,1.7319593013416847,1.0,3128.1531120366353,0.5296643039844255,1.2995171292749979,0.9825384172150635,0.2857952906563508,0.7139333203790313
0.0675,1.7313353044499304,1.0,3131.5651285990707,0.5323025149350701,1.2992063617215626,0.9826932352929846,0.28576908278689706,0.7145266361777598
0.068,1.7307113075581761,1.0,3134.956114930222,0.5349259374436478,1.2988957883091636,0.9828449573337137,0.2857428749174434,0.7151189659790933
0.0685,1.7300873106664219,1.0,3138.32651239173,0.5375346510461106,1.2985854049814995,0.982993666101722,0.2857166670479897,0.7157103186608225
0.069,1.7294633137746676,1.0,3141.676763617371,0.5401287352784101,1.2982752076822686,0.9831394415771292,0.285690459178536,0.7163007030679196
0.0695,1.7288393168829133,1.0,3145.007312495687,0.5427082696764982,1.2979651923551692,0.9832823610685534,0.28566425130908235,0.7168901280125863
0.07,1.728215319991159,1.0,3148.3186041537206,0.5452733337763265,1.2976553549438998,0.983422499320648,0.2856380434396287,0.7174786022743017
0.07050000000000001,1.7275913230994047,1.0,3151.611084940653,0.5478240071138467,1.2973456913921593,0.983559928616607,0.285611835570175,0.7180661345998686
