Time [s],Phi [rad],STIM [ ],Fsee [N],Gamma [ ],Lcerel [ ],q [ ],Lmtc [m],fisomrel [ ]
0.0,1.8,1.0,17.967242751066816,1.3604166961352234e-05,1.379339736743553,0.005000049205670286,0.288653,0.5411395539774616
0.0005,1.79999375,1.0,18.277781289318956,0.00562273716713905,1.3793022725847115,0.012950523297737156,0.2886527375,0.5412301849874783
0.001,1.799975,1.0,21.622082202498294,0.011200407366090015,1.378937924163485,0.035627361198096084,0.28865195,0.5421111276488169
0.0015,1.79994375,1.0,31.078546364538884,0.016746791246117186,1.378045410577666,0.0706274185706301,0.2886506375,0.5442655214960584
0.002,1.7999,1.0,53.60281639920214,0.02226206429786611,1.3763668065135708,0.114748289957224,0.2886488,0.5483036573813023
0.0025,1.79984375,1.0,97.1535028624426,0.027746401027914175,1.3739335017924754,0.16460780541179743,0.28864643749999996,0.5541254344299005
0.003,1.7997750000000001,1.0,161.0034209936286,0.033199974966454555,1.3712126499685624,0.21731440857348128,0.28864354999999997,0.5605904607886403
0.0035,1.79969375,1.0,237.73461519128765,0.03862295866691333,1.3685831546463252,0.27064666045244934,0.2886401375,0.566793552649755
0.004,1.7996,1.0,321.52144427813056,0.04401552371672526,1.3661546443803951,0.32294850256836527,0.2886362,0.5724833431079923
0.0045000000000000005,1.7994937500000001,1.0,409.3244647616888,0.04937784074252009,1.3639214829195891,0.37306554988705587,0.2886317375,0.5776822521352271
0.005,1.799375,1.0,499.4714376842542,0.05471007940121948,1.3618571113000988,0.42027650393167515,0.28862675,0.5824599202855483
0.0055,1.79924375,1.0,590.8489323721866,0.06001240842736352,1.3599376918205284,0.46420058840697015,0.2886212375,0.5868777359914233
0.006,1.7991000000000001,1.0,682.5767493090478,0.06528499557662434,1.358145348833346,0.5047046747016979,0.2886152,0.5909818530262787
0.006500000000000001,1.79894375,1.0,773.9420823524093,0.07052800768255041,1.356466215323702,0.5418233298072491,0.2886086375,0.5948081547601919
0.007,1.798775,1.0,864.345945961141,0.0757416106308807,1.3548894236442406,0.575697349606488,0.28860155,0.5983848755913863
0.0075,1.79859375,1.0,953.3012668527259,0.08092596939604796,1.353405886313566,0.6065286345878642,0.2885939375,0.6017355852006467
0.008,1.7984,1.0,1040.4164121628653,0.08608124800156934,1.352007793048013,0.6345490584856568,0.2885858,0.6048804643924339
0.0085,1.79819375,1.0,1125.374123372311,0.0912076094737383,1.3506883936046394,0.6599998537725685,0.2885771375,0.6078368960172114
0.009000000000000001,1.797975,1.0,1207.940826960859,0.09630521622967786,1.3494414796707905,0.6831183402382592,0.28856795,0.610620702440971
0.0095,1.79774375,1.0,1287.9357397975675,0.10137422962942468,1.3482615477360294,0.704130316300345,0.2885582375,0.6132458366342646
0.01,1.7975,1.0,1365.2161403319399,0.10641480958737926,1.3471437543320237,0.723245871197453,0.288548,0.6157245338911594
0.0105,1.79724375,1.0,1439.7016176588315,0.11142711562489957,1.3460834192463738,0.7406573084207565,0.2885372375,0.6180684531975087
0.011,1.796975,1.0,1511.3611958108902,0.11641130714644186,1.3450760774687052,0.7565388607458285,0.28852595000000003,0.6202885866033552
0.0115,1.79669375,1.0,1580.1625927449102,0.12136754133207212,1.3441179863213764,0.7710474892500709,0.2885141375,0.6223941692924778
0.012,1.7964,1.0,1646.1005922481497,0.12629597458443692,1.343205654847375,0.7843237064968851,0.28850180000000003,0.6243937451555629
0.0125,1.79609375,1.0,1709.2042236883633,0.13119676291227952,1.3423356873348766,0.796492830708433,0.2884889375,0.6262955267122372
0.013000000000000001,1.7957750000000001,1.0,1769.5289986147122,0.13607006222947435,1.3415048193773285,0.807666420807269,0.28847555,0.6281073288968695
0.0135,1.79544375,1.0,1827.121368015994,0.1409160265160666,1.3407102635664365,0.8179438107289624,0.2884616375,0.6298358300398258
0.014,1.7951000000000001,1.0,1882.0283852827977,0.14573480837104896,1.3399495344666985,0.8274133545563985,0.2884472,0.631486970713887
0.0145,1.79474375,1.0,1934.3212620374122,0.15052656039341397,1.339220146642612,0.8361535477949409,0.2884322375,0.6330666202543523
0.015,1.794375,1.0,1984.0736483910778,0.15529143408177212,1.338519823758413,0.8442342344945162,0.28841675,0.6345801304928985
0.0155,1.79399375,1.0,2031.3905472265906,0.1600295817262359,1.3378461609220247,0.85171750670254,0.2884007375,0.6360330725454382
0.016,1.7936,1.0,2076.337446980092,0.16474115214707766,1.3371973525796248,0.8586588477235646,0.2883842,0.6374296728740185
0.0165,1.7931937500000001,1.0,2118.9880069933147,0.16942629382644764,1.336571653111441,0.865107742560869,0.2883671375,0.638773986995637
0.017,1.792775,1.0,2159.4284616045197,0.1740851552464961,1.3359673168977013,0.8711083706843531,0.28834955,0.6400700318130088
0.0175,1.7923437500000001,1.0,2197.741249477065,0.17871788366832786,1.3353827532184166,0.8767002755571207,0.2883314375,0.6413214567717942
0.018000000000000002,1.7919,1.0,2234.02916363076,0.1833246274127237,1.3348162671338208,0.8819188391972672,0.2883128,0.6425321022403505
0.0185,1.79144375,1.0,2268.3648318203436,0.18790553123359882,1.334266558507354,0.8867958960405693,0.2882936375,0.6437049357896991
0.019,1.790975,1.0,2300.8210566490966,0.19246073926168558,1.3337323991265457,0.8913600592465694,0.28827395,0.644842748001403
0.0195,1.79049375,1.0,2331.4772598152877,0.19699039562771642,1.3332125607789256,0.8956370723077661,0.2882537375,0.64594830784168
0.02,1.79,1.0,2360.413234809354,0.20149464364928327,1.3327058708381916,0.8996501473459012,0.288233,0.6470242458858437
0.0205,1.78949375,1.0,2387.7124548343468,0.20597362699371674,1.3322111734011057,0.9034202408577893,0.2882117375,0.6480731386079734
0.021,1.788975,1.0,2413.451603580619,0.21042748808097797,1.331727425464786,0.9069663238354388,0.28818995000000003,0.6490973061049263
0.021500000000000002,1.78844375,1.0,2437.6915094039396,0.21485636640645178,1.331253777101828,0.9103056142640258,0.2881676375,0.6500986452671316
0.022,1.7879,1.0,2460.4964722459763,0.21926040146552286,1.3307893783848275,0.9134537272464528,0.2881448,0.6510790406498069
0.0225,1.78734375,1.0,2481.933974945891,0.22363973275357613,1.3303333793863796,0.9164248463841412,0.28812143749999997,0.6520403649973667
0.023,1.786775,1.0,2502.069044187977,0.22799449875364178,1.3298849811261158,0.91923188412564,0.28809755,0.652984372536423
0.0235,1.78619375,1.0,2520.96745971191,0.23232483806564547,1.3294434018332204,0.9218866080898835,0.28807313749999996,0.6539127710094237
0.024,1.7856,1.0,2538.6996865808887,0.23663088988644024,1.3290078374388916,0.924399751567306,0.2880482,0.6548273051778823
0.0245,1.78499375,1.0,2555.313284256998,0.24091278857782836,1.3285777191711994,0.9267811614393816,0.2880227375,0.6557292170416213
0.025,1.784375,1.0,2570.857447683937,0.24517066850161207,1.328152478258213,0.9290398472100475,0.28799675,0.6566197417506155
0.025500000000000002,1.78374375,1.0,2585.3828710062967,0.24940466401959366,1.3277315459280024,0.9311840636486525,0.2879702375,0.6575001077922248
0.026000000000000002,1.7831000000000001,1.0,2598.9416184611723,0.25361490949357535,1.327314353408637,0.9332213842697236,0.2879432,0.6583715371577996
0.0265,1.78244375,1.0,2611.583044733461,0.2578015383160489,1.3269003687054284,0.9351587721814052,0.2879156375,0.6592351688145885
0.027,1.781775,1.0,2623.351582362868,0.2619646828943274,1.3264891156380871,0.9370026407093432,0.28788755,0.6600920196742978
0.0275,1.7810937500000001,1.0,2634.306238163007,0.266104478553523,1.326079991934196,0.9387588786496137,0.2878589375,0.6609433637123556
0.028,1.7804,1.0,2644.4821221026455,0.27022105414348463,1.3256726249144826,0.9404329478151688,0.2878298,0.6617899916495878
0.0285,1.77969375,1.0,2653.9150319896685,0.27431453851406146,1.3252666418996757,0.9420298905378134,0.2878001375,0.662632690265651
0.029,1.778975,1.0,2662.6413938501905,0.2783850605151026,1.3248616702105036,0.9435543673457167,0.28776995,0.6634722424363584
0.029500000000000002,1.7782437500000001,1.0,2670.698205387483,0.282432748996457,1.3244573371676942,0.945010690804498,0.2877392375,0.6643094271621468
0.03,1.7775,1.0,2678.1229825196224,0.2864577328079738,1.3240532700919763,0.9464028559542864,0.287708,0.6651450195876807
0.0305,1.77674375,1.0,2684.947941263667,0.2904601386034856,1.3236491491637437,0.9477345738879883,0.2876762375,0.6659796819055639
0.031,1.775975,1.0,2691.209628006324,0.29444009545371286,1.3232446185261686,0.9490092859711686,0.28764395,0.6668141473018869
0.0315,1.7751937500000001,1.0,2696.940531491347,0.2983977301199422,1.322839362827246,0.9502301946576257,0.2876111375,0.6676490618918938
0.032,1.7744,1.0,2702.1654131201362,0.3023331659881958,1.322433140183352,0.9514002869641488,0.2875778,0.6684849174473944
0.0325,1.77359375,1.0,2706.9092874559874,0.30624652644449596,1.3220257087108631,0.9525223442074509,0.2875439375,0.6693222032183239
0.033,1.772775,1.0,2711.1973977832818,0.31013793487486485,1.3216168265261559,0.9535989586660863,0.28750955,0.6701614059159584
0.0335,1.7719437500000002,1.0,2715.055192964762,0.31400751466532467,1.3212062517456062,0.9546325487023383,0.2874746375,0.6710030096924051
0.034,1.7711000000000001,1.0,2718.508305595325,0.3178553892018977,1.320793742485591,0.9556253725027889,0.2874392,0.6718474961163533
0.0345,1.7702437500000001,1.0,2721.5732928349266,0.32168167464640113,1.3203791409601695,0.9565795479614937,0.2874032375,0.6726951723138516
0.035,1.7693750000000001,1.0,2724.2846344919703,0.32548650235865406,1.3199621274595164,0.957497042526761,0.28736675,0.673546674080294
0.035500000000000004,1.76849375,1.0,2726.661804742271,0.32926999226589515,1.3195425200524613,0.958379709957788,0.2873297375,0.6744023529289617
0.036000000000000004,1.7676,1.0,2728.7208567521475,0.33303226150909226,1.31912016881113,0.9592292898588524,0.2872922,0.6752624931695022
0.0365,1.76669375,1.0,2730.477926550622,0.33677342722921316,1.3186949238076477,0.9600474135335413,0.2872541375,0.6761273773572628
0.037,1.765775,1.0,2731.949223634002,0.3404936065672259,1.31826663511414,0.9608356119464178,0.28721555,0.6769972862663355
0.0375,1.76484375,1.0,2733.15102206946,0.3441929166640982,1.3178351528027321,0.9615953230138865,0.2871764375,0.6778724988611733
0.038,1.7639,1.0,2734.0996520962085,0.347871474660798,1.3174003269455492,0.9623278982875871,0.28713679999999997,0.6787532922667681
0.0385,1.76294375,1.0,2734.8114922257464,0.3515293976982931,1.316962007614717,0.9630346090870285,0.28709663750000003,0.6796399417373982
0.039,1.761975,1.0,2735.302961839755,0.3551668029175515,1.316520044882361,0.9637166521323699,0.28705595,0.6805327206239418
0.0395,1.7609937500000001,1.0,2735.5872386287933,0.3587838066585872,1.3160743185619515,0.9643751572812871,0.2870147375,0.6814318403877488
0.04,1.76,1.0,2735.6777675256667,0.3623805226754609,1.3156247062887476,0.965011188894319,0.286973,0.6823375152427992
0.0405,1.7589937500000001,1.0,2735.5867359947333,0.36595706406818956,1.3151710973191675,0.9656257518825345,0.2869307375,0.6832499343578822
0.041,1.757975,1.0,2735.3230885788057,0.3695135435718013,1.3147134105195033,0.9662197973017981,0.28688795,0.6841692258902506
0.0415,1.75694375,1.0,2734.8958477270367,0.37305007389798667,1.3142515641865924,0.9667942233828352,0.2868446375,0.6850955178771684
0.042,1.7559036593036588,1.0,2734.4954315602827,0.37656676703946634,1.3137854819801413,0.9673498793873152,0.28680095369075365,0.686028926334472
0.0425,1.754863223956892,1.0,2734.519476140841,0.3800637348495997,1.313315389596621,0.9678875933994212,0.28675725540618946,0.6869689625061148
0.043000000000000003,1.7538227886101252,1.0,2734.951612509528,0.3835410872514646,1.3128415913745115,0.9684081549222072,0.2867135571216253,0.6879149831194618
0.043500000000000004,1.7527823532633584,1.0,2735.758416956147,0.38699893416813863,1.3123643916522925,0.9689123112951726,0.28666985883706103,0.6888663483025933
0.044,1.7517419179165916,1.0,2736.907831911764,0.39043738513850773,1.3118840829301819,0.9694007693827931,0.28662616055249684,0.6898224452002533
0.0445,1.7507014825698246,1.0,2738.3690723943278,0.39385654960904654,1.3114009465359253,0.9698741982300132,0.2865824622679326,0.6907826865323017
0.045,1.7496610472230578,1.0,2740.1169900244954,0.3972565353605915,1.3109152128778945,0.9703332281543243,0.2865387639833684,0.6917465892892014
0.0455,1.748620611876291,1.0,2742.1283198956767,0.4006374495744088,1.310427095422012,0.9707784559007134,0.28649506569880423,0.69271370672147
0.046,1.747580176529524,1.0,2744.380457477287,0.40399939908248944,1.3099368016988422,0.9712104475585469,0.28645136741424,0.6936836063542493
0.0465,1.7465397411827572,1.0,2746.8584869564065,0.4073424867718702,1.3094444695364569,0.9716297352482461,0.2864076691296758,0.6946559957694541
0.047,1.7454993058359904,1.0,2749.527550416432,0.4106668270056568,1.3089504173807636,0.9720368393903767,0.2863639708451116,0.6956302283171301
0.0475,1.7444588704892237,1.0,2752.3749513777043,0.41397252257669664,1.3084547626610545,0.9724322389610962,0.2863202725605474,0.6966060567337772
0.048,1.7434184351424569,1.0,2755.387984459202,0.4172596762778368,1.3079576228066225,0.9728163897478844,0.2862765742759832,0.6975832351890753
0.0485,1.7423779997956899,1.0,2758.553931358704,0.42052839090192445,1.3074591152467605,0.9731897256903989,0.286232875991419,0.6985615192974466
0.049,1.741337564448923,1.0,2761.8600571391494,0.4237787692418069,1.306959357410761,0.9735526601319487,0.28618917770685476,0.6995406661287396
0.0495,1.7402971291021563,1.0,2765.2936068207987,0.4270109140903312,1.3064584667279167,0.9739055869883151,0.28614547942229057,0.7005204342180307
0.05,1.7392566937553893,1.0,2768.8418022783762,0.43022492824034475,1.30595656062752,0.974248881840068,0.28610178113772633,0.7015005835745491
0.0505,1.7382162584086225,1.0,2772.4918394450037,0.43342091448469455,1.305453756538864,0.9745829029540352,0.28605808285316214,0.7024808756897207
0.051000000000000004,1.7371758230618557,1.0,2776.2377926264653,0.43659896806082926,1.3049501096416443,0.9749079873258047,0.28601438456859796,0.7034611946095317
0.051500000000000004,1.736135387715089,1.0,2780.0641570011403,0.43975919818894194,1.3044457612862876,0.9752244638451084,0.2859706862840337,0.7044412577640713
0.052000000000000005,1.7350949523683221,1.0,2783.9608855582796,0.4429017075191807,1.3039408033462498,0.9755326427757938,0.28592698799946953,0.7054208802973096
0.0525,1.734054517021555,1.0,2787.922840798527,0.4460265928219034,1.3034352833069478,0.9758328171954623,0.2858832897149053,0.706399964427399
0.053,1.7330140816747883,1.0,2791.9448724361973,0.4491339508674682,1.3029292486537989,0.9761252673227135,0.2858395914303411,0.7073784129784595
0.0535,1.7319736463280215,1.0,2796.0218168318884,0.4522238784262333,1.3024227468722203,0.9764102611930134,0.2857958931457769,0.7083561293822098
0.054,1.7309332109812547,1.0,2800.1484964761057,0.4552964722685565,1.301915825447629,0.9766880552934907,0.2857521948612127,0.7093330176794541
0.0545,1.7298927756344877,1.0,2804.3197195221956,0.4583518291647961,1.3014085318654423,0.9769588951594848,0.2857084965766485,0.7103089825214244
0.055,1.728852340287721,1.0,2808.530279369694,0.46139004588530996,1.3009009136110772,0.9772230159354532,0.28566479829208424,0.7112839291709792
0.0555,1.7278119049409542,1.0,2812.774954297578,0.4644112192004562,1.3003930181699508,0.9774806429026468,0.28562110000752006,0.7122577635036595
0.056,1.7267714695941874,1.0,2817.048507147003,0.4674154458805929,1.2998848930274804,0.9777319919757815,0.28557740172295587,0.713230392008599
0.0565,1.7257310342474204,1.0,2821.3457232129604,0.4704028225738468,1.2993765853279338,0.9779772701399131,0.2855337034383917,0.7142017224406454
0.057,1.7246905989006536,1.0,2825.668629171556,0.4733734257482633,1.298868077382704,0.9782166704068103,0.28549000515382744,0.7151717867396878
0.0575,1.7236501635538868,1.0,2830.005867548635,0.47632737794381685,1.2983594710364483,0.9784503888461711,0.28544630686926326,0.7161403891672538
0.058,1.72260972820712,1.0,2834.355860418308,0.47926476893902975,1.2978507805902377,0.9786786058469584,0.285402608584699,0.7171075016000832
0.0585,1.721569292860353,1.0,2838.717024984546,0.48218568851242416,1.2973420203451433,0.9789014946306608,0.2853589103001348,0.7180730961003455
0.059000000000000004,1.7205288575135862,1.0,2843.087773556442,0.4850902264425223,1.2968332046022362,0.9791192215933011,0.28531521201557064,0.7190371449157111
0.059500000000000004,1.7194884221668194,1.0,2847.4665135286186,0.4879784725078465,1.2963243476625876,0.9793319466285328,0.2852715137310064,0.7199996204794066
0.06,1.7184479868200526,1.0,2851.8516473659633,0.49085051648691885,1.2958154638272688,0.9795398234330055,0.2852278154464422,0.7209604954102611
0.0605,1.7174075514732856,1.0,2856.2415725924975,0.4937064481582617,1.2953065673973503,0.9797429997951093,0.28518411716187797,0.7219197425127366
0.061,1.7163671161265188,1.0,2860.634681785521,0.49654635730039726,1.2947976726739039,0.979941617868119,0.2851404188773138,0.7228773347769446
0.0615,1.715326680779752,1.0,2865.029362573513,0.4993703336918477,1.2942887939580003,0.9801358144286962,0.2850967205927496,0.7238332453786531
0.062,1.7142862454329852,1.0,2869.4239976392123,0.5021784671111352,1.2937799455507106,0.980325721121641,0.2850530223081854,0.7247874476792777
0.0625,1.7132458100862182,1.0,2873.816964726723,0.5049708473367822,1.293271141753106,0.9805114646917192,0.28500932402362117,0.7257399152258598
0.063,1.7122053747394514,1.0,2878.2066366536606,0.5077475641473108,1.2927623968662578,0.9806931672033443,0.2849656257390569,0.7266906217510324
0.0635,1.7111649393926847,1.0,2882.591381327499,0.5105087073212432,1.2922537251912367,0.9808709462488333,0.28492192745449274,0.7276395411729755
0.064,1.7101245040459179,1.0,2886.9716526472607,0.5132543426411762,1.2917451225493892,0.9810449124876628,0.28487822916992855,0.7285866819790876
0.0645,1.7090840686991509,1.0,2891.345860435938,0.5159845717457405,1.291236602827402,0.9812151760702519,0.28483453088536437,0.729532019048323
0.065,1.708043633352384,1.0,2895.711597287141,0.5186995035551629,1.2907281870822893,0.9813818440511308,0.2847908326008001,0.7304755141449152
0.0655,1.7070031980056173,1.0,2900.068599464438,0.5213992196200897,1.2902198774046962,0.9815450168356198,0.28474713431623594,0.7314171644107241
0.066,1.7059627626588505,1.0,2904.416602592446,0.5240838014911674,1.2897116758852674,0.9817047912999347,0.2847034360316717,0.7323569670145083
0.0665,1.7049223273120835,1.0,2908.7553416622018,0.5267533307190424,1.2892035846146481,0.9818612609406548,0.2846597377471075,0.7332949191519071
0.067,1.7038818919653167,1.0,2913.084551035682,0.5294078888543611,1.2886956056834835,0.9820145160168364,0.2846160394625433,0.7342310180454292
0.0675,1.70284145661855,1.0,2917.403964451438,0.53204755744777,1.288187741182418,0.9821646436851869,0.2845723411779791,0.7351652609444376
0.068,1.7018010212717831,1.0,2921.713315029779,0.5346724180499154,1.287679993202097,0.9823117281286811,0.2845286428934149,0.736097645125132
0.0685,1.7007605859250163,1.0,2926.012335277759,0.5372825522114437,1.2871723638331656,0.9824558506789864,0.28448494460885065,0.7370281678905357
0.069,1.6997201505782493,1.0,2930.3007570951954,0.5398780414830014,1.2866648551662685,0.9825970899330305,0.28444124632428647,0.7379568265704792
0.0695,1.6986797152314825,1.0,2934.5783117797123,0.5424589674152349,1.2861574692920505,0.9827355218640322,0.2843975480397223,0.7388836185215852
0.07,1.6976392798847157,1.0,2938.8447300325493,0.5450254115587907,1.2856502083011572,0.9828712199272958,0.28435384975515804,0.7398085411272497
0.07050000000000001,1.6965988445379487,1.0,2943.0997419646105,0.547577455464315,1.285143074284233,0.9830042551610481,0.28431015147059385,0.7407315917976289
0.07100000000000001,1.695558409191182,1.0,2947.3430771015855,0.5501151806824544,1.2846360693319232,0.9831346962825819,0.2842664531860296,0.7416527679696192
0.07150000000000001,1.6945179738444152,1.0,2951.5744643908724,0.5526386687638551,1.2841291955348726,0.9832626097799566,0.2842227549014654,0.7425720671068436
0.07200000000000001,1.6934775384976484,1.0,2955.793632206655,0.5551480012591637,1.2836224549837263,0.9833880599994861,0.28417905661690124,0.7434894866996307
