Time [s],Phi [rad],STIM [ ],Fsee [N],Gamma [ ],Lcerel [ ],q [ ],Lmtc [m],fisomrel [ ]
0.0,1.8,1.0,17.9780379597578,0.00010590096651129514,1.3793385275036119,0.005002933834627264,0.288653,0.5411424794368351
0.0005,1.79999375,1.0,18.319086024017203,0.005714516254658541,1.3792976871519838,0.013208897688233967,0.2886527375,0.5412412771720532
0.001,1.799975,1.0,21.731986549325065,0.011291671645498885,1.3789267142396113,0.03611005640459925,0.28865195,0.542138218225676
0.0015,1.79994375,1.0,31.335406621200665,0.01683754360511424,1.3780235752676298,0.07128703171455794,0.2886506375,0.5443181649932356
0.002,1.7999,1.0,54.152698675487294,0.02235230760781049,1.3763312307886981,0.11552876843639186,0.2886488,0.5483890457049223
0.0025,1.79984375,1.0,98.07465365352857,0.027836138144300866,1.3738892263319449,0.16545646294213903,0.28864643749999996,0.5542310154110321
0.003,1.7997750000000001,1.0,162.19989858367688,0.03328920872855802,1.3711679538528971,0.21818965916146493,0.28864354999999997,0.5606962692367781
0.0035,1.79969375,1.0,239.08532140533356,0.038711691898112285,1.368541612731919,0.27151701545263895,0.2886401375,0.566891197974988
0.004,1.7996,1.0,322.9577422508484,0.044103759224626796,1.3661166479546865,0.32379111911265185,0.2886362,0.572572066614873
0.0045000000000000005,1.7994937500000001,1.0,410.81127250279866,0.049465581319144525,1.363886615926184,0.3738653277478428,0.2886317375,0.5777631720337688
0.005,1.799375,1.0,500.9881509811248,0.05479732782369375,1.3618249075669424,0.42102469701545064,0.28862675,0.5825342355362679
0.0055,1.79924375,1.0,592.3785724734306,0.060099167453554335,1.3599078271588678,0.46489326321903773,0.2886212375,0.5869462881051739
0.006,1.7991000000000001,1.0,684.1075233304567,0.06537126795270022,1.3581175402139023,0.5053412178491455,0.2886152,0.5910453679564543
0.006500000000000001,1.79894375,1.0,775.4610258751419,0.07061379612668016,1.3564402996894032,0.5424053569193549,0.2886086375,0.5948670687414811
0.007,1.798775,1.0,865.8498158664254,0.07582691788381121,1.3548651427284086,0.5762277158381571,0.28860155,0.5984398293250834
0.0075,1.79859375,1.0,954.7843410134634,0.08101079816331708,1.3533830846596766,0.6070109565863571,0.2885939375,0.6017869753712113
0.008,1.7984,1.0,1041.8597780066104,0.08616560077085918,1.3519865503507835,0.6349873785553605,0.2885858,0.6049281516969239
0.0085,1.79819375,1.0,1126.7894186631302,0.09129148935062109,1.3506683650551898,0.660397979067611,0.2885771375,0.6078816892522962
0.009000000000000001,1.797975,1.0,1209.317912393811,0.096388625692273,1.3494226691115117,0.6834801389268942,0.28856795,0.6106626221651372
0.0095,1.79774375,1.0,1289.258824348469,0.10145717091481926,1.3482440445791535,0.7044594587668299,0.2885582375,0.613284711145257
0.01,1.7975,1.0,1366.4964902741247,0.10649728554815215,1.34712730252644,0.7235455572787655,0.288548,0.6157609561247365
0.0105,1.79724375,1.0,1440.9566963136742,0.11150912955665745,1.3460677146255269,0.740930427823424,0.2885372375,0.6181031150952325
0.011,1.796975,1.0,1512.5692260402545,0.11649286083297006,1.3450613239949134,0.756788259873195,0.28852595000000003,0.6203210544734612
0.0115,1.79669375,1.0,1581.3142597869578,0.12144863702591352,1.3441042305699764,0.7712756472343019,0.2885141375,0.622424357473994
0.012,1.7964,1.0,1647.2101144386547,0.1263766153170493,1.3431926704433206,0.7845327179377369,0.28850180000000003,0.6244221650318316
0.0125,1.79609375,1.0,1710.2875057676495,0.13127695222878524,1.3423232461093952,0.7966845619873445,0.2884889375,0.6263226886898163
0.013000000000000001,1.7957750000000001,1.0,1770.5668804957647,0.13614980182136854,1.3414931043636888,0.8078426942691861,0.28847555,0.6281328433419985
0.0135,1.79544375,1.0,1828.1000611070165,0.1409953181550464,1.3406993920016896,0.8181062196178632,0.2884616375,0.6298594524543336
0.014,1.7951000000000001,1.0,1882.9541621589035,0.14581365448969436,1.3399394017191093,0.8275632323810792,0.2884472,0.6315089386443049
0.0145,1.79474375,1.0,1935.2157645675693,0.15060496469262083,1.3392104893709413,0.8362920251296865,0.2884322375,0.6330875124385411
0.015,1.794375,1.0,1984.9515183978967,0.15536939994160823,1.3385104655941633,0.8443623463003312,0.28841675,0.6346003338112971
0.0155,1.79399375,1.0,2032.2264665764842,0.1601071100232698,1.3378373542794268,0.8518363120334632,0.2884007375,0.6360520473644038
0.016,1.7936,1.0,2077.1217755435455,0.1648182447242187,1.337189179317383,0.8587692373687517,0.2883842,0.6374472492068552
0.0165,1.7931937500000001,1.0,2119.7278531881825,0.16950295330535803,1.3365640213169068,0.8652104591611518,0.2883671375,0.6387903684789309
0.017,1.792775,1.0,2160.1372965799706,0.17416138477514306,1.3359600737478399,0.8712040605497474,0.28834955,0.6400855511713839
0.0175,1.7923437500000001,1.0,2198.4378124530144,0.17879368722073546,1.3353756977625857,0.8767895044574923,0.2883314375,0.6413365476730191
0.018000000000000002,1.7919,1.0,2234.6985593603617,0.1834000059067182,1.3348095421171156,0.8820022045520399,0.2883128,0.642546462076937
0.0185,1.79144375,1.0,2268.997014364959,0.1879804860976743,1.3342602555674001,0.8868739212295706,0.2882936375,0.6437183722832154
0.019,1.790975,1.0,2301.418278291189,0.19253527305818674,1.3337264868694103,0.8914331847020105,0.28827395,0.6448553315108461
0.0195,1.79049375,1.0,2332.040876745944,0.19706451040127,1.3332070179742816,0.8957056966088446,0.2882537375,0.6459600866475981
0.02,1.79,1.0,2360.9595192756874,0.2015683439295994,1.332700531504259,0.899714597954993,0.288233,0.6470355750535189
0.0205,1.78949375,1.0,2388.2430564959536,0.20604691535756361,1.3322060170694208,0.9034808452246172,0.2882117375,0.6480840632106879
0.021,1.788975,1.0,2413.955420285478,0.2105003651406187,1.331722555587916,0.9070234041447076,0.28818995000000003,0.6491076087825958
0.021500000000000002,1.78844375,1.0,2438.164498172444,0.21492883373422084,1.3312492279778931,0.910359448458889,0.2881676375,0.6501082556251587
0.022,1.7879,1.0,2460.9418024337588,0.21933246159382608,1.3307851151575014,0.9135045539540187,0.2881448,0.6510880344076484
0.0225,1.78734375,1.0,2482.3558302932897,0.2237113877266476,1.3303293583558413,0.9164728804071544,0.28812143749999997,0.6520488361231447
0.023,1.786775,1.0,2502.4768311057587,0.22806575253325986,1.329881109857311,0.9192773127786164,0.28809755,0.6529925170896327
0.0235,1.78619375,1.0,2521.367325729777,0.23239569457701995,1.3294396200116436,0.9219296081784873,0.28807313749999996,0.6539207167301782
0.024,1.7856,1.0,2539.0791494536543,0.23670134916925067,1.3290042611320305,0.9244405146292441,0.2880482,0.6548348091740008
0.0245,1.78499375,1.0,2555.6660244503423,0.24098285162127495,1.3285744055316624,0.926819852711416,0.2880227375,0.6557361608084014
0.025,1.784375,1.0,2571.183400259855,0.24524033724441555,1.3281494255237298,0.9290766083166037,0.28799675,0.6566261305116265
0.025500000000000002,1.78374375,1.0,2585.6883030065205,0.2494739413499954,1.3277286934214236,0.9312190149959914,0.2879702375,0.6575060698606076
0.026000000000000002,1.7831000000000001,1.0,2599.2282125314728,0.2536837963603982,1.3273116838200043,0.9332546425425634,0.2879432,0.6583771098052089
0.0265,1.78244375,1.0,2611.8599550118834,0.2578700391663038,1.3268977955677603,0.9351904352751013,0.2879156375,0.6592405333320752
0.027,1.781775,1.0,2623.632004413663,0.2620328032074733,1.3264865157198864,0.9370327934217283,0.28788755,0.6600974332050011
0.0275,1.7810937500000001,1.0,2634.581401206176,0.26617221808939534,1.3260774460830256,0.938787627509534,0.2878589375,0.6609486580228685
0.028,1.7804,1.0,2644.7459686364823,0.27028841341755866,1.3256701884638207,0.940460387746506,0.2878298,0.6617950521235316
0.0285,1.77969375,1.0,2654.164245135413,0.27438151879745215,1.325264344668915,0.9420561059110497,0.2878001375,0.6626374556348893
0.029,1.778975,1.0,2662.8754202393748,0.2784516638345645,1.3248595165049508,0.9435794329244315,0.28776995,0.663476704515847
0.029500000000000002,1.7782437500000001,1.0,2670.9192740271733,0.2824989781343845,1.3244553057785715,0.9450346725980531,0.2877392375,0.6643136305871609
0.03,1.7775,1.0,2678.3283326693213,0.2865235889025718,1.324051385753922,0.9464258207023479,0.287708,0.6651489138742437
0.0305,1.77674375,1.0,2685.1379059376864,0.2905256251150323,1.323647408220518,0.947756580620312,0.2876762375,0.6659832753575936
0.031,1.775975,1.0,2691.3911937299617,0.294505216777601,1.3232429564912107,0.949030382039258,0.28764395,0.6668175735931801
0.0315,1.7751937500000001,1.0,2697.1130681368127,0.2984624874392186,1.3228377851211732,0.950250431755045,0.2876111375,0.6676523102616556
0.032,1.7744,1.0,2702.3286820628555,0.30239756064882606,1.3224316486655787,0.95141971283541,0.2875778,0.6684879844987144
0.0325,1.77359375,1.0,2707.0634430904884,0.30631055995536416,1.3220243016796007,0.9525410029681858,0.2875439375,0.6693250928819053
0.033,1.772775,1.0,2711.3429886792833,0.3102016089077739,1.321615498718412,0.9536168910937182,0.28750955,0.6701641294136067
0.0335,1.7719437500000002,1.0,2715.1931627012173,0.31407083105499595,1.3212049943371862,0.9546497925002531,0.2874746375,0.6710055855001537
0.034,1.7711000000000001,1.0,2718.6399933110647,0.3179183499459713,1.320792543091096,0.9556419625406785,0.2874392,0.6718499499271278
0.0345,1.7702437500000001,1.0,2721.7048513416876,0.321744285294652,1.3203779434173584,0.9565955129456547,0.2874032375,0.6726976191698467
0.035,1.7693750000000001,1.0,2724.412457835415,0.3255487625747795,1.3199609644956625,0.9575124173789239,0.28736675,0.6735490471907062
0.035500000000000004,1.76849375,1.0,2726.7830440521325,0.3293319026061499,1.3195414174718056,0.9583945269117996,0.2873297375,0.6744045998727972
0.036000000000000004,1.7676,1.0,2728.833602594204,0.33309382301782914,1.3191191438583176,0.9592435783863578,0.2872922,0.675264579155403
0.0365,1.76669375,1.0,2730.5812110346656,0.3368346414388829,1.318693985167728,0.9600612005432678,0.2872541375,0.676129285133648
0.037,1.765775,1.0,2732.0430219395685,0.3405544754983773,1.3182657829125664,0.9608489219669571,0.28721555,0.6769990160301378
0.0375,1.76484375,1.0,2733.2362534482145,0.34425344282537806,1.3178343786053623,0.9616081783614688,0.2871764375,0.6778740681649974
0.038,1.7639,1.0,2734.178180409583,0.347931661048951,1.3173996137586454,0.9623403192201841,0.28713679999999997,0.6787547359243071
0.0385,1.76294375,1.0,2734.8861260759945,0.3515892477981621,1.3169613298849454,0.9630466139460039,0.28709663750000003,0.6796413117269351
0.039,1.761975,1.0,2735.3623071830098,0.35522630562279545,1.3165195060310415,0.9637282672691306,0.28705595,0.6805338083605404
0.0395,1.7609937500000001,1.0,2735.639293724082,0.35884297128909937,1.3160738459297876,0.9643863955010517,0.2870147375,0.6814327931095436
0.04,1.76,1.0,2735.7283191580914,0.3624393576975047,1.3156242473147461,0.9650220638393935,0.286973,0.6823384391167091
0.0405,1.7589937500000001,1.0,2735.6383883906656,0.36601557532367324,1.3151706283432356,0.9656362784419107,0.2869307375,0.6832508770080679
0.041,1.757975,1.0,2735.378523899173,0.36957173464326676,1.3147129071725738,0.9662299890488912,0.28688795,0.6841702361574838
0.0415,1.75694375,1.0,2734.957762858219,0.3731079461319472,1.3142510019600795,0.9668040927305561,0.2868446375,0.6850966446654532
0.042,1.7559,1.0,2734.3851544146673,0.3766243202653763,1.3137848308630709,0.9673594373481933,0.28680079999999997,0.6860302293374809
0.0425,1.75484375,1.0,2733.669757110389,0.380120967519216,1.313314312038866,0.9678968247536073,0.2867564375,0.6869711156620285
0.043000000000000003,1.753775,1.0,2732.820636453288,0.383597998369128,1.3128393636447833,0.9684170137491428,0.28671155,0.6879194277880327
0.043500000000000004,1.75269375,1.0,2731.846862638082,0.3870555232907742,1.312359903838141,0.9689207228284352,0.28666613750000003,0.6888752885020003
0.044,1.7516,1.0,2730.757508413924,0.3904936527598164,1.3118758507762576,0.9694086327161734,0.2866202,0.6898388192046733
0.0445,1.75049375,1.0,2729.561647102039,0.39391249725191646,1.311387122616451,0.9698813887234687,0.2865737375,0.6908101398872681
0.045,1.7493750000000001,1.0,2728.2675641903447,0.3973121653350168,1.310893644667283,0.9703396032066118,0.28652675,0.6917893549282309
0.0455,1.74824375,1.0,2726.878865779268,0.40069275493087536,1.3103953847720335,0.9707838590307475,0.2864792375,0.6927764831384606
0.046,1.7471,1.0,2725.409738711052,0.40405439179168695,1.3098922145402718,0.9712147063686648,0.2864312,0.6937717326764227
0.0465,1.7459437500000001,1.0,2723.864737195413,0.40739717872123493,1.309384093127384,0.9716326711816827,0.28638263750000004,0.6947751368614357
0.047,1.744775,1.0,2722.248413683281,0.41072121852330284,1.3088709796887552,0.9720382534407346,0.28633355,0.6957867280169279
0.0475,1.74359375,1.0,2720.565318256999,0.4140266140016743,1.3083528333797714,0.9724319286521265,0.28628393750000003,0.6968065374574839
0.048,1.7424,1.0,2718.819998056952,0.4173134679601327,1.307829613355818,0.9728141492799259,0.2862338,0.6978345954757894
0.0485,1.74119375,1.0,2717.016996746135,0.4205818832024616,1.3073012787722809,0.9731853460728768,0.2861831375,0.6988709313294672
0.049,1.739975,1.0,2715.1608540104344,0.4238319625324445,1.3067677887845457,0.9735459293030773,0.28613195,0.6999155732278073
0.0495,1.73874375,1.0,2713.2561050972367,0.4270638087538649,1.3062291025479977,0.9738962899230396,0.2860802375,0.7009685483183925
0.05,1.7375,1.0,2711.3072803901773,0.4302775246705064,1.305685179218023,0.9742368006472047,0.286028,0.7020298826736133
0.0505,1.73624375,1.0,2709.3189050209735,0.4334732130861524,1.3051359779500074,0.9745678169634818,0.2859752375,0.7030996012770812
0.051000000000000004,1.734975,1.0,2707.295498518737,0.4366509768045865,1.3045814578993358,0.9748896780799248,0.28592195,0.7041777280099335
0.051500000000000004,1.73369375,1.0,2705.2392919149993,0.43981090861725747,1.3040215990620103,0.9752027080625616,0.2858681375,0.7052642452288846
0.052000000000000005,1.7324,1.0,2703.1516872310353,0.4429531054403189,1.3034563889816002,0.9755072173610635,0.2858138,0.7063591198541064
0.0525,1.73109375,1.0,2701.040481823043,0.4460776909891555,1.302885756751176,0.9758035017358444,0.28575893750000003,0.7074624309861844
0.053,1.729775,1.0,2698.907639153809,0.4491847599502816,1.3023096846842535,0.9760918441377142,0.28570355000000003,0.7085741535271277
0.0535,1.72844375,1.0,2696.7551199260824,0.45227440701021143,1.3017281550943482,0.9763725151511604,0.2856476375,0.7096942615540847
0.054,1.7271,1.0,2694.584882005265,0.45534672685545907,1.3011411502949763,0.976645773637514,0.2855912,0.7108227283131967
0.0545,1.7257437500000001,1.0,2692.398880349268,0.4584018141725388,1.3005486525996537,0.9769118673394017,0.2855342375,0.7119595262134333
0.055,1.724375,1.0,2690.1990669453353,0.46143976364796474,1.2999506443218958,0.9771710334491168,0.28547675,0.7131046268204069
0.0555,1.72299375,1.0,2687.987390754063,0.4644606699682512,1.2993471077752188,0.9774234991433476,0.2854187375,0.7142580008501644
0.056,1.7216,1.0,2685.7657976597343,0.4674646278199124,1.2987380252731382,0.9776694820865186,0.2853602,0.7154196181629651
0.0565,1.72019375,1.0,2683.5362304281157,0.4704517318894624,1.2981233791291702,0.9779091909048223,0.28530113749999997,0.7165894477570314
0.057,1.718775,1.0,2681.300628671214,0.47342207686341553,1.29750315165683,0.9781428256328818,0.28524155,0.717767457762287
0.0575,1.71734375,1.0,2679.060928818357,0.4763757574282859,1.2968773251696342,0.978370578134827,0.2851814375,0.7189536154340667
0.058,1.7159,1.0,2676.819064094889,0.4793128682705879,1.296245881981098,0.9785926325014471,0.2851208,0.7201478871468154
0.0585,1.71444375,1.0,2674.576964507641,0.4822335040768355,1.2956088044047376,0.9788091654249563,0.2850596375,0.7213502383877601
0.059000000000000004,1.7129750000000001,1.0,2672.336556836979,0.4851377595335431,1.2949660747540686,0.9790203465528041,0.28499795,0.7225606337505652
0.059500000000000004,1.71149375,1.0,2670.0974872787892,0.4880257082708954,1.2943176962719185,0.979226338219505,0.2849357375,0.7237789976441031
0.06,1.71,1.0,2667.8602377732354,0.4908974482793069,1.2936636645226964,0.9794272980051355,0.284873,0.7250052683007054
0.0605,1.7084937500000001,1.0,2665.628149919609,0.49375309798294004,1.2930039487605771,0.9796233775793494,0.2848097375,0.7262394324321082
0.061,1.7069750000000001,1.0,2663.4016399752877,0.49659274318519997,1.2923385451064662,0.9798147215518548,0.28474595,0.7274814255262585
0.0615,1.7054437500000001,1.0,2661.1811235045166,0.499416469689492,1.2916674496812686,0.9800014690043268,0.2846816375,0.7287311823865583
0.062,1.7039,1.0,2658.9670153822804,0.5022243632992212,1.29099065860589,0.9801837537418456,0.2846168,0.7299886371304543
0.0625,1.70234375,1.0,2656.7597297981565,0.5050165098177928,1.2903081680012352,0.9803617045310615,0.2845514375,0.7312537231880314
0.063,1.7007750000000001,1.0,2654.559680261081,0.5077929950486121,1.2896199739882102,0.9805354453258778,0.28448555,0.732526373300601
0.0635,1.69919375,1.0,2652.367279604324,0.5105539047950841,1.2889260726877196,0.9807050954813966,0.28441913750000003,0.7338065195192939
0.064,1.6976,1.0,2650.182939990047,0.5132993248606142,1.2882264602206694,0.9808707699568169,0.2843522,0.7350940932036443
0.0645,1.69599375,1.0,2648.007072915627,0.5160293410486075,1.2875211327079645,0.9810325795079334,0.2842847375,0.7363890250201819
0.065,1.694375,1.0,2645.8400892190425,0.5187440391624693,1.28681008627051,0.9811906308698397,0.28421675,0.7376912449410158
0.0655,1.69274375,1.0,2643.6823990848907,0.5214435050056045,1.286093317029212,0.9813450269304032,0.2841482375,0.7390006822424198
0.066,1.6911,1.0,2641.53441205132,0.5241278243814187,1.2853708211049748,0.9814958668950372,0.2840792,0.7403172655034198
0.0665,1.6894437500000001,1.0,2639.396537016744,0.5267970830933169,1.2846425946187046,0.9816432464432687,0.2840096375,0.7416409226043744
0.067,1.687775,1.0,2637.269182246696,0.5294513669447042,1.283908633691306,0.9817872578775644,0.28393955,0.7429715807255608
0.0675,1.68609375,1.0,2635.152755381794,0.532090761738986,1.2831689344436847,0.981927990264848,0.2838689375,0.7443091663457531
0.068,1.6844000000000001,1.0,2633.0476634454562,0.5347153532795673,1.2824234929967462,0.9820655295711174,0.2837978,0.7456536052408064
0.0685,1.68269375,1.0,2630.9543128518217,0.5373252273698536,1.2816723054713952,0.9821999587895449,0.2837261375,0.7470048224822354
0.069,1.680975,1.0,2628.87490921669,0.5399204210289946,1.2809153513188576,0.982331354153077,0.28365395,0.7483627723003916
0.0695,1.67924375,1.0,2626.807814450944,0.5425010682291298,1.2801526455728538,0.9824597971291773,0.28358123749999997,0.7497273443192951
0.07,1.6775,1.0,2624.752479141806,0.5450672599679767,1.279384193200356,0.9825853632335617,0.283508,0.7510984457582467
0.07050000000000001,1.67574375,1.0,2622.7088620671516,0.5476190728446632,1.2786099944644074,0.9827081243304132,0.2834342375,0.7524759916598944
0.07100000000000001,1.673975,1.0,2620.6769221172312,0.5501565834583172,1.2778300496280508,0.9828281498877804,0.28335995,0.7538598964402896
0.07150000000000001,1.67219375,1.0,2618.656618294213,0.5526798684080668,1.2770443589543294,0.9829455070720203,0.2832851375,0.7552500738889817
0.07200000000000001,1.6704,1.0,2616.6479097115252,0.55518900429304,1.2762529227062864,0.9830602608378991,0.2832098,0.7566464371691153
0.0725,1.66859375,1.0,2614.6507555931794,0.5576840677123645,1.275455741146965,0.9831724740145816,0.2831339375,0.7580488988175264
0.073,1.6667750000000001,1.0,2612.6651152734044,0.5601651352651685,1.274652814539408,0.9832822073877191,0.28305755,0.7594573707448391
0.0735,1.66494375,1.0,2610.6909481959383,0.5626322835505801,1.273844143146659,0.9833895197778385,0.2829806375,0.7608717642355618
0.074,1.6631,1.0,2608.728213913253,0.5650855891677271,1.2730297272317608,0.9834944681152228,0.2829032,0.7622919899481834
0.0745,1.6612437500000001,1.0,2606.776872086297,0.5675251287157375,1.2722095670577567,0.9835971075114586,0.2828252375,0.76371795791527
0.075,1.659375,1.0,2604.836882483911,0.5699509787937391,1.2713836628876896,0.9836974913278214,0.28274675,0.7651495775435615
0.0755,1.65749375,1.0,2602.9082049820013,0.5723632160008602,1.2705520149846026,0.983795671240658,0.2826677375,0.7665867576140669
