Time [s],Phi [rad],STIM [ ],Fsee [N],Gamma [ ],Lcerel [ ],q [ ],Lmtc [m],fisomrel [ ]
0.0,1.8,1.0,17.966531970174106,2.0775189253023717e-05,1.3793398163753836,0.005000114369520811,0.288653,0.5411393613274562
0.0005,1.79999375,1.0,18.279555956121037,0.00562986796566953,1.3793020754641518,0.012970457231323933,0.2886527375,0.5412306618258509
0.001,1.799975,1.0,21.629243760277593,0.01120749816647833,1.3789371928389151,0.03566475363314268,0.28865195,0.5421128950362336
0.0015,1.79994375,1.0,31.097065707067628,0.016753842272725295,1.3780438332645655,0.0706785947332837,0.2886506375,0.5442693243961525
0.002,1.7999,1.0,53.64398811569784,0.022269075773783616,1.3763641365263852,0.11480889369843889,0.2886488,0.5483100661248357
0.0025,1.79984375,1.0,97.22355431650033,0.02775337317500024,1.373930127388796,0.16467373405961977,0.28864643749999996,0.5541334816039503
0.003,1.7997750000000001,1.0,161.09504168761987,0.033206908005307255,1.3712092214884755,0.2173824223245549,0.28864354999999997,0.5605985774295917
0.0035,1.79969375,1.0,237.83840224907703,0.038629852816895106,1.3685799584240348,0.270714307041971,0.2886401375,0.5668010658422729
0.004,1.7996,1.0,321.63203116640835,0.04402237919597404,1.3661517158569514,0.32301400264473407,0.2886362,0.5724901816805177
0.0045000000000000005,1.7994937500000001,1.0,409.4390971151559,0.04938465776796426,1.3639187924360925,0.3731277264398721,0.2886317375,0.5776884965301539
0.005,1.799375,1.0,499.5884904784647,0.05471685818861137,1.3618546242279048,0.42033467455515405,0.28862675,0.5824656598369955
0.0055,1.79924375,1.0,590.9671077947914,0.060019149190999675,1.359935383189117,0.4642544449544277,0.2886212375,0.5868830354862995
0.006,1.7991000000000001,1.0,682.6951425872871,0.06529169852985879,1.3581431969444338,0.5047541679376213,0.2886152,0.5909867681199634
0.006500000000000001,1.79894375,1.0,774.0594602904832,0.0705346730340725,1.3564642117599872,0.541868586880227,0.2886086375,0.5948127096120249
0.007,1.798775,1.0,864.4646730845135,0.07574823860435315,1.3548875059533252,0.5757385650924569,0.28860155,0.5983892159382289
0.0075,1.79859375,1.0,953.4201483015606,0.080932560180455,1.353404057906701,0.6065660996734441,0.2885939375,0.6017397061705265
0.008,1.7984,1.0,1040.5340457469551,0.08608780182605442,1.352006061227677,0.6345830889707491,0.2885858,0.6048843522288805
0.0085,1.79819375,1.0,1125.4923325693806,0.09121412663297898,1.3506867202854986,0.6600307401984811,0.2885771375,0.6078406384419657
0.009000000000000001,1.797975,1.0,1208.053212010066,0.09631169681238197,1.3494399441242395,0.6831464285105286,0.28856795,0.6106241245231134
0.0095,1.79774375,1.0,1288.0325574552614,0.10138067341193314,1.3482602666252346,0.7041559476829184,0.2885582375,0.6132486820475782
0.01,1.7975,1.0,1365.3251712383314,0.10642121766125572,1.3471423530433149,0.7232691075124966,0.288548,0.6157276362358117
0.0105,1.79724375,1.0,1439.8185596463234,0.11143348816800663,1.3460819556787842,0.7406784227476969,0.2885372375,0.6180716835253446
0.011,1.796975,1.0,1511.4632995244253,0.11641764352931726,1.3450748302648425,0.7565582023543056,0.28852595000000003,0.6202913313701853
0.0115,1.79669375,1.0,1580.244934176118,0.12137384146302631,1.3441170026517903,0.7710652646444047,0.2885141375,0.6223963280801905
0.012,1.7964,1.0,1646.191265950713,0.12630223992683717,1.3432045935561776,0.7843399326057402,0.28850180000000003,0.6243960681184277
0.0125,1.79609375,1.0,1709.304214273006,0.13120299386092452,1.3423345388027295,0.7965076611812607,0.2884889375,0.6262980342561305
0.013000000000000001,1.7957750000000001,1.0,1769.6159076799445,0.1360762579587644,1.341503838266018,0.8076800966964774,0.28847555,0.6281094657193157
0.0135,1.79544375,1.0,1827.1865650073905,0.1409221865896906,1.340709539251634,0.8179564821793847,0.2884616375,0.629837403899679
0.014,1.7951000000000001,1.0,1882.0891038755742,0.14574093373047864,1.3399488698174955,0.8274250505130291,0.2884472,0.6314884117021923
0.0145,1.79474375,1.0,1934.3918627881424,0.15053265221098228,1.3392193843382032,0.8361643088788726,0.2884322375,0.633068269417125
0.015,1.794375,1.0,1984.154823495784,0.15529749261724984,1.3385189583384702,0.8442441477156363,0.28841675,0.6345819988693784
0.0155,1.79399375,1.0,2031.45637494433,0.16003560553532975,1.3378454673430098,0.851726739516024,0.2884007375,0.6360345669508396
0.016,1.7936,1.0,2076.3833356615287,0.16474714083260442,1.3371968743443694,0.8586674771695317,0.2883842,0.6374307013150113
0.0165,1.7931937500000001,1.0,2119.030668600085,0.1694322487417898,1.3365712130045675,0.8651157722813689,0.2883671375,0.6387749316856954
0.017,1.792775,1.0,2159.4845074087075,0.17409107799077303,1.335966744156726,0.8711158061947568,0.28834955,0.6400712589946715
0.0175,1.7923437500000001,1.0,2197.813409223616,0.1787237746582199,1.3353820222635995,0.8767071615713851,0.2883314375,0.6413230202244211
0.018000000000000002,1.7919,1.0,2234.0953864598173,0.1833304848227963,1.334815601787943,0.8819252813836437,0.2883128,0.6425335229571991
0.0185,1.79144375,1.0,2268.4171161648096,0.187911354563168,1.3342660371925115,0.8868019524066685,0.2882936375,0.6437060471288729
0.019,1.790975,1.0,2300.861173262368,0.19246652856339122,1.3337320019639638,0.8913657574932468,0.28827395,0.6448435933199135
0.0195,1.79049375,1.0,2331.521371640965,0.19699615300741874,1.3332121269437476,0.8956424047493695,0.2882537375,0.6459492297755863
0.02,1.79,1.0,2360.470396535404,0.20150037072900007,1.3327053121158183,0.8996551237784741,0.288233,0.6470254314091706
0.0205,1.78949375,1.0,2387.773851361072,0.20597932299011196,1.332210576726744,0.9034249082001197,0.2882117375,0.648074402777054
0.021,1.788975,1.0,2413.5018229497227,0.21043315105273125,1.3317269400230924,0.9069707374523692,0.28818995000000003,0.6490983331087872
0.021500000000000002,1.78844375,1.0,2437.7285067945895,0.2148619961788347,1.331253421251432,0.9103097976655884,0.2881676375,0.6500993970319559
0.022,1.7879,1.0,2460.5239969091567,0.21926599806612246,1.3307891148750082,0.9134576903511261,0.2881448,0.6510795965567877
0.0225,1.78734375,1.0,2481.963335602073,0.22364529822194448,1.3303330995161275,0.9164285851927316,0.28812143749999997,0.6520409546048093
0.023,1.786775,1.0,2502.11006795912,0.22800003553458909,1.3298845916583368,0.9192353982167594,0.28809755,0.6529851919209578
0.0235,1.78619375,1.0,2521.01787099143,0.23233034618720974,1.3294429250408384,0.9218899174018121,0.28807313749999996,0.6539137727695681
0.024,1.7856,1.0,2538.742555274156,0.23663636636295993,1.3290074334028334,0.9244028978890655,0.2880482,0.6548281529517861
0.0245,1.78499375,1.0,2555.341885417794,0.24091823224499312,1.328577450483524,0.9267841667030775,0.2880227375,0.6557297800821027
0.025,1.784375,1.0,2570.8754103821684,0.2451760800164628,1.3281523100221118,0.9290427155860428,0.28799675,0.6566200938365812
0.025500000000000002,1.78374375,1.0,2585.391975595545,0.24941004259945332,1.3277314608955078,0.931186801167921,0.2879702375,0.6575002855207152
0.026000000000000002,1.7831000000000001,1.0,2598.9554286210573,0.25362025859546117,1.327314224765315,0.933223980576283,0.2879432,0.6583718056960488
0.0265,1.78244375,1.0,2611.610850394417,0.2578068606684364,1.3269001103202933,0.9351612238132707,0.2879156375,0.6592357075018498
0.027,1.781775,1.0,2623.397458043982,0.2619699794197776,1.326488690294631,0.9370049512174805,0.28788755,0.6600929053242877
0.0275,1.7810937500000001,1.0,2634.3553620615285,0.2661097454508835,1.3260795374225152,0.9387610757849774,0.2878589375,0.6609443089104545
0.028,1.7804,1.0,2644.525489323628,0.27022628936315257,1.3256722244381338,0.9404350499689684,0.2878298,0.6617908234359624
0.0285,1.77969375,1.0,2653.9495101615653,0.27431974175798346,1.3252663240756744,0.9420319075958482,0.2878001375,0.6626333495609005
0.029,1.778975,1.0,2662.6697694780273,0.27839023323677475,1.3248614090693245,0.9435563014603321,0.28776995,0.6634727834741487
0.029500000000000002,1.7782437500000001,1.0,2670.7198216242846,0.28243788948493603,1.3244571385334232,0.9450125471329965,0.2877392375,0.6643098381846398
0.03,1.7775,1.0,2678.1469032517684,0.2864628453161804,1.3240530505863695,0.946404629464728,0.287708,0.6651454732323594
0.0305,1.77674375,1.0,2684.9806403600714,0.2904652268517404,1.323648849486426,0.947736262790181,0.2876762375,0.6659803004659208
0.031,1.775975,1.0,2691.2481894433477,0.2944451586846954,1.3232442655338394,0.9490108980808515,0.28764395,0.6668148749983696
0.0315,1.7751937500000001,1.0,2696.977034949858,0.2984027654081245,1.3228390290288565,0.9502317422878327,0.2876111375,0.6676497491572231
0.032,1.7744,1.0,2702.1949586218198,0.30233817161510707,1.3224328702717243,0.9514017786127145,0.2875778,0.6684854724755658
0.0325,1.77359375,1.0,2706.930010447869,0.3062515018987223,1.3220255195626895,0.9525237848596627,0.2875439375,0.6693225916785073
0.033,1.772775,1.0,2711.210481227614,0.3101428808520495,1.3216167072019989,0.9536003500709036,0.28750955,0.6701616506649992
0.0335,1.7719437500000002,1.0,2715.063360342787,0.3140124314462865,1.3212061773100605,0.954633890761561,0.2874746375,0.671003162174292
0.034,1.7711000000000001,1.0,2718.5096452733383,0.3178602708813656,1.3207937302838324,0.9556266682072545,0.2874392,0.6718475210796677
0.0345,1.7702437500000001,1.0,2721.58370959909,0.32168653467908476,1.320379046138024,0.9565807873209033,0.2874032375,0.6726953660576845
0.035,1.7693750000000001,1.0,2724.3023095233207,0.32549134054588197,1.3199619666467115,0.9574982300040812,0.28736675,0.6735470022307675
0.035500000000000004,1.76849375,1.0,2726.6823085505534,0.3292748061881951,1.31954233358397,0.9583808517157976,0.2873297375,0.6744027329327514
0.036000000000000004,1.7676,1.0,2728.740666362961,0.3330370493124621,1.3191199887238751,0.9592303909897512,0.2872922,0.6752628596839088
0.0365,1.76669375,1.0,2730.494428252502,0.33677818762512074,1.3186947738405028,0.9600484781314385,0.2872541375,0.6761276821643838
0.037,1.765775,1.0,2731.9607151077093,0.34049833883260905,1.3182665307079284,0.9608366431742156,0.28721555,0.6769974981860307
0.0375,1.76484375,1.0,2733.1567139561334,0.34419762064136494,1.3178351011002276,0.9615963231650082,0.2871764375,0.6778726036626533
0.038,1.7639,1.0,2734.099669060946,0.3478761507578263,1.317400326791476,0.9623288688429494,0.28713679999999997,0.6787532925786488
0.0385,1.76294375,1.0,2734.8068735736697,0.35153404688843093,1.3169620495557488,0.9630355507676389,0.28709663750000003,0.6796398569560557
0.039,1.761975,1.0,2735.2944949297107,0.3551714254187876,1.316520121761753,0.9637175656714868,0.28705595,0.6805325654334344
0.0395,1.7609937500000001,1.0,2735.5633863719786,0.35878838735310287,1.3160745351290692,0.9643760506402435,0.2870147375,0.6814314038359145
0.04,1.76,1.0,2735.647852017664,0.3623850727848266,1.3156249779029512,0.9650120576263922,0.286973,0.6823369685068927
0.0405,1.7589937500000001,1.0,2735.556386167344,0.3659615914499652,1.3151713728813166,0.9656265940389812,0.2869307375,0.6832493804722771
0.041,1.757975,1.0,2735.297500084684,0.36951805308452484,1.3147136428620827,0.9662206107932247,0.28688795,0.684168759555094
0.0415,1.75694375,1.0,2734.879719328316,0.3730545674245117,1.314251710643167,0.9667950060633481,0.2868446375,0.6850952243553674
0.042,1.7559,1.0,2734.3115812160377,0.37657124420593213,1.313785499022487,0.9673506287487406,0.28680079999999997,0.6860288922296198
0.0425,1.75484375,1.0,2733.601632420918,0.38006819316479235,1.3133149307979606,0.9678882816780359,0.2867564375,0.686969879269991
0.043000000000000003,1.753775,1.0,2732.758426699357,0.38354552403709863,1.3128399287675045,0.9684087245734138,0.28671155,0.6879183002829805
0.043500000000000004,1.75269375,1.0,2731.7905227521082,0.3870033465588571,1.312360415729037,0.9689126767952995,0.28666613750000003,0.6888742687678037
0.044,1.7516,1.0,2730.706482216267,0.39044177046607415,1.311876314480475,0.9694008198857826,0.2866202,0.6898378968943746
0.0445,1.75049375,1.0,2729.5148677904913,0.39386090549475594,1.3113875478197363,0.9698737999273649,0.2865737375,0.6908092954809038
0.045,1.7493750000000001,1.0,2728.22424149177,0.39726086138090877,1.3108940385447383,0.9703322297321398,0.28652675,0.6917885739711186
0.0455,1.74824375,1.0,2726.8431630442788,0.40064174786053885,1.3103957094533984,0.9707766908751384,0.2864792375,0.6927758404111016
0.046,1.7471,1.0,2725.3768538161266,0.4040036617161382,1.3098925136766595,0.9712077360582434,0.2864312,0.6937711414769179
0.0465,1.7459437500000001,1.0,2723.83319404647,0.4073467214549183,1.3093843801399512,0.9716258915785827,0.28638263750000004,0.6947745705529917
0.047,1.744775,1.0,2722.2185059039434,0.41067103798424626,1.3088712519017551,0.9720316576719721,0.28633355,0.6957861918005183
0.0475,1.74359375,1.0,2720.537148507378,0.41397671306195566,1.308353089852924,0.97242551015296,0.28628393750000003,0.696806033093605
0.048,1.7424,1.0,2718.7934782620837,0.4172638484458801,1.3078298548843101,0.9728079017809942,0.2862338,0.6978341213070937
0.0485,1.74119375,1.0,2716.991848347257,0.42053254589385325,1.3073015078867654,0.9731792635879486,0.2861831375,0.6988704823039551
0.049,1.739975,1.0,2715.1366082359546,0.42378290716370864,1.3067680097511425,0.973540006117383,0.28613195,0.6999151409225859
0.0495,1.73874375,1.0,2713.2321032505847,0.42701503401327995,1.3062293213682936,0.9738905205821587,0.2860802375,0.7009681209640126
0.05,1.7375,1.0,2711.2826741510307,0.4302290282004007,1.305685403629071,0.9742311799464846,0.286028,0.7020294451789921
0.0505,1.73624375,1.0,2709.292656757184,0.4334249914829046,1.3051362174243273,0.974562339937961,0.2859752375,0.7030991352550181
0.051000000000000004,1.734975,1.0,2707.2663816055438,0.4366030256186252,1.3045817236449142,0.9748843399947387,0.28592195,0.7041772118032306
0.051500000000000004,1.73369375,1.0,2705.208173639278,0.4397632323653961,1.3040218831816845,0.9751975041524915,0.2858681375,0.7052636943452237
0.052000000000000005,1.7324,1.0,2703.122351932616,0.44290571348105096,1.3034566569254906,0.975502141875524,0.2858138,0.7063586012997611
0.0525,1.73109375,1.0,2701.0114695435686,0.4460305600885492,1.3028860218481986,0.9757985487308376,0.28575893750000003,0.7074619189061626
0.053,1.729775,1.0,2698.875373513345,0.449137856003024,1.3023099796251218,0.9760870080487343,0.28570355000000003,0.7085735848822017
0.0535,1.72844375,1.0,2696.7227376847295,0.45222774153393785,1.3017284512191827,0.9763677915579456,0.2856476375,0.7096936917247235
0.054,1.7271,1.0,2694.5549790420732,0.4553003095830947,1.301141423857672,0.9766411583979789,0.2855912,0.7108222029240241
0.0545,1.7257437500000001,1.0,2692.3735124745067,0.4583556530522985,1.3005488847678808,0.976907356582143,0.2855342375,0.7119590812014769
0.055,1.724375,1.0,2690.1797507363467,0.46139386484335326,1.2999508211771,0.9771666235661529,0.28547675,0.7131042885050489
0.0555,1.72299375,1.0,2687.975104411409,0.46441503785806293,1.2993472203126206,0.9774191867830951,0.2854187375,0.7142577860048067
0.056,1.7216,1.0,2685.76098188016,0.46741926499823155,1.2987380694017334,0.9776652641470015,0.2853602,0.7154195340884091
0.0565,1.72019375,1.0,2683.5387892913627,0.4704066391656631,1.2981233556717298,0.9779050645271198,0.28530113749999997,0.7165894923565923
0.057,1.718775,1.0,2681.309930536948,0.47337725326216157,1.2975030663499,0.9781387881948092,0.28524155,0.7177676196186447
0.0575,1.71734375,1.0,2679.0758072300846,0.47633120018953096,1.296877188663536,0.978366627244849,0.2851814375,0.7189538738878676
0.058,1.7159,1.0,2676.837818687838,0.47926857284957514,1.2962457098399276,0.97858876599282,0.2851208,0.7201482123770326
0.0585,1.71444375,1.0,2674.597361916439,0.48218946414409825,1.2956086171063665,0.978805381350097,0.2850596375,0.7213505914938187
0.059000000000000004,1.7129750000000001,1.0,2672.3558316009494,0.4850939669749042,1.2949658976901437,0.9790166431778814,0.28499795,0.722560966836249
0.059500000000000004,1.71149375,1.0,2670.1146200980943,0.48798217424379703,1.2943175388185497,0.979222714621599,0.2849357375,0.7237792931881106
0.06,1.71,1.0,2667.875117432702,0.4908541788525806,1.2936635277188755,0.9794237524269003,0.284873,0.7250055245143663
0.0605,1.7084937500000001,1.0,2665.638711298227,0.493710073703059,1.2930038516184126,0.9796199072384062,0.2848097375,0.7262396139565539
0.061,1.7069750000000001,1.0,2663.4067870602307,0.49654995169703625,1.2923384977444512,0.9798113238822692,0.28474595,0.7274815138281809
0.0615,1.7054437500000001,1.0,2661.179720056404,0.4993738973984942,1.2916674626007945,0.9799981414718856,0.2846816375,0.728731158354637
0.062,1.7039,1.0,2658.9547163800507,0.5021819702696098,1.290990771872339,0.9801804934385919,0.2846168,0.7299884269296568
0.0625,1.70234375,1.0,2656.73907178755,0.5049743134264748,1.2903083583283124,0.9803585097601483,0.2845514375,0.7312533708058679
0.063,1.7007750000000001,1.0,2654.5329504658303,0.5077510103267877,1.2896202203582288,0.9805323143709674,0.28448555,0.7325259182386832
0.0635,1.69919375,1.0,2652.33651635275,0.5105121444282466,1.2889263563516025,0.9807020266114269,0.28441913750000003,0.7338059968284019
0.064,1.6976,1.0,2650.149933139634,0.5132577991885499,1.2882267646979473,0.980867761430372,0.2843522,0.7350935335196241
0.0645,1.69599375,1.0,2647.9733642746396,0.5159880580653957,1.2875214437867777,0.9810296295772506,0.2842847375,0.7363884546006596
0.065,1.694375,1.0,2645.806972965604,0.5187030045164824,1.2868103920076077,0.9811877377844793,0.28421675,0.7376906857029413
0.0655,1.69274375,1.0,2643.6509221827528,0.5214027219995082,1.2860936077499514,0.9813421889406105,0.2841482375,0.7390001518004368
0.066,1.6911,1.0,2641.5053746622393,0.5240872939721715,1.285371089403323,0.9814930822548191,0.2840792,0.7403167772090582
0.0665,1.6894437500000001,1.0,2639.370492909165,0.5267568038921704,1.2846428353572368,0.9816405134132085,0.2840096375,0.7416404855860745
0.067,1.687775,1.0,2637.246439200457,0.5294113352172032,1.2839088440012068,0.981784574727395,0.28393955,0.7429711999295231
0.0675,1.68609375,1.0,2635.1333755886485,0.5320509714049683,1.283169113724747,0.9819253552758034,0.2838689375,0.744308842577619
0.068,1.6844000000000001,1.0,2633.031463904811,0.5346757959131637,1.2824236429173717,0.982062941038081,0.2837978,0.7456533352081662
0.0685,1.68269375,1.0,2630.940865762059,0.537285892199488,1.281672429968595,0.9821974150230083,0.2837261375,0.7470045988379684
0.069,1.680975,1.0,2628.8617425589828,0.5398813437216391,1.2809154732679315,0.9823288573902644,0.28365395,0.7483625538222387
0.0695,1.67924375,1.0,2626.7942554832402,0.5424622339373156,1.2801527712048946,0.9824573455663851,0.28358123749999997,0.7497271198540114
0.07,1.6775,1.0,2624.7385655149087,0.5450286463042157,1.2793843221689989,0.9825829543552216,0.283508,0.7510982159635493
0.07050000000000001,1.67574375,1.0,2622.6948334301915,0.5475806642800374,1.2786101245497585,0.9827057560432032,0.2834342375,0.7524757605177552
0.07100000000000001,1.673975,1.0,2620.6632198050797,0.5501183713224793,1.2778301767366875,0.9828258204996773,0.28335995,0.7538596712195822
0.07150000000000001,1.67219375,1.0,2618.644950278007,0.5526418493426263,1.2770444672336716,0.982943214728011,0.2832851375,0.7552498825740149
0.07200000000000001,1.6704,1.0,2616.6375896152445,0.5551511745421966,1.2762530185136547,0.9830580047160687,0.2832098,0.7566462683740254
0.0725,1.66859375,1.0,2614.6392941268095,0.5576464254492569,1.275455847590967,0.9831702541923149,0.2831339375,0.7580487118237946
0.073,1.6667750000000001,1.0,2612.6512383280333,0.5601276800360058,1.2746529434652454,0.9832800235297645,0.28305755,0.7594571449166988
0.0735,1.66494375,1.0,2610.67459498003,0.5625950162746413,1.2738442951361275,0.9833873711442668,0.2829806375,0.7608714987927216
0.074,1.6631,1.0,2608.710535112804,0.565048512137362,1.2730298916032499,0.9834923535689281,0.2829032,0.7622917037344312
0.0745,1.6612437500000001,1.0,2606.7602280504866,0.5674882455963662,1.2722097218662498,0.9835950255252202,0.2828252375,0.763717689162943
0.075,1.659375,1.0,2604.8255693109127,0.5699142936299194,1.2713837681522089,0.9836954396384968,0.28274675,0.7651493953555744
0.0755,1.65749375,1.0,2602.9012648211524,0.572326734250029,1.2705520795838974,0.983793649836549,0.2826677375,0.766586646150601
