Time [s],Phi [rad],STIM [ ],Fsee [N],Gamma [ ],Lcerel [ ],q [ ],Lmtc [m],fisomrel [ ]
0.0,1.8,1.0,20.21825120721651,0.0015334266862456853,1.3790949887218824,0.005601549888325604,0.288653,0.5417314717026653
0.0005,1.79999375,1.0,20.9485718122211,0.0071340346838979435,1.3790157193359343,0.017704034635243393,0.2886527375,0.5419231010722714
0.001,1.799975,1.0,25.435210174546743,0.012703227699083136,1.3785643063073818,0.04398052619841038,0.28865195,0.5430136032844732
0.0015,1.79994375,1.0,37.569425315024645,0.018241181944929463,1.377518691551705,0.08177373501119804,0.2886506375,0.5455345584473489
0.002,1.7999,1.0,65.2398010433011,0.023748072646320045,1.3756490467206013,0.1277649666206474,0.2886488,0.5500248523530087
0.0025,1.79984375,1.0,114.75762585624769,0.029224074045127054,1.3731206422616495,0.1786520735110683,0.28864643749999996,0.5560618186168819
0.003,1.7997750000000001,1.0,182.71042733337703,0.03466935940581773,1.3704259291561274,0.23172629030091585,0.28864354999999997,0.5624509917373077
0.0035,1.79969375,1.0,261.6231208074248,0.0400841010207167,1.3678650135002224,0.2849264325136379,0.2886401375,0.56848001225281
0.004,1.7996,1.0,346.5681806219847,0.04546847021472229,1.3655037470399063,0.3367365219117462,0.2886362,0.5740019480222838
0.0045000000000000005,1.7994937500000001,1.0,435.0165426353387,0.050822637360048765,1.3633276107878367,0.3861271474589744,0.2886317375,0.579059461859701
0.005,1.799375,1.0,525.499647857663,0.056146771862989164,1.3613110695000854,0.43247858759289964,0.28862675,0.5837191041348995
0.0055,1.79924375,1.0,616.9724310086884,0.061441042179749925,1.3594328471658979,0.47548594951331713,0.2886212375,0.5880358047774756
0.006,1.7991000000000001,1.0,708.6027528128559,0.06670561579627397,1.3576767110751715,0.5150685880778239,0.2886152,0.5920515636302561
0.006500000000000001,1.79894375,1.0,799.7170016344455,0.07194065938503263,1.3560298412617051,0.5512950825774724,0.2886086375,0.5957995922549907
0.007,1.798775,1.0,889.7309242470893,0.07714633838624442,1.354482356329945,0.5843267549664934,0.28860155,0.5993056729935263
0.0075,1.79859375,1.0,978.2035513906984,0.08232281782600846,1.3530253442286204,0.6143760270511452,0.2885939375,0.6025928135595155
0.008,1.7984,1.0,1064.7476968941749,0.08747026123217776,1.3516516440797215,0.6416791791854446,0.2885858,0.6056795957143779
0.0085,1.79819375,1.0,1149.0634032235234,0.09258883137637963,1.350354795850982,0.6664774921584697,0.2885771375,0.6085826435721196
0.009000000000000001,1.797975,1.0,1230.9453684501118,0.09767869069269082,1.3491286376951663,0.6890056800007202,0.28856795,0.6113175839959097
0.0095,1.79774375,1.0,1310.2152985896823,0.10273999985171925,1.347967998633546,0.709485684846507,0.2885582375,0.6138975507875145
0.01,1.7975,1.0,1386.7495750960875,0.10777291886496504,1.3468680792584113,0.7281229014356535,0.288548,0.6163346160445806
0.0105,1.79724375,1.0,1460.4859914396436,0.11277760720981143,1.3458242227887856,0.7451047284029648,0.2885372375,0.6186403282287386
0.011,1.796975,1.0,1531.3875325566758,0.11775422359050096,1.3448322552957737,0.7606007077252909,0.28852595000000003,0.620824986312597
0.0115,1.79669375,1.0,1599.4226682278613,0.1227029247973077,1.343888594930268,0.774763284286669,0.2885141375,0.6228974307298665
0.012,1.7964,1.0,1664.6018672289204,0.127623867337305,1.3429897086039284,0.7877287005732103,0.28850180000000003,0.6248662620911744
0.0125,1.79609375,1.0,1726.9673199714339,0.13251720747042312,1.34213217765178,0.7996183979858448,0.2884889375,0.62673970987006
0.013000000000000001,1.7957750000000001,1.0,1786.5664038897066,0.1373831006155648,1.341312943501835,0.8105405355285311,0.28847555,0.6285251103256162
0.0135,1.79544375,1.0,1843.4350960060997,0.1422216996456628,1.3405294251437347,0.820591402483039,0.2884616375,0.6302286690410637
0.014,1.7951000000000001,1.0,1897.6357507556604,0.1470331574336499,1.339779041567121,0.8298565339806212,0.2884472,0.6318565143868902
0.0145,1.79474375,1.0,1949.2477991279613,0.1518176263322447,1.3390592871383233,0.8384119566758776,0.2884322375,0.633414540195319
0.015,1.794375,1.0,1998.3580675967626,0.15657525857714075,1.3383678069913,0.8463253151561536,0.28841675,0.6349082499741654
0.0155,1.79399375,1.0,2045.0487177358273,0.16130620525811232,1.3377024945821998,0.8536568826524216,0.2884007375,0.6363425546969366
0.016,1.7936,1.0,2089.3842899743336,0.1660106148126174,1.337061595272019,0.8604604576223324,0.2883842,0.6377215592878878
0.0165,1.7931937500000001,1.0,2131.4427810480684,0.170688635678114,1.3364433544217547,0.8667840217920194,0.2883671375,0.6390493280147882
0.017,1.792775,1.0,2171.3145087736925,0.17534041629206015,1.335846017392403,0.8726704293853873,0.28834955,0.640329887122646
0.0175,1.7923437500000001,1.0,2209.0815262559977,0.17996610345475705,1.3352680267573824,0.878158065815642,0.2883314375,0.6415668055937854
0.018000000000000002,1.7919,1.0,2244.8479371308504,0.1845658457664126,1.3347077005560146,0.8832812860937663,0.2883128,0.6427638877184478
0.0185,1.79144375,1.0,2278.683398839082,0.18913978752614993,1.3341637906588872,0.8880710252537658,0.2882936375,0.643923982820419
0.019,1.790975,1.0,2310.659284077387,0.19368807251655057,1.3336351021600694,0.89255509560188,0.28827395,0.6450498042303573
0.0195,1.79049375,1.0,2340.853334644241,0.19821084452019588,1.3331204401536294,0.896758530919626,0.2882537375,0.6461440444893247
0.02,1.79,1.0,2369.3489056552608,0.2027082472825039,1.3326186118682337,0.9007039015215562,0.288233,0.6472093719351062
0.0205,1.78949375,1.0,2396.218647124273,0.2071804222891925,1.3321285800123226,0.9044116229514796,0.2882117375,0.6482481069483362
0.021,1.788975,1.0,2421.550986634987,0.21162751401567223,1.3316491985663075,0.9079001389512275,0.28818995000000003,0.6492627840890497
0.021500000000000002,1.78844375,1.0,2445.4049893531833,0.21604966140911858,1.3311796451878897,0.9111862233193023,0.2881676375,0.6502552379248199
0.022,1.7879,1.0,2467.843045590774,0.22044700341670714,1.3307190975347702,0.9142850946372864,0.2881448,0.6512272912174335
0.0225,1.78734375,1.0,2488.930596186011,0.2248196789856136,1.3302667332646505,0.9172105819736406,0.28812143749999997,0.6521807554167609
0.023,1.786775,1.0,2508.7358728766317,0.22916782706301347,1.3298217300352315,0.9199752709971322,0.28809755,0.6531174311115016
0.0235,1.78619375,1.0,2527.318519692459,0.2334915837938698,1.3293833706779075,0.92259065103541,0.28807313749999996,0.654038887502743
0.024,1.7856,1.0,2544.7470740955605,0.237791090132688,1.3289508746673455,0.9250672003770656,0.2880482,0.6549468177792996
0.0245,1.78499375,1.0,2561.0723555578256,0.24206648113555548,1.3285236470677388,0.9274145266752379,0.2880227375,0.6558425169557136
0.025,1.784375,1.0,2576.3423481957343,0.24631789045378785,1.3281011347335745,0.9296414304084385,0.28799675,0.6567271855438164
0.025500000000000002,1.78374375,1.0,2590.6064780547167,0.2505454517387007,1.3276827845193397,0.9317559777687742,0.2879702375,0.6576020176328188
0.026000000000000002,1.7831000000000001,1.0,2603.915489440092,0.2547492986416096,1.3272680432795223,0.933765571888668,0.2879432,0.6584682010458951
0.0265,1.78244375,1.0,2616.321328031782,0.2589295648138302,1.326856357868609,0.9356770162892674,0.2879156375,0.6593269174772571
0.027,1.781775,1.0,2627.8664065166963,0.26308638113445704,1.3264472735612873,0.9374965854475434,0.28788755,0.6601791377053636
0.0275,1.7810937500000001,1.0,2638.5988692637734,0.26721988178162165,1.3260402909748068,0.939230054728516,0.2878589375,0.6610259204753295
0.028,1.7804,1.0,2648.570335337041,0.27133020041845435,1.325634886569607,0.9408827477796574,0.2878298,0.6618683694158136
0.0285,1.77969375,1.0,2657.8133935860938,0.2754174646984743,1.3252307193963302,0.9424596050422857,0.2878001375,0.6627072039570967
0.029,1.778975,1.0,2666.361216255253,0.2794818022752007,1.3248274485056184,0.943965194228145,0.28776995,0.6635431399787304
0.029500000000000002,1.7782437500000001,1.0,2674.24750824565,0.28352334080215275,1.3244247329481138,0.945403743240722,0.2877392375,0.6643768898327329
0.03,1.7775,1.0,2681.5064589548624,0.28754220793284957,1.3240222317744588,0.9467791697962069,0.287708,0.6652091623593717
0.0305,1.77674375,1.0,2688.17269669388,0.2915385313208104,1.323619604035295,0.9480951081108594,0.2876762375,0.6660406628955322
0.031,1.775975,1.0,2694.2812456812953,0.29551243861955445,1.3232165087812648,0.9493549329771815,0.28764395,0.6668720932756713
0.0315,1.7751937500000001,1.0,2699.8599375274966,0.29946405315521174,1.322812674047806,0.9505617887226778,0.2876111375,0.6677040098026308
0.032,1.7744,1.0,2704.9437669151357,0.3033935051878609,1.3224077651063588,0.9517185955807732,0.2875778,0.6685370950227135
0.0325,1.77359375,1.0,2709.558677601478,0.307300918872189,1.3220015323897145,0.9528280817893606,0.2875439375,0.6693718531207768
0.033,1.772775,1.0,2713.7268946635268,0.3111864157545751,1.3215937622571392,0.953892794249843,0.28750955,0.6702087119811819
0.0335,1.7719437500000002,1.0,2717.4708314262775,0.31505011738139815,1.3211842410678984,0.9549151095651082,0.2874746375,0.6710480972246113
0.034,1.7711000000000001,1.0,2720.813070510763,0.3188921452990372,1.3207727551812583,0.9558972474501305,0.2874392,0.6718904321856651
0.0345,1.7702437500000001,1.0,2723.776345895305,0.3227126210538713,1.3203590909564844,0.9568412829358339,0.2874032375,0.6727361378875477
0.035,1.7693750000000001,1.0,2726.383525987549,0.32651166619227934,1.319943034752843,0.9577491574874787,0.28736675,0.673585633013843
0.035500000000000004,1.76849375,1.0,2728.657597709598,0.3302894022606404,1.3195243729295991,0.9586226891454592,0.2873297375,0.6744393338773803
0.036000000000000004,1.7676,1.0,2730.608866407246,0.33404593822672574,1.3191030080347992,0.9594635908331044,0.2872922,0.6752974179309403
0.0365,1.76669375,1.0,2732.2740960520828,0.33778141163099207,1.3186786029131874,0.9602734514262871,0.2872541375,0.6761605486138362
0.037,1.765775,1.0,2733.666557266233,0.3414959374951125,1.3182510346504444,0.9610537786975575,0.28721555,0.6770289507140359
0.0375,1.76484375,1.0,2734.7991523586165,0.3451896304177765,1.317820184186726,0.9618059893521657,0.2871764375,0.6779028396795775
0.038,1.7639,1.0,2735.6848329167733,0.3488626049976737,1.3173859324621886,0.9625314152673469,0.28713679999999997,0.6787824294486833
0.0385,1.76294375,1.0,2736.336593726741,0.35251497583349345,1.3169481604169881,0.9632313094977143,0.28709663750000003,0.6796679324243851
0.039,1.761975,1.0,2736.76746700627,0.35614685752392544,1.3165067489912805,0.963906851792726,0.28705595,0.680559559448248
0.0395,1.7609937500000001,1.0,2736.990516953835,0.3597583646676591,1.316061579125222,0.9645591536707014,0.2870147375,0.6814575197731859
0.04,1.76,1.0,2737.0188346103537,0.363349611863384,1.3156125317589682,0.9651892630893896,0.286973,0.6823620210353772
0.0405,1.7589937500000001,1.0,2736.865533036181,0.3669207137097897,1.3151594878326756,0.9657981687491086,0.2869307375,0.6832732692252731
0.041,1.757975,1.0,2736.543742802096,0.3704717848055657,1.3147023282864998,0.9663868040609288,0.28688795,0.6841914686577044
0.0415,1.75694375,1.0,2736.0642199716644,0.3740029349125024,1.3142409557389463,0.9669560518261696,0.2868446375,0.6851167784957705
0.042,1.7559,1.0,2735.4371828433323,0.37751427624009126,1.3137752777868363,0.9675067473914726,0.28680079999999997,0.6860493464598013
0.0425,1.75484375,1.0,2734.675776472718,0.38100592895834656,1.3133051755202656,0.9680396799972174,0.2867564375,0.6869893717864017
0.043000000000000003,1.753775,1.0,2733.7871595264724,0.38447800039905977,1.3128305844305788,0.9685555989583738,0.28671155,0.6879369433827249
0.043500000000000004,1.75269375,1.0,2732.7784952885045,0.3879305978940225,1.31235144000912,0.9690552139037603,0.28666613750000003,0.6888921489930774
0.044,1.7516,1.0,2731.656950051371,0.3913638287750262,1.3118676777472338,0.9695391972694246,0.2866202,0.6898550751803174
0.0445,1.75049375,1.0,2730.4296916015687,0.3947778003738624,1.3113792331362646,0.9700081866115511,0.2865737375,0.6908258073069891
0.045,1.7493750000000001,1.0,2729.1038877958763,0.39817262002232273,1.3108860416675563,0.9704627867536033,0.28652675,0.691804429516194
0.0455,1.74824375,1.0,2727.6867052304856,0.4015483950521986,1.3103880388324538,0.9709035717810897,0.2864792375,0.6927910247121912
0.046,1.7471,1.0,2726.1853080025635,0.40490523279528157,1.3098851601223012,0.9713310868961337,0.2864312,0.6937856745407391
0.0465,1.7459437500000001,1.0,2724.6068565635774,0.4082432405833632,1.3093773410284428,0.9717458501429568,0.28638263750000004,0.6947884593691664
0.047,1.744775,1.0,2722.9585066651243,0.41156252574823504,1.308864517042223,0.9721483540144064,0.28633355,0.6957994582661808
0.0475,1.74359375,1.0,2721.2383830159747,0.4148631724394373,1.3083467058166631,0.9725390698280405,0.28628393750000003,0.6968185874107533
0.048,1.7424,1.0,2719.4593829944833,0.41814531004754574,1.3078237905270331,0.9729184424134203,0.2862338,0.6978460267396979
0.0485,1.74119375,1.0,2717.629393019616,0.42140905107841664,1.3072956998633762,0.9732868962844201,0.2861831375,0.6988818649409368
0.049,1.739975,1.0,2715.7514885346905,0.4246544945352225,1.3067624062749952,0.9736448371616835,0.28613195,0.6999261036236442
0.0495,1.73874375,1.0,2713.8287421593714,0.427881739421136,1.306223882211192,0.9739926517204003,0.2860802375,0.7009787435060778
0.05,1.7375,1.0,2711.8642234274243,0.4310908847393295,1.30568010012127,0.9743307086533654,0.286028,0.7020397844064108
0.0505,1.73624375,1.0,2709.8609985421836,0.4342820294929756,1.305131032454531,0.9746593596654802,0.2859752375,0.70310922523352
0.051000000000000004,1.734975,1.0,2707.8221301484245,0.4374552726852468,1.3045766516602781,0.974978940404684,0.28592195,0.7041870639777219
0.051500000000000004,1.73369375,1.0,2705.750677120898,0.44061071331931567,1.304016930187814,0.9752897713339106,0.2858681375,0.70527329770146
0.052000000000000005,1.7324,1.0,2703.6496943700918,0.4437484503983547,1.303451840486441,0.975592158548289,0.2858138,0.7063679225299475
0.0525,1.73109375,1.0,2701.5222326648473,0.4468685829255364,1.3028813550054616,0.975886394541474,0.28575893750000003,0.7074709336417586
0.053,1.729775,1.0,2699.37133847119,0.44997120990403333,1.3023054461941788,0.9761727589246898,0.28570355000000003,0.7085823252593701
0.0535,1.72844375,1.0,2697.2000538087386,0.45305643033701803,1.3017240865018946,0.9764515191017789,0.2856476375,0.7097020906396595
0.054,1.7271,1.0,2695.0114161235824,0.45612434322766293,1.3011372483779122,0.9767229309033072,0.2855912,0.7108302220643482
0.0545,1.7257437500000001,1.0,2692.8084581778903,0.45917504757914074,1.3005449042715338,0.9769872391825281,0.2855342375,0.7119667108304037
0.055,1.724375,1.0,2690.5942079564493,0.46220864239462384,1.2999470266320623,0.9772446783758064,0.28547675,0.7131115472403856
0.0555,1.72299375,1.0,2688.3665853951334,0.4652252094089253,1.2993436346484133,0.9774954741617413,0.2854187375,0.7142646313631291
0.056,1.7216,1.0,2686.128179162531,0.46822485219821497,1.2987347047639866,0.9777398423486867,0.2853602,0.7154259444182838
0.0565,1.72019375,1.0,2683.8858487345688,0.47120768356106474,1.2981201742351947,0.9779779883545222,0.28530113749999997,0.7165955411797742
0.057,1.718775,1.0,2681.6404977567945,0.47417379373666946,1.2975000348310708,0.9782101102115581,0.28524155,0.7177733714142591
0.0575,1.71734375,1.0,2679.3930283819127,0.477123272964224,1.296874278320649,0.9784363978917338,0.2851814375,0.718959384156868
0.058,1.7159,1.0,2677.1443412643052,0.4800562114829233,1.2962428964729629,0.9786570336971891,0.2851208,0.720153527708257
0.0585,1.71444375,1.0,2674.8953355557605,0.4829726995319622,1.2956058810570459,0.9788721926289011,0.2850596375,0.721355749631657
0.059000000000000004,1.7129750000000001,1.0,2672.646908902313,0.4858728273505355,1.2949632238419315,0.9790820427347771,0.28499795,0.7225659967499191
0.059500000000000004,1.71149375,1.0,2670.3999574430104,0.4887566851778381,1.294314916596654,0.9792867454385051,0.2849357375,0.7237842151425528
0.06,1.71,1.0,2668.1553758101136,0.49162436325306474,1.2936609510902466,0.9794864558503661,0.284873,0.7250103501427672
0.0605,1.7084937500000001,1.0,2665.914057130608,0.49447595181541054,1.293001319091743,0.9796813230611261,0.2848097375,0.7262443463344979
0.061,1.7069750000000001,1.0,2663.6768930295407,0.49731154110407016,1.292336012370177,0.9798714904200561,0.28474595,0.7274861475494379
0.0615,1.7054437500000001,1.0,2661.4447736342076,0.5001312213582385,1.291665022694582,0.9800570957980468,0.2846816375,0.728735696864059
0.062,1.7039,1.0,2659.2185875810815,0.5029350828171105,1.2909883418339918,0.9802382718367281,0.2846168,0.7299929365966324
0.0625,1.70234375,1.0,2656.999222022677,0.505723215719881,1.2903059615574402,0.9804151461844357,0.2845514375,0.7312578083042414
0.063,1.7007750000000001,1.0,2654.7875626370273,0.5084957103057448,1.2896178736339605,0.9805878417198101,0.28448555,0.7325302527797937
0.0635,1.69919375,1.0,2652.5844936386625,0.5112526568138968,1.2889240698325868,0.9807564767637651,0.28441913750000003,0.7338102100490259
0.064,1.6976,1.0,2650.3853727531573,0.5139941132254848,1.2882245928868574,0.980921165518273,0.2843522,0.7350975256862414
0.0645,1.69599375,1.0,2648.1962294354153,0.5167202021575549,1.2875193871214945,0.9810820177518932,0.2842847375,0.7363922258586741
0.065,1.694375,1.0,2646.0185336777195,0.5194310140905168,1.2868084388619225,0.9812391390183884,0.28421675,0.7376942582831214
0.0655,1.69274375,1.0,2643.8523459343705,0.5221266308089464,1.286091747429621,0.9813926311023757,0.2841482375,0.7390035460863074
0.066,1.6911,1.0,2641.6977266031,0.5248071340974192,1.2853693121460692,0.9815425921580864,0.2840792,0.7403200117515285
0.0665,1.6894437500000001,1.0,2639.554736026388,0.527472605740511,1.2846411323327462,0.9816891168631557,0.2840096375,0.7416435771184058
0.067,1.687775,1.0,2637.423434492538,0.5301231275227977,1.283907207311132,0.9818322965648387,0.28393955,0.7429741633826338
0.0675,1.68609375,1.0,2635.3038822379785,0.5327587812288548,1.2831675364027053,0.9819722194190704,0.2838689375,0.7443116910957353
0.068,1.6844000000000001,1.0,2633.1961394482914,0.5353796486432582,1.2824221189289455,0.9821089705227755,0.2837978,0.7456560801648104
0.0685,1.68269375,1.0,2631.1002662595392,0.5379858115505834,1.2816709542113323,0.9822426320397908,0.2837261375,0.7470072498522882
0.069,1.680975,1.0,2629.0163227604085,0.5405773517354064,1.2809140415713445,0.9823732833207587,0.28365395,0.748365118775679
0.0695,1.67924375,1.0,2626.944368993039,0.5431543509823029,1.280151380330462,0.982501001017312,0.28358123749999997,0.749729604907324
0.07,1.6775,1.0,2624.8844649551907,0.5457168910758485,1.2793829698101638,0.9826258591908641,0.283508,0.751100625574149
0.07050000000000001,1.67574375,1.0,2622.8366706015445,0.5482650538006191,1.278608809331929,0.9827479294162914,0.2834342375,0.7524780974574135
0.07100000000000001,1.673975,1.0,2620.801045845017,0.5507989209411901,1.2778288982172374,0.9828672808807803,0.28335995,0.7538619365924615
0.07150000000000001,1.67219375,1.0,2618.7776505587935,0.5533185742821376,1.2770432357875683,0.9829839804780961,0.2832851375,0.7552520583684753
0.07200000000000001,1.6704,1.0,2616.7665445778543,0.5558240956080371,1.2762518213644007,0.9830980928985128,0.2832098,0.7566483775282246
0.0725,1.66859375,1.0,2614.7677877001593,0.5583155667034645,1.275454654269214,0.9832096807146321,0.2831339375,0.7580508081678182
0.073,1.6667750000000001,1.0,2612.7816902786267,0.5607930300882098,1.2746517314954002,0.9833188020715108,0.28305755,0.7594592678143449
0.0735,1.66494375,1.0,2610.807914250493,0.56325660444343,1.2738430560588565,0.9834255179143602,0.2829806375,0.7608736627817154
0.074,1.6631,1.0,2608.846160611206,0.5657063774274231,1.2730286306176282,0.9835298854237047,0.2829032,0.7622938994357868
0.0745,1.6612437500000001,1.0,2606.896218293501,0.5681424223681183,1.2722084570165537,0.9836319591067286,0.2828252375,0.7637198849766168
0.075,1.659375,1.0,2604.957876598202,0.5705648125934444,1.2713825371004719,0.9837317917450283,0.28274675,0.765151526010558
0.0755,1.65749375,1.0,2603.0309251901076,0.5729736214313305,1.2705508727142207,0.9838294344588187,0.2826677375,0.7665887285509361
