Time [s],Phi [rad],STIM [ ],Fsee [N],Gamma [ ],Lcerel [ ],q [ ],Lmtc [m],fisomrel [ ]
0.0,1.8,1.0,17.995644750006793,0.00017097843923059944,1.3793365560338084,0.005007618554144886,0.288653,0.5411472489043664
0.0005,1.79999375,1.0,18.3577563612003,0.0057792286942307675,1.379293398859235,0.013393461381350683,0.2886527375,0.5412516504521978
0.001,1.799975,1.0,21.81895640318808,0.011356021099458092,1.3789178636429131,0.036452356595359434,0.28865195,0.5421596065442943
0.0015,1.79994375,1.0,31.52712004879172,0.01690153210953695,1.3780073362596112,0.07175351063695454,0.2886506375,0.5443573142025293
0.002,1.7999,1.0,54.552661855836504,0.022415937187269724,1.3763054677169209,0.11607989251537011,0.2886488,0.5484508768059613
0.0025,1.79984375,1.0,98.73603620000173,0.027899410812170025,1.373857564839901,0.16605519649741418,0.28864643749999996,0.5543065089667706
0.003,1.7997750000000001,1.0,163.053443445609,0.03335212648677658,1.371136169145463,0.21880680320754087,0.28864354999999997,0.560771504949076
0.0035,1.79969375,1.0,240.0458485261431,0.038774256737421464,1.3685121424009357,0.27213045895519156,0.2886401375,0.566960462063369
0.004,1.7996,1.0,323.97736532553586,0.04416597312463847,1.366089725676588,0.32438483444797617,0.2886362,0.5726349258738537
0.0045000000000000005,1.7994937500000001,1.0,411.86557722619926,0.04952744624846643,1.3638619297411962,0.37442873486828754,0.2886317375,0.5778204594547602
0.005,1.799375,1.0,502.06275462172664,0.05485884574028473,1.361802120456429,0.42155168191281817,0.28862675,0.5825868164324989
0.0055,1.79924375,1.0,593.4617985708043,0.06016034030211664,1.359886701589629,0.46538108777187853,0.2886212375,0.5869947768461012
0.006,1.7991000000000001,1.0,685.1905224433314,0.06543209767000113,1.3580978848306415,0.5057894822371661,0.2886152,0.5910902579075912
0.006500000000000001,1.79894375,1.0,776.5364226452854,0.07067428463994102,1.3564219670233146,0.5428151967798497,0.2886086375,0.5949087417832628
0.007,1.798775,1.0,866.9083662811322,0.07588706710737937,1.3548480644156096,0.5766012259148027,0.28860155,0.5984784795296411
0.0075,1.79859375,1.0,955.8170509664525,0.08107060989909975,1.353367217627242,0.6073507295228373,0.2885939375,0.6018227343953488
0.008,1.7984,1.0,1042.8841657919893,0.08622507729773532,1.351971482877852,0.6352959830785778,0.2885858,0.6049619746197895
0.0085,1.79819375,1.0,1127.7837215990369,0.09135063207447791,1.3506543017000572,0.6606783652481847,0.2885771375,0.6079131399848383
0.009000000000000001,1.797975,1.0,1210.2777292688947,0.09644743645317044,1.349409564644289,0.6837350004529013,0.28856795,0.6106918244103586
0.0095,1.79774375,1.0,1290.2018392798796,0.10151565205952365,1.3482315748650109,0.7046911714281232,0.2885582375,0.6133124051882473
0.01,1.7975,1.0,1367.4137584981183,0.10655543881201074,1.3471155208632153,0.7237565063284171,0.288548,0.6157870381883251
0.0105,1.79724375,1.0,1441.826796059233,0.11156695608240885,1.3460568312050265,0.7411228575944847,0.2885372375,0.6181271351286218
0.011,1.796975,1.0,1513.4096016547937,0.11655036317256942,1.3450510641007827,0.7569639640205886,0.28852595000000003,0.6203436325348137
0.0115,1.79669375,1.0,1582.133336375003,0.1215058173303827,1.344094450396239,0.7714362935498363,0.2885141375,0.6224458201738208
0.012,1.7964,1.0,1647.9950568248282,0.1264334749632687,1.3431834871399826,0.7846799087968014,0.28850180000000003,0.6244422645230913
0.0125,1.79609375,1.0,1711.0229095090524,0.13133349199356087,1.3423148024253568,0.7968197330479327,0.2884889375,0.6263411225780897
0.013000000000000001,1.7957750000000001,1.0,1771.274941575497,0.13620602445134206,1.3414851141476816,0.8079669523210639,0.28847555,0.6281502449475284
0.0135,1.79544375,1.0,1828.795067993851,0.14105122609962648,1.340691673460379,0.8182205884133928,0.2884616375,0.629876223325148
0.014,1.7951000000000001,1.0,1883.6311224406234,0.14586924956459688,1.339931993877913,0.8276687028228001,0.2884472,0.6315249985273803
0.0145,1.79474375,1.0,1935.8550443702463,0.1506602474724361,1.3392035889147462,0.8363895318863505,0.2884322375,0.6331024402658032
0.015,1.794375,1.0,1985.5426606249437,0.15542437133485518,1.338504165136775,0.8444526850500029,0.28841675,0.6346139355390783
0.0155,1.79399375,1.0,2032.7961285398017,0.1601617733121822,1.33783135377007,0.8519200649699078,0.2884007375,0.6360649757968173
0.016,1.7936,1.0,2077.680122142321,0.1648726021818107,1.3371833618883884,0.858846980078474,0.2883842,0.6374597591378959
0.0165,1.7931937500000001,1.0,2120.2692934457414,0.16955700647934488,1.3365584369989463,0.8652827552865816,0.2883671375,0.6388023548623288
0.017,1.792775,1.0,2160.650868972647,0.17421513474038894,1.3359548266089585,0.8712714289762268,0.28834955,0.6400967936165327
0.0175,1.7923437500000001,1.0,2198.905671155163,0.17884713404419278,1.3353709594697978,0.87685242732814,0.2883314375,0.6413466822203675
0.018000000000000002,1.7919,1.0,2235.1410065109144,0.18345315291647785,1.3348050976693009,0.8820610121521277,0.2883128,0.6425559520875316
0.0185,1.79144375,1.0,2269.4260019870117,0.18803333581756732,1.3342559790065969,0.8869289325551345,0.2882936375,0.6437274888339971
0.019,1.790975,1.0,2301.8335999632204,0.1925878269177047,1.3337223758019765,0.8914847168397223,0.28827395,0.6448640812789681
0.0195,1.79049375,1.0,2332.443344579768,0.19711677038713352,1.33320306037573,0.8957540333163821,0.2882537375,0.6459684966717079
0.02,1.79,1.0,2361.3345742299252,0.20162030950248686,1.3326968661093896,0.8997600286163042,0.288233,0.647043352299078
0.0205,1.78949375,1.0,2388.5916984270316,0.20609858806348402,1.3322026293152736,0.903523598015604,0.2882117375,0.6480912406760808
0.021,1.788975,1.0,2414.28986393484,0.21055174822665124,1.3317193231464646,0.9070636630194167,0.28818995000000003,0.6491144472297559
0.021500000000000002,1.78844375,1.0,2438.4902393130355,0.21497992950969522,1.3312460953126808,0.9103973936854748,0.2881676375,0.6501148735334898
0.022,1.7879,1.0,2461.2574620747423,0.21938327143032266,1.3307820935236396,0.9135403623508184,0.2881448,0.6510944088141521
0.0225,1.78734375,1.0,2482.6593496190953,0.2237619135062403,1.3303264654890592,0.9165067143981115,0.28812143749999997,0.6520549304767391
0.023,1.786775,1.0,2502.760450950458,0.22811599401541371,1.329878417537446,0.9193093294089555,0.28809755,0.6529981812595358
0.0235,1.78619375,1.0,2521.6285328637214,0.23244565205910578,1.3294371497491513,0.9219599415250109,0.28807313749999996,0.6539259067766432
0.024,1.7856,1.0,2539.3301561413937,0.23675102628649602,1.3290018956273133,0.9244692636176417,0.2880482,0.6548397725562323
0.0245,1.78499375,1.0,2555.9134406449402,0.24103225108813683,1.3285720814416706,0.926847116842026,0.2880227375,0.6557410309218373
0.025,1.784375,1.0,2571.4281463719162,0.24528946085458048,1.3281471334619614,0.9291024875391919,0.28799675,0.6566309272981431
0.025500000000000002,1.78374375,1.0,2585.9255360976163,0.24952278997637936,1.3277264779579245,0.9312436095934605,0.2879702375,0.6575107003995344
0.026000000000000002,1.7831000000000001,1.0,2599.4582453147136,0.2537323728440858,1.3273095411992983,0.9332780376613573,0.2879432,0.6583815823976558
0.0265,1.78244375,1.0,2612.0747912415263,0.25791834250281226,1.3268957993357005,0.9352127197103958,0.2879156375,0.6592446950786781
0.027,1.781775,1.0,2623.8215548316452,0.2620808320334432,1.3264847583919197,0.9370540517689787,0.28788755,0.6601010922760517
0.0275,1.7810937500000001,1.0,2634.7549422980705,0.26621997631731187,1.326075840522281,0.9388079128722148,0.2878589375,0.6609519968995152
0.028,1.7804,1.0,2644.910113854665,0.27033590417078057,1.3256686727511078,0.9404797524437093,0.2878298,0.6617982002185328
0.0285,1.77969375,1.0,2654.322916493771,0.2744287444102117,1.3252628821027241,0.9420746015465872,0.2878001375,0.6626404895606804
0.029,1.778975,1.0,2663.029824373693,0.27849862585196755,1.324858095601454,0.9435971104462002,0.28776995,0.6634796483488412
0.029500000000000002,1.7782437500000001,1.0,2671.0678822904324,0.2825456773124104,1.3244539402716213,0.9450515823494128,0.2877392375,0.6643164561295254
0.03,1.7775,1.0,2678.474652233826,0.28657002760790257,1.32405004313755,0.9464420037512741,0.287708,0.6651516885923215
0.0305,1.77674375,1.0,2685.282696910054,0.2905718035518239,1.3236460813158852,0.947772077632925,0.2876762375,0.6659860141864522
0.031,1.775975,1.0,2691.5268040889027,0.2945511336777236,1.32324171516376,0.9490452401698591,0.28764395,0.6668201325828782
0.0315,1.7751937500000001,1.0,2697.2414817398076,0.2985081454415257,1.3228366109168808,0.9502646851208636,0.2876111375,0.6676547278434393
0.032,1.7744,1.0,2702.4514160588983,0.30244296209955346,1.3224305274781074,0.9514333936125098,0.2875778,0.6684902900197367
0.0325,1.77359375,1.0,2707.1815449817746,0.3063557069081301,1.322023223750301,0.952554141553419,0.2875439375,0.6693273066500753
0.033,1.772775,1.0,2711.457033886048,0.3102465031235788,1.3216144586363217,0.9536295162511408,0.28750955,0.6701662627425566
0.0335,1.7719437500000002,1.0,2715.3032525825397,0.31411547400222295,1.3212039910390305,0.9546619314936939,0.2874746375,0.6710076407544592
0.034,1.7711000000000001,1.0,2718.745753595515,0.3179627428003856,1.320791579861288,0.9556536412539507,0.2874392,0.6718519205679175
0.0345,1.7702437500000001,1.0,2721.800459811565,0.3217884273232148,1.3203770731365265,0.9566067605447525,0.2874032375,0.6726993973484463
0.035,1.7693750000000001,1.0,2724.496856461535,0.32559265504735363,1.3199601966340389,0.9575232570312672,0.28736675,0.6735506140622041
0.035500000000000004,1.76849375,1.0,2726.8601494213863,0.3293755488473742,1.3195407162690131,0.9584049760456923,0.2873297375,0.6744060288465754
0.036000000000000004,1.7676,1.0,2728.9063687584053,0.33313722573606164,1.3191184823650357,0.9592536540753779,0.2872922,0.6752659254242233
0.0365,1.76669375,1.0,2730.651626821295,0.3368778027262012,1.3186933452456933,0.9600709195391357,0.2872541375,0.6761305857656549
0.037,1.765775,1.0,2732.1121088923337,0.34059739683057816,1.318265155234572,0.9608583007290974,0.28721555,0.677000290062225
0.0375,1.76484375,1.0,2733.3040643366994,0.3442961250619776,1.3178337626552588,0.9616172330836692,0.2871764375,0.6778753166977062
0.038,1.7639,1.0,2734.2437982479523,0.34797410443318477,1.31739901783134,0.9623490658547005,0.28713679999999997,0.6787559422184335
0.0385,1.76294375,1.0,2734.947663591006,0.35163145195698486,1.3169607710864017,0.9630550682254159,0.28709663750000003,0.6796424413020206
0.039,1.761975,1.0,2735.4320538405327,0.3552682846461631,1.3165188727440307,0.963736434929855,0.28705595,0.6805350867246432
0.0395,1.7609937500000001,1.0,2735.709203054467,0.3588847149391297,1.316073211197882,0.9643942940160293,0.2870147375,0.6814340725862855
0.04,1.76,1.0,2735.791582335615,0.362480859567402,1.3156236729346449,0.9650297094885644,0.286973,0.6823395952909577
0.0405,1.7589937500000001,1.0,2735.6958895219936,0.36605683868574984,1.315170106269145,0.9656436822549792,0.2869307375,0.683251926384872
0.041,1.757975,1.0,2735.4311632302524,0.3696127625398026,1.3147124292176566,0.9662371613759789,0.28688795,0.6841711954589333
0.0415,1.75694375,1.0,2735.0064565697558,0.37314874137518955,1.3142505597964547,0.9668110432891249,0.2868446375,0.6850975308278535
0.042,1.7559,1.0,2734.4308344278893,0.37666488543754006,1.313784416021814,0.9673661752662569,0.28680079999999997,0.6860310595084478
0.0425,1.75484375,1.0,2733.7133709034642,0.38016130497248346,1.313313915910009,0.9679033586095516,0.2867564375,0.6869719071974996
0.043000000000000003,1.753775,1.0,2732.863146889408,0.38363811022564903,1.3128389774773146,0.9684233516084555,0.28671155,0.6879201982491973
0.043500000000000004,1.75269375,1.0,2731.8892478050057,0.38709541144266607,1.3123595187400054,0.9689268722776122,0.28666613750000003,0.6888760556521435
0.044,1.7516,1.0,2730.8007614762055,0.39053331886916387,1.3118754577143563,0.9694146008940405,0.2866202,0.6898396010059336
0.0445,1.75049375,1.0,2729.6067761658687,0.39395194275077194,1.311386712416642,0.9698871823501429,0.2865737375,0.6908109544973069
0.045,1.7493750000000001,1.0,2728.310683792224,0.39735138134477377,1.3108932526394295,0.970345230574947,0.28652675,0.6917901322170787
0.0455,1.74824375,1.0,2726.923422876491,0.4007317519637974,1.3103949795719085,0.9707893257626066,0.2864792375,0.6927772852568702
0.046,1.7471,1.0,2725.4559631736606,0.40409317163967895,1.3098917940639876,0.971220018739152,0.2864312,0.6937725636855967
0.0465,1.7459437500000001,1.0,2723.912746143619,0.4074357430041701,1.3093836562949392,0.9716378352054963,0.28638263750000004,0.6947759987805322
0.047,1.744775,1.0,2722.2982116071935,0.4107595686890227,1.3088705264440361,0.9720432748885874,0.28633355,0.6957876208360458
0.0475,1.74359375,1.0,2720.6167971525,0.4140647513259884,1.3083523646905508,0.9724368130660159,0.28628393750000003,0.6968074591509743
0.048,1.7424,1.0,2718.8729375752127,0.41735139354681905,1.3078291312137562,0.9728189019873468,0.2862338,0.697835542015893
0.0485,1.74119375,1.0,2717.0710643554207,0.42061959798326637,1.3073007861929247,0.9731899722000639,0.2861831375,0.6988718967002883
0.049,1.739975,1.0,2715.215605168472,0.42386946726708213,1.306767289807329,0.9735504337873505,0.28613195,0.6999165494396244
0.0495,1.73874375,1.0,2713.310983431425,0.4271011040300181,1.306228602236242,0.9739006775243235,0.2860802375,0.7009695254223136
0.05,1.7375,1.0,2711.3616178850584,0.43031461090382606,1.3056846836589358,0.9742410759587866,0.286028,0.7020308487765828
0.0505,1.73624375,1.0,2709.37192221018,0.43351009052025774,1.3051354942546833,0.9745719844220669,0.2859752375,0.703100542557239
0.051000000000000004,1.734975,1.0,2707.3463046798797,0.43668764551106487,1.3045809942027575,0.9748937419750416,0.28592195,0.7041786287323335
0.051500000000000004,1.73369375,1.0,2705.2891678463575,0.4398473785079993,1.3040211436824307,0.9752066722940513,0.2858681375,0.7052651281697284
0.052000000000000005,1.7324,1.0,2703.2039518985353,0.44298939033042933,1.3034559116081492,0.9755110848646399,0.2858138,0.7063600437183264
0.0525,1.73109375,1.0,2701.093565853301,0.44611377939139496,1.3028852717044408,0.9758072754355598,0.28575893750000003,0.7074633679353542
0.053,1.729775,1.0,2698.960603467319,0.4492206440116699,1.3023092005402204,0.9760955268723398,0.28570355000000003,0.7085750869538674
0.0535,1.72844375,1.0,2696.806918737889,0.4523100814535572,1.3017276814151266,0.9763761099755124,0.2856476375,0.709695173047997
0.054,1.7271,1.0,2694.6343630199144,0.45538218897936,1.301140697628798,0.976649283805939,0.2855912,0.7108235976774262
0.0545,1.7257437500000001,1.0,2692.444784955844,0.4584370638513814,1.300548232480873,0.9769152962906407,0.2855342375,0.7119603314815788
0.055,1.724375,1.0,2690.2400304119656,0.4614748033319245,1.29995026927099,0.9771743847924371,0.28547675,0.71310534427379
0.0555,1.72299375,1.0,2688.02858710098,0.464495503867073,1.2993467304369894,0.9774267729662337,0.2854187375,0.7142587212266722
0.056,1.7216,1.0,2685.8058518705966,0.4674992607089152,1.2987376582445702,0.9776726820047954,0.2853602,0.7154203174316021
0.0565,1.72019375,1.0,2683.5750747146312,0.47048616876247357,1.2981230230396241,0.9779123197167316,0.28530113749999997,0.7165901247886344
0.057,1.718775,1.0,2681.3417915372606,0.4734563227002632,1.2975027741554341,0.9781458841252676,0.28524155,0.7177681740109081
0.0575,1.71734375,1.0,2679.1045202120295,0.4764098164150846,1.2968769252294243,0.9783735687501454,0.2851814375,0.7189543726604681
0.058,1.7159042285881012,1.0,2677.062549402556,0.47934674329048876,1.2962455568552833,0.9785955630021418,0.28512097760070026,0.7201485014142319
0.0585,1.714464510353637,1.0,2675.5830573435096,0.4822671964337972,1.2956089424930766,0.9788120594286015,0.2850605094348527,0.7213499780552455
0.059000000000000004,1.7130247921191726,1.0,2674.631048455956,0.485171268095127,1.2949674880945452,0.9790232501943313,0.28500004126900524,0.7225579750229412
0.059500000000000004,1.7115850738847083,1.0,2674.1739977153898,0.48805904766814473,1.2943214897574358,0.9792293136880633,0.28493957310315776,0.7237718771267974
0.06,1.710145355650244,1.0,2674.1568549874733,0.4909306302657796,1.293671451850551,0.9794304331367987,0.2848791049373102,0.7249906835713952
0.0605,1.7087056374157796,1.0,2674.5383629306853,0.49378610823250485,1.2930177531808955,0.979626777766326,0.28481863677146274,0.726213636227104
0.061,1.707265919181315,1.0,2675.29280106056,0.49662557018743386,1.2923606306772415,0.9798185025078041,0.2847581686056152,0.7274402475446607
0.0615,1.7058262009468508,1.0,2676.394516031529,0.49944910474968013,1.2917003212683607,0.9800057564383694,0.2846977004397677,0.728670033711528
0.062,1.7043864827123865,1.0,2677.817904273066,0.5022568005383571,1.291037061883025,0.9801886830532122,0.28463723227392024,0.7299025147018379
0.0625,1.7029467644779221,1.0,2679.5373958713176,0.5050487461725782,1.2903710894500058,0.9803674205230987,0.28457676410807276,0.7311372143227575
0.063,1.7015070462434578,1.0,2681.527439694684,0.507825030271457,1.2897026408980754,0.9805421019382171,0.2845162959422252,0.7323736602572729
0.0635,1.7000673280089935,1.0,2683.7624897647484,0.5105857414541068,1.2890319531560055,0.9807128555391637,0.28445582777637773,0.7336113841033949
0.064,1.6986276097745292,1.0,2686.221973051805,0.5133309661382398,1.288359217521381,0.980879802463303,0.2843953596105302,0.7348500053267122
0.0645,1.6971878915400649,1.0,2688.88483627432,0.5160607927431655,1.2876846296118518,0.9810430598678228,0.2843348914446827,0.7360891386641952
0.065,1.6957481733056006,1.0,2691.729597416538,0.5187753100682923,1.2870083888063684,0.9812027409610633,0.28427442327883523,0.7373283952639429
0.0655,1.694308455071136,1.0,2694.7442201868,0.5214746022650888,1.286330607832945,0.9813589503505732,0.2842139551129877,0.7385675478890823
0.066,1.6928687368366717,1.0,2697.9166572912573,0.5241587534850238,1.285651399419596,0.9815117889784709,0.2841534869471402,0.739806371204166
0.0665,1.6914290186022074,1.0,2701.2348467249312,0.5268278478795659,1.2849708762943353,0.9816613542789314,0.2840930187812927,0.7410446417858376
0.067,1.689989300367743,1.0,2704.686708345081,0.5294819696001838,1.2842891511851773,0.9818077403278597,0.2840325506154452,0.7422821381326894
0.0675,1.6885495821332788,1.0,2708.2601407264424,0.5321212027983462,1.283606336820136,0.9819510379851933,0.2839720824495977,0.7435186406743098
0.068,1.6871098638988145,1.0,2711.9430182974343,0.5347456316255216,1.282922545927226,0.9820913350302435,0.2839116142837502,0.7447539317795175
0.0685,1.6856701456643501,1.0,2715.7249777143647,0.5373553384009854,1.2822378749323404,0.9822287153999785,0.2838511461179027,0.745987825107387
0.069,1.6842304274298856,1.0,2719.6002910044717,0.5399504022312921,1.2815523778330293,0.9823632580291122,0.2837906779520552,0.7472202121701756
0.0695,1.6827907091954213,1.0,2723.551252404674,0.5425309158178722,1.2808662175084773,0.982495045173374,0.28373020978620767,0.7484507903778084
0.07,1.681350990960957,1.0,2727.572890708476,0.5450969583588682,1.280179440603647,0.9826241501605565,0.2836697416203602,0.7496794676754701
0.07050000000000001,1.6799112727264927,1.0,2731.660222237487,0.5476486090524225,1.2794920937635008,0.9827506439189468,0.2836092734545127,0.7509061528179033
0.07100000000000001,1.6784715544920283,1.0,2735.8082502280154,0.5501859470966781,1.2788042236330008,0.9828745950732384,0.2835488052886652,0.7521307553711725
0.07150000000000001,1.677031836257564,1.0,2740.01196426547,0.5527090516897772,1.27811587685711,0.9829960700360058,0.2834883371228177,0.7533531857142886
0.07200000000000001,1.6755921180230997,1.0,2744.26633976776,0.5552180020298627,1.27742710008079,0.9831151330949726,0.2834278689569702,0.7545733550406994
0.0725,1.6741523997886354,1.0,2748.5663375159793,0.557712877315077,1.276737939949004,0.9832318464962957,0.28336740079112266,0.7557911753596348
0.073,1.672712681554171,1.0,2752.906903234252,0.5601937567435628,1.2760484431067138,0.983346270524071,0.2833069326252752,0.7570065594973194
0.0735,1.6712729633197068,1.0,2757.2829672170283,0.5626607195134626,1.2753586561988823,0.9834584635762539,0.2832464644594277,0.7582194210980412
