Time [s],Phi [rad],STIM [ ],Fsee [N],Gamma [ ],Lcerel [ ],q [ ],Lmtc [m],fisomrel [ ]
0.0,1.8,1.0,18.37111154334942,0.0006472322472408601,1.3792947414851624,0.005108008540779287,0.288653,0.5412484026840045
0.0005,1.79999375,1.0,18.876916106857326,0.006252811095018743,1.379236258867623,0.014803871950118414,0.2886527375,0.5413898595666111
0.001,1.799975,1.0,22.69163075159959,0.011826947077467289,1.378830013232395,0.03900613209185721,0.28865195,0.5423718784258402
0.0015,1.79994375,1.0,33.194081795468435,0.01736981656504757,1.377868167824311,0.0752018503444423,0.2886506375,0.5446927542892167
0.002,1.7999,1.0,57.78572591876972,0.022881594937157038,1.3761005886578854,0.1201332853466287,0.2886488,0.5489424337091584
0.0025,1.79984375,1.0,103.87562555081834,0.028362456589845972,1.3736150526811424,0.17044542277767838,0.28864643749999996,0.5548845421239388
0.003,1.7997750000000001,1.0,169.54479989582458,0.03381257494403413,1.3708971137557735,0.22332337144410055,0.28864354999999997,0.5613371524478215
0.0035,1.79969375,1.0,247.27347616657968,0.03923212244333795,1.3682922535187136,0.27661379953109566,0.2886401375,0.5674770918307002
0.004,1.7996,1.0,331.6062761425379,0.04462127056625648,1.3658896205517426,0.32871958038718424,0.2886362,0.5731019948102738
0.0045000000000000005,1.7994937500000001,1.0,419.727318555204,0.04998018982959215,1.3636788372250457,0.37853910010308545,0.2886317375,0.5782452275339246
0.005,1.799375,1.0,510.048150685765,0.0553090497620554,1.3616335473986922,0.425394338361869,0.28862675,0.5829756932265238
0.0055,1.79924375,1.0,601.5064764363866,0.060608019078269355,1.3597304101085148,0.4689366979266763,0.2886212375,0.5873534185049737
0.006,1.7991000000000001,1.0,693.2232939697932,0.06587726531384429,1.3579525800760281,0.5090558622359946,0.2886152,0.5914220357682227
0.006500000000000001,1.79894375,1.0,784.5057612796487,0.07111695523626199,1.3562865046274495,0.5458010407370139,0.2886086375,0.5952166027434771
0.007,1.798775,1.0,874.7750690855061,0.07632725468231023,1.354721470854752,0.5793218094888974,0.28860155,0.5987649174574023
0.0075,1.79859375,1.0,963.5385835214879,0.08150832832997577,1.353248851064752,0.6098249593569299,0.2885939375,0.6020894426703848
0.008,1.7984,1.0,1050.435894529577,0.0866603405009512,1.3518606339118922,0.6375440832493735,0.2885858,0.6052107598951576
0.0085,1.79819375,1.0,1135.1464999874831,0.09178345383232601,1.350550355384949,0.6627206457389552,0.2885771375,0.6081455623070344
0.009000000000000001,1.797975,1.0,1217.4316976015755,0.09687783036666622,1.349312054116225,0.6855910700782547,0.28856795,0.6109090843402538
0.0095,1.79774375,1.0,1297.133945056137,0.10194363177145141,1.3481400494832618,0.706379400346626,0.2885582375,0.613515643959796
0.01,1.7975,1.0,1374.1195514375652,0.10698101800483739,1.3470295094513882,0.7252937841677258,0.288548,0.6159774220979874
0.0105,1.79724375,1.0,1448.3010231675228,0.11199014829818904,1.3459759528977877,0.7425245803785223,0.2885372375,0.61830561229741
0.011,1.796975,1.0,1519.6417108146354,0.11697118119379238,1.3449750668681815,0.7582440676310829,0.28852595000000003,0.6205108521661152
0.0115,1.79669375,1.0,1588.1370800215122,0.12192427500281083,1.344022839920885,0.7726071576213539,0.2885141375,0.6226029515713305
0.012,1.7964,1.0,1653.7725055602705,0.12684958560894022,1.343115962015356,0.7857526675411921,0.28850180000000003,0.6245900402113416
0.0125,1.79609375,1.0,1716.5734967511605,0.1317472688639498,1.3422511307009422,0.79780432943996,0.2884889375,0.6264801133097151
0.013000000000000001,1.7957750000000001,1.0,1776.5808629854535,0.13661747956780715,1.3414252894751442,0.8088723146680847,0.28847555,0.6282805220242794
0.0135,1.79544375,1.0,1833.878252925982,0.14146037334989747,1.3406352656426856,0.8190544882482821,0.2884616375,0.6299987748741613
0.014,1.7951000000000001,1.0,1888.5066096115063,0.1462761022994267,1.339878681664525,0.8284380834348911,0.2884472,0.6316405668047975
0.0145,1.79474375,1.0,1940.525078118879,0.15106481825705187,1.3391532145833647,0.8371006205886129,0.2884322375,0.6332114063704407
0.015,1.794375,1.0,1990.0138143930144,0.15582667306343,1.3384565414419085,0.8451110101152371,0.28841675,0.6347167396530028
0.0155,1.79399375,1.0,2037.0524686973863,0.16056181729566213,1.3377865463811132,0.8525306281330547,0.2884007375,0.6361615085584187
0.016,1.7936,1.0,2081.745429841786,0.16527040228720885,1.3371410288761076,0.8594141130701559,0.2883842,0.6375507865062486
0.0165,1.7931937500000001,1.0,2124.159822821483,0.1699525758542696,1.3365183317258686,0.8658103512614266,0.2883671375,0.638888432437622
0.017,1.792775,1.0,2164.3710379458,0.17460848556172864,1.3359168364661058,0.8717630048141525,0.28834955,0.6401781855185061
0.0175,1.7923437500000001,1.0,2202.465377272763,0.17923827897447026,1.335334924632529,0.8773111175692601,0.2883314375,0.6414237510258166
0.018000000000000002,1.7919,1.0,2238.5249124413585,0.1838421023317414,1.3347711203654522,0.8824896950855614,0.2883128,0.6426284979887115
0.0185,1.79144375,1.0,2272.6498027994107,0.18842010325673064,1.3342238539860138,0.8873301146641901,0.2882936375,0.643795967559744
0.019,1.790975,1.0,2304.911640873453,0.19297242559370745,1.3336919193232724,0.8918606568086679,0.28827395,0.6449288998034142
0.0195,1.79049375,1.0,2335.381395582052,0.1974992124670901,1.3331741798923946,0.8961067865882109,0.2882537375,0.6460298656027752
0.02,1.79,1.0,2364.135784728253,0.20200060700129685,1.332669499208548,0.9000914563184729,0.288233,0.647101416761269
0.0205,1.78949375,1.0,2391.2549026388815,0.20647675197247903,1.3321767591095566,0.9038353912708551,0.2882117375,0.6481460481743355
0.021,1.788975,1.0,2416.8126303562194,0.21092778888216482,1.3316949474907724,0.9073573549716735,0.28818995000000003,0.649166013421855
0.021500000000000002,1.78844375,1.0,2440.890150492586,0.21535386095895703,1.3312230217201122,0.9106743360490778,0.2881676375,0.6501636156970603
0.022,1.7879,1.0,2463.5457484419217,0.21975510652360494,1.330760194824337,0.9138017947518694,0.2881448,0.6511406043359904
0.0225,1.78734375,1.0,2484.8407247110845,0.2241316638968579,1.330305679830208,0.9167537761491084,0.28812143749999997,0.652098717703776
0.023,1.786775,1.0,2504.83914452555,0.22848367139946524,1.3298586897644864,0.919543059258926,0.28809755,0.6530396836315571
0.0235,1.78619375,1.0,2523.607601167197,0.23281126735217622,1.329418437653933,0.9221812886995941,0.28807313749999996,0.6539652198139089
0.024,1.7856,1.0,2541.202559603776,0.2371145870614802,1.328984253652706,0.924679110766802,0.2880482,0.6548767884201916
0.0245,1.78499375,1.0,2557.6927990972968,0.24139377114456123,1.3285553704513937,0.9270462402690748,0.2880227375,0.6557760476643733
0.025,1.784375,1.0,2573.127486056725,0.2456489540478627,1.3281312220526638,0.9292915994323804,0.28799675,0.6566642254917905
0.025500000000000002,1.78374375,1.0,2587.552101433479,0.2498802687038968,1.3277112905867927,0.9314233716214441,0.2879702375,0.6575424426719985
0.026000000000000002,1.7831000000000001,1.0,2601.013415687476,0.25408784804517576,1.3272950581840575,0.9334490658099037,0.2879432,0.6584118140570614
0.0265,1.78244375,1.0,2613.5593785239116,0.2582718250042118,1.3268820069747351,0.9353755812567389,0.2879156375,0.6592734487122743
0.027,1.781775,1.0,2625.239014576586,0.2624323325135172,1.3264716190891026,0.9372092651913125,0.28788755,0.6601284500297828
0.0275,1.7810937500000001,1.0,2636.097716535283,0.26656950202671453,1.3260634192826146,0.9389559701431536,0.2878589375,0.6609778271866387
0.028,1.7804,1.0,2646.1757148626925,0.2706834642694652,1.3256569878030058,0.9406211015473684,0.2878298,0.6618224690531663
0.0285,1.77969375,1.0,2655.527450121203,0.27477435445697107,1.325251780640992,0.9422096343798496,0.2878001375,0.6626635178248215
0.029,1.778975,1.0,2664.1840323518604,0.2788422995526222,1.3248474753112398,0.9437261957525327,0.28776995,0.6635016510966628
0.029500000000000002,1.7782437500000001,1.0,2672.177094256611,0.2828874265198084,1.3244437493284156,0.945175067756897,0.2877392375,0.6643375431177303
0.03,1.7775,1.0,2679.5387455400446,0.28690986232191973,1.3240402802071856,0.9465602176027111,0.287708,0.6651718648062777
0.0305,1.77674375,1.0,2686.3015295573573,0.29090973392234604,1.3236367454622164,0.9478853247663406,0.2876762375,0.6660052837583691
0.031,1.775975,1.0,2692.498382267978,0.2948871682844774,1.3232328226081747,0.9491538054778088,0.28764395,0.6668384642498479
0.0315,1.7751937500000001,1.0,2698.16259349438,0.2988422923717037,1.3228281891597264,0.9503688348363425,0.2876111375,0.6676720672316706
0.032,1.7744,1.0,2703.320965413612,0.30277522940609175,1.3224225847858333,0.9515333732475196,0.2875778,0.6685066225128258
0.0325,1.77359375,1.0,2708.006652353539,0.306686108166144,1.3220156935579988,0.9526501725951487,0.2875439375,0.6693427713723248
0.033,1.772775,1.0,2712.24581773071,0.3105750527875219,1.3216072655969038,0.9537218044357817,0.28750955,0.6701810163114879
0.0335,1.7719437500000002,1.0,2716.059738810347,0.3144421842422885,1.321197097392863,0.9547506724827881,0.2874746375,0.6710217622015295
0.034,1.7711000000000001,1.0,2719.4698606424436,0.3182876235025068,1.3207849854361917,0.9557390214446647,0.2874392,0.6718654117305558
0.0345,1.7702437500000001,1.0,2722.497778902033,0.3221114915402397,1.3203707262172042,0.9566889494177184,0.2874032375,0.6727123653796594
0.035,1.7693750000000001,1.0,2725.16522364674,0.3259139093275504,1.3199541162262154,0.957602419174515,0.28736675,0.6735630213963695
0.035500000000000004,1.76849375,1.0,2727.4940439932107,0.3296949978365018,1.31953495195354,0.9584812684580346,0.2873297375,0.6744177757654621
0.036000000000000004,1.7676,1.0,2729.5058687846413,0.3334548776462567,1.3191130328429501,0.9593272195930069,0.2872922,0.6752770161663719
0.0365,1.76669375,1.0,2731.213593971387,0.33719365855546274,1.3186882385166367,0.9601418935388762,0.2872541375,0.676140965022842
0.037,1.765775,1.0,2732.6489480659434,0.34091147634863084,1.3182602781421366,0.9609268004863809,0.28721555,0.6770101892757967
0.0375,1.76484375,1.0,2733.824432595258,0.34460844518631917,1.317829036221961,0.9616833714238427,0.2871764375,0.6778848971116692
0.038,1.7639,1.0,2734.7525984227236,0.34828467922908607,1.3173943972586213,0.9624129514994693,0.28713679999999997,0.6787652952450144
0.0385,1.76294375,1.0,2735.4460398436227,0.3519402926374897,1.3169562457546293,0.9631168061091064,0.28709663750000003,0.6796515888939128
0.039,1.761975,1.0,2735.9173889757344,0.3555753995720885,1.3165144662124961,0.9637961264885567,0.28705595,0.6805439817545238
0.0395,1.7609937500000001,1.0,2736.1793104466565,0.3591901141934406,1.3160689431347332,0.9644520348556952,0.2870147375,0.6814426759747857
0.04,1.76,1.0,2736.244496375841,0.3627845506621043,1.3156195610238524,0.9650855891430551,0.286973,0.6823478721272664
0.0405,1.7589937500000001,1.0,2736.1256616532046,0.3663588231386378,1.3151662043823649,0.9656977873575059,0.2869307375,0.6832597691811653
0.041,1.757975,1.0,2735.83553951298,0.3699130457835995,1.314708757712782,0.9662895716000269,0.28688795,0.6841785644734613
0.0415,1.75694375,1.0,2735.3868774035545,0.37344733275754766,1.3142471055176155,0.9668618317753545,0.2868446375,0.6851044536792112
0.042,1.7559,1.0,2734.784353438201,0.37696178475762815,1.3137812056698883,0.9674154129217629,0.28680079999999997,0.6860374839552017
0.0425,1.75484375,1.0,2734.0439652131936,0.3804565251312951,1.3133109133400562,0.9679511095255108,0.2867564375,0.6869779068304203
0.043000000000000003,1.753775,1.0,2733.1794894306017,0.3839316731764182,1.312836103896155,0.9684696744059885,0.28671155,0.6879259314383743
0.043500000000000004,1.75269375,1.0,2732.197196344994,0.3873873350286596,1.3123567209072862,0.9689718238159756,0.28666613750000003,0.6888816291583155
0.044,1.7516,1.0,2731.103359658131,0.3908236168236814,1.3118727079425527,0.969458236410776,0.2866202,0.6898450702824592
0.0445,1.75049375,1.0,2729.904255214361,0.3942406246971459,1.3113840085710562,0.9699295555898844,0.2865737375,0.6908163239994274
0.045,1.7493750000000001,1.0,2728.60615976504,0.39763846478471526,1.3108905663618993,0.9703863916706046,0.28652675,0.6917954583774794
0.0455,1.74824375,1.0,2727.2153498047114,0.40101724322205157,1.3103923248841838,0.9708293239072006,0.2864792375,0.6927825403475488
0.046,1.7471,1.0,2725.7381004771905,0.40437706614481705,1.3098892277070122,0.9712589023679508,0.2864312,0.69377763568607
0.0465,1.7459437500000001,1.0,2724.1806845529186,0.40771803968867393,1.3093812183994864,0.9716756496813792,0.28638263750000004,0.6947808089976062
0.047,1.744775,1.0,2722.549371475833,0.4110402699892842,1.3088682405307086,0.9720800626619357,0.28633355,0.6957921236972715
0.0475,1.74359375,1.0,2720.8504264824824,0.41434386318231026,1.308350237669781,0.972472613824518,0.28628393750000003,0.6968116419929513
0.048,1.7424,1.0,2719.090109789745,0.41762892540341406,1.3078271533858061,0.9728537527964042,0.2862338,0.6978394248673195
0.0485,1.74119375,1.0,2717.274675855253,0.42089556278825796,1.3072989312478858,0.9732239076344368,0.2861831375,0.698875532059653
0.049,1.739975,1.0,2715.4071379588913,0.4241438801732011,1.306765544303946,0.9735834879217001,0.28613195,0.699919964374693
0.0495,1.73874375,1.0,2713.489276130595,0.4273739778442593,1.3062269768221628,0.973932884182773,0.2860802375,0.7009726998289495
0.05,1.7375,1.0,2711.528335548261,0.4305859571833646,1.3056831632213581,0.9742724655356225,0.286028,0.7020338128921702
0.0505,1.73624375,1.0,2709.5307419422898,0.43377991964056756,1.3051340453121543,0.9746025845600539,0.2859752375,0.7031033622176026
0.051000000000000004,1.734975,1.0,2707.4933635801985,0.43695596639423356,1.3045796520532724,0.9749235833765648,0.28592195,0.7041812358262356
0.051500000000000004,1.73369375,1.0,2705.4354469044,0.4401141983857814,1.3040198081426897,0.9752357753718016,0.2858681375,0.7052677176558743
0.052000000000000005,1.7324002827098206,1.0,2703.361884786371,0.44325471516076104,1.3034545967889237,0.975539476224504,0.2858138118738125,0.7063625882897695
0.0525,1.7311029412330041,1.0,2701.6622696213894,0.4463776159061002,1.302884226444245,0.9758349954215905,0.2857593235317862,0.7074653870257375
0.053,1.7298055997561874,1.0,2700.502559503326,0.4494829995479448,1.3023089269268073,0.9761226300938959,0.28570483518975986,0.7085756144781961
0.0535,1.728508258279371,1.0,2699.8355349031144,0.4525709647824141,1.3017291266187028,0.9764026766093183,0.2856503468477336,0.7096923920596774
0.054,1.7272109168025542,1.0,2699.6223027974056,0.4556416089468343,1.3011451793245286,0.9766754138069033,0.2855958585057073,0.7108149903367269
0.0545,1.7259135753257375,1.0,2699.827261472234,0.45869502901549586,1.3005574099314945,0.9769411067855854,0.285541370163681,0.7119427402272691
0.055,1.724616233848921,1.0,2700.423506106066,0.46173131922599253,1.2999660647419244,0.9772000044275114,0.2854868818216547,0.7130751275613636
0.0555,1.7233188923721043,1.0,2701.3668422424885,0.4647505797202076,1.2993715487355835,0.9774523550905471,0.2854323934796284,0.7142113386723794
0.056,1.7220215508952879,1.0,2702.6257214942593,0.46775290718168233,1.2987741517574296,0.9776983897203451,0.2853779051376021,0.7153507852092744
0.0565,1.7207242094184712,1.0,2704.1795828189343,0.47073839484385094,1.2981740635847272,0.97793832362026,0.28532341679557577,0.7164930733589638
0.057,1.7194268679416544,1.0,2706.0078918059617,0.4737071359401477,1.2975714739947406,0.978172363293908,0.28526892845354945,0.7176378120682316
0.0575,1.718129526464838,1.0,2708.0901297523674,0.47665922370400676,1.2969665727647335,0.9784007068810062,0.2852144401115232,0.7187846130751538
0.058,1.7168321849880213,1.0,2710.4057835367375,0.47959475136886237,1.2963595496719706,0.9786235445683171,0.2851599517694969,0.7199330909382231
0.0585,1.7155348435112048,1.0,2712.934336292329,0.48251381216814876,1.2957505944937158,0.9788410589773012,0.2851054634274706,0.7210828630631815
0.059000000000000004,1.714237502034388,1.0,2715.6552588777563,0.4854164993353002,1.2951398970072334,0.9790534255299692,0.2850509750854443,0.7222335497275499
0.059500000000000004,1.7129401605575714,1.0,2718.553276313616,0.4883029032085201,1.2945275989531608,0.9792608099290468,0.284996486743418,0.7233848643331826
0.06,1.7116428190807549,1.0,2721.60947122407,0.4911731181835522,1.293913875090658,0.9794633735795883,0.28494199840139167,0.7245364605522738
0.0605,1.7103454776039382,1.0,2724.8090340556155,0.4940272360246714,1.293298862549506,0.9796612694563044,0.2848875100593654,0.7256880651376465
0.061,1.7090481361271217,1.0,2728.1421315936036,0.49686534536253396,1.2926826530011606,0.9798546420437549,0.2848330217173391,0.7268394918118694
0.0615,1.707750794650305,1.0,2731.5989160141535,0.49968753482779626,1.2920653381170777,0.9800436303716054,0.2847785333753128,0.7279905557096846
0.062,1.7064534531734885,1.0,2735.1695225448257,0.5024938930511147,1.2914470095687127,0.9802283682643059,0.2847240450332865,0.7291410733847407
0.0625,1.7051561116966718,1.0,2738.8440673103432,0.5052845086631457,1.2908277590275217,0.9804089845775551,0.2846695566912602,0.7302908628157838
0.063,1.703858770219855,1.0,2742.61264536647,0.5080594702945453,1.29020767816496,0.9805856034223382,0.2846150683492339,0.7314397434123181
0.0635,1.7025614287430386,1.0,2746.4653289186354,0.5108188665759704,1.2895868586524835,0.9807583443772833,0.28456058000720763,0.7325875360197276
0.064,1.701264087266222,1.0,2750.397664014533,0.5135627790327255,1.288965342374398,0.980927319658638,0.2845060916651813,0.73373415467617
0.0645,1.6999667457894054,1.0,2754.3975204160747,0.5162913017575245,1.2883432405841346,0.9810926418288264,0.284451603323155,0.7348793865096934
0.065,1.6986694043125887,1.0,2758.455364779854,0.5190045256194303,1.2877206407550226,0.9812544180253101,0.28439711498112874,0.7360230640418344
0.0655,1.697372062835772,1.0,2762.5672024205905,0.5217025339128522,1.2870975800778117,0.9814127485873635,0.2843426266391024,0.7371651132444659
0.066,1.6960747213589555,1.0,2766.7290278871,0.5243854099321987,1.286474095743251,0.9815677303328924,0.2842881382970761,0.7383054606762968
0.0665,1.6947773798821388,1.0,2770.9368245970622,0.5270532369718791,1.28585022494209,0.9817194567081704,0.28423364995504985,0.7394440334839176
0.067,1.6934800384053224,1.0,2775.186564503151,0.5297060983263023,1.285226004865078,0.9818680179301943,0.28417916161302353,0.7405807594027629
0.0675,1.6921826969285056,1.0,2779.4742077898927,0.5323440772898772,1.2846014727029647,0.9820135011220752,0.2841246732709972,0.7417155667579837
0.068,1.690885355451689,1.0,2783.7957026008303,0.5349672571570129,1.2839766656464995,0.982155990441846,0.28407018492897096,0.7428483844652304
0.0685,1.6895880139748725,1.0,2788.146984796488,0.5375757212221182,1.2833516208864315,0.9822955672050555,0.28401569658694464,0.7439791420313521
0.069,1.6882906724980558,1.0,2792.5239777431316,0.540169552779602,1.2827263756135105,0.9824323100014853,0.28396120824491833,0.7451077695550005
0.0695,1.6869933310212393,1.0,2796.9225921322277,0.5427488351238735,1.2821009670184857,0.9825662948063105,0.28390671990289207,0.7462341977271532
0.07,1.6856959895444226,1.0,2801.3396810191343,0.5453136478824177,1.2814754237218484,0.9826975944627663,0.28385223156086575,0.7473583732162178
0.07050000000000001,1.6843986480676059,1.0,2805.7757512949865,0.5478640605671694,1.2808497414976734,0.9828262773020477,0.28379774321883944,0.7484803019792412
0.07100000000000001,1.6831013065907894,1.0,2810.222495280198,0.5504001789301242,1.2802239950964698,0.9829524152271858,0.2837432548768132,0.7495998487633089
0.07150000000000001,1.6818039651139727,1.0,2814.678705200052,0.5529220798197634,1.2795981954813256,0.9830760731921349,0.28368876653478686,0.7507169932512323
0.07200000000000001,1.6805066236371562,1.0,2819.1431694222797,0.5554298400845687,1.2789723536153284,0.9831973140680424,0.28363427819276055,0.7518317153007787
0.0725,1.6792092821603395,1.0,2823.6146724448613,0.5579235365730215,1.2783464804615656,0.9833161987242341,0.2835797898507343,0.7529439949447043
0.073,1.677911940683523,1.0,2828.0919948870196,0.5604032461336036,1.2777205869831252,0.9834327861055439,0.28352530150870797,0.7540538123907794
