Time [s],Phi [rad],STIM [ ],Fsee [N],Gamma [ ],Lcerel [ ],q [ ],Lmtc [m],fisomrel [ ]
0.0,1.8,1.0,17.966188328736454,1.1119464238931954e-05,1.379339854875572,0.005000032925341203,0.288653,0.5411392681855229
0.0005,1.79999375,1.0,18.27598699547784,0.005620266401633402,1.3793024718950677,0.012943624628024068,0.2886527375,0.5412297028516944
0.001,1.799975,1.0,21.618493276945117,0.011197950459625123,1.3789382907032468,0.03561441832970088,0.28865195,0.5421102418332322
0.0015,1.79994375,1.0,31.071032964736197,0.016744348120954194,1.3780460506363277,0.07060970462137371,0.2886506375,0.5442639783108265
0.002,1.7999,1.0,53.58743635400877,0.02225963487670534,1.376367804173068,0.11472731161723189,0.2886488,0.5483012626975228
0.0025,1.79984375,1.0,97.12813588219025,0.027743985233883873,1.3739347240290305,0.16458498099686716,0.28864643749999996,0.5541225196598623
0.003,1.7997750000000001,1.0,160.97066063354868,0.03319757272311884,1.3712138761100474,0.2172908589755071,0.28864354999999997,0.5605875579826352
0.0035,1.79969375,1.0,237.697743969366,0.03862056989826461,1.3685842902990257,0.2706232351725394,0.2886401375,0.5667908831146796
0.004,1.7996,1.0,321.4823176193034,0.04401314834718065,1.3661556806395554,0.32292581850013063,0.2886362,0.5724809232633417
0.0045000000000000005,1.7994937500000001,1.0,409.28402456353103,0.04937547869691651,1.3639224321628638,0.373044015296982,0.2886317375,0.5776800490072251
0.005,1.799375,1.0,499.43024061820057,0.05470773060480944,1.361857986701611,0.42025635558121865,0.28862675,0.5824579000645942
0.0055,1.79924375,1.0,590.8074085731046,0.06001007280587031,1.3599385030689448,0.4641819335146662,0.2886212375,0.5868758737515536
0.006,1.7991000000000001,1.0,682.5352149763859,0.06528267305613143,1.3581461037960134,0.5046875304567069,0.2886152,0.5909801286216045
0.006500000000000001,1.79894375,1.0,773.8833488646267,0.07052569797706862,1.356467217922497,0.5418078428160709,0.2886086375,0.5948058754674587
0.007,1.798775,1.0,864.3111252521272,0.07573931416891591,1.354889986096366,0.5756830039684798,0.28860155,0.5983836025781927
0.0075,1.79859375,1.0,953.274093397964,0.08092368588505558,1.353406304259635,0.6065155203186727,0.2885939375,0.6017346432064616
0.008,1.7984,1.0,1040.37643197202,0.08607897715463608,1.3520083816650332,0.634537259409827,0.2885858,0.604879142976927
0.0085,1.79819375,1.0,1125.3361068970607,0.0912053514651961,1.350688931768378,0.6599891275266814,0.2885771375,0.6078356923952615
0.009000000000000001,1.797975,1.0,1207.9021297874813,0.09630297086615051,1.3494420084170031,0.6831086057341926,0.28856795,0.6106195240863875
0.0095,1.79774375,1.0,1287.884028290903,0.10137199629777639,1.3482622320128543,0.7041215618379715,0.2885582375,0.613244316815768
0.01,1.7975,1.0,1365.1698883892354,0.1064125887667686,1.3471443487888637,0.7232378741708236,0.288548,0.6157232178059814
0.0105,1.79724375,1.0,1439.6814257031922,0.11142490821053028,1.346083671961384,0.7406498671668593,0.2885372375,0.6180678954136645
0.011,1.796975,1.0,1511.3416824129552,0.11640911215296107,1.3450763158309942,0.7565320673948223,0.28852595000000003,0.620288062029681
0.0115,1.79669375,1.0,1580.128408788521,0.12136535811796063,1.3441183946982729,0.7710413600030811,0.2885141375,0.6223932730557515
0.012,1.7964,1.0,1646.061357354796,0.1262938032865616,1.3432061140816105,0.7843181230826145,0.28850180000000003,0.6243927399776804
0.0125,1.79609375,1.0,1709.1778979212545,0.1311946042938224,1.3423359897288327,0.7964876522426594,0.2884889375,0.6262948665063155
0.013000000000000001,1.7957750000000001,1.0,1769.510461822132,0.13606791601174031,1.341505028641204,0.8076616302503113,0.28847555,0.6281068731274567
0.0135,1.79544375,1.0,1827.09530089213,0.14091389191931816,1.3407105531662942,0.8179394345020887,0.2884616375,0.6298352007688707
0.014,1.7951000000000001,1.0,1881.9963034048403,0.1457326854955589,1.3399498856516734,0.8274093458296631,0.2884472,0.6314862093284892
0.0145,1.79474375,1.0,1934.2844895063313,0.15052444909054374,1.3392205436957776,0.8361498654965814,0.2884322375,0.6330657612714957
0.015,1.794375,1.0,1984.0584885503704,0.15528933577562476,1.3385199853817062,0.8442307535112215,0.28841675,0.6345797815598514
0.0155,1.79399375,1.0,2031.378315108424,0.1600274951546673,1.337846289804238,0.8517142716229061,0.2884007375,0.6360327948517565
0.016,1.7936,1.0,2076.316937540326,0.16473907665344156,1.3371975663233033,0.8586558720785079,0.2883842,0.63742921321952
0.0165,1.7931937500000001,1.0,2118.9617197516827,0.1694242296977179,1.336571924298832,0.8651049953031329,0.2883671375,0.6387734048908841
0.017,1.792775,1.0,2159.3948857515275,0.17408310220550688,1.3359676600182364,0.8711058356009982,0.28834955,0.6400692966258632
0.0175,1.7923437500000001,1.0,2197.7240258928136,0.1787158435564308,1.3353829276895104,0.8766978684634037,0.2883314375,0.6413210835918771
0.018000000000000002,1.7919,1.0,2234.0175204601805,0.18332259899614306,1.3348163841146743,0.881916577215152,0.2883128,0.6425318524501751
0.0185,1.79144375,1.0,2268.3496450619805,0.18790351357054885,1.3342667099320589,0.8867937898438055,0.2882936375,0.6437046129821327
0.019,1.790975,1.0,2300.8022032710874,0.1924587323255536,1.3337325857799955,0.8913580962044096,0.28827395,0.6448423507289475
0.0195,1.79049375,1.0,2331.4562450107833,0.196988399295373,1.3332127674587668,0.8956352370134093,0.2882537375,0.6459478686303246
0.02,1.79,1.0,2360.4001741110446,0.20149265933089752,1.3327059984998129,0.899648407414798,0.288233,0.6470239750071509
0.0205,1.78949375,1.0,2387.709594169691,0.20597165513566523,1.3322112012022995,0.9034185840973293,0.2882117375,0.6480730797057566
0.021,1.788975,1.0,2413.4477480856294,0.21042552708474388,1.3317274627338422,0.9069647664207424,0.28818995000000003,0.6490972272581866
0.021500000000000002,1.78844375,1.0,2437.6818236795125,0.21485441555320112,1.3312538702620564,0.9103041580822129,0.2881676375,0.6500984484579359
0.022,1.7879,1.0,2460.482624861269,0.21925846091610462,1.330789510954558,0.9134523615841639,0.2881448,0.6510787609771822
0.0225,1.78734375,1.0,2481.917930183967,0.2236378021749999,1.3303335323281964,0.916423560630551,0.28812143749999997,0.6520400427920167
0.023,1.786775,1.0,2502.058686789865,0.22799257962056235,1.3298850794567527,0.9192306588800787,0.28809755,0.6529841656626656
0.0235,1.78619375,1.0,2520.969392372026,0.23232293209513522,1.329443383553937,0.9218854282252674,0.28807313749999996,0.6539128094149668
0.024,1.7856,1.0,2538.701338288029,0.2366289948786578,1.3290078218715415,0.9243986342529421,0.2880482,0.654827337842296
0.0245,1.78499375,1.0,2555.307696823681,0.2409109032510693,1.3285777716613587,0.9267801133302641,0.2880227375,0.6557291070473725
0.025,1.784375,1.0,2570.843362851545,0.24516879249230908,1.3281526101751804,0.9290388655580512,0.28799675,0.6566194656735207
0.025500000000000002,1.78374375,1.0,2585.364804087292,0.24940279788231634,1.3277317146647991,0.9311831372951037,0.2879702375,0.6574997551111949
0.026000000000000002,1.7831000000000001,1.0,2598.9258246926124,0.25361305421198876,1.327314500529934,0.9332205005522715,0.2879432,0.6583712300473208
0.0265,1.78244375,1.0,2611.575441788964,0.25779969498144134,1.3269004393563113,0.935157920046687,0.2879156375,0.6592350215199319
0.027,1.781775,1.0,2623.357747147223,0.26196285213359327,1.3264890584801212,0.9370018102921829,0.28788755,0.6600921386886607
0.0275,1.7810937500000001,1.0,2634.312395202164,0.26610265692136853,1.32607993496686,0.9387580862634832,0.2878589375,0.6609434821811493
0.028,1.7804012963174485,1.0,2644.5434439155024,0.270219240263798,1.3256726440703792,0.9404322017814667,0.2878298544453328,0.6617899518629085
0.0285,1.7797069891143191,1.0,2654.530837844791,0.2743127324829549,1.325266944591734,0.9420292180993023,0.2878006935428014,0.6626320623595595
0.029,1.7790126819111896,1.0,2664.359598087408,0.2783832650511213,1.3248628777055305,0.9435538528748613,0.28777153264026994,0.6634697407170969
0.029500000000000002,1.7783183747080602,1.0,2674.0282085095205,0.28243096527545153,1.324460448309183,0.9450104637283172,0.28774237173773853,0.6643029894228443
0.03,1.7776240675049308,1.0,2683.5351669166535,0.2864559604630998,1.3240596613001063,0.9464030864550375,0.28771321083520707,0.6651318109632027
0.0305,1.7769297603018015,1.0,2692.878985232212,0.2904583779212205,1.3236605215757147,0.947735462874643,0.28768404993267566,0.6659562078231389
0.031,1.776235453098672,1.0,2702.058189675626,0.2944383449569678,1.3232630340334224,0.9490110659435818,0.28765488903014425,0.6667761824856709
0.0315,1.7755411458955426,1.0,2711.0753047214334,0.2983959782312244,1.3228671672367396,0.9502331145313037,0.2876257281276128,0.6675918122465665
0.032,1.7748468386924132,1.0,2719.9260463339488,0.30233142029212373,1.322472952114869,0.9514046181914196,0.28759656722508137,0.6684030457727086
0.0325,1.7741525314892839,1.0,2728.612884286831,0.306244792669217,1.3220803581592087,0.9525283648469182,0.2875674063225499,0.66920995818889
0.033,1.7734582242861545,1.0,2737.138513847913,0.3101362163080581,1.321689353169156,0.9536069523440754,0.2875382454200185,0.6700126277347258
0.0335,1.772763917083025,1.0,2745.505669424333,0.314005812154201,1.3212999049441092,0.954642804052345,0.287509084517487,0.6708111322796759
0.034,1.7720696098798956,1.0,2753.717123440462,0.31785370115319966,1.3209119812834655,0.955638182668372,0.2874799236149556,0.6716055493262776
0.0345,1.7713753026767662,1.0,2761.7756852371117,0.321680004250608,1.3205255499866226,0.9565952027730058,0.2874507627124242,0.672395956013307
0.035,1.7706809954736369,1.0,2769.684199995117,0.32548484239198006,1.3201405788529785,0.9575158422670875,0.28742160180989273,0.673182429118877
0.035500000000000004,1.7699866882705073,1.0,2777.445547681344,0.32926833652286974,1.319757035681931,0.9584019527978316,0.2873924409073613,0.6739650450634703
0.036000000000000004,1.769292381067378,1.0,2785.0626420174904,0.33303060758883096,1.3193748882728773,0.9592552692754072,0.28736328000482986,0.6747438799129055
0.0365,1.7685980738642486,1.0,2792.5384294723717,0.33677177653541773,1.3189941044252156,0.9600774185685059,0.28733411910229845,0.675519009381233
0.037,1.7679037666611193,1.0,2799.872913771231,0.3404919267286091,1.3186146786335238,0.9608699218516612,0.287304958199767,0.6762904545894655
0.0375,1.76720945945799,1.0,2807.0748025990506,0.3441912246062515,1.318236527516553,0.9616342183895381,0.28727579729723557,0.6770583946243819
0.038,1.7665151522548603,1.0,2814.1478057182853,0.3478697890859091,1.31785961296249,0.9623716549989498,0.28724663639470416,0.6778229159672706
0.0385,1.765820845051731,1.0,2821.0949374095603,0.3515277315119042,1.3174839033620087,0.9630834976741445,0.2872174754921727,0.6785840915370622
0.039,1.7651265378486016,1.0,2827.9192392051077,0.3551651632285592,1.3171093671057839,0.9637709382427735,0.2871883145896413,0.679341993921458
0.0395,1.7644322306454723,1.0,2834.6237790550463,0.35878219558019625,1.3167359725844894,0.9644350995139905,0.2871591536871098,0.680096695379329
0.04,1.7637379234423427,1.0,2841.2116505163167,0.3623789399111379,1.3163636881888,0.9650770400162043,0.2871299927845784,0.6808482678430479
0.0405,1.7630436162392134,1.0,2847.6859719635277,0.36595550756570633,1.3159924823093898,0.9656977583612173,0.28710083188204694,0.6815967829207589
0.041,1.762349309036084,1.0,2854.0498858222004,0.3695120098882239,1.315622323336933,0.9662981972678467,0.2870716709795155,0.6823423118985857
0.0415,1.7616550018329546,1.0,2860.306557823651,0.37304855822301297,1.3152531796621048,0.96687924727489,0.2870425100769841,0.6830849257427701
0.042,1.760960694629825,1.0,2866.4591762826412,0.3765652639143958,1.3148850196755786,0.9674417501704021,0.28701334917445265,0.6838246951017555
0.0425,1.7602663874266957,1.0,2872.5109513970033,0.38006223830669483,1.3145178117680292,0.967986502161661,0.28698418827192124,0.684561690308197
0.043000000000000003,1.7595720802235664,1.0,2878.465114568852,0.38353959274423227,1.314151524330131,0.9685142568078869,0.28695502736938977,0.6852959813809156
0.043500000000000004,1.758877773020437,1.0,2884.3249177490616,0.3869974385713305,1.313786125752558,0.969025727735698,0.28692586646685836,0.6860276380267851
0.044,1.7581834658173077,1.0,2890.0936328025728,0.3904358871323118,1.313421584425985,0.9695215911554278,0.2868967055643269,0.686756729642555
0.0445,1.757489158614178,1.0,2895.7745508971443,0.3938550497714986,1.3130578687410859,0.9700024881947493,0.2868675446617955,0.6874833253166105
0.045,1.7567948514110487,1.0,2901.370981913273,0.39725503783321314,1.3126949470885356,0.9704690270645537,0.28683838375926407,0.6882074938306694
0.0455,1.7561005442079194,1.0,2906.8808651853346,0.4006359157237715,1.3123328353221917,0.9709217820465692,0.2868092228567326,0.6889292091186247
0.046,1.75540623700479,1.0,2912.3119556218726,0.4039978356534551,1.311971462899443,0.9713613044325302,0.2867800619542012,0.6896486171440736
0.0465,1.7547119298016605,1.0,2917.6686190959076,0.40734092072902583,1.3116107893698958,0.9717881161466586,0.2867509010516697,0.6903658034064746
0.047,1.7540176225985311,1.0,2922.9526156335046,0.4106652711220657,1.3112507973502114,0.9722027119838034,0.2867217401491383,0.6910808072348775
0.0475,1.7533233153954018,1.0,2928.1657155614253,0.41397098700415647,1.3108914694570517,0.9726055626468811,0.28669257924660685,0.6917936677896528
0.048,1.7526290081922724,1.0,2933.309699248564,0.41725816854688,1.3105327883070783,0.972997116145172,0.28666341834407544,0.6925044240632375
0.0485,1.751934700989143,1.0,2938.386356852584,0.4205269159218182,1.3101747365169527,0.9733777990989141,0.286634257441544,0.693213114880864
0.049,1.7512403937860135,1.0,2943.3974880744786,0.4237773293005528,1.3098172967033364,0.9737480179572854,0.28660509653901256,0.6939197789012654
0.0495,1.7505460865828841,1.0,2948.344901919223,0.42700950885466576,1.3094604514828911,0.9741081601362718,0.28657593563648115,0.6946244546173634
0.05,1.7498517793797548,1.0,2953.2304164631873,0.43022355475573887,1.3091041834722785,0.9744585950823677,0.2865467747339497,0.6953271803569387
0.0505,1.7491574721766254,1.0,2958.0558586285983,0.43341956717535407,1.3087484752881602,0.974799675267574,0.28651761383141827,0.6960279942832792
0.051000000000000004,1.7484631649734959,1.0,2962.8230639638746,0.4365976462850931,1.3083933095471976,0.9751317371207116,0.2864884529288868,0.6967269343958111
0.051500000000000004,1.7477688577703665,1.0,2967.5338764319654,0.4397578922565379,1.3080386688660524,0.9754551018996492,0.2864592920263554,0.6974240385307097
0.052000000000000005,1.7470745505672372,1.0,2972.190148203846,0.4429004052612702,1.3076845358613862,0.975770076508695,0.286430131123824,0.6981193443614903
0.0525,1.7463802433641078,1.0,2976.7937394600167,0.44602528547087195,1.3073308931498608,0.976076954265041,0.2864009702212925,0.6988128893995817
0.053,1.7456859361609784,1.0,2981.34651819822,0.44913263305692497,1.3069777233481374,0.9763760156178589,0.2863718093187611,0.6995047109948801
0.0535,1.7449916289578489,1.0,2985.8503600473787,0.45222254819101115,1.306625009072878,0.9766675288233513,0.28634264841622964,0.7001948463362804
0.054,1.7442973217547195,1.0,2990.307148089127,0.45529513104471236,1.306272732940744,0.9769517505788168,0.28631348751369823,0.700883332452193
0.0545,1.7436030145515902,1.0,2994.718772685351,0.45835048178961035,1.305920877568397,0.9772289266185392,0.28628432661116676,0.7015702062110389
0.055,1.7429087073484608,1.0,2999.087131312844,0.46138870059728704,1.3055694255724988,0.9774992922741075,0.28625516570863535,0.7022555043217256
0.0555,1.7422144001453312,1.0,3003.4107125506102,0.4644098385640323,1.3052183891688545,0.977763070144909,0.28622600480610394,0.7029392057180157
0.056,1.741520092942202,1.0,3007.693675971061,0.4674140410460379,1.3048677314423904,0.9780204795099667,0.2861968439035725,0.7036213849654671
0.0565,1.7408257857390725,1.0,3011.9378690297563,0.47040141313092476,1.3045174355985842,0.9782717280037703,0.28616768300104106,0.7043020772208612
0.057,1.7401314785359432,1.0,3016.1441407931666,0.47337204427643126,1.3041674935309844,0.9785170138631333,0.2861385220985096,0.7049813006348169
0.0575,1.7394371713328138,1.0,3020.313343789096,0.4763260239402959,1.303817897133139,0.9787565273121271,0.2861093611959782,0.7056590732831551
0.058,1.7387428641296843,1.0,3024.4463339432764,0.479263441580257,1.3034686382985965,0.9789904509501788,0.2860802002934467,0.7063354131670778
0.0585,1.738048556926555,1.0,3028.5439705186172,0.4821843866540531,1.3031197089209052,0.9792189601183796,0.2860510393909153,0.7070103382133472
0.059000000000000004,1.7373542497234256,1.0,3032.6071160547526,0.48508894861942253,1.3027711008936134,0.9794422232453968,0.2860218784883839,0.707683866274456
0.059500000000000004,1.7366599425202962,1.0,3036.636636309653,0.4879772169341038,1.3024228061102692,0.9796604021742681,0.28599271758585243,0.7083560151287964
0.06,1.7359656353171666,1.0,3040.6334002027056,0.49084928105583525,1.3020748164644211,0.9798736524712849,0.28596355668332096,0.7090268024808236
0.0605,1.7352713281140373,1.0,3044.598279759381,0.4937052304423554,1.3017271238496173,0.9800821237180711,0.28593439578078955,0.7096962459612172
0.061,1.734577020910908,1.0,3048.5321500564637,0.49654515455140263,1.3013797201594064,0.9802859597878981,0.28590523487825814,0.7103643631270341
0.0615,1.7338827137077786,1.0,3052.435889169842,0.49936914284071543,1.3010325972873362,0.9804852991071993,0.2858760739757267,0.7110311714618637
0.062,1.7331884065046492,1.0,3056.310378123448,0.5021772847680321,1.3006857471269555,0.9806802749031841,0.28584691307319526,0.7116966883759712
0.0625,1.7324940993015197,1.0,3060.156500839169,0.5049696697910913,1.3003391615718123,0.9808710154383903,0.28581775217066385,0.7123609312064441
0.063,1.7317997920983903,1.0,3063.9751440886603,0.5077463873676311,1.2999928325154548,0.9810576442329553,0.2857885912681324,0.7130239172173287
0.0635,1.731105484895261,1.0,3067.767197446659,0.5105075269553903,1.2996467518514316,0.9812402802753369,0.285759430365601,0.7136856635997658
0.064,1.7304111776921316,1.0,3071.5335532453646,0.5132531780121071,1.299300911473291,0.9814190382221658,0.2857302694630695,0.7143461874721213
0.0645,1.729716870489002,1.0,3075.2751065308385,0.51598342999552,1.2989553032745809,0.9815940285878643,0.2857011085605381,0.7150055058801128
0.065,1.7290225632858727,1.0,3078.9927550201633,0.5186983723633675,1.29860991914885,0.9817653579246275,0.28567194765800663,0.7156636357969299
0.0655,1.7283282560827433,1.0,3082.6863077364605,0.5213980631335177,1.298264760323835,0.9819331273070466,0.2856427867554752,0.7163205763678737
0.066,1.727633948879614,1.0,3086.3567555148506,0.5240826053783803,1.2979198179250795,0.9820974368184655,0.2856136258529438,0.7169763459422434
0.0665,1.7269396416764846,1.0,3090.005462518049,0.5267521091430597,1.2975750799126464,0.9822583833257009,0.28558446495041234,0.7176309687977745
0.067,1.726245334473355,1.0,3093.632833495052,0.5294066542600594,1.2972305424689083,0.9824160587153181,0.2855553040478809,0.7182844535192554
0.0675,1.7255510272702257,1.0,3097.2392745146913,0.5320463205618828,1.2968862017762377,0.9825705517131881,0.28552614314534946,0.7189368086571399
0.068,1.7248567200670963,1.0,3100.8251929487133,0.5346711878810333,1.2965420540170067,0.9827219480153877,0.28549698224281805,0.7195880427275978
0.0685,1.724162412863967,1.0,3104.3909974554954,0.5372813360500143,1.2961980953735877,0.9828703304128039,0.2854678213402866,0.7202381642125608
0.069,1.7234681056608374,1.0,3107.9370979639516,0.5398768449013293,1.295854322028353,0.9830157789097844,0.2854386604377552,0.7208871815597693
0.0695,1.722773798457708,1.0,3111.4639056572623,0.5424577942674816,1.295510730163675,0.9831583708371537,0.28540949953522377,0.7215351031828179
0.07,1.7220794912545787,1.0,3114.971832957843,0.5450242639809748,1.2951673159619261,0.9832981809599076,0.2853803386326923,0.7221819374612004
0.07050000000000001,1.7213851840514494,1.0,3118.4612935119367,0.5475763338743121,1.2948240756054785,0.983435281579862,0.2853511777301609,0.7228276927403543
