Time [s],Phi [rad],STIM [ ],Fsee [N],Gamma [ ],Lcerel [ ],q [ ],Lmtc [m],fisomrel [ ]
0.0,1.8,1.0,18.466511345813704,0.0007197932197295344,1.379284185362779,0.005133464688194022,0.288653,0.541273937288562
0.0005,1.79999375,1.0,18.99265039592625,0.00632496505783116,1.3792236283902757,0.015027928407888174,0.2886527375,0.5414204071126087
0.001,1.799975,1.0,22.861419248309314,0.011898696313617008,1.3788131184476429,0.039402662935551454,0.28865195,0.5424126954463396
0.0015,1.79994375,1.0,33.48988157831096,0.017441163344672852,1.3778438407101727,0.07573246586494688,0.2886506375,0.5447513776702347
0.002,1.7999,1.0,58.326096593638674,0.02295254151777912,1.3760669098195515,0.12075388054866794,0.2886488,0.549023212177211
0.0025,1.79984375,1.0,104.69970374298795,0.028433005216668975,1.373576731386236,0.17111565687329852,0.28864643749999996,0.5549758474705871
0.003,1.7997750000000001,1.0,170.5706119702542,0.033882727848535604,1.3708597580005943,0.22401150203239706,0.28864354999999997,0.5614255098716219
0.0035,1.79969375,1.0,248.4068261757095,0.03930188184533943,1.3682580661338022,0.27729589069534877,0.2886401375,0.567557387523572
0.004,1.7996,1.0,332.79621995883224,0.04469063867337401,1.3658586168622422,0.3293783881660246,0.2886362,0.5731743382259153
0.0045000000000000005,1.7994937500000001,1.0,420.94776748262524,0.05004916883411542,1.3636505683834774,0.37916335754507347,0.2886317375,0.578310791181039
0.005,1.799375,1.0,511.2911198081697,0.05537764187650807,1.3616074271215262,0.4259775367016568,0.28862675,0.5830359331969074
0.0055,1.79924375,1.0,602.7489974067022,0.06067622641321902,1.3597063638868454,0.46947621121818983,0.2886212375,0.5874085834799246
0.006,1.7991000000000001,1.0,694.4610988622225,0.06594509006033233,1.3579302644403752,0.5095513696870526,0.2886152,0.5914729776710557
0.006500000000000001,1.79894375,1.0,785.7335822702149,0.07118439954805286,1.3562656954681223,0.5462538992876128,0.2886086375,0.5952638846703291
0.007,1.798775,1.0,875.985549890909,0.07639432069035622,1.354702042012395,0.5797343971510751,0.28860155,0.5988088692354503
0.0075,1.79859375,1.0,964.7261613338728,0.08157501813015634,1.353230688334162,0.610200163755992,0.2885939375,0.6021303597543817
0.008,1.7984,1.0,1051.596617027894,0.08672665622175564,1.3518436314785653,0.6378849921834349,0.2885858,0.6052489125892077
0.0085,1.79819375,1.0,1136.277789866214,0.09184939761132868,1.3505344139592916,0.6630303475997805,0.2885771375,0.6081812009892091
0.009000000000000001,1.797975,1.0,1218.5305874070793,0.09694340426423897,1.349297101360059,0.6858725441885557,0.28856795,0.6109423947112904
0.0095,1.79774375,1.0,1298.1973999614893,0.10200883776118108,1.3481260302243054,0.7066354423919484,0.2885582375,0.6135467700263584
0.01,1.7975,1.0,1375.148532054518,0.1070458583161568,1.347016329887724,0.7255269450259383,0.288548,0.6160065905333365
0.0105,1.79724375,1.0,1449.2946560839014,0.11205462491284321,1.3459635561016423,0.7427371950619405,0.2885372375,0.6183329650813323
0.011,1.796975,1.0,1520.5891944565283,0.11703529588315621,1.3449635264693767,0.7584383015252196,0.28852595000000003,0.6205362417277158
0.0115,1.79669375,1.0,1589.0459531850918,0.12198803006933526,1.3440120110158997,0.7727848514229514,0.2885141375,0.6226267100663154
0.012,1.7964,1.0,1654.6539686953777,0.1269129834132708,1.3431056701098576,0.7859154514778645,0.28850180000000003,0.6246125610282703
0.0125,1.79609375,1.0,1717.4238015732387,0.13181031117386077,1.3422413858085762,0.797953731543145,0.2884889375,0.6265013834178103
0.013000000000000001,1.7957750000000001,1.0,1777.4019031755956,0.13668016861000304,1.3414160401693822,0.8090096696582271,0.28847555,0.6283006617189375
0.0135,1.79544375,1.0,1834.6521630115385,0.1415227098952664,1.3406266844664254,0.8191810655418424,0.2884616375,0.6300174165478645
0.014,1.7951000000000001,1.0,1889.2440015506193,0.14633808913093557,1.3398706244649443,0.8285548967404426,0.2884472,0.6316580313322985
0.0145,1.79474375,1.0,1941.231899618825,0.15112645767381425,1.3391455955836407,0.8372085906653843,0.2884322375,0.6332278858297757
0.015,1.794375,1.0,1990.6905940503368,0.15588796684623343,1.3384493375081827,0.8452109764096165,0.28841675,0.6347322893503579
0.0155,1.79399375,1.0,2037.6999541171062,0.1606227669158639,1.337779734269466,0.8526233374034103,0.2884007375,0.6361761834083195
0.016,1.7936,1.0,2082.360951009957,0.16533100954718363,1.3371346229125705,0.8595002432722363,0.2883842,0.6375645600561191
0.0165,1.7931937500000001,1.0,2124.753422691089,0.17001284361852959,1.3365122158699996,0.8658904691369678,0.2883671375,0.638901557940889
0.017,1.792775,1.0,2164.945565255386,0.1746684159729718,1.3359109723389255,0.8718376386261628,0.28834955,0.6401907482854516
0.0175,1.7923437500000001,1.0,2203.0161753303455,0.17929787345358036,1.335329351516521,0.8773807611496026,0.2883314375,0.6414356696795585
0.018000000000000002,1.7919,1.0,2239.0537605588756,0.1839013629034253,1.334765812599958,0.8825547741332868,0.2883128,0.6426398300838323
0.0185,1.79144375,1.0,2273.1437303214257,0.18847902986099202,1.3342189340353323,0.8873910479689942,0.2882936375,0.6438064545034636
0.019,1.790975,1.0,2305.3798235806353,0.1930310210187264,1.3336872885496187,0.8919177679169196,0.28827395,0.644938754656899
0.0195,1.79049375,1.0,2335.8361196452656,0.1975574799344078,1.3331697116649885,0.8961603604355648,0.2882537375,0.6460393597865701
0.02,1.79,1.0,2364.5799613264185,0.20205854861765998,1.332665161239531,0.9001417711992268,0.288233,0.6471106202087908
0.0205,1.78949375,1.0,2391.6837013547506,0.2065343690781068,1.3321725951313352,0.90388271536537,0.2882117375,0.6481548693995984
0.021,1.788975,1.0,2417.2242829964175,0.210985083325372,1.3316909711984901,0.9074019247912575,0.28818995000000003,0.6491744248259006
0.021500000000000002,1.78844375,1.0,2441.2718426036736,0.21541083157386434,1.3312193530431933,0.9107163864000086,0.2881676375,0.6501713653368894
0.022,1.7879,1.0,2463.9081927241837,0.21981175648514675,1.3307567271976044,0.9138414951339707,0.2881448,0.6511479190482445
0.0225,1.78734375,1.0,2485.196253770738,0.22418799696165992,1.3303022929668902,0.9167912782631958,0.28812143749999997,0.6521058522347407
0.023,1.786775,1.0,2505.1909438415705,0.22853968999223495,1.329855351834678,0.9195785175300616,0.28809755,0.6530467055676682
0.0235,1.78619375,1.0,2523.9495485031694,0.23286697256570307,1.329415205284596,0.9222148598268141,0.28807313749999996,0.6539720106100366
0.024,1.7856,1.0,2541.531522725412,0.23716998167089545,1.3289811548002721,0.9247109336259247,0.2880482,0.6548832901348196
0.0245,1.78499375,1.0,2557.9983036340736,0.24144885429664326,1.328552501865334,0.9270764520619492,0.2880227375,0.6557820584120848
0.025,1.784375,1.0,2573.4027145425257,0.24570372392143555,1.3281286455031422,0.9293203193199052,0.28799675,0.6566696173478099
0.025500000000000002,1.78374375,1.0,2587.809767336792,0.2499347301605379,1.3277088851775922,0.9314506816569884,0.2879702375,0.6575474699478945
0.026000000000000002,1.7831000000000001,1.0,2601.262397290597,0.2541420050743171,1.3272927398663732,0.9334750468323145,0.2879432,0.6584166531593194
0.0265,1.78244375,1.0,2613.8033316963606,0.2583256802432463,1.3268797409349606,0.9354003147354074,0.2879156375,0.6592781727241487
0.027,1.781775,1.0,2625.4763154231114,0.26248588724779875,1.3264694197488298,0.9372328331392736,0.28788755,0.6601330292374439
0.0275,1.7810937500000001,1.0,2636.32602200394,0.2666227576684476,1.3260613076734558,0.9389784492297801,0.2878589375,0.6609822182342986
0.028,1.7804,1.0,2646.3979695926587,0.2707364230856661,1.325654936074314,0.9406425556997898,0.2878298,0.6618267302628651
0.0285,1.77969375,1.0,2655.7265057165637,0.2748270117794407,1.3252499463077683,0.942230146525241,0.2878001375,0.6626673227895212
0.029,1.778975,1.0,2664.3564270778647,0.2788946563987646,1.3248458892417259,0.9437458271685015,0.28776995,0.6635049369985726
0.029500000000000002,1.7782437500000001,1.0,2672.335685288129,0.28293948881921455,1.3244422924378199,0.9451938564931394,0.2877392375,0.6643405576457022
0.03,1.7775,1.0,2679.692301453046,0.28696163450032275,1.324038871509892,0.9465782033784919,0.287708,0.6651747759904199
0.0305,1.77674375,1.0,2686.454699906893,0.29096121890162147,1.323635342071785,0.9479025488352559,0.2876762375,0.6660081803637714
0.031,1.775975,1.0,2692.651672405825,0.294938367482643,1.323231419737341,0.9491703105024931,0.28764395,0.6668413561689507
0.0315,1.7751937500000001,1.0,2698.3123441145217,0.29889320570291955,1.3228268201204014,0.9503846647727662,0.2876111375,0.6676748858767538
0.032,1.7744,1.0,2703.4661413853787,0.3028258590219834,1.3224212588348094,0.9515485668006759,0.2875778,0.66850934901587
0.0325,1.77359375,1.0,2708.1427613318774,0.3067364528993668,1.3220144514944066,0.9526647686200745,0.2875439375,0.6693453221580246
0.033,1.772775,1.0,2712.3672427084357,0.3106251104953022,1.3216061583970349,0.9537358401302588,0.28750955,0.6701832872484098
0.0335,1.7719437500000002,1.0,2716.1648808222067,0.31449195547301206,1.321196139339281,0.9547641791746283,0.2874746375,0.6710237247243022
0.034,1.7711000000000001,1.0,2719.5693100172457,0.3183371147447282,1.3207840798217492,0.9557520175755305,0.2874392,0.6718672644544441
0.0345,1.7702437500000001,1.0,2722.59861274544,0.3221607074866566,1.3203698085062598,0.9567014552102772,0.2874032375,0.6727142404262194
0.035,1.7693750000000001,1.0,2725.2709944446196,0.32596285287500315,1.319953154054634,0.9576144565136357,0.28736675,0.6735649847273328
0.035500000000000004,1.76849375,1.0,2727.6047708215174,0.3297436700859738,1.3195339451286925,0.9584928607806618,0.2873297375,0.6744198275207072
0.036000000000000004,1.7676,1.0,2729.6183557851746,0.3335032782957744,1.3191120103902556,0.9593383915726431,0.2872922,0.6752790970175044
0.0365,1.76669375,1.0,2731.330250031538,0.33724179668061094,1.3186871785011438,0.9601526653134879,0.2872541375,0.6761431194482784
0.037,1.765775,1.0,2732.7590302787025,0.34095934441668935,1.3182592781231783,0.9609371991545409,0.28721555,0.6770122190322494
0.0375,1.76484375,1.0,2733.9221660677717,0.34465603944370793,1.3178281485724543,0.9616934189544551,0.2871764375,0.6778866963488708
0.038,1.7639,1.0,2734.835277229555,0.3483319972188656,1.3173936464672473,0.9624226662064345,0.28713679999999997,0.6787668149943369
0.0385,1.76294375,1.0,2735.5191978545963,0.3519873401646034,1.3169555815035212,0.9631261998772438,0.28709663750000003,0.6796529316127702
0.039,1.761975,1.0,2735.9852202799793,0.3556221814884857,1.3165138503789193,0.9638052114016941,0.28705595,0.6805452248670634
0.0395,1.7609937500000001,1.0,2736.2446676997383,0.35923663439807657,1.3160683497910843,0.9644608231928824,0.2870147375,0.6814438720036377
0.04,1.76,1.0,2736.308889749892,0.36283081210094037,1.3156189764376591,0.9650940933745468,0.286973,0.6823490488279476
0.0405,1.7589937500000001,1.0,2736.189258330998,0.36640482780464134,1.3151656270162868,0.9657060201406216,0.2869307375,0.6832609296793073
0.041,1.757975,1.0,2735.897163667048,0.3699587947167437,1.3147081982246103,0.9662975457749728,0.28688795,0.6841796874050364
0.0415,1.75694375,1.0,2735.4440106005645,0.37349282604481177,1.3142465867602724,0.9668695603610817,0.2868446375,0.6851054933339241
0.042,1.7559,1.0,2734.8408129443833,0.37700703437349314,1.3137806929730154,0.9674229054106875,0.28680079999999997,0.6860385099406068
0.0425,1.75484375,1.0,2734.089037443349,0.3805015162149043,1.3133105039927955,0.9679583813653678,0.2867564375,0.6869787247697082
0.043000000000000003,1.753775,1.0,2733.2154810762086,0.3839764081769092,1.312835776967057,0.9684767334810692,0.28671155,0.6879265837035003
0.043500000000000004,1.75269375,1.0,2732.226168567517,0.3874318162822617,1.312356457691448,0.9689786777395244,0.28666613750000003,0.6888821535027128
0.044,1.7516,1.0,2731.127127954655,0.39086784655371565,1.3118724919616156,0.9694648925434672,0.2866202,0.6898454998649619
0.0445,1.75049375,1.0,2729.9243893557746,0.39428460501402496,1.3113838255732078,0.9699360210569214,0.2865737375,0.6908166874087823
0.045,1.7493750000000001,1.0,2728.6239838017054,0.3976821976859436,1.310890404321872,0.9703926733775561,0.28652675,0.691795779657471
0.0455,1.74824375,1.0,2727.231942133429,0.40106073059222536,1.3103921740032562,0.9708354285546886,0.2864792375,0.6927828390227433
0.046,1.7471,1.0,2725.7542939649925,0.40442030975562415,1.309889080413008,0.9712648364652879,0.2864312,0.6937779267882026
0.0465,1.7459437500000001,1.0,2724.197066710941,0.40776104119889384,1.3093810693467747,0.9716814195592431,0.28638263750000004,0.6947811030926219
0.047,1.744775,1.0,2722.5662846791847,0.4110830309447884,1.3088680866002043,0.9720856744841648,0.28633355,0.695792426913038
0.0475,1.74359375,1.0,2720.867968229668,0.41438638501606156,1.308350077968944,0.9724780735991004,0.28628393750000003,0.6968119560476598
0.048,1.7424,1.0,2719.1081329965746,0.41767120943546737,1.3078269892486423,0.9728590663857267,0.2862338,0.6978397470985851
0.0485,1.74119375,1.0,2717.292789177637,0.42093761022575965,1.3072987662349462,0.9732290807648558,0.2861831375,0.6988758554543364
0.049,1.739975,1.0,2715.4236742791572,0.42418567809637164,1.306765393605729,0.9735885251455583,0.28613195,0.6999202592025577
0.0495,1.73874375,1.0,2713.5090233900987,0.42741553100032953,1.306226796798594,0.9739377879766614,0.2860802375,0.7009730514109457
0.05,1.7375,1.0,2711.554157369944,0.4306272766619593,1.3056829277347861,0.974277240136465,0.286028,0.7020342719754131
0.0505,1.73624375,1.0,2709.5618068549566,0.43382101314672894,1.3051337619060313,0.9746072358231767,0.2859752375,0.7031039137279127
0.051000000000000004,1.734975,1.0,2707.5346993781645,0.4369968385201061,1.304579274804056,0.9749281130465254,0.28592195,0.7041819686219237
0.051500000000000004,1.73369375,1.0,2705.4755591865346,0.44015485084755857,1.3040194419205873,0.9752401945078524,0.2858681375,0.7052684277241539
0.052000000000000005,1.7324,1.0,2703.3871070713453,0.4432951481945542,1.3034542387473516,0.9755437884248798,0.2858138,0.7063632812062033
0.0525,1.73109375,1.0,2701.2720602128516,0.44641782862656065,1.302883640776075,0.9758391893050885,0.28575893750000003,0.707466518336191
0.053,1.729775,1.0,2699.133132036928,0.4495229902090458,1.3023076234984847,0.9761266786713231,0.28570355000000003,0.7085781274703393
0.0535,1.72844375,1.0,2696.9730320860135,0.45261073100747734,1.301726162406307,0.9764065257429619,0.2856476375,0.7096980960445244
0.054,1.7271,1.0,2694.7944659030727,0.45568114908732316,1.3011392329912685,0.9766789880757286,0.2855912,0.710826410565786
0.0545,1.7257437500000001,1.0,2692.6001349287185,0.458734342514051,1.3005468107450955,0.9769443121629835,0.2855342375,0.7119630566038002
0.055,1.724375,1.0,2690.3927364116144,0.4617704093531286,1.2999488711595149,0.9772027340011207,0.28547675,0.7131080187823111
0.0555,1.72299375,1.0,2688.1749633328145,0.46478944767002367,1.2993453897262532,0.9774544796214935,0.2854187375,0.714261280770528
0.056,1.7216,1.0,2685.947452223782,0.46779153649959354,1.298736360740638,0.9776997649246092,0.2853602,0.7154227894497431
0.0565,1.72019375,1.0,2683.7121757494137,0.47077677880018287,1.2981217662410214,0.9779387983660279,0.28530113749999997,0.7165925143282328
0.057,1.718775,1.0,2681.472877929917,0.47374529261510046,1.2975015719917788,0.9781717802255566,0.28524155,0.7177704549184325
0.0575,1.71734375,1.0,2679.2305547903047,0.47669716743490237,1.296875768911775,0.9783989014636796,0.2851814375,0.7189565619676097
0.058,1.7159,1.0,2676.986200709734,0.4796324927501447,1.296244347919874,0.9786203453242903,0.2851208,0.7201507854768133
0.0585,1.71444375,1.0,2674.740808414976,0.4825513580513836,1.2956072999349404,0.9788362877058535,0.2850596375,0.7213530746976218
0.059000000000000004,1.7129750000000001,1.0,2672.4953689755503,0.4854538528291752,1.2949646158758388,0.979046897511866,0.28499795,0.7225633781288867
0.059500000000000004,1.71149375,1.0,2670.2508718015347,0.4883400665740755,1.2943162866614333,0.9792523369819299,0.2849357375,0.7237816435134727
0.06,1.71,1.0,2668.0083046419995,0.4912100887766407,1.2936623032105883,0.9794527620046494,0.284873,0.7250078178349889
0.0605,1.7084937500000001,1.0,2665.768653586406,0.4940640089274269,1.2930026564421686,0.9796483224134834,0.2848097375,0.7262418473145169
0.061,1.7069750000000001,1.0,2663.5329030672533,0.4969019165169903,1.2923373372750382,0.9798391622666073,0.28474595,0.727483677407336
0.0615,1.7054437500000001,1.0,2661.3020358643225,0.4997239010358868,1.2916663366280619,0.9800254201117586,0.2846816375,0.7287332527996369
0.062,1.7039,1.0,2659.077033111723,0.5025300519746727,1.2909896454201035,0.9802072292369863,0.2846168,0.7299905174052373
0.0625,1.70234375,1.0,2656.8588743053733,0.5053204588239041,1.2903072545700283,0.9803847179081491,0.2845514375,0.7312554143622858
0.063,1.7007750000000001,1.0,2654.6485373135447,0.5080952110741369,1.2896191549966998,0.9805580095939582,0.28448555,0.7325278860299669
0.0635,1.69919375,1.0,2652.4469983887743,0.5108543982159275,1.288925337618983,0.9807272231793067,0.28441913750000003,0.7338078739851934
0.064,1.6976,1.0,2650.255232181028,0.5135981097398319,1.2882257933557424,0.9808924731675743,0.2843522,0.7350953190193014
0.0645,1.69599375,1.0,2648.0742117540813,0.5163264351364061,1.2875205131258418,0.9810538698725562,0.2842847375,0.7363901611347341
0.065,1.694375,1.0,2645.903574850119,0.5190394161278538,1.2868095001614732,0.9812115168349824,0.28421675,0.7376923170188964
0.0655,1.69274375,1.0,2643.7439705510214,0.5217371891672873,1.2860927483600149,0.9813655200725181,0.2841482375,0.739001719820833
0.066,1.6911,1.0,2641.5957063318647,0.5244198500701891,1.285370254765708,0.9815159791056299,0.2840792,0.7403182962211573
0.0665,1.6894437500000001,1.0,2639.4588030280843,0.5270874789834512,1.2846420190680636,0.9816629889733629,0.2840096375,0.7416419674134442
0.067,1.687775,1.0,2637.3332814826585,0.529740156053966,1.2839080409565926,0.9818066413707771,0.28393955,0.7429726539546866
0.0675,1.68609375,1.0,2635.219162547654,0.5323779614286253,1.283168320120806,0.9819470247885832,0.2838689375,0.744310275765181
0.068,1.6844000000000001,1.0,2633.1164670842763,0.5350009752543213,1.2824228562502145,0.9820842246459924,0.2837978,0.7456547521284143
0.0685,1.68269375,1.0,2631.025215963774,0.5376092776779464,1.2816716490343292,0.9822183234171598,0.2837261375,0.7470060016909493
0.069,1.680975,1.0,2628.945430068078,0.5402029488463924,1.280914698162661,0.9823494007515677,0.28365395,0.7483639424623123
0.0695,1.67924375,1.0,2626.8771302903833,0.5427820689065516,1.280152003324721,0.9824775335886812,0.28358123749999997,0.7497284918148774
0.07,1.6775,1.0,2624.8203375361163,0.5453467180053161,1.2793835642100198,0.9826027962671837,0.283508,0.7510995664837556
0.07050000000000001,1.67574375,1.0,2622.775072723394,0.5478969762895779,1.2786093805080685,0.9827252606290842,0.2834342375,0.7524770825666783
0.07100000000000001,1.673975,1.0,2620.741356783478,0.5504329239062293,1.2778294519083784,0.9828449961189702,0.28335995,0.7538609555238842
0.07150000000000001,1.67219375,1.0,2618.7192106620105,0.5529546410021624,1.27704377810046,0.9829620698786615,0.2832851375,0.7552511001780073
0.07200000000000001,1.6704,1.0,2616.708655319314,0.5554622077242694,1.2762523587738244,0.9830765468375087,0.2832098,0.7566474307139612
0.0725,1.66859375,1.0,2614.7097117311446,0.5579557042194421,1.2754551936179825,0.9831884897985628,0.2831339375,0.7580498606788257
0.073,1.6667750000000001,1.0,2612.7224008894837,0.5604352106345729,1.2746522823224453,0.9832979595208317,0.28305755,0.7594583029817341
0.0735,1.66494375,1.0,2610.746743803164,0.562900807116554,1.2738436245767237,0.9834050147978225,0.2829806375,0.7608726698937577
0.074,1.6631,1.0,2608.7827614984403,0.5653525738122774,1.2730292200703286,0.9835097125325647,0.2829032,0.7622928730477936
0.0745,1.6612437500000001,1.0,2606.83047501991,0.5677905908686353,1.2722090684927712,0.9836121078092885,0.2828252375,0.7637188234384497
0.075,1.659375,1.0,2604.889905431184,0.5702149384325197,1.271383169533562,0.9837122539619317,0.28274675,0.7651504314219322
