Time [s],Phi [rad],STIM [ ],Fsee [N],Gamma [ ],Lcerel [ ],q [ ],Lmtc [m],fisomrel [ ]
0.0,1.8,1.0,17.967045589175807,1.0000846564679188e-05,1.379339758832287,0.005000026656268357,0.288653,0.5411395005391016
0.0005,1.79999375,1.0,18.276388203702304,0.005619154058518941,1.379302427327965,0.012940517093084254,0.2886527375,0.5412298106604394
0.001,1.799975,1.0,21.618014146911502,0.011196844355876352,1.3789383396394723,0.03560858346763146,0.28865195,0.5421101235691325
0.0015,1.79994375,1.0,31.06877906253477,0.016743248221572072,1.3780462426589852,0.0706017153789811,0.2886506375,0.5442635153425499
0.002,1.7999,1.0,53.58166325459351,0.022258541146890343,1.3763681786944535,0.1147178489582544,0.2886488,0.5483003637315687
0.0025,1.79984375,1.0,97.1178461386972,0.027742897639027493,1.3739352198568642,0.1645746869932677,0.28864643749999996,0.5541213372149192
0.003,1.7997750000000001,1.0,160.95695662881238,0.033196491228809875,1.3712143890549973,0.217280240274593,0.28864354999999997,0.5605863436177461
0.0035,1.79969375,1.0,237.68207941873467,0.03861949447028456,1.3685847728019438,0.2706126746631167,0.2886401375,0.5667897489111591
0.004,1.7996,1.0,321.46553324818655,0.044012078951501776,1.3661561251884913,0.32291559376210527,0.2886362,0.572479885162468
0.0045000000000000005,1.7994937500000001,1.0,409.26655779835977,0.049374415299699305,1.3639228421706429,0.37303430987403136,0.2886317375,0.5776790974057442
0.005,1.799375,1.0,499.41234897689225,0.0547066731723934,1.3618583668945377,0.4202472758936502,0.28862675,0.5824570226671498
0.0055,1.79924375,1.0,590.7893051279341,0.06000902130484136,1.359938856763985,0.46417352749294555,0.2886212375,0.5868750618349348
0.006,1.7991000000000001,1.0,682.5170392102717,0.06528162745320272,1.3581464341811214,0.504679805783033,0.2886152,0.5909793739902669
0.006500000000000001,1.79894375,1.0,773.8805700694639,0.0705246584497776,1.3564672653583323,0.5418006145736591,0.2886086375,0.594805767627399
0.007,1.798775,1.0,864.2849286929754,0.07573828018813333,1.354890409251748,0.5756766515881323,0.28860155,0.5983826448377769
0.0075,1.79859375,1.0,953.2415882487618,0.0809226576308283,1.3534068042185867,0.606509806802878,0.2885939375,0.6017335163648135
0.008,1.7984,1.0,1040.3562656374313,0.08607795479364858,1.352008678572554,0.6345319662887761,0.2885858,0.6048784764336874
0.0085,1.79819375,1.0,1125.3182436466727,0.09120433487895359,1.3506891846448714,0.6599843044271846,0.2885771375,0.6078351268275359
0.009000000000000001,1.797975,1.0,1207.878036274655,0.0963019597813885,1.3494423376275915,0.6831042732392308,0.28856795,0.610618790412514
0.0095,1.79774375,1.0,1287.872567950331,0.10137099134022476,1.3482623836646264,0.7041175380030522,0.2885582375,0.6132439799879866
0.01,1.7975,1.0,1365.1656894246246,0.10641158978351839,1.347144402756895,0.7232341659625406,0.288548,0.6157230983244855
0.0105,1.79724375,1.0,1439.6585514988215,0.1114239141252779,1.3460839582485633,0.7406466020119252,0.2885372375,0.6180672635299959
0.011,1.796975,1.0,1511.306526389317,0.11640812299015672,1.3450767452767565,0.756529160062774,0.28852595000000003,0.6202871169298487
0.0115,1.79669375,1.0,1580.110083895056,0.12136437493592346,1.3441186136174994,0.7710386157765426,0.2885141375,0.6223927926083233
0.012,1.7964,1.0,1646.0645139385188,0.12629282643634365,1.3432060771344154,0.7843155038536556,0.28850180000000003,0.6243928208482324
0.0125,1.79609375,1.0,1709.1775563877704,0.1311936328130137,1.3423359936519117,0.7964852658311229,0.2884889375,0.6262948579411936
0.013000000000000001,1.7957750000000001,1.0,1769.4927546009787,0.13606694932638347,1.3415052285409803,0.8076595152327583,0.28847555,0.6281064377524643
0.0135,1.79544375,1.0,1827.0729041028203,0.14091293029409033,1.3407108019912142,0.8179375089463747,0.2884616375,0.6298346600972693
0.014,1.7951000000000001,1.0,1881.9862561923837,0.1457317299726022,1.3399499956343184,0.8274075235089842,0.2884472,0.6314859708808256
0.0145,1.79474375,1.0,1934.2857998603438,0.1505234997554007,1.339220529547103,0.8361481408187947,0.2884322375,0.6330657918806859
0.015,1.794375,1.0,1984.045504725504,0.15528839103596737,1.3385201238063777,0.8442292087517173,0.28841675,0.6345794827108249
0.0155,1.79399375,1.0,2031.3477422430549,0.16002655435895613,1.3378466119331829,0.8517129000929614,0.2884007375,0.6360321007821088
0.016,1.7936,1.0,2076.2887623209012,0.16473814103667087,1.3371978599593275,0.8586545932515907,0.2883842,0.6374285817565363
0.0165,1.7931937500000001,1.0,2118.9539626902724,0.16942330059939775,1.3365720043234204,0.8651037458572528,0.2883671375,0.6387732331177153
0.017,1.792775,1.0,2159.410081575009,0.1740821798995207,1.3359675047277606,0.8711046057983801,0.28834955,0.6400696293590631
0.0175,1.7923437500000001,1.0,2197.7345705243897,0.1787149257894236,1.335382820874647,0.8766967331414003,0.2883314375,0.6413213120604734
0.018000000000000002,1.7919,1.0,2234.0146986035434,0.18332168512149033,1.3348164124663786,0.881915551448063,0.2883128,0.6425317919105352
0.0185,1.79144375,1.0,2268.337216689046,0.1879026036711837,1.334266833853727,0.886792854633914,0.2882936375,0.6437043488055005
0.019,1.790975,1.0,2300.7947026280817,0.19245782791949542,1.3337326600385662,0.8913572090602122,0.28827395,0.6448421926772412
0.0195,1.79049375,1.0,2331.4648032340133,0.19698750197698436,1.333212683288839,0.8956343686638283,0.2882537375,0.6459480474982524
0.02,1.79,1.0,2360.4141162569686,0.20149176786388961,1.3327058622225063,0.8996475798709876,0.288233,0.6470242641670239
0.0205,1.78949375,1.0,2387.714301178866,0.20597076760045024,1.3322111554575287,0.9034178250358395,0.2882117375,0.6480731766249163
0.021,1.788975,1.0,2413.4416571426864,0.2104246432069053,1.3317275216118671,0.9069640737566826,0.28818995000000003,0.6490971026953068
0.021500000000000002,1.78844375,1.0,2437.668255042082,0.21485353519562184,1.3312540007696287,0.9103035199099707,0.2881676375,0.6500981727490907
0.022,1.7879,1.0,2460.4729573189543,0.2192575858285718,1.3307896035082474,0.9134517525358866,0.2881448,0.6510785657233944
0.0225,1.78734375,1.0,2481.921799980159,0.22363693470822502,1.330333495440495,0.9164229616400289,0.28812143749999997,0.652040120504032
0.023,1.786775,1.0,2502.070076259002,0.22799171883382202,1.3298849713278935,0.9192300796057458,0.28809755,0.652984393150494
0.0235,1.78619375,1.0,2520.9754847213167,0.23232207520460338,1.3294433259319645,0.921884888416794,0.28807313749999996,0.6539129304811397
0.024,1.7856,1.0,2538.6979279260263,0.23662814081980962,1.32900785401423,0.9243981378812339,0.2880482,0.654827270398441
0.0245,1.78499375,1.0,2555.299322113115,0.24091005267868132,1.3285778503362118,0.9267796502820616,0.2880227375,0.6557289421825064
0.025,1.784375,1.0,2570.832093987186,0.24516794447710838,1.328152715718366,0.9290384297790154,0.28799675,0.6566192447916497
0.025500000000000002,1.78374375,1.0,2585.3613148636255,0.24940195569854923,1.3277317472526273,0.9311827118793994,0.2879702375,0.6574996869985332
0.026000000000000002,1.7831000000000001,1.0,2598.931600197347,0.2536122190777495,1.3273144467301987,0.9332200830558551,0.2879432,0.6583713423523723
0.0265,1.78244375,1.0,2611.5850781602167,0.2577988661444498,1.326900349809688,0.9351575175125193,0.2879156375,0.6592352082088762
0.027,1.781775,1.0,2623.3649012374453,0.2619620284283906,1.326488992149703,0.9370014303453479,0.28788755,0.6600922768018853
0.0275,1.7810937500000001,1.0,2634.3151575183874,0.26610183745931254,1.3260799094088507,0.9387577298137667,0.2878589375,0.660943535331364
0.028,1.7804,1.0,2644.480786767674,0.2702184247669561,1.3256726372457392,0.9404318640903104,0.2878298,0.661789966037644
0.0285,1.77969375,1.0,2653.9039446258644,0.27431192047996633,1.3252667441047885,0.9420288672969922,0.2878001375,0.6626324782508611
0.029,1.778975,1.0,2662.6209407456554,0.2783824532149227,1.3248618584414866,0.9435534003728653,0.28776995,0.663471852455177
0.029500000000000002,1.7782437500000001,1.0,2670.6829258013713,0.28243015799209986,1.3244574775741842,0.9450097606313487,0.2877392375,0.6643091366269062
0.03,1.7775,1.0,2678.1180616128304,0.28645516027153545,1.3240533152481837,0.9464019547770728,0.287708,0.6651449262648638
0.0305,1.77674375,1.0,2684.9549196504586,0.29045758551326717,1.3236490852087885,0.9477336984062549,0.2876762375,0.6659798139142676
0.031,1.775975,1.0,2691.222444728621,0.2944375591773328,1.3232445012013014,0.9490084408194717,0.28764395,0.6668143891681182
0.0315,1.7751937500000001,1.0,2696.949920515436,0.2983952067237699,1.322839276971025,0.9502293874283442,0.2876111375,0.6676492386633475
0.032,1.7744,1.0,2702.1669368594175,0.30233065361261635,1.322433126263263,0.951399520015453,0.2875778,0.6684849460717435
0.0325,1.77359375,1.0,2706.9033589335836,0.30624402530390976,1.3220257628233174,0.9525216150762971,0.2875439375,0.6693220920856522
0.033,1.772775,1.0,2711.1854841038958,0.3101354453928236,1.321616935182026,0.9535982639841938,0.28750955,0.6701611830488537
0.0335,1.7719437500000002,1.0,2715.0378358209437,0.31400503707459115,1.3212064099348695,0.954631886229237,0.2874746375,0.671002685640155
0.034,1.7711000000000001,1.0,2718.4938869623047,0.31785292749129856,1.3207938738103793,0.9556247331284657,0.2874392,0.6718472274417426
0.0345,1.7702437500000001,1.0,2721.572020528394,0.3216792359597507,1.3203791525417858,0.9565789220952469,0.2874032375,0.6726951486498952
0.035,1.7693750000000001,1.0,2724.2907452064455,0.32548408179675237,1.3199620718623206,0.9574964337568258,0.28736675,0.6735467875305203
0.035500000000000004,1.76849375,1.0,2726.668682339456,0.32926758431910846,1.319542457505214,0.9583791223749701,0.2873297375,0.6744024803939048
0.036000000000000004,1.7676,1.0,2728.7245535666884,0.33302986284362385,1.3191201352036972,0.9592287253581538,0.2872922,0.6752625615675192
0.0365,1.76669375,1.0,2730.477169138938,0.33677103668710323,1.318694930691001,0.9600468719538644,0.2872541375,0.6761273633668945
0.037,1.765775,1.0,2731.945416906109,0.3404912251663516,1.3182666697003562,0.960835091200124,0.28721555,0.6769972160645548
0.0375,1.76484375,1.0,2733.144663464602,0.3441905434593262,1.3178352105614644,0.9615948215125735,0.2871764375,0.6778723817836404
0.038,1.7639,1.0,2734.092272894942,0.3478691099994955,1.3174003939633014,0.9623274139051755,0.28713679999999997,0.6787531566069549
0.0385,1.76294375,1.0,2734.8096061590045,0.3515270491802121,1.3169620247416975,0.963034137004323,0.28709663750000003,0.6796399071162103
0.039,1.761975,1.0,2735.307890843117,0.35516447370056775,1.3165200001271529,0.9637161912412524,0.28705595,0.6805328109678161
0.0395,1.7609937500000001,1.0,2735.5983859222306,0.3587814962596543,1.3160742173501663,0.9643747074098056,0.2870147375,0.6814320444084179
0.04,1.76,1.0,2735.6923773426133,0.36237822955656346,1.3156245736412377,0.9650107514472341,0.286973,0.682337782250596
0.0405,1.7589937500000001,1.0,2735.6011738396996,0.365954786290387,1.3151709662308666,0.9656253288379245,0.2869307375,0.6832501978479016
0.041,1.757975,1.0,2735.3361029895746,0.3695112791602168,1.3147132923495521,0.9662193886734339,0.28688795,0.6841694630692134
0.0415,1.75694375,1.0,2734.9085074946947,0.37304782086514454,1.3142514492277941,0.9667938273989825,0.2868446375,0.6850957482724207
0.042,1.7559,1.0,2734.329741703838,0.3765645241042621,1.313785334096092,0.967349492273615,0.28680079999999997,0.6860292222774358
0.0425,1.75484375,1.0,2733.611168366612,0.3800615015766612,1.3133148441849456,0.9678871845686392,0.2867564375,0.6869700523385308
0.043000000000000003,1.753775,1.0,2732.7587443927864,0.38353885736539056,1.3128399258815138,0.9684076651564497,0.28671155,0.6879183060409725
0.043500000000000004,1.75269375,1.0,2731.781428304909,0.3869967035124113,1.3123604983595307,0.9689116535647474,0.28666613750000003,0.6888741041600306
0.044,1.7516,1.0,2730.6964587962784,0.39043516475887435,1.3118764055695293,0.9693998274641344,0.2866202,0.6898377157175717
0.0445,1.75049375,1.0,2729.509374246684,0.39385434604126235,1.3113875977538627,0.9698728345512275,0.2865737375,0.6908091963172149
0.045,1.7493750000000001,1.0,2728.2257142401227,0.3972543522960576,1.3108940251548846,0.9703312891858082,0.28652675,0.6917886005197512
0.0455,1.74824375,1.0,2726.851018566118,0.4006352884597426,1.310395638014948,0.9707757744275927,0.2864792375,0.692775981828104
0.046,1.7471,1.0,2725.3908262761297,0.4039972594687998,1.3098923865764065,0.9712068439295413,0.2864312,0.693771392672127
0.0465,1.7459437500000001,1.0,2723.8506747944916,0.40734037025971165,1.3093842210816133,0.9716250236990965,0.28638263750000004,0.6947748843932506
0.047,1.744775,1.0,2722.2360990842467,0.41066472576896057,1.308871091772922,0.9720308137377343,0.28633355,0.6957865072289642
0.0475,1.74359375,1.0,2720.552630868626,0.41397043093302904,1.3083529488926857,0.9724246895683107,0.28628393750000003,0.6968063102971453
0.048,1.7424,1.0,2718.805797905979,0.4172575906883995,1.307829742683258,0.9728071036588608,0.2862338,0.6978343415802271
0.0485,1.74119375,1.0,2717.001123321333,0.4205263099715544,1.307301423386992,0.9731784867507773,0.2861831375,0.6988706479092115
0.049,1.739975,1.0,2715.1441249912114,0.4237766937189762,1.3067679412462412,0.9735392490986081,0.28613195,0.6999152749475215
0.0495,1.73874375,1.0,2713.240314984612,0.42700884686714735,1.306229246503359,0.9738897816281163,0.2860802375,0.7009682671746973
0.05,1.7375,1.0,2711.2910019978467,0.4302228617283294,1.3056853276782674,0.9742304581186003,0.286028,0.7020295932469078
0.0505,1.73624375,1.0,2709.301788795269,0.4334188482263543,1.3051361341086427,0.9745616345171702,0.2859752375,0.703099297389134
0.051000000000000004,1.734975,1.0,2707.279619609863,0.43659691838774606,1.3045816028235122,0.9748836498712097,0.28592195,0.7041774464970034
0.051500000000000004,1.73369375,1.0,2705.226827443992,0.43975716908169865,1.3040217128663665,0.9751968288671641,0.2858681375,0.7052640245720683
0.052000000000000005,1.7324,1.0,2703.145742390726,0.44289969717740607,1.3034564432806965,0.9755014816066004,0.2858138,0.7063590147685886
0.0525,1.73109375,1.0,2701.0386915057584,0.44602459954406215,1.3028857731099932,0.9757979043856841,0.28575893750000003,0.7074623993863576
0.053,1.729775,1.0,2698.9079986887364,0.4491319730508609,1.3023096813977473,0.9760863804264731,0.28570355000000003,0.7085741598634967
0.0535,1.72844375,1.0,2696.7559845745895,0.45222191456699623,1.3017281471874496,0.9763671805633927,0.2856476375,0.7096942767692245
0.054,1.7271,1.0,2694.584966434425,0.455294520961662,1.3011411495225913,0.9766405638880012,0.2855912,0.7108227297965954
0.0545,1.7257437500000001,1.0,2692.3972580863383,0.4583498891040522,1.3005486674466629,0.9769067783549086,0.2855342375,0.7119594977552144
0.055,1.724375,1.0,2690.195169815714,0.4613881158633608,1.2999506800031553,0.9771660613514955,0.28547675,0.7131045585639182
0.0555,1.72299375,1.0,2687.981008305575,0.4644092981087816,1.2993471662355593,0.9774186402338857,0.2854187375,0.7142578892434324
0.056,1.7216,1.0,2685.757076576198,0.46741353270950864,1.298738105187366,0.9776647328314225,0.2853602,0.7154194659089994
0.0565,1.72019375,1.0,2683.525673935096,0.47040091653473576,1.2981234759020663,0.977904547921755,0.28530113749999997,0.7165892637629786
0.057,1.718775,1.0,2681.2872577732333,0.47337154626695305,1.2975032742809038,0.978138286629887,0.28524155,0.7177672251024914
0.0575,1.71734375,1.0,2679.024958758001,0.4763255127603194,1.296877655188454,0.978366150386719,0.2851814375,0.7189529905924918
0.058,1.7159,1.0,2676.7900656477573,0.4792629130013051,1.2962461481478396,0.978588297801175,0.2851208,0.7201473842715826
0.0585,1.7144488215139957,1.0,2674.79306411987,0.4821838380894633,1.2956091104763547,0.9788049267263458,0.28505985050358784,0.7213496613628134
0.059000000000000004,1.712997581525092,1.0,2673.3570155862726,0.4850883791243472,1.2949668994912937,0.9790162271816298,0.28499889842405385,0.7225590822847354
0.059500000000000004,1.7115463415361882,1.0,2672.445594758578,0.48797662720551005,1.294319872509951,0.9792223817350227,0.2849379463445199,0.7237749127733617
0.06,1.7100951015472847,1.0,2672.0196389739526,0.490848673432505,1.2936683868496206,0.97942356586399,0.28487699426498597,0.7249964239959872
0.0605,1.708643861558381,1.0,2672.040137546939,0.4937046089048854,1.2930127998275969,0.979619948296261,0.284816042185452,0.7262228926568643
0.061,1.7071926215694773,1.0,2672.468197862177,0.4965445247222043,1.292353468761174,0.9798116913318001,0.28475509010591804,0.7274536010947362
0.0615,1.7057413815805735,1.0,2673.272964679471,0.4993685097222579,1.291690677945591,0.9799989471113195,0.2846941380263841,0.7286879732131426
0.062,1.70429014159167,1.0,2674.4161612771386,0.5021766556623081,1.2910247804273225,0.9801818659089654,0.28463318594685016,0.7299253098763672
0.0625,1.7028389016027663,1.0,2675.8675943676044,0.5049690522257131,1.290356055379503,0.9803605884393733,0.28457223386731617,0.7311650545422671
0.063,1.7013876616138626,1.0,2677.6067289766524,0.5077457862543615,1.2896846935570818,0.9805352454784712,0.28451128178778223,0.7324068186184298
0.0635,1.699936421624959,1.0,2679.6130516805397,0.5105069445901419,1.2890108857150073,0.9807059630286966,0.2844503297082483,0.7336502166397545
0.064,1.6984851816360553,1.0,2681.866059857504,0.5132526140749427,1.2883348226082283,0.9808728625335374,0.2843893776287143,0.7348948662993671
0.0645,1.6970339416471516,1.0,2684.345251746554,0.5159828815506527,1.2876566949916932,0.9810360610809645,0.28432842554918036,0.7361403884772193
0.065,1.6955827016582479,1.0,2687.030117312025,0.5186978338591606,1.286976693620351,0.9811956715964095,0.2842674734696464,0.7373864072663622
0.0655,1.6941314616693444,1.0,2689.9002811080013,0.5213975577605121,1.2862950078647928,0.981351802951621,0.2842065213901125,0.738632552524548
0.066,1.6926802216804406,1.0,2692.9434991816524,0.5240821364817617,1.2856117524657282,0.9815045563042918,0.2841455693105785,0.7398785932827028
0.0665,1.691228981691537,1.0,2696.137406841613,0.5267516597487452,1.2849271346230953,0.9816540342481209,0.28408461723104456,0.7411241325110731
0.067,1.6897777417026334,1.0,2699.4718337294075,0.5294062103446747,1.2842412497144542,0.9818003299752951,0.2840236651515106,0.7423689794667261
0.0675,1.6883265017137297,1.0,2702.936594933896,0.5320458710527619,1.2835541931173662,0.9819435334888694,0.2839627130719766,0.7436129450432379
0.068,1.686875261724826,1.0,2706.5214884129914,0.5346707246562188,1.282866060209392,0.98208373173666,0.2839017609924427,0.7448558417781144
0.0685,1.6854240217359222,1.0,2710.2162926165875,0.5372808539382571,1.282176946368092,0.982221008738647,0.28384080891290875,0.7460974838596266
0.069,1.6839727817470187,1.0,2714.0107643111664,0.5398763416820889,1.2814869469710273,0.9823554457082405,0.2837798568333748,0.7473376871330679
0.0695,1.682521541758115,1.0,2717.8946366066602,0.5424572706709258,1.2807961573957585,0.9824871211677461,0.2837189047538408,0.7485762691064299
0.07,1.6810703017692112,1.0,2721.8627134328967,0.5450237177968462,1.2801046266319092,0.9826161085381028,0.2836579526743069,0.7498131318220624
0.07050000000000001,1.6796190617803075,1.0,2725.90304427055,0.5475757698173469,1.2794124649969105,0.982742482274174,0.2835970005947729,0.751048068891423
0.07100000000000001,1.678167821791404,1.0,2730.0049966583097,0.5501135123925068,1.2787197705288638,0.9828663137932584,0.28353604851523895,0.7522808976924028
0.07150000000000001,1.6767165818025003,1.0,2734.1643434649163,0.5526370234473925,1.278026582818436,0.9829876690939968,0.283475096435705,0.7535115409639774
0.07200000000000001,1.6752653418135965,1.0,2738.376845999118,0.5551463809070702,1.2773329414562937,0.9831066120622878,0.28341414435617107,0.7547399221403059
0.0725,1.673814101824693,1.0,2742.63825359415,0.5576416626966062,1.2766388860331042,0.9832232045539592,0.28335319227663713,0.7559659653519235
0.073,1.6723628618357893,1.0,2746.9443032269037,0.5601229467410669,1.2759444561395341,0.9833375064736906,0.28329224019710314,0.7571895954268391
0.0735,1.6709116218468856,1.0,2751.29071917188,0.5625903109655185,1.2752496913662503,0.983449575850383,0.2832312881175692,0.7584107378915305
