Time [s],Phi [rad],STIM [ ],Fsee [N],Gamma [ ],Lcerel [ ],q [ ],Lmtc [m],fisomrel [ ]
0.0,1.8,1.0,17.96710443388985,2.272331167928631e-05,1.379339752239696,0.00500013672763947,0.288653,0.5411395164882847
0.0005,1.79999375,1.0,18.280733747304563,0.005631805160670091,1.3793019446466472,0.012975875235073826,0.2886527375,0.5412309782757391
0.001,1.799975,1.0,21.6318441101885,0.011209424495346704,1.378936927326123,0.035674910365900835,0.28865195,0.5421135366984586
0.0015,1.79994375,1.0,31.10274878847508,0.016755757796412484,1.3780433493243551,0.0706924915603581,0.2886506375,0.5442704911722691
0.002,1.7999,1.0,53.65584018477049,0.022270980552896006,1.3763633681092569,0.1148253486760864,0.2886488,0.5483119105403573
0.0025,1.79984375,1.0,97.24323995805744,0.027755267269808995,1.3739291793432067,0.16469163479708074,0.28864643749999996,0.5541357424608291
0.003,1.7997750000000001,1.0,161.12053564566924,0.033208791475741545,1.3712082676685804,0.21740089000150004,0.28864354999999997,0.5606008355053941
0.0035,1.79969375,1.0,237.86713681807015,0.038631725722548416,1.3685790736386114,0.270732675848626,0.2886401375,0.5668031456495635
0.004,1.7996,1.0,321.6625522756538,0.0440242415961069,1.3661509076962242,0.3230317892281578,0.2886362,0.5724920688559667
0.0045000000000000005,1.7994937500000001,1.0,409.47066453694646,0.04938650972150815,1.3639180515977265,0.3731446110021546,0.2886317375,0.5776902159480691
0.005,1.799375,1.0,499.62066682587397,0.0547186997541736,1.3618539406139563,0.42035047169461953,0.28862675,0.5824672374430849
0.0055,1.79924375,1.0,590.999551676237,0.060020980426812184,1.359934749417817,0.4642690708231778,0.2886212375,0.586884490311012
0.006,1.7991000000000001,1.0,682.7276063960203,0.06529351949387707,1.3581426069223328,0.5047676091703854,0.2886152,0.5909881157744752
0.006500000000000001,1.79894375,1.0,774.0916520699643,0.07053648378330096,1.3564636622941628,0.5418808775157815,0.2886086375,0.5948139587494676
0.007,1.798775,1.0,864.496644292378,0.07575003919855047,1.354886989574076,0.5757497640039899,0.28860155,0.5983903846653369
0.0075,1.79859375,1.0,953.4511389584261,0.08093435067006621,1.3534035812864758,0.6065762892651687,0.2885939375,0.6017407804014456
0.008,1.7984,1.0,1040.5644741724004,0.08608958227938383,1.3520056132714937,0.6345923467066686,0.2885858,0.6048853578614783
0.0085,1.79819375,1.0,1125.5212154388284,0.09121589709000556,1.3506863114452357,0.6600391567469237,0.2885771375,0.6078415528218597
0.009000000000000001,1.797975,1.0,1208.0831066991257,0.09631345734805062,1.3494395356772497,0.683154063372374,0.28856795,0.6106250347757274
0.0095,1.79774375,1.0,1288.0586995068168,0.10138242406363336,1.348259920716586,0.7041629118837847,0.2885582375,0.613249450326777
0.01,1.7975,1.0,1365.3455192691847,0.10642295843121768,1.347142091532232,0.7232754811302909,0.288548,0.6157282151997048
0.0105,1.79724375,1.0,1439.837741182548,0.11143521922552511,1.3460817156211984,0.7406842364554652,0.2885372375,0.6180722133695408
0.011,1.796975,1.0,1511.4825499742149,0.11641936490229791,1.345074595123998,0.7565635060469449,0.28852595000000003,0.6202918488520692
0.0115,1.79669375,1.0,1580.2672045185614,0.12137555334896082,1.344116736609585,0.7710700948548564,0.2885141375,0.6223969119425049
0.012,1.7964,1.0,1646.2097439218962,0.12630394207545081,1.3432043772841769,0.7843443722892165,0.28850180000000003,0.6243965414954732
0.0125,1.79609375,1.0,1709.3183126714619,0.13120468628462673,1.3423343768655458,0.7965117524332994,0.2884889375,0.6262983878063727
0.013000000000000001,1.7957750000000001,1.0,1769.6301911579424,0.13607794088162634,1.3415036770229825,0.8076838537947176,0.28847555,0.6281098168998166
0.0135,1.79544375,1.0,1827.1963319310473,0.140923860020388,1.3407094307457865,0.8179599585282804,0.2884616375,0.6298376396711802
0.014,1.7951000000000001,1.0,1882.103116717168,0.14574259827520078,1.3399487164290338,0.8274282387967499,0.2884472,0.6314887442546313
0.0145,1.79474375,1.0,1934.4056623979786,0.15053430728369946,1.339219235339948,0.8361672531411843,0.2884322375,0.6330685917582304
0.015,1.794375,1.0,1984.1671920182366,0.1552991380987947,1.338518826477355,0.8442468754010432,0.28841675,0.6345822835471759
0.0155,1.79399375,1.0,2031.4695204116406,0.16003724177339712,1.337845328840082,0.851729263733308,0.2884007375,0.6360348653728853
0.016,1.7936,1.0,2076.3969311055603,0.16474876813533165,1.3371967326585792,0.8586698181903133,0.2883842,0.6374310060088606
0.0165,1.7931937500000001,1.0,2119.0503914165774,0.16943386764230195,1.3365710095409882,0.8651179295351127,0.2883671375,0.6387753684201533
0.017,1.792775,1.0,2159.497823241055,0.1740926873601781,1.335966608081213,0.87111783226067,0.28834955,0.6400715505561374
0.0175,1.7923437500000001,1.0,2197.81640934604,0.17872537423796817,1.3353819918735927,0.8767090787980073,0.2883314375,0.6413230852260886
0.018000000000000002,1.7919,1.0,2234.0931246391897,0.18333207522468017,1.334815624512467,0.881927085942554,0.2883128,0.6425334744334399
0.0185,1.79144375,1.0,2268.4064750807283,0.18791293544986495,1.3342661432917595,0.8868036616042569,0.2882936375,0.6437058209465973
0.019,1.790975,1.0,2300.862372049538,0.1924681024477951,1.333731990095782,0.8913673309402627,0.28827395,0.6448436185800666
0.0195,1.79049375,1.0,2331.525974154052,0.19699771881142125,1.3332120816787507,0.8956438727390442,0.2882537375,0.6459493259671989
0.02,1.79,1.0,2360.4666183974955,0.20150192698150926,1.3327053490446934,0.899656520686912,0.288233,0.6470253530518135
0.0205,1.78949375,1.0,2387.758779743566,0.20598086939882496,1.332210723197638,0.90342624590016,0.2882117375,0.6480740924505817
0.021,1.788975,1.0,2413.480907896691,0.21043468837968834,1.3317271421962404,0.9069720095262369,0.28818995000000003,0.649097905390036
0.021500000000000002,1.78844375,1.0,2437.7013114313454,0.21486352408854403,1.3312536828231503,0.9103110097644656,0.2881676375,0.6500988444390936
0.022,1.7879,1.0,2460.505998307058,0.2192675197332296,1.330789287186065,0.9134588184946082,0.2881448,0.6510792330450736
0.0225,1.78734375,1.0,2481.9504746340035,0.22364681284476412,1.3303332221086326,0.916429642650183,0.28812143749999997,0.6520406963371455
0.023,1.786775,1.0,2502.0929243392425,0.2280015409541666,1.3298847544145007,0.9192364060609025,0.28809755,0.6529848495053716
0.0235,1.78619375,1.0,2520.993987941309,0.2323318415924561,1.3294431509273168,0.9218908830854599,0.28807313749999996,0.6539132981730904
0.024,1.7856,1.0,2538.7165532436675,0.23663785229065162,1.3290076784707292,0.9244038167317808,0.2880482,0.6548276387350169
0.0245,1.78499375,1.0,2555.3161262600584,0.2409197082580006,1.3285776924725234,0.9267850377299899,0.2880227375,0.6557292729892596
0.025,1.784375,1.0,2570.856960298154,0.24517754820912663,1.328152482823008,0.9290435316673281,0.28799675,0.6566197321973707
0.025500000000000002,1.78374375,1.0,2585.3902784990896,0.2494115069085605,1.3277314767455628,0.9311875530032278,0.2879702375,0.6575002523921322
0.026000000000000002,1.7831000000000001,1.0,2598.9594995739803,0.25362171656656174,1.327314186843958,0.9332246877405089,0.2879432,0.6583718848554801
0.0265,1.78244375,1.0,2611.6091929667487,0.25780830939338983,1.3269001257219628,0.9351619048061642,0.2879156375,0.6592356753921076
0.027,1.781775,1.0,2623.3849803263483,0.2619714175993043,1.3264888059833473,0.937005614524662,0.28788755,0.6600926644373987
0.0275,1.7810937500000001,1.0,2634.3334422454977,0.26611117339456475,1.3260797402318807,0.9387617208383877,0.2878589375,0.6609438871502207
0.028,1.7804,1.0,2644.498307323088,0.2702277077102701,1.3256724754510287,0.9404356725598659,0.2878298,0.6617903020841808
0.0285,1.77969375,1.0,2653.9182491080346,0.2743211503764192,1.3252666122437982,0.9420325075154987,0.2878001375,0.662632751783937
0.029,1.778975,1.0,2662.6455179753616,0.2783916359748615,1.3248616322560534,0.9435568672337775,0.28776995,0.6634723210712141
0.029500000000000002,1.7782437500000001,1.0,2670.7101137586765,0.2824392908698082,1.3244572277401003,0.945013072836757,0.2877392375,0.6643096535944155
0.03,1.7775,1.0,2678.142504788273,0.2864642414254704,1.3240530909482462,0.9464051271808593,0.287708,0.6651453898178816
0.0305,1.77674375,1.0,2684.9735864963623,0.2904666140060594,1.3236489141327967,0.9477367423374814,0.2876762375,0.6659801670301708
0.031,1.775975,1.0,2691.2346421220095,0.2944465349757864,1.323244389546059,0.9490113643762869,0.28764395,0.6668146193462872
0.0315,1.7751937500000001,1.0,2696.9573055157734,0.2984041306988625,1.3228392094403394,0.9502321957451714,0.2876111375,0.6676493777038798
0.032,1.7744,1.0,2702.17352604434,0.30233952753949894,1.322433066067944,0.9514022155059553,0.2875778,0.6684850698533957
0.0325,1.77359375,1.0,2706.9091297972245,0.30625284781768775,1.3220257101498893,0.9525242034522251,0.2875439375,0.6693222002629446
0.033,1.772775,1.0,2711.1968016565743,0.31014422034082284,1.3216168319629817,0.9536007452572423,0.28750955,0.6701613947643341
0.0335,1.7719437500000002,1.0,2715.060033621455,0.3140137677849679,1.321206207628996,0.9546342612998833,0.2874746375,0.6710031000656832
0.034,1.7711000000000001,1.0,2718.5193300566266,0.31786161062986196,1.320793642075125,0.9556270142789379,0.2874392,0.6718477015439306
0.0345,1.7702437500000001,1.0,2721.5953443931267,0.32168786935524396,1.3203789402285613,0.9565811188921899,0.2874032375,0.6726955824554336
0.035,1.7693750000000001,1.0,2724.308863530329,0.325492664440853,1.3199619070164974,0.9574985532474004,0.28736675,0.6735471239106068
0.035500000000000004,1.76849375,1.0,2726.680793081763,0.32927611636642806,1.3195423473661263,0.9583811692669515,0.2873297375,0.6744027048461285
0.036000000000000004,1.7676,1.0,2728.7321434644405,0.3330383456117082,1.3191200662046407,0.959230702185377,0.2872922,0.6752627019947248
0.0365,1.76669375,1.0,2730.4804377941127,0.33677946878751863,1.3186949009854865,0.9600487816548323,0.2872541375,0.6761274237431473
0.037,1.765775,1.0,2731.9423249073748,0.3404996024372081,1.3182666977928827,0.9608369379609231,0.28721555,0.6769971590434115
0.0375,1.76484375,1.0,2733.1459080779014,0.34419887742719424,1.3178351992559467,0.9615966013316624,0.2871764375,0.6778724047000404
0.038,1.7639,1.0,2734.103147722895,0.34787740733687467,1.3174002951983719,0.9623291266160113,0.28713679999999997,0.6787533565305689
0.0385,1.76294375,1.0,2734.8260472400057,0.3515353057456471,1.3169618754438503,0.9630357882328867,0.28709663750000003,0.6796402089130009
0.039,1.761975,1.0,2735.32664767011,0.3551726862329093,1.3165198298160752,0.963717785817925,0.28705595,0.6805331547614886
0.0395,1.7609937500000001,1.0,2735.6170226309955,0.358789662378059,1.3160740481387394,0.9643762494151491,0.2870147375,0.6814323855012432
0.04,1.76,1.0,2735.7092735186393,0.36238634776049383,1.3156244202355354,0.9650122442546978,0.286973,0.6823380910426727
0.0405,1.7589937500000001,1.0,2735.615524978538,0.36596285595961153,1.315170835930156,0.9656267751536749,0.2869307375,0.6832504597547409
0.041,1.757975,1.0,2735.3479206457228,0.3695193005548098,1.314713185046294,0.9662207905735053,0.28688795,0.6841696784375544
0.0415,1.75694375,1.0,2734.91861915403,0.37305579512548637,1.3142513574076424,0.9667951863639216,0.2868446375,0.6850959322941779
0.042,1.7559,1.0,2734.3397904147796,0.37657245325103894,1.313785242837894,0.9673508092207906,0.28680079999999997,0.6860294049016706
0.0425,1.75484375,1.0,2733.620531116876,0.3800693825754232,1.313314759145176,0.9678884612275165,0.2867564375,0.6869702222633942
0.043000000000000003,1.753775,1.0,2732.7705473845067,0.3835466960887552,1.3128398186608812,0.9684089018237027,0.28671155,0.6879185199624585
0.043500000000000004,1.75269375,1.0,2731.801867079492,0.3870045118911788,1.3123603126567338,0.9689128491903615,0.28666613750000003,0.6888744740975368
0.044,1.7516,1.0,2730.7209267776893,0.3904429362423372,1.311876183214051,0.9694009859325292,0.2866202,0.6898381579841698
0.0445,1.75049375,1.0,2729.534165223528,0.3938620754018738,1.31138737241415,0.9698739591538434,0.2865737375,0.6908096438170008
0.045,1.7493750000000001,1.0,2728.2480220544344,0.3972620356294316,1.310893822338348,0.9703323826477099,0.28652675,0.6917890026525885
0.0455,1.74824375,1.0,2726.868936600785,0.4006429231846538,1.310395475067962,0.9707768389325894,0.2864792375,0.6927763043920094
0.046,1.7471,1.0,2725.403346759773,0.4040048443271836,1.3098922726843094,0.9712078811438972,0.2864312,0.693771617763245
0.0465,1.7459437500000001,1.0,2723.857687943615,0.40734790531666426,1.309384157268707,0.9716260347938991,0.28638263750000004,0.6947750103033544
0.047,1.744775,1.0,2722.2383921020128,0.41067221241273894,1.3088710709024722,0.9720317994099892,0.28633355,0.6957865483404335
0.0475,1.74359375,1.0,2720.551886819669,0.4139778718750508,1.308352955666922,0.9724256500608291,0.28628393750000003,0.6968062969753611
0.048,1.7424,1.0,2718.8045944870696,0.4172649899632431,1.3078297536433738,0.9728080387789989,0.2862338,0.6978343200633284
0.0485,1.74119375,1.0,2716.994431603811,0.4205336541668303,1.3073014843519577,0.973179398961659,0.2861831375,0.6988705284282
0.049,1.739975,1.0,2715.1305397829433,0.42378398323067495,1.306768065056827,0.9735401402048192,0.28613195,0.6999150327209515
0.0495,1.73874375,1.0,2713.2235288393085,0.42701609443567096,1.306229399539814,0.9738906516662825,0.2860802375,0.7009679682955516
0.05,1.7375,1.0,2711.2761330080284,0.4302300857759836,1.3056854632850374,0.97423130686733,0.286028,0.7020293288782271
0.0505,1.73624375,1.0,2709.291083637832,0.4334260552457782,1.3051362317766155,0.9745624620803458,0.2859752375,0.7030991073251518
0.051000000000000004,1.734975,1.0,2707.2711089944896,0.4366041008392201,1.3045816804986667,0.974884457276173,0.28592195,0.7041772956141841
0.051500000000000004,1.73369375,1.0,2705.2189340769587,0.4397643205504746,1.304021784935309,0.975197617011327,0.2858681375,0.7052638848365711
0.052000000000000005,1.7324,1.0,2703.137280447241,0.44290681237370694,1.3034565205706612,0.97550225125938,0.2858138,0.7063588651886092
0.0525,1.73109375,1.0,2701.0288660737015,0.44603167430308244,1.3028858628888411,0.9757986561904871,0.28575893750000003,0.7074622259632721
0.053,1.729775,1.0,2698.896405187284,0.44913900433276654,1.3023097873739673,0.9760871149027098,0.28570355000000003,0.7085739555417943
0.0535,1.72844375,1.0,2696.742608151448,0.45222890045692443,1.3017282695101582,0.9763678981085059,0.2856476375,0.7096940413852211
0.054,1.7271,1.0,2694.5701813452,0.45530146066972144,1.3011412847815318,0.976641264779496,0.2855912,0.7108224700259196
0.0545,1.7257437500000001,1.0,2692.3818270595507,0.4583567829653229,1.3005488086722068,0.9769074627523701,0.2855342375,0.7119592270590474
0.055,1.724375,1.0,2690.1802434070337,0.4613949653378941,1.2999508166663014,0.9771667292985884,0.28547675,0.7131042971339887
0.0555,1.72299375,1.0,2687.9681242453034,0.4644161057816003,1.2993472842479337,0.9774192916603208,0.2854187375,0.7142576639457487
0.056,1.7216,1.0,2685.7481591128844,0.46742030229060694,1.2987381869012222,0.9776653675548899,0.2853602,0.7154193102263088
0.0565,1.72019375,1.0,2683.51129727382,0.47040765096017323,1.2981236076953024,0.977905171717076,0.28530113749999997,0.7165890131847494
0.057,1.718775,1.0,2681.2750767446037,0.4733782446045366,1.2975033859929903,0.9781388957507229,0.28524155,0.7177670131463834
0.0575,1.7173474625576512,1.0,2679.2152901413906,0.4763321772842896,1.2968775855964119,0.9783667362991696,0.28518159342742133,0.7189531223547359
0.058,1.7159195965568874,1.0,2677.7084783592322,0.4792695410815776,1.2962465691124856,0.978588898705123,0.28512162305538924,0.7201465889320194
0.0585,1.7144917305561238,1.0,2676.7308360673337,0.48219042807854573,1.2956106991481304,0.9788055801116861,0.2850616526833572,0.7213466662919437
0.059000000000000004,1.71306386455536,1.0,2676.242572150217,0.48509493035733925,1.2949703383102644,0.9790169698653983,0.2850016823113251,0.7225526132561485
0.059500000000000004,1.7116359985545961,1.0,2676.204051564007,0.4879831400001035,1.2943258492058065,0.9792232498965169,0.284941711939293,0.7237636941622476
0.06,1.7102081325538323,1.0,2676.5757606893694,0.4908551490889836,1.2936775944416752,0.9794245950779723,0.284881741567261,0.7249791789634916
0.0605,1.7087802665530685,1.0,2677.327338458149,0.49371104737410326,1.2930258534479868,0.9796211689035004,0.2848217711952289,0.726198498759818
0.061,1.7073524005523046,1.0,2678.418247715518,0.4965509282201341,1.2923709996555641,0.9798131339347889,0.2847618008231968,0.7274209137768053
0.0615,1.7059245345515408,1.0,2679.8235099721614,0.49937488067493024,1.2917132641050633,0.9800006387445348,0.2847018304511647,0.728645955182301
0.062,1.704496668550777,1.0,2681.5211288049,0.50218299295426,1.291052850782313,0.980183824861448,0.2846418600791326,0.7298732080723491
0.0625,1.7030688025500131,1.0,2683.4891298306966,0.5049753532738918,1.2903899636731413,0.980362828559639,0.2845818897071005,0.7311022608351776
0.063,1.7016409365492493,1.0,2685.705549057118,0.5077520498495937,1.289724806763377,0.9805377810984965,0.2845219193350685,0.7323327051847061
0.0635,1.7002130705484855,1.0,2688.148422155419,0.510513170897134,1.289057584038849,0.9807088089499489,0.2844619489630364,0.7335641361914024
0.064,1.6987852045477216,1.0,2690.7969331849276,0.5132588040846048,1.2883884888793364,0.9808760334364389,0.2844019785910043,0.7347961718172604
0.0645,1.6973573385469578,1.0,2693.634118205163,0.5159890360476214,1.287717679267302,0.9810395696779297,0.2843420082189722,0.7360284982048404
0.065,1.695929472546194,1.0,2696.63980353385,0.51870395553559,1.287045342395334,0.9811995303051715,0.28428203784694017,0.7372607506669178
0.0655,1.6945016065454301,1.0,2699.8022384818228,0.5214036470602449,1.2863715882111275,0.9813560198594489,0.2842220674749081,0.7384927087545805
0.066,1.6930737405446663,1.0,2703.1096582480372,0.52408819513332,1.2856965266623768,0.9815091392179294,0.284162097102876,0.7397241538681564
0.0665,1.6916458745439025,1.0,2706.550280598428,0.5267576842665492,1.2850202676967766,0.9816589857510697,0.2841021267308439,0.740954869266766
0.067,1.6902180085431386,1.0,2710.112302812981,0.5294121989716669,1.2843429212620217,0.981805653472217,0.2840421563588118,0.7421846400771038
0.0675,1.6887901425423748,1.0,2713.783898900826,0.5320518237604068,1.2836645973058065,0.9819492331798367,0.2839821859867797,0.7434132533014497
0.068,1.6873622765416112,1.0,2717.55891382543,0.5346766375434117,1.282985353880925,0.9820898097507964,0.2839222156147477,0.7446405914824222
0.0685,1.6859344105408471,1.0,2721.4225364927197,0.5372867293862763,1.2823053277292649,0.9822274695829453,0.2838622452427156,0.745866396478547
0.069,1.6845065445400835,1.0,2725.3631079714733,0.5398821857275157,1.2816246265726394,0.9823622946603847,0.2838022748706835,0.7470904646295325
0.0695,1.6830786785393197,1.0,2729.3754725745516,0.5424630864011806,1.280943298738768,0.9824943610607296,0.28374230449865145,0.7483127005541432
0.07,1.6816508125385559,1.0,2733.4544617288466,0.5450295112413218,1.2802613925553705,0.98262374235256,0.28368233412661936,0.7495330097032031
0.07050000000000001,1.680222946537792,1.0,2737.5948933299824,0.5475815400819903,1.2795789563501656,0.9827505096964546,0.28362236375458727,0.7507512983614547
0.07100000000000001,1.6787950805370282,1.0,2741.7915711482124,0.5501192527572369,1.2788960384508734,0.9828747319413151,0.2835623933825552,0.7519674736492632
0.07150000000000001,1.6773672145362644,1.0,2746.039284286655,0.5526427291011125,1.2782126871852126,0.9829964757162291,0.2835024230105231,0.7531814435241806
0.07200000000000001,1.6759393485355005,1.0,2750.3328066908543,0.5551520489476676,1.2775289508809031,0.9831158055181073,0.283442452638491,0.754393116782351
0.0725,1.6745114825347367,1.0,2754.6668967103833,0.5576472921309532,1.2768448778656643,0.9832327837953164,0.28338248226645896,0.755602403059775
0.073,1.6730836165339729,1.0,2759.0362967120404,0.5601285384850203,1.2761605164672154,0.9833474710275145,0.28332251189442687,0.7568092128334211
0.0735,1.671655750533209,1.0,2763.4357327453454,0.5625958678439196,1.2754759150132757,0.9834599258018858,0.2832625415223948,0.7580134574221891
