Time [s],Phi [rad],STIM [ ],Fsee [N],Gamma [ ],Lcerel [ ],q [ ],Lmtc [m],fisomrel [ ]
0.0,1.8,1.0,17.97070335252509,5.73074592018148e-05,1.3793393490600363,0.005000863305283753,0.288653,0.5411404918836351
0.0005,1.79999375,1.0,18.295743197717982,0.0056661953184850445,1.3793002779128591,0.01307236938145567,0.2886527375,0.5412350101250887
0.001,1.799975,1.0,21.67252078416673,0.01124362175156818,1.3789327760461756,0.035855511890921656,0.28865195,0.5421235689985298
0.0015,1.79994375,1.0,31.19833660658438,0.016789763233079097,1.3780352162031266,0.07093945627328754,0.2886506375,0.5442900998413753
0.002,1.7999,1.0,53.861019837672934,0.022304795245921993,1.3763500789171943,0.1151176767852827,0.2886488,0.5483438077137169
0.0025,1.79984375,1.0,97.58756716815783,0.02778889228916506,1.3739126122973504,0.16500957179230358,0.28864643749999996,0.5541752498883015
0.003,1.7997750000000001,1.0,161.56823370769914,0.033242227885321045,1.3711915299689665,0.21772883826064762,0.28864354999999997,0.5606404594365364
0.0035,1.79969375,1.0,238.3727872218902,0.03866497458028693,1.368563512552881,0.27105882447343543,0.2886401375,0.5668397232611044
0.004,1.7996,1.0,322.20037272984,0.04405730395403116,1.3661366731699036,0.32334756824400446,0.2886362,0.572525307908403
0.0045000000000000005,1.7994937500000001,1.0,410.0274758283051,0.049419386625805924,1.3639049887925898,0.3734443531357866,0.2886317375,0.5777205329459985
0.005,1.799375,1.0,500.1887351460598,0.05475139224547212,1.36184187514086,0.4206308925420067,0.28862675,0.5824950809775071
0.0055,1.79924375,1.0,591.5725378331356,0.060053489538414606,1.359923559350324,0.46452869091349197,0.2886212375,0.5869101767365873
0.006,1.7991000000000001,1.0,683.3012296714817,0.06532584625487697,1.3581321837668323,0.5050061935313926,0.2886152,0.5910119226734689
0.006500000000000001,1.79894375,1.0,774.6624876409887,0.0705686292233498,1.3564539208763442,0.5420990140204304,0.2886086375,0.5948361042470693
0.007,1.798775,1.0,865.0581038297487,0.07578200431592923,1.3548779227813375,0.5759485779481059,0.28860155,0.5984109053648058
0.0075,1.79859375,1.0,954.0021799307098,0.08096613644903326,1.3533951078551691,0.6067571193106458,0.2885939375,0.6017598780103105
0.008,1.7984,1.0,1041.1063763122675,0.0861211898745217,1.3519976366824966,0.634756631483091,0.2885858,0.6049032645725037
0.0085,1.79819375,1.0,1126.0431147135143,0.0912473273381946,1.3506789248059383,0.6601884532279153,0.2885771375,0.6078580730132368
0.009000000000000001,1.797975,1.0,1208.5811269533835,0.09634471104314728,1.349432732038804,0.6832898106967928,0.28856795,0.6106401970022239
0.0095,1.79774375,1.0,1288.5607890588797,0.10141350301438744,1.3482532778058205,0.7042862385636465,0.2885582375,0.6132642043925447
0.01,1.7975,1.0,1365.827962837976,0.10645386286417041,1.3471358917811158,0.7233877929248217,0.288548,0.6157419408078108
0.0105,1.79724375,1.0,1440.2953184242845,0.11146595000624801,1.3460759895002479,0.7407866853449468,0.2885372375,0.6180848516945929
0.011,1.796975,1.0,1511.9220206931059,0.11644992314879395,1.3450692274740126,0.7566570611870661,0.28852595000000003,0.6203036615130363
0.0115,1.79669375,1.0,1580.703962562747,0.1214059408240728,1.3441115194632032,0.7711555847774685,0.2885141375,0.6224083615201708
0.012,1.7964,1.0,1646.6264478944406,0.12633415899048325,1.343199500371783,0.784422708693678,0.28850180000000003,0.6244072160221894
0.0125,1.79609375,1.0,1709.7111012167927,0.13123473337746058,1.342329865481781,0.7965836783863827,0.2884889375,0.6263082372424289
0.013000000000000001,1.7957750000000001,1.0,1770.0014044086151,0.1361078190368228,1.341499486706597,0.807750001849231,0.28847555,0.6281189431732487
0.0135,1.79544375,1.0,1827.5694208850234,0.1409535713785821,1.3407052861231537,0.8180208037044138,0.2884616375,0.6298466454328444
0.014,1.7951000000000001,1.0,1882.4660325996895,0.14577214312460585,1.3399447440497176,0.827484349842105,0.2884472,0.6314973564826912
0.0145,1.79474375,1.0,1934.7470335390703,0.1505636860151171,1.339215549629231,0.8362191312080977,0.2884322375,0.633076565337177
0.015,1.794375,1.0,1984.489357831222,0.1553283517903389,1.3385153920046367,0.8442949156000102,0.28841675,0.6345896982651378
0.0155,1.79399375,1.0,2031.7719827583692,0.1600662911995535,1.3378421421679991,0.8517738277779451,0.2884007375,0.6360417314264588
0.016,1.7936,1.0,2076.6979579795775,0.16477765558399002,1.3371935956065768,0.8587111687980621,0.2883842,0.6374377521744526
0.0165,1.7931937500000001,1.0,2119.3390902470974,0.1694625931136312,1.3365680313882373,0.8651563919611484,0.2883671375,0.638781760993133
0.017,1.792775,1.0,2159.7694443649684,0.17412125132117345,1.335963832455648,0.8711536784032835,0.28834955,0.6400774977095449
0.0175,1.7923437500000001,1.0,2198.074090041122,0.17875377773931322,1.3353793817514765,0.8767425298006972,0.2883314375,0.641328668035706
0.018000000000000002,1.7919,1.0,2234.337775479675,0.18336031884008516,1.3348131665708385,0.8819583459147473,0.2883128,0.6425387228660968
0.0185,1.79144375,1.0,2268.6555458953108,0.1879410220388882,1.3342636599421802,0.8868328730137844,0.2882936375,0.6437111149300335
0.019,1.790975,1.0,2301.101826861568,0.19249603160779416,1.3337296195173591,0.8913946987674992,0.28827395,0.6448486640841795
0.0195,1.79049375,1.0,2331.7479169890207,0.19702549070390743,1.3332098989586734,0.8956695666582599,0.2882537375,0.6459539644003529
0.02,1.79,1.0,2360.670944711989,0.20152954248433244,1.332703351928422,0.8996806760440703,0.288233,0.6470295906109459
0.0205,1.78949375,1.0,2387.9514439110085,0.20600832979400058,1.3322088508592458,0.903448971872463,0.2882117375,0.6480780593455976
0.021,1.788975,1.0,2413.6614394936464,0.21046199397973653,1.3317253971355048,0.9069934181398114,0.28818995000000003,0.6491015972426393
0.021500000000000002,1.78844375,1.0,2437.887486647009,0.21489067880611484,1.3312518921731535,0.9103311676986631,0.2881676375,0.6501026273332444
0.022,1.7879,1.0,2460.686869557916,0.21929452258096363,1.3307875556293332,0.9134778403064288,0.2881448,0.6510828859718458
0.0225,1.78734375,1.0,2482.1198986545387,0.22367366361211102,1.330331607161184,0.9164476235942444,0.28812143749999997,0.6520440985660372
0.023,1.786775,1.0,2502.2496610614226,0.2280282402073851,1.3298832664258469,0.9192534241926364,0.28809755,0.6529879800134367
0.0235,1.78619375,1.0,2521.1417845556175,0.23235839067461397,1.3294417530804625,0.9219070011260969,0.28807313749999996,0.6539162350997181
0.024,1.7856,1.0,2538.8550635357124,0.23666425114567516,1.3290063730323032,0.924419098291898,0.2880482,0.6548303778830644
0.0245,1.78499375,1.0,2555.4549215030297,0.24094596082620023,1.3285763886041706,0.9267995266241096,0.2880227375,0.6557320052673503
0.025,1.784375,1.0,2570.9949122331,0.2452036553328009,1.3281511907995713,0.929057283807219,0.28799675,0.6566224361505846
0.025500000000000002,1.78374375,1.0,2585.52052337048,0.2494374676433587,1.327730260336957,0.9312006277740296,0.2879702375,0.657502794832495
0.026000000000000002,1.7831000000000001,1.0,2599.078545168793,0.25364753073575524,1.3273130779347788,0.9332371348647819,0.2879432,0.6583741996583591
0.0265,1.78244375,1.0,2611.7169593544704,0.2578339775878721,1.326899124311489,0.9351737652871446,0.2879156375,0.6592377631517274
0.027,1.781775,1.0,2623.4848339699806,0.26199694117759076,1.3264878801855386,0.9370169214911508,0.28788755,0.6600945921299534
0.0275,1.7810937500000001,1.0,2634.4261457666103,0.26613655277941317,1.326078882514097,0.9387725080879954,0.2878589375,0.6609456708493551
0.028,1.7804,1.0,2644.5827574387627,0.27025294405608413,1.325671695598449,0.94044597414228,0.2878298,0.6617919218304564
0.0285,1.77969375,1.0,2654.008418582332,0.27434624927330314,1.325265781055431,0.9420423366304427,0.2878001375,0.6626344760025527
0.029,1.778975,1.0,2662.734647809634,0.27841659558639675,1.3248608119986351,0.9435662600397255,0.28776995,0.6634740204961335
0.029500000000000002,1.7782437500000001,1.0,2670.7934954411144,0.28246411015069167,1.3244564615416543,0.9450220605481854,0.2877392375,0.6643112390429496
0.03,1.7775,1.0,2678.2174969238295,0.28648892012151456,1.3240524027980816,0.94641373649238,0.287708,0.6651468119923147
0.0305,1.77674375,1.0,2685.0396286189994,0.290491152654192,1.3236483088815094,0.9477449958080773,0.2876762375,0.6659814163205966
0.031,1.775975,1.0,2691.2932659586854,0.2944709349040507,1.3232438529055306,0.9490192807776122,0.28764395,0.6668157256338894
0.0315,1.7751937500000001,1.0,2697.012143971737,0.29842839402641724,1.322838707983738,0.9502397903774539,0.2876111375,0.6676504101638735
0.032,1.7744,1.0,2702.223798957611,0.3023636525128279,1.322432606803532,0.9514095063404133,0.2875778,0.6684860142534406
0.0325,1.77359375,1.0,2706.9631660558935,0.3062768408732685,1.3220252169378786,0.9525311997358592,0.2875439375,0.6693232131891335
0.033,1.772775,1.0,2711.253069945566,0.3101680814147778,1.3216163187846477,0.9536074642174943,0.28750955,0.6701624473578185
0.0335,1.7719437500000002,1.0,2715.1151731640475,0.31403749541759696,1.3212057051029067,0.9546407205574807,0.2874746375,0.6710041294940834
0.034,1.7711000000000001,1.0,2718.5713093812105,0.3178852041619673,1.3207931686517234,0.9556332291815175,0.2874392,0.6718486701096524
0.0345,1.7702437500000001,1.0,2721.6434658202393,0.32171132892813004,1.320378502190165,0.9565871026821486,0.2874032375,0.6726964774693445
0.035,1.7693750000000001,1.0,2724.3537666293787,0.3255159909963264,1.3199614984772994,0.9575043172157052,0.28736675,0.6735479575642894
0.035500000000000004,1.76849375,1.0,2726.7244572067507,0.32929931164679765,1.3195419502721937,0.9583867228941507,0.2873297375,0.6744035140824073
0.036000000000000004,1.7676,1.0,2728.769919519639,0.3330614047243752,1.3191197227874543,0.9592360590337553,0.2872922,0.6752634009185534
0.0365,1.76669375,1.0,2730.514680190556,0.33680239507751913,1.3186945897919038,0.9600539499086768,0.2872541375,0.6761280562416141
0.037,1.765775,1.0,2731.9845816253537,0.34052240954095553,1.3182663138684967,0.9608419192176897,0.28721555,0.6769979383181108
0.0375,1.76484375,1.0,2733.1922514121707,0.3442215623590229,1.3178347782953896,0.96160140717192,0.2871764375,0.677873257990818
0.038,1.7639,1.0,2734.150367611901,0.34789996777605986,1.3173998663507391,0.9623337674833584,0.28713679999999997,0.6787542246190463
0.0385,1.76294375,1.0,2734.871652735961,0.3515577400364051,1.316961461312702,0.9630402735066378,0.28709663750000003,0.6796410460539428
0.039,1.761975,1.0,2735.3688680256605,0.35519499338439714,1.316519446459435,0.9637221238804053,0.28705595,0.6805339286129237
0.0395,1.7609937500000001,1.0,2735.654808034422,0.35881184206437466,1.3160737050690947,0.9643804477140221,0.2870147375,0.6814330770532364
0.04,1.76,1.0,2735.7422955108877,0.3624084003206763,1.315624120419838,0.9650163093607184,0.286973,0.6823386945446543
0.0405,1.7589937500000001,1.0,2735.644176585403,0.36598478239764065,1.3151705757898215,0.9656307128142179,0.2869307375,0.6832509826413021
0.041,1.757975,1.0,2735.373316257311,0.36954110253960626,1.314712954457202,0.9662246057621984,0.28688795,0.6841701412526118
0.0415,1.75694375,1.0,2734.942594185241,0.3730774749909119,1.314251139700136,0.9667988833266806,0.2868446375,0.6850963686134108
0.042,1.7559,1.0,2734.3616614961766,0.37659400864399023,1.3137850442144423,0.9673543930932313,0.28680079999999997,0.6860298023831011
0.0425,1.75484375,1.0,2733.6400228513603,0.3800908148453593,1.3133145821065717,0.9678919371807497,0.2867564375,0.686970576018445
0.043000000000000003,1.753775,1.0,2732.7924865331834,0.3835680147358708,1.3128396193620766,0.9684122722779,0.28671155,0.6879189175937215
0.043500000000000004,1.75269375,1.0,2731.8255552320425,0.38702571502905886,1.3123600974315788,0.968916118638912,0.28666613750000003,0.6888749028460925
0.044,1.7516,1.0,2730.7457352106176,0.39046402243845757,1.3118759577656993,0.9694041586660964,0.2866202,0.6898386064021931
0.0445,1.75049375,1.0,2729.559534932634,0.393883043677601,1.3113871418150598,0.9698770392700686,0.2865737375,0.6908101017609944
0.045,1.7493750000000001,1.0,2728.273463766737,0.3972828854600234,1.3108935910302815,0.9703353740603954,0.28652675,0.6917894612764544
0.0455,1.74824375,1.0,2726.8940307668363,0.4006636544992586,1.3103952468619857,0.9707797453803892,0.2864792375,0.6927767561399456
0.046,1.7471,1.0,2725.427743528517,0.40402545750884095,1.309892050760794,0.9712107061985432,0.2864312,0.6937720563624663
0.0465,1.7459437500000001,1.0,2723.8811071213286,0.40736840120230444,1.3093839441773278,0.9716287818679896,0.28638263750000004,0.694775430756633
0.047,1.744775,1.0,2722.260623096806,0.41069259229318317,1.3088708685622086,0.9720344717643645,0.28633355,0.695786946918453
0.0475,1.74359375,1.0,2720.5727885732963,0.41399813749501124,1.3083527653660574,0.9724282508115539,0.28628393750000003,0.6968066712088813
0.048,1.7424,1.0,2718.8220945536186,0.4172851369811435,1.3078295942620677,0.9728105713640788,0.2862338,0.6978346329606211
0.0485,1.74119375,1.0,2717.0108924146634,0.4205536849975866,1.3073013343856945,0.9731818646992499,0.2861831375,0.698870822336644
0.049,1.739975,1.0,2715.152273480319,0.4238039131669234,1.3067678669840608,0.9735425394165348,0.28613195,0.6999154202361275
0.0495,1.73874375,1.0,2713.249138077857,0.42703592005853164,1.306229166064896,0.9738929871468899,0.2860802375,0.7009684242704031
0.05,1.7375,1.0,2711.3043837117316,0.4302498042417892,1.3056852056359303,0.9742335812658095,0.286028,0.702029831171298
0.0505,1.73624375,1.0,2709.3209048337776,0.43344566428607395,1.3051359597048935,0.9745646779052757,0.2859752375,0.7030996367824414
0.051000000000000004,1.734975,1.0,2707.301592628616,0.4366235987607637,1.3045814022795152,0.974886616900883,0.28592195,0.7041778360505233
0.051500000000000004,1.73369375,1.0,2705.2493348136495,0.4397837062352361,1.3040215073675259,0.9751997226788285,0.2858681375,0.7052644230165097
0.052000000000000005,1.7324,1.0,2703.1670154544895,0.4429260852788692,1.3034562489766548,0.975504305087081,0.2858138,0.7063593908068192
0.0525,1.73109375,1.0,2701.057514794976,0.44605083446104066,1.302885601114632,0.9758006601746981,0.28575893750000003,0.7074627316244518
0.053,1.729775,1.0,2698.923709102436,0.4491580523511284,1.3023095377891876,0.9760890709229512,0.28570355000000003,0.7085744367400759
0.0535,1.72844375,1.0,2696.7684705277184,0.45224783751851017,1.3017280330080512,0.9763698079316221,0.2856476375,0.7096944964830751
0.054,1.7271,1.0,2694.5946669805458,0.45532028853256384,1.3011410607789526,0.9766431300635836,0.2855912,0.7108229002325483
0.0545,1.7257437500000001,1.0,2692.4051620193786,0.4583755039626672,1.3005485951096218,0.9769092850505294,0.2855342375,0.7119596364082672
0.055,1.724375,1.0,2690.2028147563624,0.4614135823781981,1.2999506100077889,0.9771685100625032,0.28547675,0.7131046924615922
0.0555,1.72299375,1.0,2687.990479777838,0.4644346223485343,1.2993470794811834,0.9774210322436742,0.2854187375,0.7142580548663459
0.056,1.7216,1.0,2685.762083645872,0.46743871963797917,1.298738059305883,0.9776670737470294,0.2853602,0.7154195533231975
0.0565,1.72019559045452,1.0,2683.6208271266746,0.4704259676065444,1.2981234347989006,0.9779068373953597,0.2853012147990899,0.7165893419123268
0.057,1.718789873622143,1.0,2681.9939625604097,0.4733964599085032,1.2975035106527184,0.978140541765663,0.28524217469213,0.7177667766240685
0.0575,1.7173841567897659,1.0,2680.904443316058,0.47635028978195826,1.2968786624495219,0.9783684005344109,0.2851831345851702,0.7189510834891035
0.058,1.715978439957389,1.0,2680.3109961097102,0.4792875504650122,1.2962492657714964,0.9785906187722575,0.2851240944782103,0.7201414940365094
0.0585,1.7145727231250119,1.0,2680.1725112861,0.4822083351957678,1.295615696200827,0.9788073933703736,0.2850650543712505,0.7213372454072079
0.059000000000000004,1.7131670062926347,1.0,2680.4521570723036,0.48511273624452717,1.2949782912489896,0.9790189112570038,0.2850060142642907,0.7225376520785277
0.059500000000000004,1.7117612894602576,1.0,2681.111150781583,0.4880008468362633,1.294337407201734,0.9792253531520972,0.28494697415733083,0.7237419984750021
0.06,1.7103555726278805,1.0,2682.1203270891447,0.4908727579367739,1.2936933127739034,0.9794268878350386,0.284887934050371,0.7249497386220987
0.0605,1.7089498557955034,1.0,2683.454065730766,0.4937285596354319,1.293046244644586,0.9796236758046202,0.28482889394341115,0.7261603906240607
0.061,1.7075441389631265,1.0,2685.086782838178,0.4965683420216105,1.2923964394928695,0.9798158714438817,0.2847698538364513,0.7273734763134334
0.0615,1.7061384221307494,1.0,2686.992915955364,0.4993921951846827,1.2917441339978422,0.9800036233063383,0.2847108137294915,0.7285885212941617
0.062,1.7047327052983723,1.0,2689.14916933236,0.5022002084213252,1.2910895441513288,0.9801870732421182,0.28465177362253163,0.7298050933857513
0.0625,1.7033269884659952,1.0,2691.5321608892514,0.5049924716800879,1.2904328867277643,0.9803663579291653,0.2845927335155718,0.7310227624584745
0.063,1.701921271633618,1.0,2694.123384438266,0.5077690731673153,1.2897743337870444,0.9805416065858926,0.28453369340861195,0.7322411845608245
0.0635,1.7005155548012412,1.0,2696.907285655337,0.5105300999299862,1.289114030297565,0.9807129422460372,0.2844746533016521,0.7334600685111565
0.064,1.699109837968864,1.0,2699.86829903347,0.5132756390150793,1.2884521212277218,0.9808804834890504,0.2844156131946923,0.7346791255077414
0.0645,1.697704121136487,1.0,2702.9908424889263,0.5160057774695733,1.2877887515459112,0.9810443446377941,0.28435657308773243,0.7358980691442787
0.065,1.6962984043041098,1.0,2706.264335336581,0.5187205987094798,1.2871240203686398,0.9812046334023548,0.2842975329807726,0.7371166993856789
0.0655,1.6948926874717327,1.0,2709.67157592839,0.5214201917076359,1.2864580870926567,0.9813614570576131,0.28423849287381275,0.7383347077143364
0.066,1.6934869706393556,1.0,2713.194741316985,0.5241046466949792,1.2857911164741902,0.9815149194747059,0.2841794527668529,0.739551778521798
0.0665,1.6920812538069787,1.0,2716.826331467882,0.5267740464149561,1.2851231788643285,0.9816651158106252,0.2841204126598931,0.7407677706450898
0.067,1.6906755369746016,1.0,2720.5588322288036,0.5294284736110126,1.2844543446141594,0.98181213793657,0.2840613725529333,0.7419825441011768
0.0675,1.6892698201422245,1.0,2724.384713875655,0.5320680110265951,1.2837846840747709,0.9819560745763667,0.2840023324459734,0.7431959600911432
0.068,1.6878641033098474,1.0,2728.2964297697667,0.5346927414051496,1.283114267597251,0.9820970114381437,0.2839432923390136,0.7444078810040569
0.0685,1.6864583864774703,1.0,2732.2864151227454,0.5373027474901223,1.2824431655326876,0.9822350313396351,0.2838842522320537,0.7456181704205194
0.069,1.6850526696450934,1.0,2736.347085873417,0.5398981120249594,1.281771448232169,0.9823702143274615,0.28382521212509393,0.7468266931158998
0.0695,1.6836469528127163,1.0,2740.4708376724343,0.5424789177531071,1.2810991860467826,0.9825026377907184,0.2837661720181341,0.7480333150632534
0.07,1.6822412359803391,1.0,2744.650044977834,0.5450452474180115,1.2804264493276172,0.9826323765691777,0.28370713191117425,0.7492379034359227
0.07050000000000001,1.680835519147962,1.0,2748.8809473161755,0.5475971770154018,1.2797532732186514,0.9827595010197292,0.2836480918042144,0.7504403894242685
0.07100000000000001,1.679429802315585,1.0,2753.156904515,0.5501347912247845,1.2790797188306582,0.9828840809303753,0.28358905169725457,0.7516406586014055
0.07150000000000001,1.6780240854832078,1.0,2757.469226304275,0.5526581785000942,1.2784058656341335,0.9830061848999052,0.28353001159029473,0.7528385649888674
0.07200000000000001,1.676618368650831,1.0,2761.815205140679,0.555167416013841,1.2777317387958809,0.9831258762114168,0.2834709714833349,0.7540340601575785
0.0725,1.6752126518184538,1.0,2766.19212524239,0.5576625809385349,1.277057363482703,0.9832432161345916,0.28341193137637505,0.7552270961097367
0.073,1.6738069349860767,1.0,2770.5972624432197,0.5601437504466862,1.276382764861403,0.9833582640037307,0.2833528912694152,0.7564176252792296
0.0735,1.6724012181536996,1.0,2775.0278840610913,0.5626110017108048,1.2757079680987842,0.9834710772922817,0.28329385116245537,0.7576056005320148
