Time [s],Phi [rad],STIM [ ],Fsee [N],Gamma [ ],Lcerel [ ],q [ ],Lmtc [m],fisomrel [ ]
0.0,1.8,1.0,18.042806969062294,0.0002795039767102246,1.3793312799262836,0.005020280102162114,0.288653,0.541160012976682
0.0005,1.79999375,1.0,18.439283862964217,0.005887145489278999,1.379284372755237,0.013705627195027506,0.2886527375,0.5412734840040383
0.001,1.799975,1.0,21.98098418158817,0.011463332566624632,1.3789014215978017,0.037026775466604475,0.28865195,0.5421993390024392
0.0015,1.79994375,1.0,31.865950253853054,0.01700824164425015,1.377978756066941,0.07253397727907672,0.2886506375,0.5444262116138009
0.002,1.7999,1.0,55.24176464585596,0.022522048165795464,1.3762613006687006,0.11700046194461164,0.2886488,0.5485568674078372
0.0025,1.79984375,1.0,99.86034316736803,0.028004926592067502,1.3738039847602936,0.16705431465113546,0.28864643749999996,0.5544342505654534
0.003,1.7997750000000001,1.0,164.4945822241842,0.03345705040655528,1.3710826915664285,0.2198360004845678,0.28864354999999997,0.5608980740427771
0.0035,1.79969375,1.0,241.6621938948338,0.03887859211692692,1.368462683415686,0.27315302913214595,0.2886401375,0.5670766930169384
0.004,1.7996,1.0,325.69002132609404,0.04426972326513834,1.366044599622373,0.32537419329058215,0.2886362,0.5727402777018391
0.0045000000000000005,1.7994937500000001,1.0,413.6344290502781,0.04963061443285441,1.3638205835471555,0.3753673613959768,0.2886317375,0.5779163998322935
0.005,1.799375,1.0,503.8638362786996,0.0549614352331871,1.361763982904776,0.42242948014766024,0.28862675,0.58267481081911
0.0055,1.79924375,1.0,595.2763317772611,0.06026235434855834,1.3598513568875001,0.46619355400595097,0.2886212375,0.587075895874442
0.006,1.7991000000000001,1.0,687.0052376737931,0.06553353949882137,1.3580649842987973,0.5065359806761222,0.2886152,0.5911653922803
0.006500000000000001,1.79894375,1.0,778.3376128942917,0.07077515744752341,1.3563912899142607,0.5434976687158815,0.2886086375,0.5949784708968411
0.007,1.798775,1.0,868.6878957778233,0.07598737412099021,1.3548193775386312,0.5772231079058784,0.28860155,0.5985433970762062
0.0075,1.79859375,1.0,957.5646570995003,0.08117035425827732,1.353340386113644,0.6079163189867891,0.2885939375,0.6018832000671589
0.008,1.7984,1.0,1044.593518461639,0.08632426214496719,1.3519463568888024,0.6358098902499808,0.2885858,0.6050183733185579
0.0085,1.79819375,1.0,1129.453571692644,0.09144926062552658,1.3506306973915398,0.6611451957703852,0.2885771375,0.6079659248938853
0.009000000000000001,1.797975,1.0,1211.9006627413441,0.09654551170416989,1.3493874184015888,0.6841592551290354,0.28856795,0.6107411730314831
0.0095,1.79774375,1.0,1291.7726890816562,0.10161317715364618,1.3482108132525217,0.705077062235423,0.2885582375,0.6133585125446986
0.01,1.7975,1.0,1368.9335261860897,0.10665241702457968,1.3470960092134534,0.7241078782764062,0.288548,0.6158302308293823
0.0105,1.79724375,1.0,1443.294475293551,0.11166339049517246,1.346038480552866,0.7414432290766405,0.2885372375,0.6181676338541575
0.011,1.796975,1.0,1514.812176311846,0.11664625611651691,1.3450339468294166,0.7572565817918907,0.28852595000000003,0.6203812995386331
0.0115,1.79669375,1.0,1583.4853396217036,0.12160117252059222,1.3440783123550124,0.7717039208422395,0.2885141375,0.6224812339506586
0.012,1.7964,1.0,1649.300813072623,0.12652829564345952,1.3431682155049123,0.7849250739755596,0.28850180000000003,0.6244756883519582
0.0125,1.79609375,1.0,1712.278985052894,0.13142778109205822,1.3423003847400221,0.797044729314055,0.2884889375,0.626372597598319
0.013000000000000001,1.7957750000000001,1.0,1772.4667914183808,0.13629978395115563,1.341471668154272,0.8081738690200063,0.28847555,0.6281795275763353
0.0135,1.79544375,1.0,1829.9316974512903,0.14114445939509646,1.340679053549161,0.8184111822584463,0.2884616375,0.6299036430894382
0.014,1.7951000000000001,1.0,1884.7287075991635,0.14596196040733603,1.339919986050877,0.8278445096779671,0.2884472,0.6315510302397053
0.0145,1.79474375,1.0,1936.9132774691636,0.15075243861818124,1.3391921687343975,0.8365519828034056,0.2884322375,0.6331271449912501
0.015,1.794375,1.0,1986.5618532148344,0.15551604565793894,1.3384933046747005,0.8446030517008475,0.28841675,0.6346373810280624
0.0155,1.79399375,1.0,2033.7547268348271,0.1602529321880983,1.3378212583143745,0.8520595538568438,0.2884007375,0.636086726501571
0.016,1.7936,1.0,2078.592874142387,0.16496324961632886,1.3371738535826272,0.8589765485125375,0.2883842,0.6374802055492381
0.0165,1.7931937500000001,1.0,2121.1495651414602,0.16964714619207166,1.3365493595558637,0.8654032636082272,0.2883671375,0.6388218385922767
0.017,1.792775,1.0,2161.498288253009,0.17430476929919483,1.3359461699393276,0.8713836874317749,0.28834955,0.6401153408899759
0.0175,1.7923437500000001,1.0,2199.723459155488,0.17893626632156653,1.335362678438263,0.8769571514883813,0.2883314375,0.6413643938479406
0.018000000000000002,1.7919,1.0,2235.9118509743703,0.18354178379618252,1.3347973554720312,0.8821588979237143,0.2883128,0.6425724833193062
0.0185,1.79144375,1.0,2270.1565509699662,0.18812146880260977,1.334248697122558,0.8870205438866106,0.2882936375,0.6437430117087771
0.019,1.790975,1.0,2302.536972243499,0.1926754662844324,1.3337154143073657,0.8915705459279566,0.28827395,0.6448788974925486
0.0195,1.79049375,1.0,2333.121823578533,0.19720391912738472,1.3331963894415386,0.8958345491216027,0.2882537375,0.6459826723951612
0.02,1.79,1.0,2361.9855401649197,0.20170697021720108,1.3326905049401612,0.8998356654130224,0.288233,0.647056849243178
0.0205,1.78949375,1.0,2389.2078042741246,0.20618476243961587,1.3321966432183174,0.9035947579442715,0.2882117375,0.6481039229415877
0.021,1.788975,1.0,2414.859198786631,0.21063743667066567,1.3317138209658677,0.9071307186062112,0.28818995000000003,0.6491260873093887
0.021500000000000002,1.78844375,1.0,2439.028889993405,0.21506513684080267,1.3312409155471814,0.91046062804674,0.2881676375,0.6501258159039065
0.022,1.7879,1.0,2461.7787832583867,0.21946800210449685,1.3307771036306453,0.9136000381387696,0.2881448,0.6511049353116115
0.0225,1.78734375,1.0,2483.1662227068664,0.22384617042100385,1.3303216348356441,0.9165630897781877,0.28812143749999997,0.6520651070137353
0.023,1.786775,1.0,2503.251261070069,0.22819977974957928,1.3298737587815623,0.9193626476895415,0.28809755,0.6530079823575371
0.0235,1.78619375,1.0,2522.0964332031754,0.23252896804947878,1.3294327250877844,0.9220104332548997,0.28807313749999996,0.6539352029376155
0.024,1.7856,1.0,2539.7635767714382,0.2368338727399385,1.3289978113159604,0.9245171467418413,0.2880482,0.6548483423128435
0.0245,1.78499375,1.0,2556.3065079686075,0.24111462950770007,1.3285683894173552,0.9268925817610524,0.2880227375,0.655748767460731
0.025,1.784375,1.0,2571.8004878209267,0.2453713773667118,1.3281436466715308,0.9291456696796959,0.28799675,0.6566382243275177
0.025500000000000002,1.78374375,1.0,2586.288198879387,0.249604248963681,1.3277230913327451,0.9312846459338684,0.2879702375,0.657517778722287
0.026000000000000002,1.7831000000000001,1.0,2599.8135795484095,0.25381337694531503,1.3273062316552569,0.9333170665107798,0.2879432,0.6583884908151637
0.0265,1.78244375,1.0,2612.4217195643337,0.2579988939583212,1.326892575893324,0.9352498731732103,0.2879156375,0.659251415260929
0.027,1.781775,1.0,2624.1587608358755,0.2621609326494069,1.3264816323012054,0.9370894516279059,0.28788755,0.6601076013072082
0.0275,1.7810937500000001,1.0,2635.071803645337,0.2662996256652793,1.326072909133159,0.9388416834769164,0.2878589375,0.6609580928872407
0.028,1.7804,1.0,2645.2027736510818,0.27041510199975893,1.325665970454772,0.9405119994096832,0.2878298,0.6618038127798203
0.0285,1.77969375,1.0,2654.6000186114475,0.274507496829926,1.3252603279961774,0.9421054084360923,0.2878001375,0.662645787729015
0.029,1.778975,1.0,2663.297071933952,0.2785769379820678,1.3248556363540784,0.943626557952758,0.28776995,0.6634847433960037
0.029500000000000002,1.7782437500000001,1.0,2671.326907756697,0.2826235526330637,1.324451560272202,0.9450797497044301,0.2877392375,0.6643213808575691
0.03,1.7775,1.0,2678.7229900166417,0.286647467959793,1.3240477644942756,0.9464689688552573,0.287708,0.6651563977240513
0.0305,1.77674375,1.0,2685.519227158865,0.29064881113913504,1.3236439137640266,0.9477979113050066,0.2876762375,0.6659904881489265
0.031,1.775975,1.0,2691.74992933771,0.2946277093479691,1.3232396728251823,0.9490700083254712,0.28764395,0.6668243428312153
0.0315,1.7751937500000001,1.0,2697.4450998873017,0.29858428637099155,1.3228347491052082,0.9502884530657653,0.2876111375,0.6676585611293919
0.032,1.7744,1.0,2702.6319433307235,0.30251866599430743,1.322428878389479,0.9514562195548265,0.2875778,0.6684936810602758
0.0325,1.77359375,1.0,2707.3520674323768,0.3064309845873378,1.3220216674141188,0.9525760654701521,0.2875439375,0.6693305029203784
0.033,1.772775,1.0,2711.6257197062373,0.31032136251717374,1.3216129202768234,0.953650579744884,0.28750955,0.6701694180835893
0.0335,1.7719437500000002,1.0,2715.473331362139,0.3141899201509064,1.32120244107529,0.9546821776941647,0.2874746375,0.6710108158395243
0.034,1.7711000000000001,1.0,2718.915499883668,0.31803677785562673,1.3207900339072152,0.9556731147248829,0.2874392,0.6718550833731114
0.0345,1.7702437500000001,1.0,2721.9729724574568,0.32186205599842593,1.3203755028702953,0.9566254988086877,0.2874032375,0.6727026057417265
0.035,1.7693750000000001,1.0,2724.6666302530243,0.32566587494639493,1.319958652062227,0.9575413018428375,0.28736675,0.6735537658498811
0.035500000000000004,1.76849375,1.0,2727.0174735539586,0.32944835506662495,1.319539285580707,0.9584223700096715,0.2873297375,0.6744089444214647
0.036000000000000004,1.7676,1.0,2729.0466077392366,0.33320961672620697,1.319117207523432,0.9592704332333862,0.2872922,0.675268519969537
0.0365,1.76669375,1.0,2730.7752301163923,0.336949780292232,1.3186922219880985,0.9600871138221004,0.2872541375,0.6761328687636752
0.037,1.765775,1.0,2732.224533264048,0.3406689660111733,1.3182641338386452,0.9608739344235789,0.28721555,0.677002363239595
0.0375,1.76484375,1.0,2733.405797609623,0.3443672817914224,1.3178328385905589,0.9616323314436103,0.2871764375,0.6778771897750886
0.038,1.7639,1.0,2734.3450631274923,0.3480448612501642,1.3173980981791917,0.9623636476184791,0.28713679999999997,0.6787578038017608
0.0385,1.76294375,1.0,2735.053663583619,0.35170181733457234,1.3169598085559124,0.9630691544068987,0.28709663750000003,0.6796443869904316
0.039,1.761975,1.0,2735.5429688922004,0.35533826299182036,1.3165178656720897,0.963750048697762,0.28705595,0.680537119612197
0.0395,1.7609937500000001,1.0,2735.824380401332,0.35895431116908194,1.3160721654790921,0.9644074579842717,0.2870147375,0.6814361805145326
0.04,1.76,1.0,2735.9093264173134,0.3625500748135305,1.3156226039282881,0.9650424451257618,0.286973,0.6823417470967059
0.0405,1.7589937500000001,1.0,2735.809257969851,0.3661256668723398,1.3151690769710465,0.9656560127341105,0.2869307375,0.683253995284498
0.041,1.757975,1.0,2735.5356448168195,0.36968120029268325,1.314711480558736,0.9662491072179764,0.28688795,0.6841730995042357
0.0415,1.75694375,1.0,2735.099971689331,0.3732167880217345,1.3142497106427253,0.9668226225148515,0.2868446375,0.6850992326561334
0.042,1.7559,1.0,2734.5137347766267,0.3767325430066672,1.3137836631743829,0.9673774035380189,0.28680079999999997,0.6860325660869433
0.0425,1.75484375,1.0,2733.788438451434,0.38022857819465483,1.3133132341050773,0.9679142493629045,0.2867564375,0.6869732695619166
0.043000000000000003,1.753775,1.0,2732.926710766334,0.3837049897935356,1.3128384000646718,0.968433920076428,0.28671155,0.6879213502709706
0.043500000000000004,1.75269375,1.0,2731.9455035725177,0.38716190504375025,1.312359007622622,0.968937129859257,0.28666613750000003,0.688877073842509
0.044,1.7516,1.0,2730.856492134131,0.39059944091544835,1.311874951266981,0.9694245575149832,0.2866202,0.6898406083297777
0.0445,1.75049375,1.0,2729.6651741101227,0.3940177022216925,1.3113861816146177,0.9698968490835204,0.2865737375,0.6908120086079985
0.045,1.7493750000000001,1.0,2728.3770484028732,0.3974167937755453,1.3108926492824013,0.970354617370261,0.28652675,0.691791328514572
0.0455,1.74824375,1.0,2726.997614164959,0.4007968203900691,1.3103943048872009,0.9707984439755825,0.2864792375,0.6927786208341562
0.046,1.7471,1.0,2725.5323698602892,0.40415788687832654,1.3098910990458847,0.9712288811814761,0.2864312,0.6937739372835895
0.0465,1.7459437500000001,1.0,2723.986812378558,0.40750009805338017,1.3093829823753222,0.9716464537066312,0.28638263750000004,0.6947773284966552
0.047,1.744775,1.0,2722.366436204353,0.4108235587282925,1.308869905492382,0.9720516603403169,0.28633355,0.6957888440086958
0.0475,1.74359375,1.0,2720.6767326405293,0.4141283737161261,1.3083518190139332,0.9724449754645021,0.28628393750000003,0.696808532241067
0.048,1.7424,1.0,2718.9231890844812,0.4174146478299435,1.3078286735568445,0.9728268504728318,0.2862338,0.6978364404854389
0.0485,1.74119375,1.0,2717.1112883603078,0.4206824858828072,1.3073004197379847,0.9731977150943474,0.2861831375,0.6988726148879414
0.049,1.739975,1.0,2715.246508103055,0.4239319926877798,1.306767008174223,0.9735579786291682,0.28613195,0.699917100433151
0.0495,1.73874375,1.0,2713.3343201987,0.4271632730579238,1.3062283894824283,0.9739080311027417,0.2860802375,0.7009699409279281
0.05,1.7375,1.0,2711.3799760835323,0.430376430326727,1.305684516232905,0.9742482443038529,0.286028,0.7020311751768331
0.0505,1.73624375,1.0,2709.3857078390683,0.43357154627151107,1.3051353684840943,0.974578972208343,0.2859752375,0.7031007873089159
0.051000000000000004,1.734975,1.0,2707.359735882188,0.43674875387774426,1.3045808716198761,0.9749005547984765,0.28592195,0.7041788668471829
0.051500000000000004,1.73369375,1.0,2705.3042255798937,0.43990814953014534,1.3040210062024276,0.975213316088802,0.2858681375,0.7052653947310699
0.052000000000000005,1.7324,1.0,2703.2213395978943,0.44304982961343287,1.3034557527939257,0.9755175655471657,0.2858138,0.7063603510722956
0.0525,1.73109375,1.0,2701.1132377862145,0.44617389051232553,1.3028850919565478,0.9758135988717475,0.28575893750000003,0.707463715148194
0.053,1.729775,1.0,2698.9820770720203,0.44928042861154205,1.302309004252471,0.9761016987200903,0.28570355000000003,0.7085754653950238
0.0535,1.72844375,1.0,2696.830011361556,0.4523695402958011,1.3017274702438721,0.9763821353934748,0.2856476375,0.709695579401254
0.054,1.7271,1.0,2694.6591914504456,0.4554413219498213,1.301140470492929,0.9766551674797344,0.2855912,0.7108240339008206
0.0545,1.7257437500000001,1.0,2692.4717649417935,0.45849586995832126,1.3005479855618183,0.9769210424573593,0.2855342375,0.7119608047663682
0.055,1.724375,1.0,2690.2698761732427,0.4615332807060197,1.2999499960127172,0.9771799972635364,0.28547675,0.7131058670024584
0.0555,1.72299375,1.0,2688.0556661523483,0.46455365057763526,1.299346482407803,0.977432258828549,0.2854187375,0.7142591947387593
0.056,1.7216,1.0,2685.831272499936,0.46755707595788665,1.2987374253092527,0.9776780445787985,0.2853602,0.71542076122321
0.0565,1.72019375,1.0,2683.5988294022936,0.47054365323149255,1.2981228052792437,0.9779175629105314,0.28530113749999997,0.7165905388151599
0.057,1.718775,1.0,2681.360467571544,0.4735134787831715,1.297502602879953,0.9781510136362017,0.28524155,0.7177684989784854
0.0575,1.71734375,1.0,2679.1183142142,0.4764666489976423,1.2968767986735579,0.9783785884052568,0.2851814375,0.7189546122746805
0.058,1.7159,1.0,2676.8698931175104,0.4794032107795806,1.296245415442514,0.9786004691724272,0.2851208,0.7201487685883045
0.0585,1.71444375,1.0,2674.623052883776,0.482323319698878,1.2956083812011274,0.978816834704864,0.2850596375,0.7213510362361255
0.059000000000000004,1.7129750000000001,1.0,2672.3787903977664,0.4852270673609302,1.2949656867843904,0.9790278545935556,0.28499795,0.722561363583587
0.059500000000000004,1.71149375,1.0,2670.1376660065653,0.4881145409497504,1.2943173270237358,0.9792336915828992,0.2849357375,0.7237796907321536
0.06,1.71,1.0,2667.900239115607,0.4909858276493516,1.2936632967505974,0.9794345020482859,0.284873,0.7250059570840898
0.0605,1.7084937500000001,1.0,2665.66706819145,0.493841014643747,1.2930035907964084,0.9796304362927541,0.2848097375,0.7262401013405959
0.061,1.7069750000000001,1.0,2663.438710764751,0.49668018911694967,1.2923382039926026,0.9798216388276172,0.28474595,0.7274820614999347
0.0615,1.7054437500000001,1.0,2661.21572343422,0.4995034382529727,1.291667131170613,0.9800082486380393,0.2846816375,0.7287317748555627
0.062,1.7039,1.0,2658.998661871137,0.5023108492358291,1.2909903671618732,0.9801903994344803,0.2846168,0.7299891779942546
0.0625,1.70234375,1.0,2656.7880808239383,0.5051025092495322,1.2903079067978167,0.9803682198908583,0.2845514375,0.7312542067942289
0.063,1.7007750000000001,1.0,2654.584534124082,0.5078785054780948,1.289619744909877,0.9805418338702283,0.28448555,0.7325267964232711
0.0635,1.69919375,1.0,2652.3885746922747,0.5106389251055301,1.2889258763294873,0.9807113606387126,0.28441913750000003,0.7338068813368552
0.064,1.6976,1.0,2650.200754544869,0.5133838553158514,1.2882262958880812,0.980876915068387,0.2843522,0.7350943952762635
0.0645,1.69599375,1.0,2648.021624801632,0.5161133832930715,1.287520998417092,0.9810386078297594,0.2842847375,0.7363892712667045
0.065,1.694375,1.0,2645.8517356935226,0.5188275962212037,1.2868099787479532,0.9811965455744504,0.28421675,0.7376914416154293
0.0655,1.69274375,1.0,2643.6916365709353,0.521526581284261,1.2860932317120983,0.9813508311086436,0.2841482375,0.7390008379098457
0.066,1.6911,1.0,2641.541875913241,0.5242104256662565,1.2853707521409607,0.9815015635578314,0.2840792,0.7403173910156324
0.0665,1.6894437500000001,1.0,2639.4030013385377,0.5268792165512034,1.2846425348659738,0.9816488385233524,0.2840096375,0.7416410310748498
0.067,1.687775,1.0,2637.2755596133134,0.5295330411231146,1.2839085747185708,0.9817927482311871,0.28393955,0.7429716875040488
0.0675,1.68609375,1.0,2635.1579641323874,0.5321719707093447,1.283168886258023,0.9819333815693398,0.2838689375,0.7443092533654043
0.068,1.6844000000000001,1.0,2633.046884403043,0.5347960669721306,1.2824235002064788,0.9820708244900145,0.2837978,0.7456535922548504
0.0685,1.68269375,1.0,2630.9496834814563,0.537405466966037,1.2816723483314616,0.9822051601983007,0.2837261375,0.747004745489285
0.069,1.680975,1.0,2628.866140771889,0.5400002483462284,1.2809154325318202,0.9823364684751393,0.28365395,0.7483626268031263
0.0695,1.67924375,1.0,2626.7960360979855,0.5425804887678692,1.2801527547064027,0.9824648263890492,0.28358123749999997,0.7497271493316779
0.07,1.6775,1.0,2624.739149698488,0.5451462658861238,1.2793843167540582,0.9825903084053755,0.283508,0.7510982256118243
0.07050000000000001,1.67574375,1.0,2622.6952622219374,0.5476976573561565,1.2786101205736347,0.9827129864904127,0.2834342375,0.752475767582732
0.07100000000000001,1.673975,1.0,2620.6641547217805,0.5502347408331317,1.2778301680639812,0.982832930210677,0.28335995,0.7538596865865432
0.07150000000000001,1.67219375,1.0,2618.6456086520307,0.5527575939722139,1.2770444611239458,0.9829502068275846,0.2832851375,0.7552498933690769
0.07200000000000001,1.6704,1.0,2616.6394058624383,0.5552662944285675,1.2762530016523772,0.9830648813877759,0.2832098,0.756646298080522
0.0725,1.66859375,1.0,2614.6453285938974,0.5577609198573565,1.2754557915481242,0.9831770168093156,0.2831339375,0.7580488102761365
0.073,1.6667750000000001,1.0,2612.6631594739633,0.5602415479137457,1.2746528327100348,0.9832866739639805,0.28305755,0.759457338916944
0.0735,1.66494375,1.0,2610.6926815125526,0.5627082562528994,1.273844127036958,0.9833939117558366,0.2829806375,0.7608717923704286
0.074,1.6631,1.0,2608.733678097459,0.565161122529982,1.2730296764277422,0.9834987871962968,0.2829032,0.7622920784112321
0.0745,1.6612437500000001,1.0,2606.7859329902726,0.5676002244001578,1.2722094827812356,0.9836013554758385,0.2828252375,0.7637181042218502
0.075,1.659375,1.0,2604.8492303222233,0.5700256395185912,1.2713835479962872,0.9837016700325483,0.28274675,0.7651497763933256
0.0755,1.65749375,1.0,2602.923354589905,0.5724374455404466,1.2705518739717452,0.9837997826176524,0.2826677375,0.7665870009259468
