Time [s],Phi [rad],STIM [ ],Fsee [N],Gamma [ ],Lcerel [ ],q [ ],Lmtc [m],fisomrel [ ]
0.0,1.8,1.0,17.96711466866757,1.0103055533827712e-05,1.379339751093057,0.0050000272017251155,0.288653,0.541139519262301
0.0005,1.79999375,1.0,18.276485318627554,0.005619255694176615,1.3793024165402963,0.012940800708762887,0.2886527375,0.5412298367560319
0.001,1.799975,1.0,21.618183662679193,0.011196945421438363,1.3789383223258185,0.0356091156136618,0.28865195,0.5421101654110144
0.0015,1.79994375,1.0,31.06910979614764,0.016743348720236213,1.378046214481485,0.0706024436884196,0.2886506375,0.54426358327876
0.002,1.7999,1.0,53.58231793670496,0.022258641081836377,1.3763681362218942,0.11471871150589526,0.2886488,0.5483004656787553
0.0025,1.79984375,1.0,97.1189112490497,0.027742997013417543,1.3739351685315908,0.1645756255000838,0.28864643749999996,0.554121459614958
0.003,1.7997750000000001,1.0,160.95832428395573,0.03319659004578816,1.3712143378622799,0.2172812086655173,0.28864354999999997,0.5605864648133583
0.0035,1.79969375,1.0,237.68361410670605,0.03861959273297769,1.3685847255294463,0.2706136379974471,0.2886401375,0.5667898600331082
0.004,1.7996,1.0,321.4671587249843,0.04401217666301887,1.366156082135791,0.3229165266566058,0.2886362,0.5724799856982394
0.0045000000000000005,1.7994937500000001,1.0,409.2682355650803,0.049374512463132195,1.3639228027870458,0.37303519552582787,0.2886317375,0.5776791888125669
0.005,1.799375,1.0,499.4140562620779,0.05470676979081667,1.3618583306148582,0.4202481045572962,0.28862675,0.5824571063923087
0.0055,1.79924375,1.0,590.7910246182514,0.06000911738131089,1.3599388231693068,0.46417429474920074,0.2886212375,0.5868751389524697
0.006,1.7991000000000001,1.0,682.5187578439028,0.06528172299075892,1.3581464029409316,0.5046805109222742,0.2886152,0.5909794453458924
0.006500000000000001,1.79894375,1.0,773.8822561157544,0.07052475345147129,1.3564672365764188,0.5418012595537505,0.2886086375,0.5948058330598581
0.007,1.798775,1.0,864.2865430252529,0.07573837465694785,1.3548903831751076,0.5756772398921908,0.28860155,0.5983827038578615
0.0075,1.79859375,1.0,953.2432171200323,0.08092275156973396,1.3534067791648525,0.6065103414772578,0.2885939375,0.6017335728326696
0.008,1.7984,1.0,1040.3575136489624,0.08607804820098802,1.3520086601980847,0.6345324551384735,0.2885858,0.6048785176835119
0.0085,1.79819375,1.0,1125.318851815571,0.09120442777039565,1.3506891760354522,0.659984753559846,0.2885771375,0.6078351460828304
0.009000000000000001,1.797975,1.0,1207.8784080618648,0.09630205218113262,1.3494423325475149,0.6831046831904048,0.28856795,0.6106188017339031
0.0095,1.79774375,1.0,1287.872083550697,0.1013710831599533,1.3482623900745783,0.7041179165938498,0.2885582375,0.6132439657510915
0.01,1.7975,1.0,1365.167272131326,0.10641168111014153,1.3471443824148313,0.723234496966757,0.288548,0.6157231433604127
0.0105,1.79724375,1.0,1439.6617919202085,0.1114240049651751,1.3460839176922121,0.7406468932054836,0.2885372375,0.6180673530446752
0.011,1.796975,1.0,1511.3102318908063,0.1164082133318511,1.345076700012246,0.7565294227034233,0.28852595000000003,0.6202872165454666
0.0115,1.79669375,1.0,1580.1122394000558,0.12136446468123781,1.3441185878665887,0.7710388636245967,0.2885141375,0.6223928491221458
0.012,1.7964,1.0,1646.0676297646423,0.1262929157198537,1.3432060406643147,0.784315725708222,0.28850180000000003,0.624392900674505
0.0125,1.79609375,1.0,1709.1822628729487,0.13119372165507384,1.3423359395901513,0.7964854613994344,0.2884889375,0.626294975972348
0.013000000000000001,1.7957750000000001,1.0,1769.4983096651256,0.1360670376942731,1.3415051658288257,0.8076596905845677,0.28847555,0.6281065743374561
0.0135,1.79544375,1.0,1827.071928581483,0.14091301801169204,1.3407108128291425,0.8179376976153336,0.2884616375,0.6298346365475288
0.014,1.7951000000000001,1.0,1881.9863108821512,0.14573181718481143,1.3399499950356517,0.8274076933535991,0.2884472,0.631485972178764
0.0145,1.79474375,1.0,1934.2913306886996,0.1505235866038655,1.3392204698274979,0.8361482767770848,0.2884322375,0.6330659210778432
0.015,1.794375,1.0,1984.0542726384804,0.15528847747141242,1.3385200303288292,0.8442293223264429,0.28841675,0.6345796845222214
0.0155,1.79399375,1.0,2031.3592023257615,0.16002664080365706,1.3378464911845063,0.8517129960322759,0.2884007375,0.636032360951267
0.016,1.7936,1.0,2076.2942401051982,0.1647382266793514,1.3371978028708917,0.8586547007249227,0.2883842,0.6374287045250104
0.0165,1.7931937500000001,1.0,2118.9547313648736,0.16942338546202512,1.3365719963934948,0.865103859791267,0.2883671375,0.638773250139341
0.017,1.792775,1.0,2159.407741105303,0.17408226407213695,1.335967528645656,0.871104720898337,0.28834955,0.6400695781113849
0.0175,1.7923437500000001,1.0,2197.7310515855374,0.1787150094301456,1.3353828565207164,0.8766968439427271,0.2883314375,0.641321235816341
0.018000000000000002,1.7919,1.0,2234.012265520702,0.18332176845650983,1.3348164369120168,0.881915652359749,0.2883128,0.6425317397115482
0.0185,1.79144375,1.0,2268.331983292988,0.18790268637725854,1.3342668860353306,0.8867929563297525,0.2882936375,0.6437042375645514
0.019,1.790975,1.0,2300.791083365018,0.19245791067532778,1.333732695870378,0.89135730105695,0.28827395,0.6448421164129141
0.0195,1.79049375,1.0,2331.458925586006,0.1969875843362166,1.3332127410953547,0.8956344606394785,0.2882537375,0.6459479246547197
0.02,1.79,1.0,2360.40419844018,0.2014918495917826,1.3327059591640238,0.8996476757376056,0.288233,0.6470240584717696
0.0205,1.78949375,1.0,2387.7007112877504,0.2059708486738833,1.3322112875301486,0.9034179236560177,0.2882117375,0.6480728968034468
0.021,1.788975,1.0,2413.4269635617807,0.21042472381437627,1.331727663647492,0.9069641695751496,0.28818995000000003,0.6490968022033687
0.021500000000000002,1.78844375,1.0,2437.651918938938,0.2148536151949267,1.331254157896069,0.9103036141322371,0.2881676375,0.6500978408053768
0.022,1.7879,1.0,2460.4600878584984,0.21925766590520357,1.33078972671627,0.9134518356121233,0.2881448,0.6510783058003042
0.0225,1.78734375,1.0,2481.9116788676615,0.2236370144042962,1.330333591917103,0.9164230354043443,0.28812143749999997,0.652039917254926
0.023,1.786775,1.0,2502.0620665364804,0.2279917978896602,1.329885047370232,0.9192301457086118,0.28809755,0.6529842331681754
0.0235,1.78619375,1.0,2520.96903359123,0.2323221535587512,1.3294433869473194,0.9218849483318007,0.28807313749999996,0.6539128022853277
0.024,1.7856,1.0,2538.69256922955,0.23662821860902483,1.3290079045200296,0.9243981929127777,0.2880482,0.654827164423913
0.0245,1.78499375,1.0,2555.2931451893896,0.24091012988139354,1.328577908364397,0.9267797039450701,0.2880227375,0.6557288205831568
0.025,1.784375,1.0,2570.8223503159375,0.24516802176649058,1.328152806976914,0.929038486997604,0.28799675,0.6566190538047585
0.025500000000000002,1.78374375,1.0,2585.35138667954,0.2494020332200485,1.3277318399776596,0.9311827671852394,0.2879702375,0.6574994931915106
0.026000000000000002,1.7831000000000001,1.0,2598.921602582947,0.2536122960958176,1.3273145398595878,0.9332201360262218,0.2879432,0.6583711479480432
0.0265,1.78244375,1.0,2611.5754676869246,0.257798942247548,1.3269004391156525,0.93515756742279,0.2879156375,0.6592350220216632
0.027,1.781775,1.0,2623.3564789110555,0.26196210352899,1.3264890702388075,0.9370014761904795,0.28788755,0.6600921142047164
0.0275,1.7810937500000001,1.0,2634.3090711799273,0.2661019117938938,1.3260799657220064,0.9387577703285674,0.2878589375,0.6609434182230076
0.028,1.7804,1.0,2644.478533015087,0.2702184988960097,1.3256726580582034,0.9404318977684822,0.2878298,0.6617899228102823
0.0285,1.77969375,1.0,2653.906090569555,0.27431199393249434,1.3252667243231158,0.9420288935702202,0.2878001375,0.6626325192860658
0.029,1.778975,1.0,2662.6338514746026,0.27838252997465057,1.3248617396232936,0.9435534129287508,0.28776995,0.6634720986254063
0.029500000000000002,1.7782437500000001,1.0,2670.6954923477942,0.2824302349955021,1.324457362098208,0.945009773016423,0.2877392375,0.6643093755748479
0.03,1.7775,1.0,2678.1231127681945,0.28645523550828256,1.324053268896764,0.9464019751054351,0.287708,0.6651450220577859
0.0305,1.77674375,1.0,2684.949250182332,0.29045765802622564,1.3236491371678654,0.9477337298284426,0.2876762375,0.6659797066661234
0.031,1.775975,1.0,2691.206838615584,0.294437629062565,1.3232446440604173,0.9490084819477931,0.28764395,0.6668140946628001
0.0315,1.7751937500000001,1.0,2696.9291696949176,0.2983952751305342,1.322839466723324,0.950229432722776,0.2876111375,0.6676488479776777
0.032,1.7744,1.0,2702.141655314993,0.30233071796814887,1.3224333572228035,0.9513995678309012,0.2875778,0.6684844711416836
0.0325,1.77359375,1.0,2706.8748537429733,0.3062440852261317,1.322026023004627,0.9525216637940105,0.2875439375,0.6693215577417839
0.033,1.772775,1.0,2711.1658712130115,0.31013550820104907,1.3216171140572375,0.9535983027533508,0.28750955,0.6701608161527229
0.0335,1.7719437500000002,1.0,2715.0341858993675,0.31400510684903804,1.3212064431995312,0.9546319092055716,0.2874746375,0.6710026174971504
0.034,1.7711000000000001,1.0,2718.499438124021,0.31785300112623555,1.320793823250404,0.9556247470236777,0.2874392,0.6718473308813412
0.0345,1.7702437500000001,1.0,2721.581414629446,0.32167931098877867,1.3203790670287519,0.9565789319935583,0.2874032375,0.6726953233730438
0.035,1.7693750000000001,1.0,2724.300033627808,0.32548415639280454,1.319961987353471,0.9574964432321045,0.28736675,0.673546959977096
0.035500000000000004,1.76849375,1.0,2726.6753306276037,0.32926765729445007,1.3195423970434568,0.9583791335983795,0.2873297375,0.6744026036088069
0.036000000000000004,1.7676,1.0,2728.727445036072,0.33302993364985234,1.319120108917606,0.9592287391971107,0.2872922,0.6752626150651
0.0365,1.76669375,1.0,2730.476607539565,0.3367711054151483,1.3186949357948141,0.9600468880630221,0.2872541375,0.676127352993429
0.037,1.765775,1.0,2731.943128259891,0.34049129254647525,1.3182666904939773,0.9608351081050293,0.28721555,0.676997173858453
0.0375,1.76484375,1.0,2733.139894309504,0.3441906090874732,1.3178352538823879,0.9615948397771578,0.2871764375,0.6778722939716775
0.038,1.7639,1.0,2734.086518640582,0.34786917666803685,1.3174004462233824,0.9623274327657053,0.28713679999999997,0.6787530508201459
0.0385,1.76294375,1.0,2734.803452236982,0.3515271162484255,1.316962080624228,0.9630341558072845,0.28709663750000003,0.6796397941529351
0.039,1.761975,1.0,2735.3018375882375,0.3551645406591495,1.3165200550905378,0.9637162094691014,0.28705595,0.6805327000174838
0.0395,1.7609937500000001,1.0,2735.592848412779,0.3587815627307194,1.316074267627925,0.9643747246704542,0.2870147375,0.6814319430595374
0.04,1.76,1.0,2735.68768528363,0.36237829529364574,1.3156246162420024,0.9650107674644613,0.286973,0.6823376964990073
0.0405,1.7589937500000001,1.0,2735.5975714852143,0.3659548511784389,1.3151709989383835,0.9656253434426169,0.2869307375,0.6832501321051705
0.041,1.757975,1.0,2735.3337491005395,0.3695113432156093,1.3147133137226812,0.9662194017955854,0.28688795,0.684169420171203
0.0415,1.75694375,1.0,2734.9074753291006,0.37304788423566754,1.3142514586005085,0.9667938390603822,0.2868446375,0.6850957294880513
0.042,1.7559,1.0,2734.330019035622,0.37656458706912405,1.3137853315774783,0.9673495025811619,0.28680079999999997,0.6860292273176403
0.0425,1.75484375,1.0,2733.612657529255,0.3800615645464892,1.3133148306592042,0.9678871937082272,0.2867564375,0.6869700793654152
0.043000000000000003,1.753775,1.0,2732.7584731209386,0.38353892844122617,1.3128399283458014,0.9684076766495219,0.28671155,0.6879183011243426
0.043500000000000004,1.75269375,1.0,2731.7919060161794,0.38699678783196023,1.3123604031609633,0.9689116590098452,0.28666613750000003,0.6888742938045934
0.044,1.7516,1.0,2730.7148471050346,0.39043525141439467,1.3118762384636535,0.9693998273889701,0.2866202,0.6898380480923544
0.0445,1.750495258462475,1.0,2729.593392155997,0.39385442761910255,1.3113875153111219,0.9698728401945531,0.28657380085542394,0.6908093600394319
0.045,1.7493888994364917,1.0,2728.884542899565,0.3972544247917634,1.3108943127793957,0.9703313216950118,0.28652733377633266,0.691788030234143
0.0455,1.7482825404105082,1.0,2728.6395128060117,0.4006353507450906,1.3103968942997684,0.9707758781325505,0.2864808666972414,0.6927734949268445
0.046,1.7471761813845248,1.0,2728.8136006977497,0.40399731282472967,1.3098956656706375,0.9712070955755256,0.28643439961815004,0.6937649119851801
0.0465,1.7460698223585416,1.0,2729.3751719846096,0.40734041675107036,1.3093909148087923,0.9716255217754243,0.28638793253905875,0.6947616767658757
0.047,1.7449634633325581,1.0,2730.2926662409677,0.4106647682445026,1.3088829296310212,0.9720316773062186,0.2863414654599674,0.6957631880821353
0.0475,1.7438571043065747,1.0,2731.537170163498,0.4139704721745673,1.3083719744796687,0.9724260553814632,0.28629499838087613,0.6967688946285413
0.048,1.7427507452805915,1.0,2733.077456441123,0.417257634632868,1.307858335041905,0.9728091269109698,0.28624853130178485,0.6977782064579915
0.0485,1.741644386254608,1.0,2734.890023543236,0.4205263592260872,1.3073422269954365,0.9731813349598676,0.28620206422269356,0.6987906744435128
0.049,1.7405380272286246,1.0,2736.954280890648,0.423776748556678,1.306823839699052,0.9735430995825586,0.2861555971436022,0.6998059036745232
0.0495,1.7394316682026412,1.0,2739.2496429786233,0.42700890522709345,1.3063033625115403,0.9738948210562961,0.28610913006451094,0.7008235016394257
0.05,1.738325309176658,1.0,2741.7555202049416,0.43022293183978655,1.3057809847916906,0.9742368809965907,0.2860626629854196,0.7018430782519895
0.0505,1.7372189501506745,1.0,2744.4602699368916,0.4334189255255684,1.305256814682538,0.9745696373980938,0.2860161959063283,0.7028644039855568
0.051000000000000004,1.736112591124691,1.0,2747.3344048604304,0.4365969956178444,1.304731121989467,0.9748934438609037,0.28596972882723704,0.7038869365147977
0.051500000000000004,1.7350062320987079,1.0,2750.3627500953153,0.43975724295602686,1.3042040465106624,0.9752086285990423,0.28592326174814575,0.704910389306565
0.052000000000000005,1.7338998730727244,1.0,2753.5349592830808,0.4428997653525533,1.3036756841623052,0.9755155019892644,0.2858767946690544,0.7059345626548339
0.0525,1.732793514046741,1.0,2756.840673220778,0.446024660619861,1.3031461308605772,0.9758143606452115,0.28583032758996313,0.7069592581130798
0.053,1.7316871550207578,1.0,2760.26951722607,0.44913202657038737,1.3026154825216596,0.9761054881492327,0.2857838605108718,0.7079842785018595
0.0535,1.7305807959947743,1.0,2763.8110987068217,0.4522219610165698,1.3020838350617343,0.9763891557392639,0.2857373934317805,0.7090094279158001
0.054,1.7294744369687909,1.0,2767.4550049340173,0.45529456177084565,1.3015512843969828,0.9766656229538873,0.2856909263526892,0.7100345117300064
0.0545,1.7283680779428077,1.0,2771.190801019371,0.4583499266456523,1.3010179264435862,0.9769351382384427,0.28564445927359794,0.7110593366058793
0.055,1.7272617189168242,1.0,2775.0080280962256,0.4613881534534271,1.3004838571177262,0.9771979395148579,0.2855979921945066,0.7120837104963453
0.0555,1.7261553598908408,1.0,2778.8992867613483,0.4644093362012131,1.2999491445439444,0.97745425271559,0.2855515251154153,0.7131074958142729
0.056,1.7250490008648576,1.0,2782.8560283863676,0.467413573330214,1.299413867028074,0.9777042953910487,0.28550505803632403,0.7141305364518331
0.0565,1.7239426418388741,1.0,2786.8696087267913,0.470400963201616,1.298878103534459,0.9779482761495593,0.2854585909572327,0.7151526761085626
0.057,1.7228362828128907,1.0,2790.9356562015373,0.47337159813746066,1.2983418944087786,0.9781863923166352,0.2854121238781414,0.7161738330375678
0.0575,1.7217299237869075,1.0,2795.049787550782,0.4763255704597896,1.2978052799967115,0.9784188332342536,0.2853656567990501,0.7171939260397968
0.058,1.720623564760924,1.0,2799.2076074557776,0.4792629724906445,1.2972683006439365,0.978645780649096,0.2853191897199588,0.7182128744651346
0.0585,1.7195172057349406,1.0,2803.4047081944223,0.4821838965520669,1.296730996696133,0.9788674090789303,0.2852727226408675,0.7192305982133915
0.059000000000000004,1.7184108467089572,1.0,2807.6366693325926,0.48508843496609844,1.296193408498979,0.9790838861585275,0.28522625556177617,0.7202470177351944
0.059500000000000004,1.717304487682974,1.0,2811.8990574519953,0.4879766800547807,1.2956555763981543,0.9792953729664052,0.2851797884826849,0.7212620540327651
0.06,1.7161981286569905,1.0,2816.1874259140454,0.49084872414015535,1.2951175407393374,0.9795020243336104,0.2851333214035936,0.7222756286606045
0.0605,1.715091769631007,1.0,2820.498710233543,0.4937046546672665,1.2945793293892753,0.9797039880766618,0.2850868543245023,0.7232876871701686
0.061,1.7139854106050239,1.0,2824.8320730967944,0.49654455393134816,1.2940409502319805,0.9799014049146546,0.28504038724541103,0.7242982129677104
0.0615,1.7128790515790404,1.0,2829.1784390985695,0.49936853518575725,1.2935024846791519,0.9800944165288463,0.2849939201663197,0.7253070519361104
0.062,1.711772692553057,1.0,2833.536395354931,0.5021766841837199,1.2929639455344129,0.9802831535697264,0.2849474530872284,0.7263141792631045
0.0625,1.7106663335270738,1.0,2837.9045246061146,0.5049690866784622,1.2924253456013866,0.9804677418324967,0.28490098600813707,0.7273195703122118
0.063,1.7095599745010903,1.0,2842.2814051975547,0.5077458284232103,1.2918866976836965,0.9806483024743103,0.2848545189290458,0.7283232006227882
0.0635,1.7084536154751069,1.0,2846.6656110644462,0.5105069951711902,1.2913480145849654,0.9808249522202387,0.2848080518499545,0.7293250459100726
0.064,1.7073472564491237,1.0,2851.0557117198055,0.5132526726756285,1.2908093091088169,0.9809978035586241,0.2847615847708632,0.7303250820652187
0.0645,1.7062408974231402,1.0,2855.4502722463335,0.5159829466897508,1.2902705940588743,0.9811669649264425,0.2847151176917719,0.7313232851553195
0.065,1.7051345383971568,1.0,2859.847853292351,0.5186979029667833,1.2897318822387605,0.9813325408852566,0.2846686506126806,0.7323196314234217
0.0655,1.7040281793711736,1.0,2864.2470110699933,0.5213976272599524,1.289193186452099,0.981494632288297,0.28462218353358926,0.7333140972885255
0.066,1.7029218203451901,1.0,2868.6462973588154,0.5240822053224841,1.2886545195025128,0.9816533364391883,0.284575716454498,0.7343066593455787
0.0665,1.7018154613192067,1.0,2873.044259511591,0.5267517229076044,1.2881158941936255,0.9818087472427856,0.2845292493754067,0.7352972943654579
0.067,1.7007091022932235,1.0,2877.439440464584,0.5294062657685397,1.28757732332906,0.9819609553485711,0.2844827822963154,0.7362859792949404
0.0675,1.69960274326724,1.0,2881.830378751018,0.5320459196585159,1.2870388197124394,0.9821100482870294,0.28443631521722407,0.7372726912566636
0.068,1.6984963842412566,1.0,2886.2161083630913,0.5346707635285621,1.286500391729061,0.9822561099493848,0.2843898481381328,0.738257415622113
0.0685,1.6973900252152734,1.0,2890.5979870672913,0.53728085330053,1.2859620272138497,0.9823992189520103,0.28434338105904144,0.7392401753563314
0.069,1.69628366618929,1.0,2894.97201495551,0.5398763219101876,1.2854237613258233,0.9825394583660069,0.28429691397995016,0.7402209071129449
0.0695,1.6951773071633065,1.0,2899.337948953893,0.5424572469877086,1.284885595985301,0.9826769034519387,0.2842504469008589,0.7411996084186858
0.07,1.6940709481373233,1.0,2903.695545398841,0.5450237061632661,1.2843475331126033,0.9828116269814235,0.2842039798217676,0.7421762768264573
0.07050000000000001,1.6929645891113398,1.0,2908.044560041536,0.5475757770670339,1.28380957462805,0.9829436993365475,0.28415751274267625,0.7431509099153231
0.07100000000000001,1.6918582300853564,1.0,2912.3847480525124,0.5501135373291851,1.283271722451961,0.9830731886046653,0.28411104566358497,0.7441235052904949
0.07150000000000001,1.6907518710593732,1.0,2916.7158640255693,0.5526370645798935,1.2827339785046563,0.9832001606688305,0.2840645785844937,0.7450940605833181
0.07200000000000001,1.6896455120333898,1.0,2921.0376619827084,0.5551464364493324,1.282196344706456,0.9833246792940817,0.28401811150540235,0.7460625734512599
