Time [s],Phi [rad],STIM [ ],Fsee [N],Gamma [ ],Lcerel [ ],q [ ],Lmtc [m],fisomrel [ ]
0.0,1.8,1.0,18.218146450716,0.0005094171169389412,1.3793117246590993,0.0050670412481014825,0.288653,0.5412073199494248
0.0005,1.79999375,1.0,18.68418721201857,0.0061157689986146195,1.3792573782622772,0.0143849735150871,0.2886527375,0.541338778806199
0.001,1.799975,1.0,22.396423638106185,0.011690673678855549,1.3788595389712146,0.03825838339404148,0.28865195,0.5423005412325215
0.0015,1.79994375,1.0,32.663172970166464,0.01723430755250971,1.3779121041805613,0.0741978226828729,0.2886506375,0.5445868670721319
0.002,1.7999,1.0,56.79433974411082,0.0227468460229928,1.37616278928522,0.11895676324435671,0.2886488,0.5487932269042195
0.0025,1.79984375,1.0,102.33137278386837,0.028228463511330536,1.3736872751131086,0.16917355321479433,0.28864643749999996,0.5547124375591195
0.003,1.7997750000000001,1.0,167.62293922641967,0.0336793334601008,1.3709674052915066,0.22201638973860496,0.28864354999999997,0.5611708680206858
0.0035,1.79969375,1.0,245.14849995407596,0.039099628338130694,1.3683565650345817,0.27531751304369473,0.2886401375,0.5673260235839414
0.004,1.7996,1.0,329.37098898646434,0.04448951964770676,1.3659480111679565,0.3274670472717182,0.2886362,0.572965730619315
0.0045000000000000005,1.7994937500000001,1.0,417.4193753382013,0.049849177899396635,1.363732407900815,0.37735208426018085,0.2886317375,0.5781209676105712
0.005,1.799375,1.0,507.72496473303903,0.05517877278430103,1.3616824532861824,0.4242847802030939,0.28862675,0.5828628921712005
0.0055,1.79924375,1.0,599.1548807645655,0.06047847278838656,1.3597759880776217,0.46791043807762117,0.2886212375,0.5872488469476117
0.006,1.7991000000000001,1.0,690.8808740636748,0.0657484456909721,1.3579948647409283,0.5081131979640631,0.2886152,0.5913255000609835
0.006500000000000001,1.79894375,1.0,782.1837226656734,0.07098885819997709,1.3563259031983024,0.5449394289749139,0.2886086375,0.5951270749678381
0.007,1.798775,1.0,872.4835100867566,0.0761998761247738,1.3547582884078315,0.5785368012102718,0.28860155,0.5986816224679395
0.0075,1.79859375,1.0,961.3015149374925,0.08138166444421843,1.3532830950593158,0.6091109542563501,0.2885939375,0.6020122919174441
0.008,1.7984,1.0,1048.236736891681,0.08653438682354063,1.351892873274517,0.6368954436300794,0.2885858,0.605138411156265
0.0085,1.79819375,1.0,1133.004245759794,0.09165820665358106,1.3505805644632787,0.6621313748037073,0.2885771375,0.6080780223871458
0.009000000000000001,1.797975,1.0,1215.3639361054848,0.09675328610954913,1.3493402087605504,0.6850554157138194,0.28856795,0.6108463601503031
0.0095,1.79774375,1.0,1295.1236331457358,0.10181978591043556,1.3481665666291442,0.7058922174220881,0.2885582375,0.6134567662043166
0.01,1.7975,1.0,1372.1638011926839,0.10685786637264122,1.3470545730325578,0.7248502179355399,0.288548,0.6159219494170567
0.0105,1.79724375,1.0,1446.4242533938386,0.11186768776058445,1.3459993795226075,0.7421200396407234,0.2885372375,0.6182539201848554
0.011,1.796975,1.0,1517.8452941235796,0.11684940810008157,1.344996957195837,0.7578745514521088,0.28852595000000003,0.6204626898138198
0.0115,1.79669375,1.0,1586.3962115780298,0.12180318452825098,1.3440435904130663,0.7722692134384752,0.2885141375,0.6225574231367547
0.012,1.7964,1.0,1652.089086826951,0.12672917390714117,1.3431356251255158,0.7854430641402983,0.28850180000000003,0.6245470113830406
0.0125,1.79609375,1.0,1714.9645064105905,0.1316275327555378,1.3422695770922939,0.7975201150500657,0.2884889375,0.6264398488426732
0.013000000000000001,1.7957750000000001,1.0,1775.0612484230237,0.1364984161108426,1.3414424141066201,0.8086108760721706,0.28847555,0.6282432329370005
0.0135,1.79544375,1.0,1832.4159682929157,0.14134197729715683,1.340651484514578,0.8188137011195268,0.2884616375,0.6299635398533616
0.014,1.7951000000000001,1.0,1887.0925767450788,0.1461583696385818,1.339894136662251,0.8282159607241427,0.2884472,0.6316070658884664
0.0145,1.79474375,1.0,1939.1582769103181,0.15094774539511502,1.3391679516007542,0.836895362737532,0.2884322375,0.633179529996647
0.015,1.794375,1.0,1988.7172655960992,0.155710257681238,1.3384703458870422,0.8449209295953621,0.28841675,0.634686941821129
0.0155,1.79399375,1.0,2035.8329327863512,0.16044605613092416,1.337799379903685,0.8523542796174981,0.2884007375,0.6361338614052485
0.016,1.7936,1.0,2080.576173273915,0.16515528993922118,1.337153200383907,0.8592503153945109,0.2883842,0.6375246156597226
0.0165,1.7931937500000001,1.0,2123.031997216892,0.16983810830117677,1.3365299540609343,0.8656579925815505,0.2883671375,0.6388634885833719
0.017,1.792775,1.0,2163.284680463921,0.17449465937114844,1.3359279269063766,0.8716210642612022,0.28834955,0.6401544257792859
0.0175,1.7923437500000001,1.0,2201.4348648567975,0.17912509198883683,1.3353453534933404,0.8771786415386615,0.2883314375,0.6414014473546766
0.018000000000000002,1.7919,1.0,2237.5574258100787,0.18372955182766898,1.3347808321338652,0.8823658484107338,0.2883128,0.6426077628691222
0.0185,1.79144375,1.0,2271.726186869155,0.1883081837735156,1.3342330554443662,0.8872142134908024,0.2882936375,0.6437763541081736
0.019,1.790975,1.0,2304.0224017994665,0.19286113271224756,1.3337007160412577,0.8917520617102861,0.28827395,0.6449101789335201
0.0195,1.79049375,1.0,2334.5270552717643,0.1973885425890323,1.3331825760212,0.8960048976613465,0.2882537375,0.6460120249868537
0.02,1.79,1.0,2363.3275717093293,0.2018905581136295,1.3326773935177694,0.8999957089065515,0.288233,0.6470846678642322
0.0205,1.78949375,1.0,2390.499751207922,0.2063673219946889,1.3321840931412487,0.9037452848529517,0.2882117375,0.648130511045683
0.021,1.788975,1.0,2416.1067733522036,0.21081897454448964,1.3317017663908928,0.9072724585067706,0.28818995000000003,0.6491515885623775
0.021500000000000002,1.78844375,1.0,2440.215722124373,0.2152456560753108,1.3312295047659557,0.9105942853173437,0.2881676375,0.6501499208306752
0.022,1.7879,1.0,2462.89726030479,0.2196475068994314,1.3307663997656922,0.913726235467966,0.2881448,0.6511275152616145
0.0225,1.78734375,1.0,2484.218702325939,0.2240246658611414,1.3303116059618643,0.9166823748275984,0.28812143749999997,0.6520862339505553
0.023,1.786775,1.0,2504.2512688985594,0.22837727338028804,1.329864268148354,0.9194755003037487,0.28809755,0.6530279483384913
0.0235,1.78619375,1.0,2523.058283668164,0.2327054680578685,1.3294236307162488,0.9221172903355846,0.28807313749999996,0.6539543097121319
0.024,1.7856,1.0,2540.691049395855,0.23700938511926303,1.328989072508135,0.9246184244864802,0.2880482,0.6548666778387662
0.0245,1.78499375,1.0,2557.202733044401,0.24128915978985194,1.3285599723665995,0.9269886617554344,0.2880227375,0.6557664048420261
0.025,1.784375,1.0,2572.648208587513,0.24554492729501548,1.328135709134228,0.929236932554045,0.28799675,0.6566548354304123
0.025500000000000002,1.78374375,1.0,2587.083908373484,0.24977682286013397,1.3277156616536072,0.9313714203747254,0.2879702375,0.6575333071012068
0.026000000000000002,1.7831000000000001,1.0,2600.5580470418445,0.2539849792195672,1.3272992984999887,0.9333996478863957,0.2879432,0.658402963014717
0.0265,1.78244375,1.0,2613.1254240500853,0.2581695324406564,1.326886038165877,0.9353285203500875,0.2879156375,0.659265044809365
0.027,1.781775,1.0,2624.8365316339505,0.2623306164280306,1.3264753495894035,0.9371643972978249,0.28788755,0.6601206827502448
0.0275,1.7810937500000001,1.0,2635.728251635656,0.2664683607286992,1.3260668366764283,0.9389131551502098,0.2878589375,0.6609707207264905
0.028,1.7804,1.0,2645.8382410915124,0.2705828948896715,1.3256601033328108,0.9405802131305226,0.2878298,0.6618159983968845
0.0285,1.77969375,1.0,2655.2048652889766,0.2746743484579568,1.3252547534644106,0.9421705748305081,0.2878001375,0.6626573512398135
0.029,1.778975,1.0,2663.867134301656,0.2787428509805642,1.3248503909770872,0.9436888654962213,0.28776995,0.6634956105932193
0.029500000000000002,1.7782437500000001,1.0,2671.864643002977,0.2827885320045032,1.3244466197767006,0.9451393655212129,0.2877392375,0.6643316036845441
0.03,1.7775,1.0,2679.229838932303,0.28681151856840725,1.324043114189091,0.9465260490986293,0.287708,0.6651660081206499
0.0305,1.77674375,1.0,2685.9989045416564,0.2908119399860668,1.3236395183165495,0.9478525989185971,0.2876762375,0.6659995605351781
0.031,1.775975,1.0,2692.2125694378524,0.29478992572023444,1.3232354383983158,0.9491224293553047,0.28764395,0.6668330719497724
0.0315,1.7751937500000001,1.0,2697.8958931351285,0.29874559932802386,1.322830627462612,0.9503387302573003,0.2876111375,0.6676670471048987
0.032,1.7744,1.0,2703.07421515899,0.3026790843665489,1.3224248385376607,0.9515044691430187,0.2875778,0.6685019881822813
0.0325,1.77359375,1.0,2707.7731288140903,0.3065905043929232,1.3220178246516838,0.9526224094176132,0.2875439375,0.6693383947914459
0.033,1.772775,1.0,2712.0184563040707,0.31047998296426055,1.3216093388329038,0.9536951268877292,0.28750955,0.6701767639523677
0.0335,1.7719437500000002,1.0,2715.83622520401,0.31434764363767476,1.3211991341095428,0.954725024751414,0.2874746375,0.6710175900742346
0.034,1.7711000000000001,1.0,2719.2526462848414,0.31819360997027946,1.3207869635098233,0.9557143472201746,0.2874392,0.6718613649303167
0.0345,1.7702437500000001,1.0,2722.288914670538,0.32201800118660834,1.3203726271904872,0.9566651959704578,0.2874032375,0.6727084813363046
0.035,1.7693750000000001,1.0,2724.9713013849887,0.3258209436655641,1.319955880339023,0.9575795340460279,0.28736675,0.6735594216724515
0.035500000000000004,1.76849375,1.0,2727.318553834352,0.32960255713683495,1.3195365477049088,0.9584592051187525,0.2873297375,0.6744145238546828
0.036000000000000004,1.7676,1.0,2729.347359934645,0.3333629592953376,1.3191144736478684,0.959305938349161,0.2872922,0.6752740838917217
0.0365,1.76669375,1.0,2731.0744912026403,0.3371022678359884,1.318689502527626,0.9601213553624582,0.2872541375,0.6761383959779792
0.037,1.765775,1.0,2732.5167930041807,0.340820600453704,1.318261478703905,0.960906978145868,0.28721555,0.6770077524655733
0.0375,1.76484375,1.0,2733.691175339669,0.34451807484340086,1.3178302465364293,0.9616642362812134,0.2871764375,0.6778824438347977
0.038,1.7639,1.0,2734.6146041663437,0.3481948086999956,1.317395650384923,0.9623944735754258,0.28713679999999997,0.6787627586630478
0.0385,1.76294375,1.0,2735.302361980087,0.3518509176123714,1.3169575503290722,0.9630989552028747,0.28709663750000003,0.6796489518156685
0.039,1.761975,1.0,2735.7614902649193,0.3554865076940322,1.3165158816301203,0.9637788772885112,0.28705595,0.6805411246042974
0.0395,1.7609937500000001,1.0,2736.022826035456,0.35910171553907305,1.3160703638020534,0.9644353528318571,0.2870147375,0.6814398122641505
0.04,1.76,1.0,2736.0956194780383,0.3626966516831093,1.3156209126081753,0.9650694437286181,0.286973,0.6823451515445873
0.0405,1.7589937500000001,1.0,2735.989141418433,0.36627142666175627,1.3151674438117897,0.9656821517149266,0.2869307375,0.6832572779373163
0.041,1.757975,1.0,2735.7126802030284,0.36982615101062943,1.3147098731762006,0.966274422403517,0.28688795,0.6841763256550375
0.0415,1.75694375,1.0,2735.2755387381053,0.3733609352653442,1.314248116464712,0.9668471490085809,0.2868446375,0.6851024276096328
0.042,1.7559,1.0,2734.6870316859454,0.3768758899615159,1.3137820894406274,0.9674011757862903,0.28680079999999997,0.6860357153899048
0.0425,1.75484375,1.0,2733.95648281875,0.3803711256347599,1.3133117078672507,0.9679373012153885,0.2867564375,0.6869763192388603
0.043000000000000003,1.753775,1.0,2733.093222528941,0.38384675282069164,1.3128368875078857,0.9684562809399444,0.28671155,0.6879243680305436
0.043500000000000004,1.75269375,1.0,2732.106585498028,0.3873028820549265,1.3123575441258364,0.9689588304942717,0.28666613750000003,0.6888799892464164
0.044,1.7516,1.0,2731.005908521651,0.39073962387307987,1.3118735934844066,0.9694456278281683,0.2866202,0.6898433089512854
0.0445,1.75049375,1.0,2729.800528493069,0.3941570888107671,1.3113849513468998,0.9699173156489476,0.2865737375,0.6908144517687782
0.045,1.7493750000000001,1.0,2728.49833049938,0.39755538275819197,1.3108915466593851,0.9703745039351196,0.28652675,0.6917935147185439
0.0455,1.74824375,1.0,2727.1044884254707,0.40093460950178417,1.3103933330044666,0.9708177731822388,0.2864792375,0.6927805447269717
0.046,1.7471,1.0,2725.6289697133484,0.4042948907383997,1.309890220358637,0.9712476738583814,0.2864312,0.6937756738714141
0.0465,1.7459437500000001,1.0,2724.076570392893,0.4076363292903231,1.3093821656904023,0.9716647298029746,0.28638263750000004,0.6947789399002438
0.047,1.744775,1.0,2722.4520845309457,0.4109590279798391,1.3088691259682699,0.9720694389891459,0.28633355,0.6957903795395314
0.0475,1.74359375,1.0,2720.760303581585,0.41426308962923203,1.3083510581607456,0.9724622750410374,0.28628393750000003,0.6968100284794276
0.048,1.7424,1.0,2719.0060157760054,0.41754861706078666,1.3078279192363365,0.9728436886483871,0.2862338,0.6978379213604193
0.0485,1.74119375,1.0,2717.1940055550676,0.42081571309678756,1.307299666163549,0.9732141088862319,0.2861831375,0.698874091759475
0.049,1.739975,1.0,2715.329053041653,0.4240644805595193,1.3067662559108895,0.9735739444469105,0.28613195,0.6999185721760672
0.0495,1.73874375,1.0,2713.415933554663,0.4272950222712664,1.3062276454468644,0.9739235847909445,0.2860802375,0.7009713940180788
0.05,1.7375,1.0,2711.459417164208,0.43050744105431354,1.3056837917399806,0.9742634012228305,0.286028,0.7020325875875899
0.0505,1.73624375,1.0,2709.4642682873246,0.4337018397309452,1.3051346517587448,0.9745937478972704,0.2859752375,0.7031021820665484
0.051000000000000004,1.734975,1.0,2707.4352453253387,0.43687832112344616,1.304580182471663,0.9749149627609274,0.28592195,0.704180205502323
0.051500000000000004,1.73369375,1.0,2705.373104908123,0.44003697277125936,1.30402037732579,0.9752273691200332,0.2858681375,0.7052666140646822
0.052000000000000005,1.7324,1.0,2703.2800262065375,0.4431778970831884,1.3034552167711655,0.9755312765638202,0.2858138,0.7063613884386638
0.0525,1.73109375,1.0,2701.1649048374397,0.44630121938579154,1.3028846198635256,0.9758269794264195,0.28575893750000003,0.7074646270731111
0.053,1.729775,1.0,2699.029473349062,0.44940703400262444,1.3023085710113202,0.9761147598537603,0.28570355000000003,0.7085763006795075
0.0535,1.72844375,1.0,2696.8754618534167,0.4524954352572427,1.301727054623,0.9763948876693949,0.2856476375,0.7096963791726059
0.054,1.7271,1.0,2694.7045979621635,0.4555665174732018,1.301140055107015,0.9766676210149753,0.2855912,0.7108248316650001
0.0545,1.7257437500000001,1.0,2692.518606727771,0.4586203749740575,1.3005475568718152,0.976933206952204,0.2855342375,0.7119616264616805
0.055,1.724375,1.0,2690.319210590168,0.46165710208336536,1.2999495443258513,0.9771918820288795,0.28547675,0.7131067310545733
0.0555,1.72299375,1.0,2688.10812932904,0.4646767931246809,1.2993460018775733,0.977443872811459,0.2854187375,0.714260112117066
0.056,1.7216,1.0,2685.8870800210657,0.46767954242155985,1.2987369139354317,0.977689396386379,0.2853602,0.7154217354985156
0.0565,1.72019375,1.0,2683.65777700296,0.4706654442975577,1.2981222649078763,0.9779286608322095,0.28530113749999997,0.7165915662187436
0.057,1.718775,1.0,2681.4219318396217,0.47363459307623007,1.2975020392033578,0.9781618656645623,0.28524155,0.7177695684625119
0.0575,1.71734375,1.0,2679.181253297697,0.4765870830811326,1.2968762212303262,0.9783892022555287,0.2851814375,0.7189557055739872
0.058,1.7159,1.0,2676.9374473245985,0.4795230086358209,1.2962447953972318,0.9786108542293056,0.2851208,0.720149940051187
0.0585,1.71444375,1.0,2674.6922170331477,0.48244246406385055,1.295607746112525,0.9788269978355327,0.2850596375,0.7213522335404111
0.059000000000000004,1.7129750000000001,1.0,2672.447262691111,0.48534554368877714,1.2949650577846559,0.9790378023017697,0.28499795,0.7225625468306589
0.059500000000000004,1.71149375,1.0,2670.2042817165543,0.4882323418341563,1.2943167148220747,0.9792434301664285,0.2849357375,0.723780839848028
0.06,1.71,1.0,2667.9646851710536,0.4911029517630377,1.2936627042397535,0.9794440376480941,0.284873,0.7250070667684791
0.0605,1.7084937500000001,1.0,2665.729189791898,0.4939574616037636,1.2930030194170719,0.9796397748174152,0.2848097375,0.7262411690448949
0.061,1.7069750000000001,1.0,2663.4985700206776,0.49679596078391985,1.2923376531913766,0.9798307860360407,0.28474595,0.7274830884137704
0.0615,1.7054437500000001,1.0,2661.2731440623447,0.49961853816844765,1.2916666025879264,0.9800172103198708,0.2846816375,0.728732758082961
0.062,1.7039,1.0,2659.053229591469,0.5024252826222879,1.29098986463198,0.9801991814083209,0.2846168,0.7299901105913966
0.0625,1.70234375,1.0,2656.8391437543696,0.5052162830103816,1.2903074363487959,0.9803768280027333,0.2845514375,0.7312550778080034
0.063,1.7007750000000001,1.0,2654.631953153188,0.5079916281652292,1.28961930785113,0.9805502736339458,0.28448555,0.7325276036984452
0.0635,1.69919375,1.0,2652.4345436771905,0.5107514061126914,1.288925452460311,0.9807196363293789,0.28441913750000003,0.7338076623743767
0.064,1.6976,1.0,2650.241973192162,0.5134957039415085,1.2882259156636335,0.9808850333511627,0.2843522,0.7350950941959822
0.0645,1.69599375,1.0,2648.058495345256,0.5162246083256198,1.2875206581619922,0.9810465733954798,0.2842847375,0.7363898951852513
0.065,1.694375,1.0,2645.889565750278,0.518938205715489,1.2868096294950166,0.9812043606318617,0.28421675,0.7376920804493983
0.0655,1.69274375,1.0,2643.729227818337,0.521636582089399,1.286092884522126,0.9813585006437439,0.2841482375,0.7390014713833211
0.066,1.6911,1.0,2641.5792616606345,0.5243198225966916,1.2853704067084901,0.9815090916891703,0.2840792,0.7403180196907875
0.0665,1.6894437500000001,1.0,2639.438332331384,0.5269880122115667,1.2846422082864786,0.9816562299240378,0.2840096375,0.7416416239215464
0.067,1.6877801759128868,1.0,2637.5541012105114,0.5296412355396546,1.2839083365694886,0.9818000097919217,0.28393976738834126,0.7429721187064605
0.0675,1.6861165512292413,1.0,2636.241799668215,0.5322795762933724,1.28316915816246,0.9819405377363558,0.28386989515162814,0.7443087623264149
0.068,1.6844529265455959,1.0,2635.459672721342,0.5349031178243113,1.282425078217583,0.982077918438153,0.283800022914915,0.7456507499802045
0.0685,1.6827893018619504,1.0,2635.1613159468316,0.5375119436754588,1.2816765238335444,0.9822122541580454,0.2837301506782019,0.7469972446462076
0.069,1.6811256771783047,1.0,2635.30778790361,0.540106136225763,1.2809238544823485,0.9823436405468191,0.2836602784414888,0.7483475382103963
0.0695,1.6794620524946593,1.0,2635.8644954843726,0.5426857771792446,1.2801673904805124,0.9824721682635328,0.2835904062047757,0.7497009990795283
0.07,1.6777984278110138,1.0,2636.7969323467796,0.5452509482399247,1.2794074521445533,0.9825979250326895,0.2835205339680626,0.7510570015500292
0.07050000000000001,1.6761348031273684,1.0,2638.082021409606,0.5478017280397337,1.2786442546820844,0.9827209907253409,0.2834506617313495,0.752415112667939
0.07100000000000001,1.674471178443723,1.0,2639.6720871538473,0.5503382025911332,1.2778782411363439,0.982841453554147,0.28338078949463635,0.7537744996905993
0.07150000000000001,1.6728075537600775,1.0,2641.5445560352323,0.552860451268369,1.2771096226238874,0.9829593880194941,0.28331091725792323,0.7551347482437715
0.07200000000000001,1.671143929076432,1.0,2643.6802116218014,0.5553685525257934,1.27633857939612,0.9830748648238914,0.28324104502121017,0.7564955023511937
0.0725,1.6694803043927866,1.0,2646.0598470588175,0.5578625848177586,1.2755652917044473,0.983187952456427,0.28317117278449705,0.7578564094637846
0.073,1.6678166797091412,1.0,2648.664255739161,0.5603426265986169,1.2747899398002747,0.9832987172811943,0.28310130054778393,0.7592171204864842
0.0735,1.6661530550254957,1.0,2651.4742226934063,0.5628087563227204,1.2740127039350075,0.9834072236216787,0.2830314283110708,0.7605772898030163
0.074,1.6644894303418503,1.0,2654.4705167005236,0.5652610524444214,1.2732337643600509,0.9835135338413085,0.2829615560743577,0.7619365752985848
0.0745,1.6628258056582048,1.0,2657.633883118947,0.5676995934180721,1.2724533013268104,0.9836177084203678,0.2828916838376446,0.7632946383804918
