Time [s],Phi [rad],STIM [ ],Fsee [N],Gamma [ ],Lcerel [ ],q [ ],Lmtc [m],fisomrel [ ]
0.0,1.8,1.0,19.270261900115173,0.0011661158654288572,1.3791963102468099,0.005348810649646423,0.288653,0.5414864741556286
0.0005,1.79999375,1.0,19.913531223714898,0.0067687841864011375,1.3791244705812709,0.016458900797509456,0.2886527375,0.5416601907094103
0.001,1.799975,1.0,24.11795023633141,0.012340025968155477,1.3786899893113247,0.04188426995436083,0.28865195,0.5427101147812143
0.0015,1.79994375,1.0,35.5517555102702,0.017880017488427095,1.3776771707327728,0.07902595849510048,0.2886506375,0.5451529167961988
0.002,1.7999,1.0,61.92347978665156,0.023388934036840392,1.3758465685229162,0.12458820251762644,0.2886488,0.5495515208212656
0.0025,1.79984375,1.0,110.03832520625208,0.028866949919169875,1.373332044562267,0.1752450856264881,0.28864643749999996,0.5555586240527981
0.003,1.7997750000000001,1.0,177.08673614688803,0.0343142384638056,1.3706250461083682,0.22824389724854557,0.28864354999999997,0.5619804693787307
0.0035,1.79969375,1.0,255.53708339282824,0.03973097202765131,1.3680447482135243,0.2814858770065372,0.2886401375,0.5680582376034551
0.004,1.7996,1.0,340.25102267205835,0.0451173219985626,1.3656656323679686,0.33342145430883247,0.2886362,0.5736245067121609
0.0045000000000000005,1.7994937500000001,1.0,428.575067861715,0.05047345879314693,1.363474820512105,0.38299165702690385,0.2886317375,0.578718287161011
0.005,1.799375,1.0,519.0092402632765,0.05579955192560111,1.361445941057722,0.4295526575075794,0.28862675,0.5834082643268423
0.0055,1.79924375,1.0,610.4781180140703,0.06109576984582154,1.3595573373499572,0.4727820370343357,0.2886212375,0.5877503863450544
0.006,1.7991000000000001,1.0,702.1599708046132,0.06636228022253254,1.357791910406285,0.5125867045467573,0.2886152,0.5917887399484086
0.006500000000000001,1.79894375,1.0,793.3437690549805,0.07159924955647998,1.356137078801182,0.549027732698231,0.2886086375,0.5955560621905636
0.007,1.798775,1.0,883.4779421122474,0.07680684375746306,1.354582082764372,0.5822613638702977,0.28860155,0.5990801868063778
0.0075,1.79859375,1.0,972.0751144855387,0.08198522737627453,1.3531185417358027,0.6124980330900583,0.2885939375,0.6023829575331001
0.008,1.7984,1.0,1058.7684011153049,0.08713456434858066,1.3517387855864258,0.639972864259568,0.2885858,0.6054841413079923
0.0085,1.79819375,1.0,1143.257275204714,0.09225501773924831,1.3504362384539221,0.6649271850415992,0.2885771375,0.6084006466143681
0.009000000000000001,1.797975,1.0,1225.3039139022978,0.09734674928803809,1.3492050841826153,0.6875965878058812,0.28856795,0.6111473507047595
0.0095,1.79774375,1.0,1304.746397243548,0.10240991993171794,1.3480398227077404,0.7082038236818164,0.2885582375,0.6137381435253975
0.01,1.7975,1.0,1381.4859989052286,0.10744469102283927,1.3469352657499996,0.7269552419558101,0.288548,0.6161859737850038
0.0105,1.79724375,1.0,1455.415866412242,0.11245122079161096,1.3458872799997275,0.7440397066991126,0.2885372375,0.6185012421377236
0.011,1.796975,1.0,1526.4898305965007,0.11742966745102801,1.3448917371963405,0.7596279324674345,0.28852595000000003,0.6206941633089618
0.0115,1.79669375,1.0,1594.7037913140668,0.12238018873432566,1.343944669389057,0.7738732767655926,0.2885141375,0.6227744400473604
0.012,1.7964,1.0,1660.0834859060042,0.12730294215398316,1.3430423357817167,0.7869129166940054,0.28850180000000003,0.6247511347621937
0.0125,1.79609375,1.0,1722.6449110689061,0.1321980830012827,1.342181602252626,0.7988693505916747,0.2884889375,0.6266318593106684
0.013000000000000001,1.7957750000000001,1.0,1782.4152472969672,0.13706576555476255,1.341359609376275,0.8098516468966817,0.28847555,0.6284235238726945
0.0135,1.79544375,1.0,1839.4522497192672,0.14190614406340912,1.340573501102464,0.8199567258303906,0.2884616375,0.6301329411569196
0.014,1.7951000000000001,1.0,1893.82858783351,0.14671937169678695,1.339820565684031,0.829270738660066,0.2884472,0.6317665278641109
0.0145,1.79474375,1.0,1945.623346782667,0.1515056018440126,1.339098290161371,0.8378703046838605,0.2884322375,0.6333301964592941
0.015,1.794375,1.0,1994.8958794041127,0.15626498481544931,1.3384046020603988,0.8458236857274379,0.28841675,0.6348288434449718
0.0155,1.79399375,1.0,2041.7233463895195,0.1609976709214604,1.3377374289070285,0.8531916170490315,0.2884007375,0.6362673122298146
0.016,1.7936,1.0,2086.1914529172163,0.16570380978833577,1.3370947786794958,0.860028221686907,0.2883842,0.6376502238106562
0.0165,1.7931937500000001,1.0,2128.393827881328,0.17038355126079524,1.3364747274677637,0.8663817904418447,0.2883671375,0.6389820082126726
0.017,1.792775,1.0,2168.4236168261664,0.17503704453144261,1.33587548890985,0.8722954906497913,0.28834955,0.6402667600432691
0.0175,1.7923437500000001,1.0,2206.3470400178007,0.17966443531280785,1.3352956638088456,0.877808035480749,0.2883314375,0.6415077099202348
0.018000000000000002,1.7919,1.0,2242.2394324808697,0.18426586931742084,1.3347338529678408,0.8829541000085224,0.2883128,0.6427080601954847
0.0185,1.79144375,1.0,2276.1844883255776,0.18884149225781152,1.3341886571899262,0.887764792094187,0.2882936375,0.643870986624981
0.019,1.790975,1.0,2308.268791630461,0.19339144922730278,1.3336587242961182,0.892268076025643,0.28827395,0.64499953986316
0.0195,1.79049375,1.0,2338.5773885325616,0.19791588480710767,1.3331427845101678,0.8964891405659857,0.2882537375,0.6460965724770789
0.02,1.79,1.0,2367.1953115596402,0.20241494342966676,1.332639627160827,0.9004507071936138,0.288233,0.647164790951231
0.0205,1.78949375,1.0,2394.1851138186826,0.2068887658983701,1.3321483118537032,0.9041733508795038,0.2882117375,0.6482063103722422
0.021,1.788975,1.0,2419.6136481280446,0.21133749301660784,1.3316678981944037,0.9076756784227303,0.28818995000000003,0.6492232312095239
0.021500000000000002,1.78844375,1.0,2443.5517122132933,0.21576126558777006,1.3311974457885354,0.910974543742557,0.2881676375,0.6502176399972901
0.022,1.7879,1.0,2466.071423651745,0.22016022403803417,1.330736036139137,0.9140852414607707,0.2881448,0.6511915637722305
0.0225,1.78734375,1.0,2487.236204411583,0.2245345070428802,1.3302828645417666,0.9170216904308396,0.28812143749999997,0.6521467773918529
0.023,1.786775,1.0,2507.1293871440025,0.22888425623074213,1.329836963767672,0.9197965270724705,0.28809755,0.6530853869021795
0.0235,1.78619375,1.0,2525.801231570874,0.23320960730201143,1.3293977054450783,0.9224213286106653,0.28807313749999996,0.6540087743862164
0.024,1.7856,1.0,2543.304021835474,0.23751069595707944,1.328964461202211,0.9249066608522819,0.2880482,0.6549183139857752
0.0245,1.78499375,1.0,2559.6918996889203,0.24178765789633763,1.3285366026672951,0.9272621804607422,0.2880227375,0.6558153721550761
0.025,1.784375,1.0,2575.0207064316796,0.24604062882017735,1.328113501468556,0.9294967256494244,0.28799675,0.6567013078891708
0.025500000000000002,1.78374375,1.0,2589.342914806261,0.25026974334829427,1.3276945751383544,0.9316184038737196,0.2879702375,0.6575773769926447
0.026000000000000002,1.7831000000000001,1.0,2602.7100427029263,0.2544751358595261,1.327279262746709,0.9336346589710095,0.2879432,0.6584447837243963
0.0265,1.78244375,1.0,2615.182223901457,0.2586569420265443,1.3268669346260038,0.9355523209744429,0.2879156375,0.6593048694139023
0.027,1.781775,1.0,2626.7973751289974,0.26281529218394134,1.3264571777833312,0.9373777056252334,0.28788755,0.6601585174545361
0.0275,1.7810937500000001,1.0,2637.5942721951724,0.2669503166663095,1.3260495792257834,0.9391166310119154,0.2878589375,0.6610066067815358
0.028,1.7804,1.0,2647.612476647765,0.2710621458082409,1.3256437259604525,0.9407744633528717,0.2878298,0.6618500119342912
0.0285,1.77969375,1.0,2656.8922662101013,0.27515090994432795,1.3252392049944308,0.9423561580133045,0.2878001375,0.6626896031077507
0.029,1.778975,1.0,2665.4745689998194,0.279216739409163,1.3248356033348103,0.9438662963045087,0.28776995,0.6635262461929521
0.029500000000000002,1.7782437500000001,1.0,2673.3964314139967,0.28325976132651337,1.3244325490444553,0.9453091229779446,0.2877392375,0.6643607178587918
0.03,1.7775,1.0,2680.69780288255,0.2872801077615764,1.3240296481984897,0.9466885699841453,0.287708,0.6651938363787087
0.0305,1.77674375,1.0,2687.4081976279354,0.291277904469328,1.3236266067532567,0.9480082953821442,0.2876762375,0.6660262098258065
0.031,1.775975,1.0,2693.556520758268,0.29525327647998934,1.3232231396177523,0.9492716967047309,0.28764395,0.66685842479478
0.0315,1.7751937500000001,1.0,2699.172007685414,0.29920634882378183,1.3228189617009727,0.9504819319257014,0.2876111375,0.6676910649435777
0.032,1.7744,1.0,2704.284192034257,0.3031372465309266,1.3224137879119144,0.9516419393071298,0.2875778,0.668524710983071
0.0325,1.77359375,1.0,2708.9228753544303,0.30704609463164506,1.3220073331595734,0.9527544553724537,0.2875439375,0.6693599406615418
0.033,1.772775,1.0,2713.1073089516713,0.31093301055471134,1.3215994107228133,0.9538220405109613,0.28750955,0.6701971269857757
0.0335,1.7719437500000002,1.0,2716.8699675272183,0.3147981241554068,1.3211897150711742,0.9548470736362774,0.2874746375,0.6710368843510776
0.034,1.7711000000000001,1.0,2720.243779777996,0.3186415654950438,1.3207779383441642,0.9558317763040883,0.2874392,0.6718798286724094
0.0345,1.7702437500000001,1.0,2723.245894998941,0.3224634526948478,1.320363917853019,0.9567782380000535,0.2874032375,0.6727262759498216
0.035,1.7693750000000001,1.0,2725.8935813792623,0.3262639038760442,1.319947490908974,0.9576884135750322,0.28736675,0.6735765403732528
0.035500000000000004,1.76849375,1.0,2728.204214027157,0.33004303715985844,1.3195284948232642,0.9585641334761332,0.2873297375,0.6744309342984032
0.036000000000000004,1.7676,1.0,2730.1952635805314,0.3338009706675159,1.3191067669071257,0.9594071130880407,0.2872922,0.6752897682209227
0.0365,1.76669375,1.0,2731.8842854056315,0.33753782252024206,1.3186821444717933,0.9602189612711686,0.2872541375,0.6761533507489128
0.037,1.765775,1.0,2733.2889093814206,0.34125371083926237,1.318254464828503,0.9610011881739324,0.28721555,0.6770219885737344
0.0375,1.76484375,1.0,2734.4268302716,0.3449487537458022,1.3178235652884902,0.9617552123882466,0.2871764375,0.6778959864391352
0.038,1.7639,1.0,2735.3157986829024,0.348623069361087,1.31738928316299,0.9624823675101128,0.28713679999999997,0.678775647108684
0.0385,1.76294375,1.0,2735.973612610675,0.3522767758063422,1.3169514557632382,0.9631839081607422,0.28709663750000003,0.679661271331518
0.039,1.761975,1.0,2736.4111143302207,0.35590998386274425,1.3165099839041767,0.9638610199543717,0.28705595,0.6805530296204649
0.0395,1.7609937500000001,1.0,2736.6444342566565,0.3595228142668055,1.3160647206779104,0.9645148174563574,0.2870147375,0.6814511873175846
0.04,1.76,1.0,2736.6898294216458,0.3631153860380575,1.3156155182711053,0.9651463510189121,0.286973,0.6823560096507066
0.0405,1.7589937500000001,1.0,2736.556670942444,0.36668780980142146,1.3151622915712218,0.9657566155404543,0.2869307375,0.6832676338379343
0.041,1.757975,1.0,2736.254347126436,0.3702401961818184,1.3147049554657204,0.9663465502509773,0.28688795,0.6841861958077773
0.0415,1.75694375,1.0,2735.7922604928135,0.3737726558041696,1.314243424842061,0.9669170424020628,0.2868446375,0.6851118301770791
0.042,1.7559,1.0,2735.179824954697,0.37728529929339605,1.3137776145877043,0.9674689306755633,0.28680079999999997,0.6860446702284761
0.0425,1.75484375,1.0,2734.4264631622696,0.38077823727441895,1.3133074395901103,0.9680030083350614,0.2867564375,0.6869848478874023
0.043000000000000003,1.753775,1.0,2733.5416040055707,0.38425158037215956,1.3128328147367396,0.9685200261419507,0.28671155,0.6879324936986249
0.043500000000000004,1.75269375,1.0,2732.5346802794447,0.3877054392115388,1.3123536549150527,0.9690206950559084,0.28666613750000003,0.6888877368023218
0.044,1.7516,1.0,2731.4151265073674,0.391139924417478,1.3118698750125095,0.9695056887377113,0.2866202,0.6898507049096994
0.0445,1.75049375,1.0,2730.19171635384,0.394555144978254,1.3113813959201739,0.969975646095403,0.2865737375,0.6908215123558799
0.045,1.7493750000000001,1.0,2728.8664444957667,0.39795119453912986,1.310888200141003,0.9704311757131926,0.28652675,0.6918001499141827
0.0455,1.74824375,1.0,2727.456423507428,0.4013282069377816,1.3103901327461203,0.970872850574521,0.2864792375,0.692786879763539
0.046,1.7471,1.0,2725.9662487649794,0.40468628504539267,1.3098871525381512,0.9713012189017629,0.2864312,0.6937817368998616
0.0465,1.7459437500000001,1.0,2724.4005143979743,0.4080255317331465,1.3093792183197213,0.9717168016076999,0.28638263750000004,0.6947847553312445
0.047,1.744775,1.0,2722.7638126393435,0.4113460498722264,1.3088662888934555,0.9721200939114608,0.28633355,0.6957959680650017
0.0475,1.74359375,1.0,2721.0607332131062,0.41464794233381586,1.3083483230619797,0.9725115668441381,0.28628393750000003,0.6968154070945951
0.048,1.7424,1.0,2719.295862759085,0.4179313119890983,1.307825279627919,0.9728916686525757,0.2862338,0.6978431033864587
0.0485,1.74119375,1.0,2717.473784296302,0.42119626170925706,1.307297117393899,0.9732608261090971,0.2861831375,0.6988790868667101
0.049,1.739975,1.0,2715.599076722657,0.42444289436547566,1.306763795162545,0.973619445734286,0.28613195,0.6999233864077554
0.0495,1.73874375,1.0,2713.6763143535227,0.4276713128289374,1.3062252717364824,0.9739679149393348,0.2860802375,0.700976029814788
0.05,1.7375,1.0,2711.710066497205,0.43088161997082575,1.3056815059183366,0.974306603093935,0.286028,0.7020370438121746
0.0505,1.73624375,1.0,2709.704897068107,0.4340739186623241,1.3051324565107332,0.9746358625251889,0.2859752375,0.703106454029737
0.051000000000000004,1.734975,1.0,2707.6653642379792,0.43724831177461587,1.3045780823162973,0.9749560294525756,0.28592195,0.7041842849889248
0.051500000000000004,1.73369375,1.0,2705.5953121587613,0.44040489667284227,1.3040183486011576,0.9752674246798853,0.2858681375,0.7052705475568399
0.052000000000000005,1.7324,1.0,2703.4962327779267,0.4435437586164982,1.303453242066889,0.9755703546968476,0.2858138,0.706365210073642
0.0525,1.73109375,1.0,2701.3745729262787,0.4466650289053844,1.3028827041271833,0.9758651143902504,0.28575893750000003,0.7074683276167255
0.053,1.729775,1.0,2699.232156991738,0.44976880200334396,1.3023067183581993,0.9761519843814987,0.28570355000000003,0.7085798725621695
0.0535,1.72844375,1.0,2697.07080678443,0.45285517237422,1.301725268336096,0.9764312330483312,0.2856476375,0.709699816478032
0.054,1.7271,1.0,2694.8923414679452,0.4559242344818556,1.301138337637032,0.9767031171605614,0.2855912,0.7108281301186381
0.0545,1.7257437500000001,1.0,2692.6985774963296,0.4589760827900938,1.3005459098371657,0.9769678824776177,0.2855342375,0.7119647834188466
0.055,1.724375,1.0,2690.4913285569114,0.4620108117627776,1.299947968512656,0.9772257643104735,0.28547675,0.7131097454882995
0.0555,1.72299375,1.0,2688.2724055200338,0.4650285158637502,1.2993444972396615,0.9774769880503678,0.2854187375,0.7142629846056578
0.056,1.7216,1.0,2686.0436163933905,0.46802928955685463,1.2987354795943407,0.9777217696665413,0.2853602,0.7154244682128166
0.0565,1.72019375,1.0,2683.806766283456,0.471013227305934,1.2981208991528526,0.9779603161750385,0.28530113749999997,0.716594162909103
0.057,1.718775,1.0,2681.563657362696,0.47398042357483133,1.2975007394913556,0.9781928260804819,0.28524155,0.717772034445461
0.0575,1.71734375,1.0,2679.31608884198,0.4769309728273897,1.2968749841860083,0.9784194897925812,0.2851814375,0.7189580477186139
0.058,1.7159,1.0,2677.065856950015,0.4798649695274523,1.2962436168129698,0.9786404900190161,0.2851208,0.7201521667652114
0.0585,1.71444375,1.0,2674.814754918175,0.4827825081388621,1.2956066209483983,0.978856002136205,0.2850596375,0.721354354755963
0.059000000000000004,1.7129750000000001,1.0,2672.5645729714065,0.4856836831254622,1.294963980168453,0.9790661945393766,0.28499795,0.7225645739897466
0.059500000000000004,1.71149375,1.0,2670.3174639464614,0.4885685887900645,1.2943156746893072,0.9792712287763448,0.2849357375,0.7237827921944449
0.06,1.71,1.0,2668.0762333463817,0.4914373145701149,1.2936616786934563,0.9794712593411524,0.284873,0.7250089874583586
0.0605,1.7084937500000001,1.0,2665.838813939488,0.49428994934596465,1.2930020111371272,0.9796664370855914,0.2848097375,0.7262430531556084
0.061,1.7069750000000001,1.0,2663.605290865794,0.4971265829057484,1.2923366712036732,0.979856906076616,0.28474595,0.7274849192268987
0.0615,1.7054437500000001,1.0,2661.3757491212677,0.4999473050376008,1.2916656580764472,0.980042804875066,0.2846816375,0.7287345149835236
0.062,1.7039,1.0,2659.1522519877813,0.5027522050833022,1.290988952719307,0.9802242657993911,0.2846168,0.7299918029187529
0.0625,1.70234375,1.0,2656.9335912060687,0.5055413722530722,1.2903065662047908,0.9804014177349176,0.2845514375,0.7312566888341309
0.063,1.7007750000000001,1.0,2654.7220607890135,0.508314894301014,1.2896184773444517,0.9805743829871486,0.28448555,0.7325291376934993
0.0635,1.69919375,1.0,2652.520420062838,0.5110728588686364,1.2889246606242377,0.9807432790945386,0.28441913750000003,0.7338091214386768
0.064,1.6976,1.0,2650.327336932125,0.5138153533244251,1.2882251282289292,0.9809082211524986,0.2843522,0.7350965416371726
0.0645,1.69599375,1.0,2648.14544829453,0.5165424649099056,1.287519855737192,0.9810693182088276,0.2842847375,0.7363913665716335
0.065,1.694375,1.0,2645.974878020934,0.5192542795869514,1.2868088418880994,0.9812266764141759,0.28421675,0.7376935210931352
0.0655,1.69274375,1.0,2643.81152303313,0.5219508829017661,1.2860921244582446,0.9813803999998615,0.2841482375,0.7390028581727305
0.066,1.6911037807220237,1.0,2641.837201962691,0.5246323601071846,1.285369730911215,0.9815305889577758,0.284079358790325,0.7403192496162649
0.0665,1.6894635027614493,1.0,2640.4308501833934,0.5272987964996462,1.2846419555139266,0.9816773527420922,0.2840104671159809,0.7416420827844639
0.067,1.6878232248008749,1.0,2639.5554843535674,0.5299502769587565,1.2839092753258858,0.9818208058560909,0.28394157544163673,0.7429704189538595
0.0675,1.6861829468403005,1.0,2639.172409068464,0.5325868846078696,1.2831720456009523,0.9819610529880706,0.28387268376729263,0.744303547800294
0.068,1.684542668879726,1.0,2639.243085199554,0.5352087025703393,1.2824306215929855,0.9820981953165921,0.2838037920929485,0.7456407652633923
0.0685,1.6829023909191516,1.0,2639.7290954597283,0.5378158139695193,1.2816853585558452,0.982232330662555,0.2837349004186044,0.7469813736456152
0.069,1.6812621129585772,1.0,2640.6016676964105,0.5404082994917911,1.2809365234427468,0.9823635493246186,0.28366600874426023,0.748324839910405
0.0695,1.6796218349980028,1.0,2641.8160004705915,0.5429862446841354,1.2801845319533203,0.9824919459007162,0.2835971170699161,0.7496703700704683
0.07,1.6779815570374284,1.0,2643.341491511537,0.5455497317543057,1.2794296689226654,0.9826176056758488,0.283528225395572,0.7510174111153367
0.07050000000000001,1.676341279076854,1.0,2645.1573651809126,0.5480988403500873,1.278672128665447,0.9827406068680989,0.2834593337212279,0.7523655762278971
0.07100000000000001,1.6747010011162795,1.0,2647.242867006444,0.5506336501192651,1.2779121054963298,0.9828610251882253,0.28339044204688374,0.7537144822021583
0.07150000000000001,1.673060723155705,1.0,2649.5772525666002,0.5531542407096246,1.277149793729978,0.9829789339418163,0.2833215503725396,0.7550637494752253
0.07200000000000001,1.6714204451951307,1.0,2652.139777211902,0.5556606917689507,1.2763853876810567,0.9830944041266785,0.2832526586981955,0.7564130021568622
0.0725,1.6697801672345562,1.0,2654.9096866236573,0.5581530829450285,1.2756190816642303,0.983207504525708,0.28318376702385134,0.7577618680566529
0.073,1.6681398892739818,1.0,2657.866208210009,0.5606314938856434,1.2748510699941635,0.9833183017954833,0.28311487534950724,0.7591099787087482
0.0735,1.6664996113134074,1.0,2660.9962682623136,0.5630960006347568,1.2740814758707604,0.9834268571822585,0.2830459836751631,0.7604570937005924
0.074,1.664859333352833,1.0,2664.277735054956,0.5655466856283529,1.2733105057012573,0.9835332340948986,0.282977092000819,0.7618028299531985
0.0745,1.6632190553922586,1.0,2667.69701720956,0.5679836266156285,1.2725382869902,0.9836374903056605,0.28290820032647485,0.763146945549896
