Time [s],Phi [rad],STIM [ ],Fsee [N],Gamma [ ],Lcerel [ ],q [ ],Lmtc [m],fisomrel [ ]
0.0,1.8,1.0,18.131218475390224,0.0004118060249083356,1.3793214077461688,0.005043886425939276,0.288653,0.5411838954893646
0.0005,1.79999375,1.0,18.56825200428616,0.006018705427617904,1.379270135037077,0.014093569320350875,0.2886527375,0.5413079230515221
0.001,1.799975,1.0,22.20805881669807,0.011594154557740946,1.378878480450348,0.03773306847943596,0.28865195,0.5422547737615921
0.0015,1.79994375,1.0,32.31069224560824,0.017138329827383714,1.3779414718845828,0.07348972027398702,0.2886506375,0.5445160836406732
0.002,1.7999,1.0,56.11925379678691,0.02265140665700103,1.3762054561046189,0.11812521521575026,0.2886488,0.5486908635112109
0.0025,1.79984375,1.0,101.26642984133588,0.028133559484840878,1.3737373988749397,0.16827341149594605,0.28864643749999996,0.5545929741141398
0.003,1.7997750000000001,1.0,166.28346477155705,0.033584961769956706,1.371016634778581,0.22109067520930042,0.28864354999999997,0.561054390043294
0.0035,1.79969375,1.0,243.6554515598641,0.03900578599941412,1.3684019183889244,0.2743989182357656,0.2886401375,0.5672194723448988
0.004,1.7996,1.0,327.7968208812608,0.04439620369054133,1.3659892508829325,0.3265790717183397,0.2886362,0.5728694778002228
0.0045000000000000005,1.7994937500000001,1.0,415.80787630472224,0.0497563854006252,1.3637699009615638,0.37651006204871823,0.2886317375,0.5780339896505551
0.005,1.799375,1.0,506.0714124787512,0.055086500707909894,1.3617173307644321,0.42349790838894574,0.28862675,0.5827824382163724
0.0055,1.79924375,1.0,597.5064130301153,0.060386718338962364,1.3598079915651944,0.4671821958590457,0.2886212375,0.5871754120083579
0.006,1.7991000000000001,1.0,689.2294433399485,0.06565720589149912,1.3580247189735457,0.5074442953825801,0.2886152,0.5912573361094184
0.006500000000000001,1.79894375,1.0,780.5485686153926,0.07089813018897675,1.3563536823395916,0.544327965235111,0.2886086375,0.5950639447800172
0.007,1.798775,1.0,870.8728881381353,0.07610965705917153,1.3547841945619792,0.5779796386422513,0.28860155,0.5986230079368868
0.0075,1.79859375,1.0,959.7090631797848,0.08129195125168752,1.3533074958455114,0.6086043584123556,0.2885939375,0.6019573130719833
0.008,1.7984,1.0,1046.6940709749365,0.08644517714575042,1.3519155087409447,0.6364350227016113,0.2885858,0.6050876106747516
0.0085,1.79819375,1.0,1131.5000493304233,0.09156949736402795,1.3506017930156187,0.6617131076235578,0.2885771375,0.608030557188244
0.009000000000000001,1.797975,1.0,1213.888479971378,0.09666507400907112,1.349360313218882,0.6846753876471953,0.28856795,0.6108015674349637
0.0095,1.79774375,1.0,1293.6999977381322,0.10173206881843383,1.348185357631246,0.7055465090593023,0.2885582375,0.6134150405969432
0.01,1.7975,1.0,1370.7985498176615,0.10677064176952743,1.3470720797647668,0.7245353399520722,0.288548,0.6158831997696408
0.0105,1.79724375,1.0,1445.095670478928,0.11178095209735353,1.3460159726388663,0.7418329880806479,0.2885372375,0.6182173044603934
0.011,1.796975,1.0,1516.5514522254796,0.11676315838259198,1.345012731398434,0.7576124867004144,0.28852595000000003,0.620427982056735
0.0115,1.79669375,1.0,1585.1622375901993,0.12171741904355136,1.3440583058116253,0.7720294411202784,0.2885141375,0.6225251345728129
0.012,1.7964,1.0,1650.9134740194793,0.12664388999494877,1.343149362768837,0.7852233190961316,0.28850180000000003,0.6245169478040216
0.0125,1.79609375,1.0,1713.8290707313777,0.13154272703256648,1.3422825995887782,0.7973184552160064,0.2884889375,0.6264114222536612
0.013000000000000001,1.7957750000000001,1.0,1773.9478260751953,0.13641408507582503,1.34145496598609,0.8084255666419995,0.28847555,0.6282158998834125
0.0135,1.79544375,1.0,1831.3522731041114,0.14125811965134072,1.3406632865137136,0.8186430019176363,0.2884616375,0.6299378993038123
0.014,1.7951000000000001,1.0,1886.0878870834836,0.14607498308978234,1.3399051211681015,0.8280584031225199,0.2884472,0.6315832544760787
0.0145,1.79474375,1.0,1938.2119636927007,0.1508648272061987,1.3391781579082567,0.836749679331308,0.2884322375,0.6331574527996229
0.015,1.794375,1.0,1987.8028261904633,0.15562780381563862,1.3384800846931826,0.8447860842236272,0.28841675,0.6346659192158672
0.0155,1.79399375,1.0,2034.9401161288868,0.1603640636330309,1.3378087777041026,0.8522292907667033,0.2884007375,0.6361136151341207
0.016,1.7936,1.0,2079.7267967070607,0.16507375781505887,1.3371620442095933,0.8591342036112161,0.2883842,0.6375055993125264
0.0165,1.7931937500000001,1.0,2122.231090238498,0.16975703432148895,1.3365382093474485,0.8655499366407237,0.2883671375,0.6388457705650923
0.017,1.792775,1.0,2162.5286579141266,0.17441404081830902,1.3359356466564303,0.8715203554889385,0.28834955,0.6401378868160907
0.0175,1.7923437500000001,1.0,2200.7061439674044,0.17904492497150698,1.335352729675301,0.8770846835778849,0.2883314375,0.6413856718728461
0.018000000000000002,1.7919,1.0,2236.84411576855,0.18364983296783796,1.3347879937862477,0.8822780901761048,0.2883128,0.6425924719916434
0.0185,1.79144375,1.0,2271.0475321388953,0.1882289125105871,1.3342398176863117,0.8871320808095768,0.2882936375,0.6437619396461133
0.019,1.790975,1.0,2303.3844900295667,0.19278230717570047,1.3337070275720941,0.8916750708093433,0.28827395,0.6448967466485893
0.0195,1.79049375,1.0,2333.926817460938,0.19731016029661425,1.333188475847021,0.895932634387533,0.2882537375,0.6459994884015917
0.02,1.79,1.0,2362.7521418648084,0.20181261520676466,1.3326830149145181,0.8999278207248518,0.288233,0.6470727410312069
0.0205,1.78949375,1.0,2389.9370236615077,0.20628981427835977,1.3321895591051907,0.9036814506415005,0.2882117375,0.6481189311910046
0.021,1.788975,1.0,2415.5636116567166,0.21074190054642614,1.3317070142584049,0.9072123488347923,0.28818995000000003,0.6491404868997908
0.021500000000000002,1.78844375,1.0,2439.705384529692,0.21516901545248956,1.3312344110596115,0.9105375893889643,0.2881676375,0.6501395565369654
0.022,1.7879,1.0,2462.4210797310707,0.21957129762405783,1.3307709565334795,0.9136726938174541,0.2881448,0.6511179027867571
0.0225,1.78734375,1.0,2483.772476175429,0.22394888568863885,1.3303158577046774,0.9166317619470485,0.28812143749999997,0.6520772772602784
0.023,1.786775,1.0,2503.824141114604,0.22830191827374038,1.3298683215978742,0.9194276218166978,0.28809755,0.6530194209381425
0.0235,1.78619375,1.0,2522.6392090034524,0.2326305333080568,1.3294275928869095,0.9220719686829836,0.28807313749999996,0.6539459854742877
0.024,1.7856,1.0,2540.2763065205586,0.23693486769797145,1.3289929800902045,0.9245754856695091,0.2880482,0.6548584791178773
0.0245,1.78499375,1.0,2556.8109040423437,0.24121506078157118,1.3285636521140527,0.9269479115475104,0.2880227375,0.6557586942266447
0.025,1.784375,1.0,2572.287412012142,0.2454712459928862,1.3281390872521868,0.9291982092317298,0.28799675,0.6566477659990491
0.025500000000000002,1.78374375,1.0,2586.7516576073926,0.24970355676594683,1.3277187637983394,0.9313345914217507,0.2879702375,0.6575268235155874
0.026000000000000002,1.7831000000000001,1.0,2600.25076736406,0.2539121265347833,1.3273021600462431,0.9333645935786866,0.2879432,0.6583969898885952
0.0265,1.78244375,1.0,2612.8330558358603,0.2580970887334258,1.3268887542896308,0.9352951389134758,0.2879156375,0.6592593823946855
0.027,1.781775,1.0,2624.5479202882666,0.2622585767959047,1.3264780248222348,0.937132596346206,0.28788755,0.660115112589835
0.0275,1.7810937500000001,1.0,2635.4392068991806,0.26639672024703365,1.3260695103847921,0.9388828397360266,0.2878589375,0.6609651607060648
0.028,1.7804,1.0,2645.5589146862094,0.2705116552673741,1.325662682201259,0.9405512788529117,0.2878298,0.6618106422878884
0.0285,1.77969375,1.0,2654.941186715619,0.2746035099319706,1.3252571835635027,0.9421429302034477,0.2878001375,0.6626523103964856
0.029,1.778975,1.0,2663.6206044544956,0.27867241222525013,1.3248526593301544,0.9436624309853144,0.28776995,0.6634909111164753
0.029500000000000002,1.7782437500000001,1.0,2671.63230327189,0.28271849013163974,1.3244487543598444,0.9451140724915251,0.2877392375,0.6643271868442134
0.03,1.7775,1.0,2679.0119217143897,0.2867418716355663,1.3240451135112037,0.9465018303400081,0.287708,0.6651618763058391
0.0305,1.77674375,1.0,2685.795553578171,0.2907426847214569,1.3236413816428627,0.9478293917020308,0.2876762375,0.6659957145672797
0.031,1.775975,1.0,2692.0094938341786,0.29472105210637306,1.323237297052729,0.9491001900593193,0.28764395,0.6668292404146868
0.0315,1.7751937500000001,1.0,2697.690007466506,0.2986771038313197,1.3228325098507938,0.9503174076689735,0.2876111375,0.6676631715033072
0.032,1.7744,1.0,2702.8774558899418,0.30261097178699076,1.3224266357587122,0.9514840013954827,0.2875778,0.6684982925807357
0.0325,1.77359375,1.0,2707.593198232727,0.306522777263976,1.3220194667283849,0.9526027427176482,0.2875439375,0.6693350224743835
0.033,1.772775,1.0,2711.858803049976,0.3104126415528651,1.3216107947117117,0.9536762148902591,0.28750955,0.6701737778217514
0.0335,1.7719437500000002,1.0,2715.696028737223,0.31428068594424785,1.321200411660593,0.9547068279882885,0.2874746375,0.6710149730518671
0.034,1.7711000000000001,1.0,2719.1268049033524,0.3181270317287139,1.3207881095269292,0.9556968325782604,0.2874392,0.6718590203639634
0.0345,1.7702437500000001,1.0,2722.173214703527,0.32195180019685316,1.3203736802626203,0.9566483321565628,0.2874032375,0.6727063297033941
0.035,1.7693750000000001,1.0,2724.85747813129,0.3257551126392553,1.3199569158195665,0.9575632944788863,0.28736675,0.6735573087347921
0.035500000000000004,1.76849375,1.0,2727.201936270943,0.32953709034650996,1.3195376081496681,0.9584435618912432,0.2873297375,0.6744123628124654
0.036000000000000004,1.7676,1.0,2729.229036509087,0.33329785460920697,1.3191155492048254,0.9592908607609338,0.2872922,0.6752718949480314
0.0365,1.76669375,1.0,2730.951997033736,0.3370375210030709,1.318690615644818,0.9601068173947841,0.2872541375,0.6761361336094609
0.037,1.765775,1.0,2732.39363139492,0.3407562127203134,1.3182625975908508,0.9608929511948331,0.28721555,0.677005481424503
0.0375,1.76484375,1.0,2733.5761066322607,0.3444540507103154,1.3178312916764003,0.9616506894540089,0.2871764375,0.6778803253549456
0.038,1.7639,1.0,2734.5117880319276,0.34813114921886446,1.317396584079137,0.9623813810340612,0.28713679999999997,0.6787608686699467
0.0385,1.76294375,1.0,2735.213084097459,0.35178762249174844,1.3169583609767321,0.9630862947820986,0.28709663750000003,0.6796473131598966
0.039,1.761975,1.0,2735.6924410315173,0.355423584774755,1.3165165085468564,0.9637666251441768,0.28705595,0.680539859111313
0.0395,1.7609937500000001,1.0,2735.962337505346,0.3590391503136719,1.316070912967181,0.964423497326757,0.2870147375,0.6814387052809078
0.04,1.76,1.0,2736.035279715012,0.36263443335428686,1.315621460415377,0.9650579720469004,0.286973,0.6823440488688284
0.0405,1.7589937500000001,1.0,2735.923796725216,0.36620954814238754,1.3151680370691154,0.9656710499079879,0.2869307375,0.6832560854910736
0.041,1.757975,1.0,2735.640436100152,0.3697646089237618,1.3147105291060668,0.9662636754341289,0.28688795,0.6841750091510825
0.0415,1.75694375,1.0,2735.197651606102,0.3732997293011493,1.3142488236865149,0.9668367407668497,0.2868446375,0.6851010102412044
0.042,1.7559,1.0,2734.6071933837834,0.37681501555585245,1.3137828144573522,0.9673910884588107,0.28680079999999997,0.6860342645128281
0.0425,1.75484375,1.0,2733.8806114980953,0.3803105901435135,1.313312396951362,0.9679275182020561,0.2867564375,0.6869749423360719
0.043000000000000003,1.753775,1.0,2733.025199887266,0.38378656077658596,1.3128375054052626,0.9684467875120659,0.28671155,0.6879231352417485
0.043500000000000004,1.75269375,1.0,2732.0482574320195,0.38724303516752334,1.3123580740557723,0.9689496136975376,0.28666613750000003,0.6888789335847215
0.044,1.7516,1.0,2730.957086295318,0.3906801210287792,1.3118740371396096,0.9694366763917925,0.2866202,0.6898424265250045
0.0445,1.75049375,1.0,2729.7589903592057,0.3940979260728071,1.3113853288934925,0.9699086199005799,0.2865737375,0.6908137020085827
0.045,1.7493750000000001,1.0,2728.4612737566545,0.3974965580120605,1.3108918835541397,0.9703660553812749,0.28652675,0.6917928467479568
0.0455,1.74824375,1.0,2727.0712394993957,0.400876124558993,1.3103936353582695,0.9708095628671071,0.2864792375,0.692779946202416
0.046,1.7471,1.0,2725.5961882023935,0.40423673342605815,1.3098905185426,0.9712396931488433,0.2864312,0.693775084558031
0.0465,1.7459437500000001,1.0,2724.0434169031237,0.4075784923257094,1.3093824673438499,0.9716569695252297,0.28638263750000004,0.6947783447073714
0.047,1.744775,1.0,2722.409739640404,0.4109014719242304,1.3088695113667155,0.9720618914602163,0.28633355,0.6957896203701736
0.0475,1.74359375,1.0,2720.709454979668,0.4142058090657301,1.308351521099227,0.9724549312831136,0.28628393750000003,0.6968091180988298
0.048,1.7424,1.0,2718.9544896766433,0.41749163416943813,1.3078283884942636,0.9728365390109825,0.2862338,0.6978370001180635
0.0485,1.74119375,1.0,2717.147810904658,0.42075904568015543,1.3073000870070115,0.9732071446915083,0.2861831375,0.6988732669817703
0.049,1.739975,1.0,2715.292383528738,0.42400814204268306,1.3067665900926573,0.9735671579577774,0.28613195,0.6999179183766696
0.0495,1.73874375,1.0,2713.3911698341235,0.4272390217018221,1.3062278712063868,0.9739169691803956,0.2860802375,0.700970953113535
0.05,1.7375,1.0,2711.4471292688695,0.4304517831023736,1.305683903803387,0.974256950544504,0.286028,0.7020323691183727
0.0505,1.73624375,1.0,2709.463218202725,0.43364652468913867,1.3051346613388437,0.9745874570572193,0.2859752375,0.7031021634235624
0.051000000000000004,1.734975,1.0,2707.4423897015727,0.4368233449069183,1.3045801172679434,0.9749088274905775,0.28592195,0.7041803321589473
0.051500000000000004,1.73369375,1.0,2705.3875933172862,0.4399823422005137,1.3040202450458724,0.9752213852646426,0.2858681375,0.7052668705428816
0.052000000000000005,1.7324,1.0,2703.301774893414,0.4431236150147258,1.303455018127817,0.9755254392750714,0.2858138,0.7063617728732341
0.0525,1.73109375,1.0,2701.1878763864856,0.44624726179435564,1.3028844099689634,0.9758212846690809,0.28575893750000003,0.7074650325183448
0.053,1.729775,1.0,2699.0488357026065,0.4493533809842044,1.3023083940244982,0.9761092035734578,0.28570355000000003,0.7085766419079361
0.0535,1.72844375,1.0,2696.887586550371,0.45244207102907313,1.3017269437496075,0.9763894657779557,0.2856476375,0.7096965925239834
0.054,1.7271,1.0,2694.7070583087057,0.45551343037376285,1.3011400325994777,0.9766623293771786,0.2855912,0.7108248748915353
0.0545,1.7257437500000001,1.0,2692.5101759105996,0.45856755746307465,1.300547634029295,0.9769280413737944,0.2855342375,0.711961478569493
0.055,1.724375,1.0,2690.299859742356,0.46160455074180956,1.299949721494246,0.9771868382457205,0.28547675,0.7131063921413403
0.0555,1.72299375,1.0,2688.0790255589295,0.46462450865476873,1.2993462684495165,0.977438946479713,0.2854187375,0.7142596032058355
0.056,1.7216,1.0,2685.8505844140623,0.46762752964675314,1.2987372483502932,0.9776845830736094,0.2853602,0.7154210983676506
0.0565,1.72019375,1.0,2683.617442606899,0.47061371216256387,1.2981226346517625,0.977923956009315,0.28530113749999997,0.7165908632279712
0.057,1.718775,1.0,2681.3773947900236,0.47358312264331937,1.2975024476431498,0.978157264510112,0.28524155,0.7177687935150985
0.0575,1.71734375,1.0,2679.1351005896618,0.47653588777370004,1.2968766446639965,0.9783847014799448,0.2851814375,0.718954903868135
0.058,1.7159,1.0,2676.8922917459413,0.47947210377203847,1.2962452098561699,0.9786064507975869,0.2851208,0.7201491570066132
0.0585,1.71444375,1.0,2674.6497449413905,0.48239185948885716,1.2956081361046574,0.9788226888097005,0.2850596375,0.7213514983059004
0.059000000000000004,1.7129750000000001,1.0,2672.40823555993,0.4852952437746788,1.2949654162944462,0.9790335848488333,0.28499795,0.7225618724178702
0.059500000000000004,1.71149375,1.0,2670.1685376866435,0.4881823454800261,1.2943170433105233,0.9792393015655013,0.2849357375,0.7237802232683404
0.06,1.71,1.0,2667.931424108289,0.4910532534554215,1.2936630100378763,0.9794399952420335,0.284873,0.7250064940545095
0.0605,1.7084937500000001,1.0,2665.6976663153487,0.49390805655138786,1.293003309361492,0.9796358160893226,0.2848097375,0.7262406272423908
0.061,1.7069750000000001,1.0,2663.4680345047514,0.49674684361844773,1.2923379341663581,0.9798269085275259,0.28474595,0.7274825645642413
0.0615,1.7054437500000001,1.0,2661.24329758394,0.4995697035071237,1.2916668773374613,0.9800134114517124,0.2846816375,0.7287322470159894
0.062,1.7039,1.0,2659.0242231765224,0.5023767250679385,1.2909901317597892,0.980195458483359,0.2846168,0.7299896148546574
0.0625,1.70234375,1.0,2656.811577627802,0.5051679971514146,1.2903076903183286,0.98037317820856,0.2845514375,0.7312546075957826
0.063,1.7007750000000001,1.0,2654.6061260128026,0.5079436086080747,1.2896195458980673,0.9805466944037392,0.28448555,0.7325271640108333
0.0635,1.69919375,1.0,2652.4086321449254,0.5107036482884417,1.288925691383992,0.9807161262496116,0.28441913750000003,0.7338072221246246
0.064,1.6976,1.0,2650.2198585848164,0.5134482050430379,1.28822611966109,0.9808815885340876,0.2843522,0.7350947192127264
0.0645,1.69599375,1.0,2648.0405666522142,0.516177367722386,1.287520823614349,0.981043191844766,0.2842847375,0.7363895917988725
0.065,1.694375,1.0,2645.8715164372557,0.5188912251770087,1.2868097961287555,0.981201042751625,0.28421675,0.7376917756523653
0.0655,1.69274375,1.0,2643.7116961297193,0.5215898292252065,1.2860930464431943,0.9813552422025201,0.2841482375,0.7390011759465952
0.066,1.6911,1.0,2641.5625955049686,0.5242732970557709,1.2853705606981904,0.9815058909496348,0.2840792,0.7403177394349503
0.0665,1.6894437500000001,1.0,2639.42524709546,0.5269417323044143,1.2846423292386622,0.9816530854096488,0.2840096375,0.7416414043545569
0.067,1.687775,1.0,2637.299638059473,0.529595214775562,1.2839083520611936,0.981796917442604,0.28393955,0.7429720906565604
0.0675,1.68609375,1.0,2635.1857556223367,0.5322338242736395,1.2831686291623683,0.9819374756977951,0.2838689375,0.7443097176604119
0.068,1.6844000000000001,1.0,2633.0835870758515,0.5348576406030717,1.2824231605387708,0.9820748457469124,0.2837978,0.7456542040538638
0.0685,1.68269375,1.0,2630.993119778496,0.5374667435682842,1.2816719461869845,0.982209110210762,0.2837261375,0.7470054678929735
0.069,1.680975,1.0,2628.9143411555574,0.540061212973702,1.2809149861035936,0.9823403488799111,0.28365395,0.7483634266020978
0.0695,1.67924375,1.0,2626.847238698792,0.5426411286237505,1.2801522802851821,0.9824686388295927,0.28358123749999997,0.7497279969738928
0.07,1.6775,1.0,2624.791799966845,0.5452065703228549,1.2793838287283341,0.982594054529178,0.283508,0.751099095169314
0.07050000000000001,1.67574375,1.0,2622.7480125850348,0.5477576178754405,1.2786096314296334,0.9827166679465086,0.2834342375,0.7524766367176143
0.07100000000000001,1.673975,1.0,2620.7158642452996,0.5502943510859326,1.277829688385664,0.9828365486473607,0.28335995,0.7538605365163421
0.07150000000000001,1.67219375,1.0,2618.6953427063613,0.5528168497587563,1.2770439995930096,0.9829537638903042,0.2832851375,0.7552507088313408
0.07200000000000001,1.6704,1.0,2616.6864357937343,0.5553251936983371,1.2762525650482546,0.9830683787171917,0.2832098,0.7566470672967471
0.0725,1.66859375,1.0,2614.6891313995743,0.5578194627091001,1.2754553847479828,0.9831804560395128,0.2831339375,0.7580495249149897
0.073,1.6667750000000001,1.0,2612.7034174827804,0.5602997365954706,1.2746524586887782,0.9832900567208226,0.28305755,0.7594579940567889
0.0735,1.66494375,1.0,2610.729282069131,0.5627660951618739,1.2738437868672248,0.9833972396554529,0.2829806375,0.7608723864611543
0.074,1.6631,1.0,2608.7667132509405,0.5652186182127352,1.2730293692799064,0.9835020618436897,0.2829032,0.7622926132353842
0.0745,1.6612437500000001,1.0,2606.815699187482,0.5676573855524799,1.2722092059234071,0.9836045784636049,0.2828252375,0.7637185848550643
0.075,1.659375,1.0,2604.8762281047707,0.5700824769855332,1.2713832967943108,0.9837048429397037,0.28274675,0.7651502111640658
