Time [s],Phi [rad],STIM [ ],Fsee [N],Gamma [ ],Lcerel [ ],q [ ],Lmtc [m],fisomrel [ ]
0.0,1.8,1.0,18.026498690713677,0.00024614208437463936,1.3793331035767886,0.005015743653013075,0.288653,0.5411556011824024
0.0005,1.79999375,1.0,18.412461813296044,0.0058539707307738165,1.379287340081732,0.013609080630810313,0.2886527375,0.5412663062937646
0.001,1.799975,1.0,21.9293887985785,0.011430343892280875,1.3789066507312895,0.036849713071816705,0.28865195,0.542186702906877
0.0015,1.79994375,1.0,31.7597143444752,0.016975438010277857,1.3779877006005685,0.07229370920536399,0.2886506375,0.5444046498555324
0.002,1.7999,1.0,55.027464493869815,0.0224894285342932,1.3762750062635878,0.11671726350220574,0.2886488,0.5485239785119164
0.0025,1.79984375,1.0,99.51235322745192,0.02797248993088828,1.3738205362233535,0.16674708186743328,0.28864643749999996,0.5543947917655754
0.003,1.7997750000000001,1.0,164.04964355458236,0.03342479568940543,1.3710991772024854,0.21951960455383723,0.28864354999999997,0.5608590582896631
0.0035,1.79969375,1.0,241.1637748402426,0.03884651832324926,1.3684779169880719,0.2728387319281517,0.2886401375,0.5670408950641952
0.004,1.7996,1.0,325.16224825269666,0.04423782938008908,1.3660584930188326,0.32507014788732547,0.2886362,0.5727078433953485
0.0045000000000000005,1.7994937500000001,1.0,413.089558669875,0.04959889944724074,1.3638333102331794,0.37507893751918847,0.2886317375,0.5778868697856091
0.005,1.799375,1.0,503.3092329058858,0.054929898143482925,1.3617757192492075,0.4221597680970636,0.28862675,0.5826477326585415
0.0055,1.79924375,1.0,594.7176768420219,0.06023099415707038,1.3598622329987233,0.46594392990992634,0.2886212375,0.5870509351440452
0.006,1.7991000000000001,1.0,686.4466997376967,0.06550235521310674,1.3580751058791591,0.5063066324769528,0.2886152,0.5911422785383578
0.006500000000000001,1.79894375,1.0,777.7832183555342,0.07074414808408393,1.3564007283422783,0.5432879977667618,0.2886086375,0.5949570179754259
0.007,1.798775,1.0,868.1401411791646,0.07595653868980613,1.3548282044751463,0.5770320553863517,0.28860155,0.5985234225412748
0.0075,1.79859375,1.0,957.0265532871699,0.08113969179401717,1.3533486451697938,0.6077425639614406,0.2885939375,0.6018645885097933
0.008,1.7984,1.0,1044.0667928582368,0.08629377167907284,1.3519540971016146,0.6356520167886051,0.2885858,0.6050009997875869
0.0085,1.79819375,1.0,1128.9394496803393,0.09141894116773479,1.3506379629468939,0.6610017808133474,0.2885771375,0.6079496777437905
0.009000000000000001,1.797975,1.0,1211.3990088188764,0.09651536233027941,1.3493942622917185,0.684028934484753,0.28856795,0.610725923079164
0.0095,1.79774375,1.0,1291.2874384371505,0.10158319692945195,1.3482172253666085,0.7049585231219897,0.2885582375,0.6133442728251932
0.01,1.7975,1.0,1368.4657654581606,0.10662260490114571,1.3471020134398417,0.723999930364309,0.288548,0.6158169396237498
0.0105,1.79724375,1.0,1442.8436224869479,0.11163374558784084,1.3460441166517092,0.7413447988415233,0.2885372375,0.6181551955699562
0.011,1.796975,1.0,1514.385030480272,0.1166167777030043,1.3450391589538526,0.7571666561828017,0.28852595000000003,0.6203698303202105
0.0115,1.79669375,1.0,1583.0783226171686,0.12157185938519365,1.3440831699445965,0.7716216485575318,0.2885141375,0.6224705744925954
0.012,1.7964,1.0,1648.9094521321601,0.1264991466944272,1.34317279208099,0.7848496971584484,0.28850180000000003,0.6244656721152348
0.0125,1.79609375,1.0,1711.9029022292414,0.13139879549985078,1.342304700998681,0.796975551325411,0.2884889375,0.6263631749815166
0.013000000000000001,1.7957750000000001,1.0,1772.1099049283273,0.13627096110425246,1.3414756939366597,0.8081102503412185,0.28847555,0.6281707603650406
0.0135,1.79544375,1.0,1829.5962475192596,0.14111579867955015,1.3406827776167167,0.8183525621165006,0.2884616375,0.6298955517709144
0.014,1.7951000000000001,1.0,1884.4023700159348,0.14593346031812982,1.3399235558916767,0.827790447297435,0.2884472,0.6315432912945096
0.0145,1.79474375,1.0,1936.592271913267,0.15072409811237736,1.339195632614365,0.836502051657593,0.2884322375,0.6331196518346324
0.015,1.794375,1.0,1986.2493201636332,0.15548786397307654,1.3384966347140568,0.844556846699277,0.28841675,0.6346301922425333
0.0155,1.79399375,1.0,2033.4584233828898,0.16022490871911937,1.3378243785732034,0.8520166988188398,0.2884007375,0.6360800039592762
0.016,1.7936,1.0,2078.315656056285,0.1649353836771322,1.3371767411937292,0.8589367250008878,0.2883842,0.6374739961670184
0.0165,1.7931937500000001,1.0,2120.885523281576,0.16961943649923597,1.3365520821821366,0.8653662143332098,0.2883671375,0.6388159948305752
0.017,1.792775,1.0,2161.2446123584264,0.17427721483755165,1.3359487611449274,0.8713491728312317,0.28834955,0.6401097891747083
0.0175,1.7923437500000001,1.0,2199.480581581125,0.1789088663442002,1.3353651376886038,0.8769249478506614,0.2883314375,0.6413591340022444
0.018000000000000002,1.7919,1.0,2235.677426804165,0.183514537266156,1.3347997098371256,0.8821288119236679,0.2883128,0.6425674562913792
0.0185,1.79144375,1.0,2269.9342787373935,0.18809437545026633,1.3342509125387063,0.8869923867199622,0.2882936375,0.6437382891168435
0.019,1.790975,1.0,2302.324465664983,0.19264852503190183,1.3337175174390763,0.8915441624077487,0.28827395,0.6448744214103949
0.0195,1.79049375,1.0,2332.9175866682203,0.19717712898082124,1.3331983974355193,0.895809797249971,0.2882537375,0.6459784054413321
0.02,1.79,1.0,2361.7889991657553,0.20168033026678334,1.3326924254253185,0.8998124149281016,0.288233,0.647052774440749
0.0205,1.78949375,1.0,2389.0193351973985,0.20615827185954683,1.332198474305757,0.903572889047219,0.2882117375,0.6481000435871405
0.021,1.788975,1.0,2414.6797942666058,0.2106110947259972,1.3317155547016726,0.9071101216188194,0.28818995000000003,0.649122419543883
0.021500000000000002,1.78844375,1.0,2438.8579240922777,0.2150389426714822,1.3312425595252373,0.9104412067893609,0.2881676375,0.6501223429820461
0.022,1.7879,1.0,2461.615527876219,0.21944195483150847,1.3307786661937806,0.9135817054493985,0.2881448,0.6511016390021157
0.0225,1.78734375,1.0,2483.010258314821,0.22382026920087414,1.3303231211708273,0.9165457658080288,0.28812143749999997,0.6520619758289635
0.023,1.786775,1.0,2503.1024841254634,0.22817402377437732,1.3298751709199035,0.9193462591442444,0.28809755,0.6530050115132795
0.0235,1.78619375,1.0,2521.9550625520046,0.2325033565468161,1.3294340619045344,0.9219949127245074,0.28807313749999996,0.6539323943146664
0.024,1.7856,1.0,2539.628791540028,0.2368084047089941,1.3289990814185555,0.9245024343198015,0.2880482,0.6548456773780189
0.0245,1.78499375,1.0,2556.1808403069576,0.24108930458356795,1.3285695697645896,0.9268786173844673,0.2880227375,0.6557462940839046
0.025,1.784375,1.0,2571.6825441062656,0.2453461945949588,1.328144751127793,0.9291324044092013,0.28799675,0.6566359129696389
0.025500000000000002,1.78374375,1.0,2586.176771622897,0.24957920744244155,1.327724131839813,0.9312720346063709,0.2879702375,0.657515603985462
0.026000000000000002,1.7831000000000001,1.0,2599.7076516622947,0.2537884758252912,1.3273072182322956,0.9333050673746315,0.2879432,0.6583864314191212
0.0265,1.78244375,1.0,2612.320468100041,0.2579741324427826,1.3268935166368883,0.935238447563486,0.2879156375,0.6592494540203075
0.027,1.781775,1.0,2624.0615602355856,0.26213630999419085,1.3264825333852375,0.9370785636769057,0.28788755,0.6601057251095577
0.0275,1.7810937500000001,1.0,2634.978228548332,0.2662751411787907,1.3260737748089904,0.9388312998556523,0.2878589375,0.6609562926716066
0.028,1.7804,1.0,2645.1130880164737,0.2703907547501624,1.3256667985579664,0.9405020883141165,0.2878298,0.6618020928475923
0.0285,1.77969375,1.0,2654.5141255527446,0.2744832862953024,1.3252611196757027,0.9420959411211525,0.2878001375,0.662644145495243
0.029,1.778975,1.0,2663.2144116115883,0.2785528633061096,1.324856396992111,0.943617508293311,0.28776995,0.6634831675169133
0.029500000000000002,1.7782437500000001,1.0,2671.247134065185,0.28259961299212577,1.3244522932431992,0.945071093248338,0.2877392375,0.6643198641875927
0.03,1.7775,1.0,2678.6459723268244,0.28662366256289223,1.3240484711649756,0.9464606826791989,0.287708,0.6651549372947767
0.0305,1.77674375,1.0,2685.445051771249,0.2906251392279507,1.323644593493448,0.9477899738845694,0.2876762375,0.6659890851481531
0.031,1.775975,1.0,2691.678900676936,0.29460417019684254,1.3232403229646243,0.9490623994179321,0.28764395,0.6668230025820323
0.0315,1.7751937500000001,1.0,2697.3763515668697,0.2985608786399572,1.3228353777074573,0.9502811549866874,0.2876111375,0.6676572669020516
0.032,1.7744,1.0,2702.564645404737,0.30249538887404565,1.322429493139156,0.9514492159687314,0.2875778,0.668492416945239
0.0325,1.77359375,1.0,2707.2877263906234,0.3064078378465149,1.3220222546406633,0.9525693387780444,0.2875439375,0.669329296926479
0.033,1.772775,1.0,2711.5655562683173,0.31029834581077403,1.3216134689422063,0.9536441137973756,0.28750955,0.670168292713522
0.0335,1.7719437500000002,1.0,2715.4182789709816,0.31416703302023213,1.3212029427740128,0.9546759576775697,0.2874746375,0.6710097881164356
0.034,1.7711000000000001,1.0,2718.866203474844,0.3180140197282982,1.3207904828663104,0.9556671270574574,0.2874392,0.6718541648673451
0.0345,1.7702437500000001,1.0,2721.9297874816903,0.32183942618838124,1.3203758959493261,0.9566197310460253,0.2874032375,0.6727018025977888
0.035,1.7693750000000001,1.0,2724.629621928906,0.3256433726538903,1.3199589887532874,0.9575357425915306,0.28736675,0.6735530788136916
0.035500000000000004,1.76849375,1.0,2726.9864163282596,0.3294259793782346,1.319539568008422,0.9584170088484522,0.2873297375,0.6744083688679561
0.036000000000000004,1.7676,1.0,2729.0209849322646,0.33318736661482296,1.3191174404449575,0.9592652606410307,0.2872922,0.6752680459306729
0.0365,1.76669375,1.0,2730.7542337295463,0.33692765461706453,1.3186924127931205,0.960082121111469,0.2872541375,0.6761324809569491
0.037,1.765775,1.0,2732.2071482672627,0.3406469636383684,1.3182642917831393,0.960869113631408,0.28721555,0.6770020426523494
0.0375,1.76484375,1.0,2733.386761842733,0.344345405030206,1.3178330114951224,0.9616276796002363,0.2871764375,0.6778768392982825
0.038,1.7639,1.0,2734.3202671992276,0.34802310540955295,1.3173983233655484,0.962359159479636,0.28713679999999997,0.6787573479742945
0.0385,1.76294375,1.0,2735.025314553835,0.3516801823801234,1.3169600659767968,0.963064820604546,0.28709663750000003,0.679643866632604
0.039,1.761975,1.0,2735.5129258183115,0.3553167487782447,1.316518138451236,0.9637458606643776,0.28705595,0.6805365689775642
0.0395,1.7609937500000001,1.0,2735.794153717201,0.35893291744024447,1.3160724399112353,0.9644034078991867,0.2870147375,0.6814356273232096
0.04,1.76,1.0,2735.8800774829606,0.3625288012024502,1.315622869479163,0.965038525865674,0.286973,0.6823412125693217
0.0405,1.7589937500000001,1.0,2735.7817987771364,0.3661045129011893,1.3151693262773878,0.9656522178274163,0.2869307375,0.6832534941768414
0.041,1.757975,1.0,2735.510437837131,0.36966016537278923,1.3147117094282783,0.9662454308026015,0.28688795,0.6841726401426369
0.0415,1.75694375,1.0,2735.077129848331,0.37319587145357763,1.3142499180542035,0.9668190592992938,0.2868446375,0.6850988169736172
0.042,1.7559,1.0,2734.493021542221,0.3767117439798819,1.313783851277532,0.9673739487653339,0.28680079999999997,0.6860321896602032
0.0425,1.75484375,1.0,2733.769268020155,0.3802078957880295,1.3133134082206324,0.9679108987773957,0.2867564375,0.6869729216491434
0.043000000000000003,1.753775,1.0,2732.911550703046,0.3836844331235637,1.3128385377776917,0.9684306689913259,0.28671155,0.6879210755137621
0.043500000000000004,1.75269375,1.0,2731.932282600495,0.38714147175039054,1.3123591277426083,0.9689339753129925,0.28666613750000003,0.6888768345531789
0.044,1.7516,1.0,2730.843074456998,0.390579124847304,1.3118750731984508,0.9694214961909533,0.2866202,0.6898403658082302
0.0445,1.75049375,1.0,2729.6499922036046,0.3939974983854807,1.3113863196084277,0.9698938776342289,0.2865737375,0.6908117345686166
0.045,1.7493750000000001,1.0,2728.3591027158736,0.39739669833609714,1.3108928124357482,0.9703517324114466,0.28652675,0.6917910050248428
0.0455,1.74824375,1.0,2726.9764727032957,0.4007768306703298,1.3103944971436208,0.9707956420811099,0.2864792375,0.6927782402517819
0.046,1.7471,1.0,2725.508167664103,0.40413800135935535,1.3098913191952548,0.971226158878892,0.2864312,0.693773502192043
0.0465,1.7459437500000001,1.0,2723.9602509061874,0.4074803163743502,1.3093832240538585,0.9716438074733048,0.28638263750000004,0.6947768516391581
0.047,1.744775,1.0,2722.3387826335997,0.410803881686491,1.308870157182641,0.9720490866000893,0.28633355,0.6957883482205696
0.0475,1.74359375,1.0,2720.649819099882,0.41410880326695426,1.3083520640448114,0.9724424705847778,0.28628393750000003,0.6968080503804354
0.048,1.7424,1.0,2718.8994118260266,0.4173951870869165,1.307828890103578,0.9728244107620542,0.2862338,0.6978360153622427
0.0485,1.74119375,1.0,2717.0906440993126,0.4206631313719525,1.3073006078141802,0.9731953377221606,0.2861831375,0.698872246291567
0.049,1.739975,1.0,2715.2288968365447,0.42391274224467174,1.3067671686738547,0.9735556611226817,0.28613195,0.6999167864280191
0.0495,1.73874375,1.0,2713.3229785948,0.4271441347088543,1.3062284928800751,0.9739057702507465,0.2860802375,0.7009697389936154
0.05,1.7375,1.0,2711.3757159783213,0.43035740754392693,1.3056845550848426,0.9742460379619249,0.286028,0.7020310994342533
0.0505,1.73624375,1.0,2709.38993262077,0.4335526595293165,1.305135329940158,0.9745768198965877,0.2859752375,0.7031008623160424
0.051000000000000004,1.734975,1.0,2707.368448977209,0.4367299894444497,1.3045807920980226,0.9748984554252769,0.28592195,0.7041790213167767
0.051500000000000004,1.73369375,1.0,2705.31408212987,0.4398894960687535,1.3040209162104373,0.9752112685340639,0.2858681375,0.705265569217367
0.052000000000000005,1.7324,1.0,2703.229645608629,0.4430312781816546,1.303455676929403,0.975515568654201,0.2858138,0.7063604978932327
0.0525,1.73109375,1.0,2701.117949225465,0.4461554345625798,1.3028850489069213,0.9758116514400301,0.28575893750000003,0.7074637983056503
0.053,1.729775,1.0,2698.9817989231583,0.44926206399095603,1.3023090067949925,0.976099799498794,0.28570355000000003,0.708575460493065
0.0535,1.72844375,1.0,2696.823996638406,0.45235126524621005,1.3017275252456184,0.9763802830757099,0.2856476375,0.7096954735623556
0.054,1.7271,1.0,2694.6473401791127,0.45542313710776866,1.3011405789107997,0.9766533606974114,0.2855912,0.7108238256800652
0.0545,1.7257437500000001,1.0,2692.454623115834,0.45847777835505865,1.3005481424425374,0.9769192797766162,0.2855342375,0.711960504063585
0.055,1.724375,1.0,2690.2486346873907,0.4615152877675069,1.2999501904928326,0.9771782771806636,0.28547675,0.7131054949723006
0.0555,1.72299375,1.0,2688.0370629377244,0.4645357610369471,1.2993466528028619,0.9774305768164946,0.2854187375,0.7142588694378917
0.056,1.7216,1.0,2685.814675792756,0.4675392922800393,1.2987375773887324,0.9776763999940401,0.2853602,0.7154204714793084
0.0565,1.72019375,1.0,2683.584433637422,0.47052597593654255,1.2981229372458072,0.9779159545204422,0.28530113749999997,0.7165902879079481
0.057,1.718775,1.0,2681.349406314339,0.47349590643407574,1.2975027043212322,0.9781494395857961,0.28524155,0.7177683065100559
0.0575,1.71734375,1.0,2679.108904247146,0.47644917785539426,1.2968768850071708,0.9783770481732341,0.2851814375,0.7189544488151757
0.058,1.7159,1.0,2676.8657268527554,0.4793858841761158,1.296245453682769,0.9785989636413215,0.2851208,0.7201486963402117
0.0585,1.71444375,1.0,2674.6228414583434,0.48230611790758504,1.2956083831425198,0.9788153617680572,0.2850596375,0.7213510325761008
0.059000000000000004,1.7129750000000001,1.0,2672.3809055989823,0.4852099711835928,1.2949656673536218,0.9790264124654852,0.28499795,0.7225614001359455
0.059500000000000004,1.71149375,1.0,2670.1383833942314,0.48809753599182026,1.2943173204308671,0.979232280023107,0.2849357375,0.7237797031071247
0.06,1.7100003381824356,1.0,2667.916868290412,0.4909689040578249,1.293663296590428,0.9794331190235792,0.2848730142036623,0.7250059573840635
0.0605,1.7085032458551968,1.0,2666.1136108595197,0.4938241662548202,1.2930037722046046,0.9796290899050224,0.28481013632591823,0.7262397623529087
0.061,1.707006153527958,1.0,2664.866140727217,0.49666341247849005,1.2923391403667612,0.9798203584207291,0.2847472584481742,0.7274803157194614
0.0615,1.705509061200719,1.0,2664.1313425137696,0.49948673262451876,1.2916697941702613,0.9800070840620336,0.2846843805704302,0.7287268213286908
0.062,1.7040119688734805,1.0,2663.8695208389763,0.5022942158209235,1.290996096897107,0.9801894187334981,0.28462150269268616,0.7299785446130405
0.0625,1.7025148765462417,1.0,2664.036470395565,0.5050859520719255,1.2903184546205995,0.980367510997849,0.28455862481494215,0.7312346776361829
0.063,1.7010177842190028,1.0,2664.600726454998,0.5078620289691278,1.2896371571751772,0.9805414978032053,0.28449574693719815,0.7324946338758982
0.0635,1.699520691891764,1.0,2665.531844194059,0.5106225339148239,1.2889524857537167,0.9807115106521451,0.2844328690594541,0.7337578475023858
0.064,1.6980235995645252,1.0,2666.799437530316,0.5133675543113071,1.2882647215490943,0.9808776762988173,0.28436999118171,0.7350237573667828
0.0645,1.6965265072372866,1.0,2668.3799513713343,0.5160971752093089,1.2875740833106404,0.9810401136543038,0.284307113303966,0.7362919215817758
0.065,1.6950294149100478,1.0,2670.2399635564116,0.5188114856744839,1.2868808807376908,0.981198942226958,0.284244235426222,0.7375617355458126
0.0655,1.693532322582809,1.0,2672.3502608253475,0.5215105738693134,1.2861853848700797,0.981354275355605,0.28418135754847795,0.7388326705572843
0.066,1.6920352302555701,1.0,2674.6945614196675,0.5241945234628969,1.2854877479269444,0.9815062162850213,0.28411847967073395,0.7401044189528108
0.0665,1.6905381379283315,1.0,2677.2565865030238,0.5268634181243337,1.2847881221274227,0.9816548646768525,0.28405560179298994,0.7413766756860211
0.067,1.6890410456010927,1.0,2680.020053192244,0.5295173415227235,1.2840866596906517,0.9818003167633038,0.2839927239152459,0.7426491383476015
0.0675,1.6875439532738539,1.0,2682.968668102309,0.5321563773271654,1.2833835128357691,0.9819426654932369,0.2839298460375019,0.7439215071838632
0.068,1.686046860946615,1.0,2686.0861214039137,0.5347806092067591,1.2826788337819124,0.9820820006710973,0.2838669681597578,0.7451934851138328
0.0685,1.6845497686193762,1.0,2689.356081396458,0.537390120830604,1.2819727747482188,0.9822184090890703,0.2838040902820138,0.746464777744867
0.069,1.6830526762921376,1.0,2692.763379313989,0.539984995018835,1.2812654770661935,0.9823519740861903,0.28374121240426975,0.7477351129168577
0.0695,1.6815555839648988,1.0,2696.2995808608093,0.542565311156982,1.2805570202210816,0.9824827731437513,0.28367833452652574,0.749004331647537
0.07,1.68005849163766,1.0,2699.9446787929965,0.5451311580490638,1.2798475893430565,0.982610886686422,0.28361545664878174,0.7502720878153061
0.07050000000000001,1.6785613993104211,1.0,2703.6914831501263,0.5476826148378825,1.2791372520690856,0.9827363865209785,0.2835525787710377,0.7515382477911983
0.07100000000000001,1.6770643069831825,1.0,2707.5327891852066,0.5502197606662402,1.2784260760361361,0.9828593421265943,0.2834897008932937,0.7528026791553564
0.07150000000000001,1.6755672146559437,1.0,2711.4613760556254,0.5527426746769393,1.2777141288811753,0.9829798207475917,0.28342682301554967,0.754065250700797
0.07200000000000001,1.674070122328705,1.0,2715.4700056163756,0.5552514360127816,1.277001478241171,0.983097887481918,0.2833639451378056,0.7553258324368817
0.0725,1.672573030001466,1.0,2719.5514213144543,0.5577461238165694,1.27628819175309,0.9832136053655782,0.28330106726006155,0.7565842955924994
0.073,1.6710759376742275,1.0,2723.698347184422,0.5602268172311049,1.2755743370539,0.9833270354532295,0.28323818938231754,0.7578405126189524
0.0735,1.6695788453469886,1.0,2727.9034869455904,0.5626935953991902,1.2748599817805684,0.9834382368951373,0.28317531150457353,0.7590943571925562
