Time [s],Phi [rad],STIM [ ],Fsee [N],Gamma [ ],Lcerel [ ],q [ ],Lmtc [m],fisomrel [ ]
0.0,1.8,1.0,18.04673900687579,0.0002865162865310294,1.3793308403549593,0.00502130624566017,0.288653,0.5411610763890318
0.0005,1.79999375,1.0,18.445393334809257,0.005894118465587553,1.3792836971654876,0.013725985389014098,0.2886527375,0.5412751181903019
0.001,1.799975,1.0,21.992288276185974,0.011470266430050122,1.3789002767605052,0.03706404410155132,0.28865195,0.5422021054553973
0.0015,1.79994375,1.0,31.888770444032364,0.0170151366141858,1.377976836667038,0.0725845143564162,0.2886506375,0.5444308384667708
0.002,1.7999,1.0,55.287347195023095,0.02252890446039746,1.3762583888612425,0.11706000610882442,0.2886488,0.5485638546286417
0.0025,1.79984375,1.0,99.9340095417308,0.028011744428281422,1.3738004846633387,0.16711889792612183,0.28864643749999996,0.5544425945964704
0.003,1.7997750000000001,1.0,164.58855525166115,0.03346383000009734,1.3710792125796023,0.21990250079759588,0.28864354999999997,0.5609063073702243
0.0035,1.79969375,1.0,241.76733965471965,0.0388853336823075,1.3684594717705478,0.2732190819248701,0.2886401375,0.5670842399954366
0.004,1.7996,1.0,325.8012851348132,0.04427642701566649,1.3660416720881046,0.32543808698645266,0.2886362,0.5727471119098997
0.0045000000000000005,1.7994937500000001,1.0,413.7492468038235,0.049637280580650894,1.363817902787071,0.3754279691128623,0.2886317375,0.5779226199350045
0.005,1.799375,1.0,503.98065920252685,0.05496806398917029,1.36176151155803,0.42248615383206883,0.28862675,0.5826805126124024
0.0055,1.79924375,1.0,595.3939912312861,0.06026894592245419,1.359849066898266,0.4662460051339287,0.2886212375,0.5870811513152021
0.006,1.7991000000000001,1.0,687.1228252672687,0.0655400940992081,1.3580628539521646,0.5065841708378611,0.2886152,0.5911702570779044
0.006500000000000001,1.79894375,1.0,778.4543177569785,0.07078167528141506,1.3563893034715602,0.5435417237518468,0.2886086375,0.5949829858770925
0.007,1.798775,1.0,868.8031245755104,0.07599385539567788,1.354817521007987,0.5772632513097529,0.28860155,0.5985475981688354
0.0075,1.79859375,1.0,957.6778427486568,0.0811767991779515,1.353338649185481,0.6079528278113326,0.2885939375,0.6018871141319501
0.008,1.7984,1.0,1044.704260601407,0.08633067091249474,1.3519447297855416,0.6358430624556094,0.2885858,0.6050220254342542
0.0085,1.79819375,1.0,1129.5615916881875,0.0914556334472797,1.3506291710667497,0.6611753305562046,0.2885771375,0.6079693380007779
0.009000000000000001,1.797975,1.0,1212.0058107239554,0.09655184877875662,1.3493859840837779,0.6841866404887257,0.28856795,0.6107443690236293
0.0095,1.79774375,1.0,1291.8744956869639,0.10161947867633427,1.348209468130358,0.7051019712257931,0.2885582375,0.6133614996950676
0.01,1.7975,1.0,1369.0317130918336,0.10665868320843139,1.3470947490061713,0.7241305614344388,0.288548,0.6158330204475222
0.0105,1.79724375,1.0,1443.388931234659,0.11166962153148614,1.346037299873217,0.7414639135027498,0.2885372375,0.6181702394657311
0.011,1.796975,1.0,1514.90156381501,0.11665245217488159,1.3450328561970448,0.7572754797289086,0.28852595000000003,0.6203836994403998
0.0115,1.79669375,1.0,1583.571749685776,0.12160733382397548,1.3440772811648596,0.7717212036833938,0.2885141375,0.6224834967672135
0.012,1.7964,1.0,1649.3861197588735,0.12653442242303586,1.3431672180003333,0.7849408970066024,0.28850180000000003,0.6244778714601776
0.0125,1.79609375,1.0,1712.3623200430004,0.1314338735197612,1.3422994283782261,0.7970592447853555,0.2884889375,0.6263746853697055
0.013000000000000001,1.7957750000000001,1.0,1772.5476342152842,0.13630584226144796,1.3414707562805452,0.8081872107741798,0.28847555,0.6281815134094149
0.0135,1.79544375,1.0,1830.0081142270653,0.1411504836359682,1.340678205240084,0.8184234748992275,0.2884616375,0.6299054862066172
0.014,1.7951000000000001,1.0,1884.8014208475436,0.145967950826385,1.3399191906751868,0.8278558531941727,0.2884472,0.6315527544984885
0.0145,1.79474375,1.0,1936.982809248198,0.15075839544133915,1.3391914184744995,0.8365624670073152,0.2884322375,0.6331287679631918
0.015,1.794375,1.0,1986.6285056771908,0.15552196908947152,1.3384925945266688,0.8446127573871085,0.28841675,0.6346389140644266
0.0155,1.79399375,1.0,2033.8178593463872,0.160258822357743,1.3378205935193095,0.8520685562004549,0.2884007375,0.6360881587827216
0.016,1.7936,1.0,2078.653260177075,0.1649691067687795,1.3371732246038108,0.8589849099853604,0.2883842,0.6374815580684571
0.0165,1.7931937500000001,1.0,2121.207338589886,0.16965297052322229,1.3365487638565972,0.8654110420179364,0.2883671375,0.6388231171766467
0.017,1.792775,1.0,2161.55338158699,0.1743105609835605,1.3359456072013607,0.8713909350527989,0.28834955,0.6401165465628478
0.0175,1.7923437500000001,1.0,2199.7755944152937,0.17894202551228322,1.3353621505617934,0.8769639156991598,0.2883314375,0.6413655228653349
0.018000000000000002,1.7919,1.0,2235.9614211877156,0.18354751071137865,1.334796857645062,0.8821652194305023,0.2883128,0.6425735462722963
0.0185,1.79144375,1.0,2270.2030101572163,0.18812716348924605,1.3342482340715218,0.8870264615525351,0.2882936375,0.6437439987884859
0.019,1.790975,1.0,2302.5816128490624,0.19268112902462098,1.333714972521269,0.8915760903119282,0.28827395,0.6448798377395687
0.0195,1.79049375,1.0,2333.1653709661337,0.19720955014972705,1.3331959613084932,0.8958397491363458,0.2882537375,0.6459835821674398
0.02,1.79,1.0,2362.028134097193,0.20171256969678786,1.3326900887473838,0.8998405484887086,0.288233,0.6470577322999295
0.0205,1.78949375,1.0,2389.2489830376985,0.20619033049802704,1.3321962431521306,0.9035993501712072,0.2882117375,0.6481047705217173
0.021,1.788975,1.0,2414.899213825352,0.21064297353501768,1.3317134342758923,0.9071350421469294,0.28818995000000003,0.6491269053599914
0.021500000000000002,1.78844375,1.0,2439.066580174143,0.21507064250178684,1.3312405531327791,0.9104647057324079,0.2881676375,0.6501265815060285
0.022,1.7879,1.0,2461.814874604908,0.21947347686831153,1.3307767581972196,0.9136038871527032,0.2881448,0.651105664019573
0.0225,1.78734375,1.0,2483.2010094254174,0.2238516145340988,1.3303213033258037,0.9165667265475744,0.28812143749999997,0.652065805386296
0.023,1.786775,1.0,2503.2845969256714,0.22820519339865566,1.3298734423751206,0.9193660879560333,0.28809755,0.6530086480088902
0.0235,1.78619375,1.0,2522.1277241904263,0.2325343513614892,1.32943242920176,0.9220136921365526,0.28807313749999996,0.6539358245861842
0.024,1.7856,1.0,2539.7938768262898,0.2368392261243089,1.3289975257983815,0.9245202353533433,0.2880482,0.6548489413856611
0.0245,1.78499375,1.0,2556.3363112733605,0.2411199525327346,1.328568109490817,0.9268955107461595,0.2880227375,0.6557493540358115
0.025,1.784375,1.0,2571.829328014314,0.24537667040086283,1.3281433766081554,0.9291484507999751,0.28799675,0.6566387895031833
0.025500000000000002,1.78374375,1.0,2586.3157848665237,0.2496095123122855,1.3277228337384208,0.9312872896565758,0.2879702375,0.6575183171124344
0.026000000000000002,1.7831000000000001,1.0,2599.8397978711864,0.2538186108505946,1.3273059874696367,0.9333195821396837,0.2879432,0.6583890005310142
0.0265,1.78244375,1.0,2612.446636398214,0.2580040985993819,1.3268923443898268,0.9352522689649123,0.2879156375,0.6592518978932489
0.027,1.781775,1.0,2624.1826236492516,0.2621661081422394,1.3264814110870153,0.9370917348953911,0.28788755,0.6601080619089008
0.0275,1.7810937500000001,1.0,2635.095042558373,0.26630477206275904,1.3260726941492258,0.9388438606818396,0.2878589375,0.6609585399562037
0.028,1.7804,1.0,2645.222866924923,0.2704202190511504,1.3256657849274942,0.9405140804152223,0.2878298,0.6618041981108389
0.0285,1.77969375,1.0,2654.619378538935,0.2745125847788874,1.3252601495567728,0.9421073960062687,0.2878001375,0.6626461578772505
0.029,1.778975,1.0,2663.3189274030706,0.27858199756329455,1.3248554352426205,0.9436284537847854,0.28776995,0.6634851600552538
0.029500000000000002,1.7782437500000001,1.0,2671.353088827393,0.2826285843295692,1.3244513197195231,0.9450815570395213,0.2877392375,0.6643218786105223
0.03,1.7775,1.0,2678.7539177286785,0.28665247200290883,1.3240474807219662,0.9464706923390883,0.287708,0.665156984176489
0.0305,1.77674375,1.0,2685.553905168118,0.29065378750851073,1.3236435959844361,0.947799556861477,0.2876762375,0.6659911440633389
0.031,1.775975,1.0,2691.7859371916034,0.2946326577715723,1.323239343241419,0.949071583042505,0.28764395,0.6668250222603833
0.0315,1.7751937500000001,1.0,2697.4832559725473,0.298589209717291,1.3228344002274,0.9502899608352836,0.2876111375,0.6676592794318079
0.032,1.7744,1.0,2702.666386248079,0.30252356329549757,1.322428563765028,0.9514576702480608,0.2875778,0.6684943280243028
0.0325,1.77359375,1.0,2707.377408024762,0.30643585223983716,1.3220214361380176,0.9525774670147427,0.2875439375,0.6693309778941603
0.033,1.772775,1.0,2711.643665354884,0.31032620104799286,1.3216127566211944,0.953651933189024,0.28750955,0.6701697537580242
0.0335,1.7719437500000002,1.0,2715.485608071547,0.3141947300910656,1.32120232919693,0.9546834839892347,0.2874746375,0.671011045020622
0.034,1.7711000000000001,1.0,2718.923851392741,0.3180415597401564,1.320789957847596,0.9556743747340414,0.2874392,0.6718552389800307
0.0345,1.7702437500000001,1.0,2721.979159410059,0.3218668103663663,1.3203754465555642,0.9566267133145767,0.2874032375,0.672702720804601
0.035,1.7693750000000001,1.0,2724.672429428752,0.32567060234079626,1.319958599303206,0.9575424715544918,0.28736675,0.6735538735074316
0.035500000000000004,1.76849375,1.0,2727.0246771603356,0.32945305603454733,1.3195392200728933,0.9584234955687293,0.2873297375,0.67440907791839
0.036000000000000004,1.7676,1.0,2729.0570227664016,0.3332142918187204,1.3191171128469974,0.9592715152196686,0.2872922,0.6752687126536886
0.0365,1.76669375,1.0,2730.7906777548073,0.33695443006441667,1.3186920816078904,0.9600881527586372,0.2872541375,0.6761331540830029
0.037,1.765775,1.0,2732.241574380033,0.34067358675560394,1.3182639790188317,0.9608749346156386,0.28721555,0.677002677484377
0.0375,1.76484375,1.0,2733.4264917240266,0.34437188167491906,1.3178326506236728,0.9616332946260817,0.2871764375,0.6778775707829411
0.038,1.7639,1.0,2734.367453196584,0.34804943795609605,1.3173978948427298,0.9623645766980943,0.28713679999999997,0.6787582153998833
0.0385,1.76294375,1.0,2735.0761835525504,0.35170636905718794,1.3169596040662561,0.9630700519106277,0.28709663750000003,0.6796448003512824
0.039,1.761975,1.0,2735.564444338941,0.35534278843624745,1.3165176706845039,0.9637509167939865,0.28705595,0.6805375132157396
0.0395,1.7609937500000001,1.0,2735.844028989091,0.3589588095513275,1.316071987087726,0.9644082985025993,0.2870147375,0.6814365401097462
0.04,1.76,1.0,2735.926758172762,0.36255454586048086,1.3156224456661747,0.9650432595755752,0.286973,0.6823420656623169
0.0405,1.7589937500000001,1.0,2735.8244754037455,0.36613011082176045,1.315168938810103,0.9656568023219176,0.2869307375,0.6832542729888823
0.041,1.757975,1.0,2735.549042903649,0.36968561789321913,1.3147113589097636,0.9662498728636398,0.28688795,0.6841733436644449
0.0415,1.75694375,1.0,2735.1123377228246,0.37322118053290976,1.3142495983554088,0.9668233648667675,0.2868446375,0.6850994576959958
0.042,1.7559,1.0,2734.526248117739,0.3767369121988851,1.3137835495372914,0.9673781229873082,0.28680079999999997,0.6860327934941908
0.0425,1.75484375,1.0,2733.7942897232565,0.3802329133675194,1.313313180960988,0.9679149502280158,0.2867564375,0.686973375752893
0.043000000000000003,1.753775,1.0,2732.935558601398,0.3837093103042034,1.3128383196916953,0.9684345991316373,0.28671155,0.68792151062652
0.043500000000000004,1.75269375,1.0,2731.9599777797052,0.3871662151646662,1.3123588761166207,0.9689377867073197,0.28666613750000003,0.6888773358136531
0.044,1.7516,1.0,2730.8736147026443,0.3906037340184967,1.3118747956682069,0.9694251941235285,0.2866202,0.6898409178154152
0.0445,1.75049375,1.0,2729.6825390507174,0.3940219729352838,1.3113860237788961,0.9698974671383503,0.2865737375,0.6908123220509208
0.045,1.7493750000000001,1.0,2728.392821553175,0.3974210379846164,1.3108925058811312,0.9703552182841256,0.28652675,0.6917916128410422
0.0455,1.74824375,1.0,2727.0105328671007,0.40080103523608346,1.3103941874073546,0.9707990288967332,0.2864792375,0.69277885339199
0.046,1.7471,1.0,2725.5417425230153,0.4041620707592737,1.3098910137900086,0.9712294510019807,0.2864312,0.6937741057787012
0.0465,1.7459437500000001,1.0,2723.9925179356073,0.40750425062377604,1.309382930461536,0.9716470090704319,0.28638263750000004,0.6947774309280368
0.047,1.744775,1.0,2722.3689234812073,0.4108276808991795,1.3088698828543792,0.9720522016510238,0.28633355,0.6957888886017922
0.0475,1.74359375,1.0,2720.6770196410143,0.41413246765507283,1.3083518164009804,0.9724455028929075,0.28628393750000003,0.6968085373795155
0.048,1.7424,1.0,2718.9228622101127,0.417418716961045,1.3078286765337825,0.9728273639641456,0.2862338,0.6978364346411348
0.0485,1.74119375,1.0,2717.112501573134,0.4206865348866848,1.307300408685228,0.9731982143751483,0.2861831375,0.6988726365494
0.049,1.739975,1.0,2715.248662471727,0.423936008191342,1.306766988540499,0.9735584629575572,0.28613195,0.6999171388450041
0.0495,1.73874375,1.0,2713.3405551703436,0.4271672637216564,1.306228332640349,0.9739085000968526,0.2860802375,0.7009700519397697
0.05,1.7375,1.0,2711.3916775384055,0.4303804034518847,1.3056844095164033,0.9742486984793192,0.286028,0.7020313832226015
0.0505,1.73624375,1.0,2709.404820476729,0.4335755255924316,1.305135194114073,0.9745794135700726,0.2859752375,0.7031011266357367
0.051000000000000004,1.734975,1.0,2707.382771728056,0.4367527283537017,1.304580661378769,0.9749009845758949,0.28592195,0.7041792752361979
0.051500000000000004,1.73369375,1.0,2705.32831568802,0.43991210994609986,1.3040207862559021,0.9752137353297534,0.2858681375,0.7052658211873185
0.052000000000000005,1.7324,1.0,2703.244233229803,0.44305376858003065,1.3034555436908837,0.9755179751196845,0.2858138,0.7063607557502238
0.0525,1.73109375,1.0,2701.133301543225,0.4461778024658988,1.302884908629124,0.9758139994659911,0.28575893750000003,0.7074640692752779
0.053,1.729775,1.0,2698.998293987014,0.44928430981410905,1.3023088560160347,0.9761020908503989,0.28570355000000003,0.7085757511934834
0.0535,1.72844375,1.0,2696.841979955698,0.45237338883506617,1.3017273607970266,0.976382519400528,0.2856476375,0.7096957900078474
0.054,1.7271,1.0,2694.6671247602603,0.4554451377391748,1.3011403979175102,0.976655543532777,0.2855912,0.7108241732847054
0.0545,1.7257437500000001,1.0,2692.4764895221533,0.45849965473683957,1.300547942322897,0.9769214105564759,0.2855342375,0.711960887645002
0.055,1.724375,1.0,2690.272831081951,0.46153703803846535,1.2999499689585976,0.9771803572419483,0.28547675,0.7131059187555369
0.0555,1.72299375,1.0,2688.058901921625,0.4645573858544567,1.2993464527700231,0.9774326103549231,0.2854187375,0.7142592513201668
0.056,1.7216,1.0,2685.8326010570568,0.4675607650049766,1.2987374131353957,0.9776783868435202,0.2853602,0.7154207844170023
0.0565,1.72019375,1.0,2683.5993153954387,0.4705472981820665,1.2981228008241308,0.9779178958482946,0.28530113749999997,0.7165905472856366
0.057,1.718775,1.0,2681.363218216401,0.47351709760230637,1.2975025776541975,0.9781513375235301,0.28524155,0.7177685468402684
0.0575,1.71734375,1.0,2679.1251306969302,0.4764702525119381,1.2968767361344773,0.9783789035231771,0.2851814375,0.7189547306828442
0.058,1.7159,1.0,2676.8858726559843,0.47940685215720347,1.296245268773852,0.9786007777524021,0.2851208,0.7201490456923094
0.0585,1.71444375,1.0,2674.6462625508243,0.48232698578434424,1.2956081680812026,0.9788171367405372,0.2850596375,0.7213514380219244
0.059000000000000004,1.7129750000000001,1.0,2672.407117473877,0.4852307426396023,1.2949654265654111,0.9790281499932226,0.28499795,0.7225618530965723
0.059500000000000004,1.71149375,1.0,2670.1692531519743,0.48811821196921934,1.294317036735359,0.9792339803250544,0.2849357375,0.7237802356100682
0.06,1.71,1.0,2667.9334839458343,0.4909894830194372,1.2936629910999278,0.9794347841739617,0.284873,0.725006529522461
0.0605,1.7084937500000001,1.0,2665.700622851434,0.4938446450364977,1.2930032821679993,0.9796307118984486,0.2848097375,0.7262406780573335
0.061,1.7069750000000001,1.0,2663.4714815023344,0.49668378726664264,1.2923379024484547,0.9798219080587631,0.28474595,0.7274826236991001
0.0615,1.7054437500000001,1.0,2661.2468701731846,0.4995069989561137,1.291666844450176,0.9800085116829708,0.2846816375,0.7287323081902961
0.062,1.7039,1.0,2659.027597785086,0.5023143693511529,1.2909901006820443,0.9801906565188595,0.2846168,0.7299896725288703
0.0625,1.70234375,1.0,2656.8144719109073,0.5051059876980019,1.2903076636529416,0.9803684712725251,0.2845514375,0.7312546569654673
0.063,1.7007750000000001,1.0,2654.60829878336,0.5078819432429024,1.289619525871749,0.98054207983444,0.28448555,0.732527201000712
0.0635,1.69919375,1.0,2652.409883303483,0.5106423252320963,1.2889256798473485,0.9807116014937457,0.28441913750000003,0.7338072433824856
0.064,1.6976,1.0,2650.220029049913,0.5133872229118254,1.2882261180886216,0.9808771511414675,0.2843522,0.7350947221032014
0.0645,1.69599375,1.0,2648.039538290892,0.5161167255283315,1.2875208331044499,0.9810388394633017,0.2842847375,0.7363895743970762
0.065,1.694375,1.0,2645.8692119960265,0.5188309223278563,1.2868098174037146,0.9811967731225781,0.28421675,0.7376917367373976
0.0655,1.69274375,1.0,2643.708830902377,0.521529862827771,1.2860930729062223,0.9813510526230057,0.2841482375,0.7390011276628666
0.066,1.6911,1.0,2641.5594846171975,0.5242136696795351,1.285370589441806,0.9815017793664594,0.2840792,0.7403176871225645
0.0665,1.6894437500000001,1.0,2639.4216324665363,0.5268824412951904,1.2846423626502075,0.981649049740959,0.2840096375,0.7416413437018743
0.067,1.687775,1.0,2637.295303046362,0.529536257573172,1.2839083921477024,0.9817929556678923,0.28393955,0.7429720180743191
0.0675,1.68609375,1.0,2635.180524950563,0.5321751984119151,1.2831686775505657,0.9819335858550421,0.2838689375,0.7443096302750757
0.068,1.6844000000000001,1.0,2633.0773267713344,0.5347993437098549,1.2824232184750728,0.9820710259298707,0.2837978,0.7456540997008333
0.0685,1.68269375,1.0,2630.9857370999584,0.5374087733654266,1.2816720145374987,0.9822053585663681,0.2837261375,0.7470053451096529
0.069,1.680975,1.0,2628.9057845278426,0.5400035672770653,1.280915065354119,0.9823366636058214,0.28365395,0.748363284620826
0.0695,1.67924375,1.0,2626.8374976473056,0.5425838053432064,1.2801523705412088,0.9824650181718373,0.28358123749999997,0.7497278357147361
0.07,1.6775,1.0,2624.7809050524315,0.5451495674622848,1.2793839297150433,0.9825904967799217,0.283508,0.751098915232716
0.07050000000000001,1.67574375,1.0,2622.736035339991,0.5477009335327357,1.278609742491898,0.9827131714419175,0.2834342375,0.7524764393769077
0.07100000000000001,1.673975,1.0,2620.7029171101044,0.5502379834529946,1.277829808488048,0.9828331117655661,0.28335995,0.7538603237101231
0.07150000000000001,1.67219375,1.0,2618.6815789673024,0.5527607971214963,1.2770441273197686,0.9829503850494581,0.2832851375,0.7552504831557011
0.07200000000000001,1.6704,1.0,2616.6720495213235,0.5552694544366762,1.276252698603335,0.9830650563736106,0.2832098,0.7566468319973694
0.0725,1.66859375,1.0,2614.674357388019,0.5577640352969694,1.2754555219550225,0.9831771886859028,0.2831339375,0.7580492838791011
0.073,1.6667750000000001,1.0,2612.6885311901924,0.5602446196008111,1.2746525969911064,0.983286842884584,0.28305755,0.7594577518049773
0.0735,1.66494375,1.0,2610.7145995584096,0.5627112872466364,1.273843923327862,0.9833940778970571,0.2829806375,0.7608721481390435
0.074,1.6631,1.0,2608.752591131946,0.5651641181328806,1.2730295005815644,0.9834989507551267,0.2829032,0.7622923846051708
0.0745,1.6612437500000001,1.0,2606.8025345596957,0.5676031921579788,1.272209328368489,0.9836015166668957,0.2828252375,0.7637183722869137
0.075,1.659375,1.0,2604.8644585011602,0.5700285892203663,1.271383406304911,0.9837018290854765,0.28274675,0.7651500216273712
0.0755,1.65749375,1.0,2602.93823510742,0.5724403873471366,1.2705517354639864,0.983799939734359,0.2826677375,0.7665872399152588
