Time [s],Phi [rad],STIM [ ],Fsee [N],Gamma [ ],Lcerel [ ],q [ ],Lmtc [m],fisomrel [ ]
0.0,1.8,1.0,17.967111703792323,2.206878649467692e-05,1.3793397514252226,0.0050001289941866,0.288653,0.5411395184587064
0.0005,1.79999375,1.0,18.28051917277073,0.00563115430685392,1.37930196847917,0.012974054304001108,0.2886527375,0.5412309206244472
0.001,1.799975,1.0,21.63114069349274,0.011208777292305854,1.3789369991480096,0.035671496450220996,0.28865195,0.5421133631272366
0.0015,1.79994375,1.0,31.101008298916916,0.01675511422366868,1.3780434975302542,0.07068782016686763,0.2886506375,0.5442701338491476
0.002,1.7999,1.0,53.65203019467802,0.022270340590086996,1.3763636151169243,0.11481981731372268,0.2886488,0.5483113176534429
0.0025,1.79984375,1.0,97.23679499314787,0.02775463089668493,1.3739294897172696,0.16468561772294388,0.28864643749999996,0.5541350022952245
0.003,1.7997750000000001,1.0,161.11212653699974,0.03320815867216763,1.371208582274986,0.217394682766219,0.28864354999999997,0.5606000907059788
0.0035,1.79969375,1.0,237.85762260412886,0.038631096468502615,1.3685793665912482,0.2707265022027085,0.2886401375,0.5668024570254919
0.004,1.7996,1.0,321.65242224512644,0.044023615871678995,1.3661511759224874,0.32302581153380205,0.2886362,0.5724914425082261
0.0045000000000000005,1.7994937500000001,1.0,409.46016936768217,0.04938588750689835,1.3639182978998814,0.37313893665561265,0.2886317375,0.577689644303741
0.005,1.799375,1.0,499.6099544663909,0.05471808102968977,1.3618541682047272,0.4203451629538026,0.28862675,0.5824667122221461
0.0055,1.79924375,1.0,590.9887398452831,0.060020365172893546,1.3599349606183624,0.46426415580115743,0.2886212375,0.586884005499547
0.006,1.7991000000000001,1.0,682.7167778561067,0.06529290769105048,1.3581428037269438,0.5047630923454056,0.2886152,0.5909876662583029
0.006500000000000001,1.79894375,1.0,774.0809296662662,0.07053587541262828,1.3564638453083866,0.5418767471649635,0.2886086375,0.5948135426911947
0.007,1.798775,1.0,864.4859382092484,0.07574943423915188,1.3548871624910703,0.5757460010973431,0.28860155,0.5983899933004996
0.0075,1.79859375,1.0,953.4408669586805,0.08093374910673282,1.3534037392636447,0.606572864505204,0.2885939375,0.6017404243446234
0.008,1.7984,1.0,1040.5544242400374,0.08608898408656412,1.352005761222209,0.6345892348166671,0.2885858,0.6048850257218534
0.0085,1.79819375,1.0,1125.5118699054738,0.09121530225756298,1.3506864437317365,0.6600363260671629,0.2885771375,0.6078412569604197
0.009000000000000001,1.797975,1.0,1208.0736930566222,0.09631286584667229,1.3494396642939963,0.6831514934263494,0.28856795,0.6106247481444489
0.0095,1.79774375,1.0,1288.050516616133,0.10138183587649892,1.348260028991286,0.7041605677739228,0.2885582375,0.6132492098437137
0.01,1.7975,1.0,1365.3401580125217,0.10642237357820836,1.3471421604344367,0.723273329939846,0.288548,0.6157280626559689
0.0105,1.79724375,1.0,1439.8329993621546,0.11143463763514472,1.3460817749650948,0.7406822725928462,0.2885372375,0.618072082388423
0.011,1.796975,1.0,1511.4776906737939,0.11641878656000648,1.3450746544793533,0.7565617147409291,0.28852595000000003,0.6202917182268972
0.0115,1.79669375,1.0,1580.2621776687906,0.12137497822106638,1.3441167966603251,0.771068458641108,0.2885141375,0.6223967801538153
0.012,1.7964,1.0,1646.2048892602472,0.1263033702037184,1.34320443410455,0.7843428737272959,0.28850180000000003,0.6243964171268357
0.0125,1.79609375,1.0,1709.3131306620803,0.13120411765129616,1.342334436387123,0.7965103799944173,0.2884889375,0.626298257855583
0.013000000000000001,1.7957750000000001,1.0,1769.6242508289704,0.13607737542966086,1.3415037440819682,0.8076825966585193,0.28847555,0.6281096708482067
0.0135,1.79544375,1.0,1827.1922311028372,0.1409232976919861,1.34070947630399,0.8179587939018196,0.2884616375,0.6298375406781279
0.014,1.7951000000000001,1.0,1882.0992486949654,0.1457420390373798,1.3399487587694234,0.8274271642118085,0.2884472,0.6314886524589552
0.0145,1.79474375,1.0,1934.403294274497,0.15053375126138235,1.3392192609092028,0.8361662552663682,0.2884322375,0.6330685364420094
0.015,1.794375,1.0,1984.1666936453555,0.15529858528100096,1.3385188317905123,0.8442459456220492,0.28841675,0.6345822720764887
0.0155,1.79399375,1.0,2031.4703138267785,0.16003669201324291,1.3378453204805363,0.8517283975109896,0.2884007375,0.6360348833845783
0.016,1.7936,1.0,2076.3840032273847,0.1647482213339947,1.337196867387278,0.8586690592160956,0.2883842,0.6374307162761685
0.0165,1.7931937500000001,1.0,2119.0440810619884,0.16943332380977558,1.3365710746394643,0.8651172038686353,0.2883671375,0.6387752286863397
0.017,1.792775000868759,1.0,2159.505644479866,0.17409214674124196,1.335966528547911,0.8711171148731031,0.2883495500364879,0.640071720967684
0.0175,1.7923501482423556,1.0,2198.099291414068,0.17872483682570975,1.3353820160165168,0.8767084386131634,0.28833170622617893,0.6413230335864057
0.018000000000000002,1.7919252956159524,1.0,2235.160673404767,0.1833315407604948,1.3348163239491808,0.8819266723556918,0.28831386241587,0.6425319809220575
0.0185,1.791500442989549,1.0,2270.758255845065,0.1879124047212923,1.3342683036818246,0.886803665393739,0.28829601860556103,0.643701215413506
0.019,1.7910755903631455,1.0,2304.9405520803184,0.19246757426232083,1.3337370612561656,0.891368089004961,0.2882781747952521,0.6448328250768443
0.0195,1.790650737736742,1.0,2337.753848478074,0.19699719291085552,1.3332217700734916,0.895645750380728,0.2882603309849432,0.6459287370825545
0.02,1.7902258851103388,1.0,2369.2471305195677,0.20150140361921362,1.3327216174300585,0.8996599061107742,0.28824248717463424,0.6469908332102228
0.0205,1.7898010324839353,1.0,2399.4652142486516,0.2059803473818357,1.3322358679052868,0.9034315620609843,0.2882246433643253,0.6480208165727706
0.021,1.7893761798575318,1.0,2428.467478912093,0.21043416812968146,1.3317636779713364,0.9069796855472162,0.28820679955401635,0.6490206058001639
0.021500000000000002,1.7889513272311284,1.0,2456.313710412281,0.2148630096545801,1.3313042325165263,0.9103214568135292,0.2881889557437074,0.6499920456525367
0.022,1.7885264746047251,1.0,2483.0416717037847,0.2192670097855871,1.3308569554910354,0.9134725019344473,0.28817111193339845,0.6509364636581728
0.0225,1.7881016219783217,1.0,2508.691447262795,0.223646306351758,1.3304212708450422,0.9164470132828263,0.2881532681230895,0.651855177848046
0.023,1.7876767693519182,1.0,2533.3052913517367,0.2280010371821483,1.3299966025287255,0.9192579009200593,0.28813542431278055,0.6527494971922778
0.0235,1.7872519167255148,1.0,2556.9274836413783,0.23233134010581347,1.3295823744922646,0.9219169262163253,0.2881175805024716,0.6536207220154359
0.024,1.7868270640991115,1.0,2579.6041921901615,0.23663735295180904,1.3291780106858377,0.924434819952654,0.2880997366921627,0.6544701443906713
0.0245,1.786402211472708,1.0,2601.377293250074,0.24091921152288245,1.3287829913946996,0.9268213957718545,0.2880818928818537,0.6552989303876049
0.025,1.7859773588463046,1.0,2622.289831038057,0.2451770527334657,1.3283968003475988,0.9290856341890924,0.2880640490715448,0.6561082318924086
0.025500000000000002,1.7855525062199011,1.0,2642.386679288524,0.24941101407132157,1.3280189175725179,0.9312357632554858,0.2880462052612358,0.6568992018958983
0.026000000000000002,1.7851276535934977,1.0,2661.6974752596857,0.2536212272286862,1.32764897564755,0.9332793543251995,0.2880283614509269,0.6576726682305841
0.0265,1.7847028009670944,1.0,2680.252869121789,0.25780782389779566,1.3272866071507878,0.9352233628999471,0.28801051764061797,0.658429454016983
0.027,1.784277948340691,1.0,2698.084460766057,0.2619709357708862,1.3269314446603244,0.9370741870025118,0.287992673830309,0.6591703778453866
0.0275,1.7838530957142875,1.0,2715.224739605427,0.2661106945401939,1.3265831207542529,0.9388377193067123,0.28797483002000007,0.6598962539490214
0.028,1.783428243087884,1.0,2731.7070273690038,0.27022723189795494,1.326241268010666,0.940519393759122,0.2879569862096911,0.6606078923685993
0.0285,1.7830033904614808,1.0,2747.5625030805572,0.2743206780219282,1.3259055454692874,0.9421242305377839,0.2879391423993822,0.6613060441083107
0.029,1.7825785378350774,1.0,2762.8178154450006,0.27839116146611254,1.3255756593739856,0.9436568760162231,0.2879212985890732,0.6619913584923295
0.029500000000000002,1.782153685208674,1.0,2777.5112639044455,0.28243881738341936,1.32525121633877,0.9451216186657823,0.28790345477876433,0.6626646883614498
0.03,1.7817288325822704,1.0,2791.6634235266524,0.286463771184112,1.3249319882980741,0.9465224501721778,0.28788561096845533,0.6633265401169013
0.0305,1.7813039799558672,1.0,2805.295313262657,0.29046614827845363,1.3246177471863319,0.9478630724629842,0.28786776715814644,0.6639774177668072
0.031,1.7808791273294637,1.0,2818.428370152466,0.2944460740767075,1.324308264937977,0.9491469224012423,0.2878499233478375,0.6646178230003794
0.0315,1.7804542747030603,1.0,2831.084424685907,0.2984036739891367,1.324003313487443,0.9503771940847012,0.28783207953752854,0.6652482552587939
0.032,1.7800294220766568,1.0,2843.2856773151093,0.3023390734260046,1.3237026647691639,0.9515568590087925,0.2878142357272196,0.6658692118027497
0.0325,1.7796045694502536,1.0,2855.0546761213427,0.30625239779757424,1.3234060907175733,0.9526886843210702,0.28779639191691064,0.6664811877767116
0.033,1.7791797168238501,1.0,2866.4124412299666,0.3101437709613699,1.3231133797154575,0.9537752508436871,0.2877785481066017,0.6670846423751741
0.0335,1.7787548641974467,1.0,2877.3738810514424,0.3140133126825275,1.3228243768396244,0.9548189718516072,0.28776070429629275,0.667679916192947
0.034,1.7783300115710432,1.0,2887.9682565560347,0.3178611556805306,1.3225388023476574,0.9558220904956686,0.2877428604859838,0.6682676051662589
0.0345,1.77790515894464,1.0,2898.2087483515934,0.32168741865766587,1.322256521122731,0.9567867156681661,0.28772501667567485,0.668848005720264
0.035,1.7774803063182365,1.0,2908.108719539349,0.32549222031621994,1.3219773980480203,0.957714820256978,0.28770717286536596,0.6694214130938352
0.035500000000000004,1.777055453691833,1.0,2917.681706050447,0.32927567935847946,1.3217012980067,0.9586082515006433,0.28768932905505695,0.669988121367361
0.036000000000000004,1.7766306010654296,1.0,2926.9414073880353,0.33303791448673103,1.321428085881945,0.9594687404411337,0.28767148524474806,0.6705484234893784
0.0365,1.7762057484390263,1.0,2935.9016777723728,0.33677904440326134,1.32115762655693,0.9602979105622907,0.2876536414344391,0.6711026113020392
0.037,1.7757808958126229,1.0,2944.576517692636,0.3404991878103571,1.32088978491483,0.9610972856924646,0.28763579762413016,0.671650975565415
0.0375,1.7753560431862194,1.0,2952.9800658621507,0.34419846341030486,1.3206244258388196,0.9618682972415518,0.2876179538138212,0.6721938059806356
0.038,1.774931190559816,1.0,2961.126591579109,0.3478769899053913,1.3203614142120736,0.9626122908352629,0.28760011000351227,0.6727313912118629
0.0385,1.7745063379334125,1.0,2969.0213812374154,0.3515348738538541,1.3201006942811464,0.9633305373907637,0.2875822661932033,0.6732638568900767
0.039,1.7740814853070093,1.0,2976.6859704308235,0.3551722472261218,1.3198420694640833,0.9640242254761249,0.28756442238289437,0.673791615436647
0.0395,1.7736566326806058,1.0,2984.129672504322,0.3587892237368857,1.3195854507111593,0.9646944810611576,0.2875465785725854,0.6743148587172997
0.04,1.7732317800542023,1.0,2991.3603219445945,0.3623859148505304,1.3193307624965183,0.9653423664871164,0.28752873476227647,0.6748337503934703
0.0405,1.7728069274277989,1.0,2998.385820764354,0.36596243203144063,1.3190779292943038,0.9659688840144572,0.2875108909519676,0.675348453562689
0.041,1.7723820748013956,1.0,3005.214135332367,0.36951888674400085,1.31882687557866,0.9665749798537616,0.28749304714165863,0.6758591307676964
0.0415,1.7719572221749922,1.0,3011.8532933311176,0.3730553904525957,1.318577525823731,0.9671615478856698,0.2874752033313497,0.676365944005198
0.042,1.7715323695485887,1.0,3018.3113808399435,0.3765720546216099,1.3183298045036602,0.9677294330968141,0.28745735952104073,0.6768690547342522
0.0425,1.7711075169221853,1.0,3024.5965395447756,0.38006899071542793,1.3180836360925918,0.9682794347561292,0.2874395157107318,0.6773686238842973
0.043000000000000003,1.770682664295782,1.0,3030.716964074801,0.38354631019843444,1.31783894506467,0.9688123093536204,0.28742167190042284,0.6778648118628117
0.043500000000000004,1.7702578116693786,1.0,3036.680899465249,0.3870041245350141,1.3175956558940383,0.9693287733215827,0.2874038280901139,0.6783577785626136
0.044,1.769832959042975,1.0,3042.496032205177,0.3904425435857223,1.317353698276792,0.9698295057220732,0.28738598427980494,0.6788476727998818
0.0445,1.7694081064165716,1.0,3048.1635136566124,0.3938616619180472,1.3171130584938475,0.9703151525120322,0.287368140469496,0.6793345284843038
0.045,1.7689832537901684,1.0,3053.698709067128,0.3972616135591604,1.3168736008287263,0.9707863230045363,0.2873502966591871,0.6798186259497354
0.0455,1.768558401163765,1.0,3059.105825900378,0.4006425021159057,1.3166352859434822,0.9712435983881851,0.2873324528488781,0.6803000500493918
0.046,1.7681335485373615,1.0,3064.389096713158,0.40400443119512697,1.3163980745001702,0.9716875306628303,0.2873146090385692,0.6807788853717626
0.0465,1.767708695910958,1.0,3069.552778175327,0.4073475044036682,1.3161619271608442,0.9721186443848902,0.28729676522826025,0.6812552162434344
0.047,1.7672838432845546,1.0,3074.6011501250855,0.4106718253483733,1.3159268045875592,0.9725374382922711,0.2872789214179513,0.6817291267318055
0.0475,1.7668589906581513,1.0,3079.538514657792,0.4139774976360862,1.3156926674423695,0.9729443868182605,0.28726107760764236,0.682200700647709
0.048,1.7664341380317479,1.0,3084.3691952493705,0.41726462487365085,1.315459476387329,0.973339941502953,0.2872432337973334,0.6826700215479342
0.0485,1.7660092854053444,1.0,3089.0975359139256,0.4205333106679111,1.315227192084493,0.9737245323100409,0.28722538998702446,0.6831371727376474
0.049,1.765584432778941,1.0,3093.727900395907,0.423783658625711,1.3149957751959154,0.9740985688561283,0.2872075461767155,0.683602237272718
0.0495,1.7651595801525377,1.0,3098.264671396239,0.42701577235389426,1.3147651863836507,0.9744624415591342,0.28718970236640656,0.6840652979619439
0.05,1.7647347275261343,1.0,3102.712249833071,0.430229755459305,1.3145353863097533,0.9748165227118001,0.2871718585560976,0.6845264373691782
0.0505,1.7643098748997308,1.0,3107.075054136562,0.433425711548787,1.3143063356362779,0.9751611674858203,0.2871540147457887,0.6849857378153554
0.051000000000000004,1.7638850222733273,1.0,3111.3553267232182,0.43660373234900274,1.3140780136943355,0.9754967147617428,0.2871361709354797,0.6854432439853979
0.051500000000000004,1.763460169646924,1.0,3115.554514837138,0.4397639093117568,1.313850406667724,0.9758234885624496,0.2871183271251708,0.6858989867171694
0.052000000000000005,1.7630353170205206,1.0,3119.6819229499106,0.4429063780054126,1.313623434002847,0.9761417989436552,0.2871004833148619,0.686353130243182
0.0525,1.7626104643941172,1.0,3123.7395621050346,0.4460312331185753,1.3133970773539716,0.9764519417235479,0.28708263950455293,0.6868057139859335
0.053,1.7621856117677137,1.0,3127.7294515319454,0.44913856933985,1.3131713183753637,0.9767541997539979,0.287064795694244,0.687256777254581
0.0535,1.7617607591413105,1.0,3131.6536183995654,0.45222848135784194,1.3129461387212897,0.9770488435997409,0.28704695188393503,0.6877063592456483
0.054,1.761335906514907,1.0,3135.5140975764766,0.4553010638611563,1.312721520046016,0.9773361321763987,0.2870291080736261,0.6881544990437155
0.0545,1.7609110538885036,1.0,3139.3129313994655,0.45835641153839823,1.3124974440038089,0.9776163133501558,0.28701126426331713,0.6886012356220865
0.055,1.7604862012621,1.0,3143.052169448757,0.46139461907817286,1.3122738922489345,0.9778896245017015,0.2869934204530082,0.6890466078434339
0.0555,1.7600613486356966,1.0,3146.733868331136,0.46441578116908544,1.3120508464356595,0.9781562930568469,0.28697557664269924,0.6894906544604225
0.056,1.7596364960092934,1.0,3150.3600914704925,0.4674199924997411,1.31182828821825,0.9784165369860489,0.28695773283239034,0.689933414116314
0.0565,1.75921164338289,1.0,3153.932908905476,0.470407347758745,1.311606199250972,0.9786705652748994,0.28693988902208134,0.690374925345547
0.057,1.7587867907564865,1.0,3157.4543970955347,0.4733779416347023,1.3113845611880923,0.9789185783674971,0.28692204521177245,0.690815226574296
0.0575,1.758361938130083,1.0,3160.9266387328557,0.47633186881621825,1.311163355683877,0.979160768584468,0.2869042014014635,0.6912543561210108
0.058,1.7579370855036798,1.0,3164.3517225635055,0.479269223991898,1.3109425643925925,0.9793973205172785,0.28688635759115455,0.6916923521969339
0.0585,1.7575122328772763,1.0,3167.731743214825,0.48219010185034666,1.310722168968505,0.979628411400364,0.2868685137808456,0.6921292529065941
0.059000000000000004,1.7570873802508729,1.0,3171.068801030717,0.4850945970801695,1.3105021510658805,0.9798542114624899,0.28685066997053665,0.6925650962482817
0.059500000000000004,1.7566625276244694,1.0,3174.3650019143543,0.4879828043699716,1.310282492338986,0.9800748842586536,0.2868328261602277,0.6929999201144997
0.06,1.7562376749980662,1.0,3177.6190256223836,0.4908547789511144,1.3100632033507136,0.9802905853780289,0.28681498234991876,0.6934337051272131
0.0605,1.7558128223716627,1.0,3180.835186808559,0.4937106525348362,1.3098442472034717,0.9805014679669884,0.28679713853960986,0.6938665257490877
0.061,1.7553879697452592,1.0,3184.0155271433414,0.49655052486845486,1.3096256062101101,0.9807076777808019,0.28677929472930086,0.6942984183004521
0.0615,1.7549631171188558,1.0,3187.1609377190257,0.49937448122483086,1.309407272402932,0.9809093544357974,0.28676145091899197,0.6947293998219957
0.062,1.7545382644924525,1.0,3190.272312136057,0.5021826068768249,1.3091892378142405,0.9811066323068685,0.286743607108683,0.6951594873081921
0.0625,1.754113411866049,1.0,3193.3505464504974,0.5049749870972975,1.3089714944763382,0.9812996407636103,0.28672576329837407,0.6955886977074557
0.063,1.7536885592396456,1.0,3196.396539121195,0.5077517071591092,1.3087540344215283,0.9814885043941166,0.2867079194880651,0.6960170479222887
0.0635,1.7532637066132422,1.0,3199.4111909592525,0.5105128523351207,1.3085368496821137,0.9816733432171622,0.2866900756777562,0.6964445548094285
0.064,1.752838853986839,1.0,3202.395405078755,0.5132585078981924,1.3083199322903976,0.9818542728834602,0.2866722318674472,0.6968712351799894
0.0645,1.7524140013604355,1.0,3205.3500868487354,0.5159887591211851,1.308103274278683,0.9820314048666304,0.2866543880571383,0.6972971057996005
0.065,1.751989148734032,1.0,3208.276143846751,0.5187036912769593,1.307886867679272,0.9822048466444743,0.28663654424682933,0.6977221833885409
0.0655,1.7515642961076285,1.0,3211.174485813487,0.5214033896383755,1.3076707045244689,0.9823747018711185,0.2866187004365204,0.6981464846218653
0.066,1.7511394434812253,1.0,3214.0460246096127,0.5240879394782945,1.3074547768465756,0.9825410705405473,0.2866008566262115,0.6985700261295357
0.0665,1.7507145908548218,1.0,3216.8916741726243,0.5267574260695765,1.3072390766778959,0.9827040491420123,0.2865830128159025,0.6989928244965371
0.067,1.7502897382284184,1.0,3219.7123504770952,0.5294119346850825,1.307023596050732,0.9828637308077793,0.2865651690055936,0.6994148962630007
0.0675,1.749864885602015,1.0,3222.5089714938995,0.5320515505976728,1.3068083269973874,0.9830202054536409,0.28654732519528464,0.699836257924312
0.068,1.7494400329756115,1.0,3225.2824571531346,0.5346763590802082,1.3065932615501648,0.9831735599125961,0.2865294813849757,0.7002569259312253
0.0685,1.7490151803492082,1.0,3228.0337293070925,0.537286445405549,1.3063783917413674,0.9833238780620773,0.28651163757466674,0.7006769166899657
0.069,1.7485903277228048,1.0,3230.763711694922,0.5398818948465561,1.3061637096032979,0.983471240945074,0.2864937937643578,0.7010962465623326
0.0695,1.7481654750964013,1.0,3233.4726182868044,0.5424627740562326,1.30594921311121,0.983615726039442,0.28647594995404885,0.7015149202698705
