Time [s],Phi [rad],STIM [ ],Fsee [N],Gamma [ ],Lcerel [ ],q [ ],Lmtc [m],fisomrel [ ]
0.0,1.8,1.0,18.240776624211684,0.0005325010768501757,1.3793092076292714,0.005073228247746087,0.288653,0.5412134088254281
0.0005,1.79999375,1.0,18.71361950114229,0.006138723475765708,1.3792541460238865,0.014454530936841493,0.2886527375,0.5413465966954483
0.001,1.799975,1.0,22.443028013240408,0.011713499399540687,1.3788548648606909,0.038383140437619465,0.28865195,0.5423118347301903
0.0015,1.79994375,1.0,32.748930605122105,0.01725700523894107,1.3779049830949537,0.07436565534015911,0.2886506375,0.5446040298214374
0.002,1.7999,1.0,56.956828405321104,0.022769416393356123,1.3761525575895412,0.11915363607204536,0.2886488,0.548817772381527
0.0025,1.79984375,1.0,102.59270251509321,0.028250907278815532,1.3736750149910495,0.16938641321838488,0.28864643749999996,0.5547416555211702
0.003,1.7997750000000001,1.0,167.94249961322754,0.0337016513365793,1.3709556896317399,0.2222353078672427,0.28864354999999997,0.5611985852354602
0.0035,1.79969375,1.0,245.50014538154886,0.039121821029757566,1.3683459034421535,0.27553473891878516,0.2886401375,0.5673510695707391
0.004,1.7996,1.0,329.74185027527005,0.044511587856329034,1.3659383097769122,0.32767697931505646,0.2886362,0.5729883719311755
0.0045000000000000005,1.7994937500000001,1.0,417.80894924881426,0.049871122349378995,1.363723354960739,0.37755097876421106,0.2886317375,0.5781419676533937
0.005,1.799375,1.0,508.10962664290633,0.055200594096714274,1.3616743479679934,0.4244708167349214,0.28862675,0.5828815880801239
0.0055,1.79924375,1.0,599.5515276524119,0.0605001717248686,1.3597682941159344,0.4680824351800812,0.2886212375,0.5872665004748423
0.006,1.7991000000000001,1.0,691.2741246564361,0.065770022903497,1.35798776089732,0.5082712155465785,0.2886152,0.5913417189021786
0.006500000000000001,1.79894375,1.0,782.5746038000013,0.07101031437317754,1.356319266937373,0.5450838543755873,0.2886086375,0.5951421556416236
0.007,1.798775,1.0,872.8718009779153,0.07622121200408802,1.3547520464956346,0.5786683641633452,0.28860155,0.5986957446019103
0.0075,1.79859375,1.0,961.6715195886638,0.08140288045290861,1.3532774284540063,0.609230703511817,0.2885939375,0.6020250591356009
0.008,1.7984,1.0,1048.6106354044641,0.08655548408152017,1.3518873895869172,0.6370041431618737,0.2885858,0.6051507176329883
0.0085,1.79819375,1.0,1133.3691122835207,0.09167918562228956,1.3505754172677282,0.6622301202757362,0.2885771375,0.6080895306363465
0.009000000000000001,1.797975,1.0,1215.7047427027674,0.09677414703969256,1.3493355666897913,0.6851452616941314,0.28856795,0.6108567023135281
0.0095,1.79774375,1.0,1295.459051695066,0.10184052990434445,1.3481621408399522,0.7059739035669246,0.2885582375,0.6134665933856546
0.01,1.7975,1.0,1372.5033070775673,0.10687849456007908,1.347050220872645,0.7249245042139794,0.288548,0.61593158224569
0.0105,1.79724375,1.0,1446.7434681368109,0.1118881999460896,1.3459953938785394,0.7421878303013009,0.2885372375,0.6182627149707729
0.011,1.796975,1.0,1518.133362579198,0.11686980443901022,1.3449934460511708,0.7579365718308715,0.28852595000000003,0.6204704151203377
0.0115,1.79669375,1.0,1586.682381621915,0.12182346681728765,1.3440401785929,0.7723258959651523,0.2885141375,0.6225649091637931
0.012,1.7964,1.0,1652.3837211803427,0.1267493432592196,1.3431321829368692,0.7854949022721734,0.28850180000000003,0.6245545441102645
0.0125,1.79609375,1.0,1715.2462032464848,0.13164758896273157,1.3422663469329557,0.7975677021800502,0.2884889375,0.6264468997358725
0.013000000000000001,1.7957750000000001,1.0,1775.314611694523,0.1365183591257489,1.3414395584310366,0.8086547072156136,0.28847555,0.6282494513342436
0.0135,1.79544375,1.0,1832.6479412093854,0.14136180793501577,1.3406489111644337,0.8188541187291168,0.2884616375,0.6299691304926203
0.014,1.7951000000000001,1.0,1887.3252822042616,0.14617808972204838,1.339891592856419,0.8282532113430597,0.2884472,0.6316125800558874
0.0145,1.79474375,1.0,1939.3989786575378,0.1509673558550288,1.3391653559484589,0.8369297253437605,0.2884322375,0.6331851445291939
0.015,1.794375,1.0,1988.9387605969996,0.15572975750954504,1.3384679872957395,0.8449527760586745,0.28841675,0.6346920330866428
0.0155,1.79399375,1.0,2036.0285906641004,0.16046544546790215,1.3377973206814708,0.8523838679138036,0.2884007375,0.6361382976416441
0.016,1.7936,1.0,2080.7594140894043,0.16517457018526338,1.3371512926920688,0.8592778106300031,0.2883842,0.6375287175894992
0.0165,1.7931937500000001,1.0,2123.2205820399895,0.16985728148629708,1.3365280104640112,0.865683530942499,0.2883671375,0.6388676599908623
0.017,1.792775,1.0,2163.480197661773,0.17451372626716022,1.3359259306988331,0.871644815956693,0.28834955,0.640158702436616
0.0175,1.7923437500000001,1.0,2201.6169996820154,0.1791440514240096,1.3353435100980706,0.8772008193116941,0.2883314375,0.64140538978031
0.018000000000000002,1.7919,1.0,2237.719470161283,0.18374840385300215,1.3347792053632592,0.8823866057899222,0.2883128,0.6426112361490584
0.0185,1.79144375,1.0,2271.8681193877414,0.18832692869604456,1.3342316413300728,0.887233670733795,0.2882936375,0.64377936841137
0.019,1.790975,1.0,2304.163304925823,0.1928797733734773,1.3336993220565196,0.8917702817332144,0.28827395,0.6449131455963623
0.0195,1.79049375,1.0,2334.673581625154,0.19740708070338167,1.3331811359072763,0.8960219668792463,0.2882537375,0.6460150850622994
0.02,1.79,1.0,2363.467869424569,0.2019089928776786,1.3326760230476513,0.9000117460159657,0.288233,0.6470875755395363
0.0205,1.78949375,1.0,2390.6201610634052,0.20638565208828902,1.3321829236429537,0.903760400261704,0.2882117375,0.6481329886480218
0.021,1.788975,1.0,2416.209094685385,0.21083720052713384,1.3317007778584915,0.9072867202303876,0.28818995000000003,0.6491536797451265
0.021500000000000002,1.78844375,1.0,2440.302723406289,0.21526377820989925,1.3312286684024996,0.9106077528724738,0.2881676375,0.6501516875902644
0.022,1.7879,1.0,2462.986226249338,0.21966552832469485,1.3307655484628131,0.9137389362995303,0.2881448,0.6511293110653521
0.0225,1.78734375,1.0,2484.318467193923,0.22404258905186572,1.330310655432065,0.9166943499844507,0.28812143749999997,0.652088236313902
0.023,1.786775,1.0,2504.354881980581,0.2283950975520735,1.329863284910643,0.9194868143738272,0.28809755,0.6530300167983416
0.0235,1.78619375,1.0,2523.153292017739,0.23272319098597988,1.3294227324989352,0.9221280110709307,0.28807313749999996,0.6539561967886958
0.024,1.7856,1.0,2540.773704234918,0.23702700651424652,1.3289882937973283,0.9246285997277685,0.2880482,0.6548683116847028
0.0245,1.78499375,1.0,2557.2754783004184,0.24130668075071277,1.3285592892318363,0.9269983256448522,0.2880227375,0.655767836286577
0.025,1.784375,1.0,2572.7103086405136,0.24556234847030292,1.3281351277188342,0.9292461212947764,0.28799675,0.6566560521586235
0.025500000000000002,1.78374375,1.0,2587.1496529706037,0.2497941481364899,1.3277150478358755,0.9313801452091484,0.2879702375,0.6575345899933989
0.026000000000000002,1.7831000000000001,1.0,2600.6346305326833,0.25400221156290875,1.3272985853414878,0.933407929587237,0.2879432,0.6584044516373113
0.0265,1.78244375,1.0,2613.2074684540444,0.25818667056319455,1.3268852759942003,0.935336394663185,0.2879156375,0.6592666337314909
0.027,1.781775,1.0,2624.911408798177,0.26234765695098244,1.3264746555525406,0.9371719066276151,0.28788755,0.6601221278120215
0.0275,1.7810937500000001,1.0,2635.790620393249,0.2664853025399076,1.3260662597750377,0.9389203293623395,0.2878589375,0.660971920396421
0.028,1.7804,1.0,2645.8901154394325,0.27059973914360497,1.3256596244202197,0.9405870707158017,0.2878298,0.6618169930563822
0.0285,1.77969375,1.0,2655.250890269404,0.27469109569006595,1.3252543293040389,0.9421771291437019,0.2878001375,0.6626582310873081
0.029,1.778975,1.0,2663.9152621650637,0.27875950535900673,1.324849948158626,0.9436951260234769,0.28776995,0.6634965280017155
0.029500000000000002,1.7782437500000001,1.0,2671.9165116418226,0.28280509586817837,1.3244461432547674,0.9451453482838389,0.2877392375,0.6643325896910299
0.03,1.7775,1.0,2679.2866732629514,0.2868279936886421,1.3240425927653046,0.9465317692371618,0.287708,0.6651670856949585
0.0305,1.77674375,1.0,2686.0582148663575,0.2908283252914592,1.3236389748630786,0.94785807395231,0.2876762375,0.6660006822371671
0.031,1.775975,1.0,2692.263996616741,0.2948062171476909,1.3232349677209312,0.9491276837902367,0.28764395,0.6668340422271957
0.0315,1.7751937500000001,1.0,2697.93723235464,0.29876179572839834,1.3228302495117032,0.9503437785629236,0.2876111375,0.6676678252557762
0.032,1.7744,1.0,2703.102327753403,0.3026951822508254,1.3224245817594364,0.9515093251367447,0.2875778,0.6685025161902184
0.0325,1.77359375,1.0,2707.7909875683526,0.3066065052177567,1.32201766167267,0.9526270808163029,0.2875439375,0.6693387294989345
0.033,1.772775,1.0,2712.0396319201905,0.31049589540488737,1.3216091457355754,0.9536996116370067,0.28750955,0.6701771600103106
0.0335,1.7719437500000002,1.0,2715.8676445951846,0.31436347269019405,1.3211988478024557,0.9547293267421727,0.2874746375,0.6710181765636956
0.034,1.7711000000000001,1.0,2719.2945695175163,0.31820935695165337,1.3207865817276134,0.9557184758568689,0.2874392,0.6718621459933456
0.0345,1.7702437500000001,1.0,2722.3400951900785,0.32203366806724193,1.3203721613653512,0.956669161716274,0.2874032375,0.6727094331061652
0.035,1.7693750000000001,1.0,2725.024039902694,0.3258365259149363,1.3199554005699716,0.9575833513864734,0.28736675,0.6735604006572353
0.035500000000000004,1.76849375,1.0,2727.3663377093058,0.3296180503727131,1.3195361131957777,0.9584628865879594,0.2873297375,0.674415409323135
0.036000000000000004,1.7676,1.0,2729.387025172666,0.33337836131854887,1.3191141130970718,0.9593094931200574,0.2872922,0.6752748176730525
0.0365,1.76669375,1.0,2731.106228877986,0.3371175786304203,1.3186892141281568,0.9601247894738667,0.2872541375,0.6761389821376844
0.037,1.765775,1.0,2732.5441537143106,0.340835822186304,1.3182612301433352,0.9609102947119181,0.28721555,0.677008256975928
0.0375,1.76484375,1.0,2733.7151851375006,0.34453320648076974,1.317830028464281,0.961667439760495,0.2871764375,0.6778828858622269
0.038,1.7639,1.0,2734.6369828763764,0.34820985172502433,1.3173954471616345,0.962397568081466,0.28713679999999997,0.6787631700289098
0.0385,1.76294375,1.0,2735.33004246996,0.351865880077238,1.3169572989915204,0.9631019414549107,0.28709663750000003,0.679649459872449
0.039,1.761975,1.0,2735.805496692172,0.35550140423642856,1.316515482087948,0.963781753741127,0.28705595,0.6805419311180925
0.0395,1.7609937500000001,1.0,2736.0745091154386,0.35911653690161377,1.3160698945849265,0.9644381296161991,0.2870147375,0.6814407580901577
0.04,1.76,1.0,2736.148269761266,0.3627113907718114,1.3156204346164646,0.9650721293169079,0.286973,0.6823461136878635
0.0405,1.7589937500000001,1.0,2736.0379909818557,0.36628607854603923,1.3151670003165714,0.9656847530117508,0.2869307375,0.6832581693605047
0.041,1.757975,1.0,2735.7549035712386,0.369840712923315,1.314709489819256,0.966276944831162,0.28688795,0.6841770950819631
0.0415,1.75694375,1.0,2735.310253106666,0.3733754066026565,1.3142478012585277,0.9668495965867878,0.2868446375,0.6851030593245564
0.042,1.7559,1.0,2734.715296520497,0.3768902722830815,1.313781832768395,0.9674035512067833,0.28680079999999997,0.686036229032229
0.0425,1.75484375,1.0,2733.981298901431,0.3803854226636078,1.3133114824828673,0.967939605911513,0.2867564375,0.6869767695930737
0.043000000000000003,1.753775,1.0,2733.1154480738332,0.3838609612743702,1.3128366856193352,0.9684585167103924,0.28671155,0.6879247708249657
0.043500000000000004,1.75269375,1.0,2732.12818482541,0.3873170038405913,1.3123573478901776,0.9689609990484579,0.28666613750000003,0.6888803801626742
0.044,1.7516,1.0,2731.0314520552615,0.39075367011196255,1.311873361367904,0.9694477302951674,0.2866202,0.6898437706284593
0.0445,1.75049375,1.0,2729.831155137815,0.39417106524141304,1.3113846729783776,0.9699193546703267,0.2865737375,0.6908150045731788
0.045,1.7493750000000001,1.0,2728.5332004596917,0.39756929438187194,1.3108912296474617,0.9703764832678513,0.28652675,0.6917941432662283
0.0455,1.74824375,1.0,2727.1434943407307,0.4009484626862684,1.3103929783010198,0.9708196960776782,0.2864792375,0.6927812468795367
0.046,1.7471,1.0,2725.6679420182263,0.4043086753075315,1.3098898658649147,0.9712495438653891,0.2864312,0.6937763744713812
0.0465,1.7459437500000001,1.0,2724.112446692462,0.40765003739859046,1.30938183926501,0.9716665499208295,0.28638263750000004,0.6947795839700239
0.047,1.744775,1.0,2722.4829086355926,0.4109726541123744,1.3088688454271689,0.9720712116860232,0.28633355,0.6957909321571674
0.0475,1.74359375,1.0,2720.78522436291,0.4142766306018124,1.3083508312772543,0.9724640022717695,0.28628393750000003,0.6968104746512318
0.048,1.7424,1.0,2719.025285865614,0.4175620720198337,1.3078277437411299,0.972845371871517,0.2862338,0.6978382658904505
0.0485,1.74119375,1.0,2717.2089799077407,0.4208290835193674,1.3072995297446586,0.9732157490803568,0.2861831375,0.6988743591157899
0.049,1.739975,1.0,2715.3421873836155,0.42407777025334265,1.3067661362137037,0.9735755421263289,0.28613195,0.6999188063536842
0.0495,1.73874375,1.0,2713.429215599297,0.42730823009148244,1.3062275243609582,0.9739251401273801,0.2860802375,0.7009716304966797
0.05,1.7375,1.0,2711.471391776495,0.4305205560514014,1.3056836825339042,0.974264915335772,0.286028,0.7020328004863242
0.0505,1.73624375,1.0,2709.47743684387,0.43371487767885647,1.3051345316199394,0.974595222532394,0.2859752375,0.7031024158580363
0.051000000000000004,1.734975,1.0,2707.449858964764,0.4368912917843766,1.3045800490992092,0.9749164002179562,0.28592195,0.7041804645750105
0.051500000000000004,1.73369375,1.0,2705.3911632937543,0.44004989517849047,1.304020212451859,0.975228771563025,0.2858681375,0.7052669337395617
0.052000000000000005,1.7324,1.0,2703.303851825682,0.443190784671727,1.303454999158034,0.9755326452339336,0.2858138,0.7063618095854516
0.0525,1.73109375,1.0,2701.1904232561615,0.4463140570746149,1.3028843866978799,0.9758283161672336,0.28575893750000003,0.7074650774701823
0.053,1.729775,1.0,2699.053372852933,0.44941980919768315,1.302308352551542,0.976116066296315,0.28570355000000003,0.7085767218672596
0.0535,1.72844375,1.0,2696.8951923388586,0.4525081378514605,1.3017268741991657,0.9763961652335323,0.2856476375,0.7096967263584211
0.054,1.7271,1.0,2694.718369785897,0.45557913984647563,1.301139929120896,0.9766688709109183,0.2855912,0.7108250736258346
0.0545,1.7257437500000001,1.0,2692.525389520322,0.4586329119932575,1.300547494796879,0.9769344301823273,0.2855342375,0.7119617454442604
0.055,1.724375,1.0,2690.3187320391903,0.46166955110233493,1.2999495487072594,0.9771930793896375,0.28547675,0.7131067226731869
0.0555,1.72299375,1.0,2688.100873938308,0.4646891539842367,1.299346068332183,0.977445044895435,0.2854187375,0.7142599852489289
0.056,1.7216,1.0,2685.8742878510507,0.46769181744949156,1.298737031151795,0.9776905435844295,0.2853602,0.7154215121766949
0.0565,1.72019375,1.0,2683.641442398828,0.4706776383086284,1.298122414646241,0.9779297833356736,0.28530113749999997,0.7165912815226237
0.057,1.718775,1.0,2681.404802152615,0.47364671337217606,1.297502196295666,0.9781629634675154,0.28524155,0.7177692704057875
0.0575,1.71734375,1.0,2679.163045115513,0.4765991136790204,1.2968763882830874,0.9783902748512855,0.2851814375,0.718955389285681
0.058,1.7159,1.0,2676.918446949351,0.479534948731776,1.2962449697911018,0.9786119021707576,0.2851208,0.7201496105659093
0.0585,1.71444375,1.0,2674.6751365304904,0.48245433403543525,1.2956079029507115,0.9788280222234021,0.2850596375,0.7213519378605955
0.059000000000000004,1.7129750000000001,1.0,2672.433720629106,0.48535735733980545,1.2949651821840182,0.9790388041636705,0.28499795,0.7225623128161638
0.059500000000000004,1.71149375,1.0,2670.194804997467,0.4882441063946936,1.2943168019131246,0.9792444104749519,0.2849357375,0.723780676376373
0.06,1.71,1.0,2667.958994371166,0.49111466894990696,1.2936627565601329,0.9794449972827323,0.284873,0.7250069687803067
0.0605,1.7084937500000001,1.0,2665.726892471633,0.49396913275525267,1.293003040547145,0.9796407146506986,0.2848097375,0.7262411295603572
0.061,1.7069750000000001,1.0,2663.4991020084512,0.49680758556053795,1.2923376482962634,0.979831706860846,0.28474595,0.7274830975402111
0.0615,1.7054437500000001,1.0,2661.2762246830225,0.4996301151155698,1.29166657422959,0.9800181126785676,0.2846816375,0.7287328108328286
0.062,1.7039,1.0,2659.058861193142,0.5024368091701555,1.2909898127692276,0.9802000656036347,0.2846168,0.7299902068384243
0.0625,1.70234375,1.0,2656.8476112372946,0.5052277554741023,1.2903073583372777,0.9803776941079232,0.2845514375,0.7312552222424472
0.063,1.7007750000000001,1.0,2654.6430735204135,0.508003041777217,1.2896192053558433,0.9805511218606788,0.28448555,0.7325277930135519
0.0635,1.69919375,1.0,2652.4458457605956,0.5107627558293072,1.288925348247026,0.9807204679420591,0.28441913750000003,0.7338078544015777
0.064,1.6976,1.0,2650.256524695205,0.5135069853801797,1.288225781432928,0.9808858470456489,0.2843522,0.7350953409355165
0.0645,1.69599375,1.0,2648.07570608919,0.5162358181796419,1.2875204993356522,0.9810473696705887,0.2842847375,0.7363901864214836
0.065,1.694375,1.0,2645.903984743216,0.5189493419775009,1.2868094963773002,0.9812051423039271,0.28421675,0.737692323940687
0.0655,1.69274375,1.0,2643.741954502522,0.5216476445235637,1.2860927669799744,0.9813592675937555,0.2841482375,0.7390016858473918
0.066,1.6911,1.0,2641.5902082668185,0.5243308135676377,1.285370305565777,0.9815098445136574,0.2840792,0.7403182037668847
0.0665,1.6894437500000001,1.0,2639.4493380007525,0.5269989368595298,1.2846421065568103,0.981656968518966,0.2840096375,0.7416418085934358
0.067,1.687775,1.0,2637.3198173230967,0.5296520547934552,1.2839081654609854,0.9818007285656418,0.28393955,0.7429724285222504
0.0675,1.68609375,1.0,2635.2026095578203,0.5322903040183369,1.2831684732493447,0.981941216707954,0.2838689375,0.7443099992271529
0.068,1.6844000000000001,1.0,2633.097729819111,0.5349137733088667,1.2824230296542976,0.9820785190251358,0.2837978,0.7456544397987492
0.0685,1.68269375,1.0,2631.005113089024,0.5375225411842383,1.281671835150397,0.9822127179912971,0.2837261375,0.7470056673565292
0.069,1.680975,1.0,2628.92469450603,0.540116686163645,1.2809148902121958,0.9823438932574438,0.28365395,0.748363598396269
0.0695,1.67924375,1.0,2626.856409363356,0.5426962867662808,1.2801521953142467,0.9824721217659801,0.28358123749999997,0.7497281487902046
0.07,1.6775,1.0,2624.800193108297,0.5452614215113388,1.2793837509311026,0.9825974778598079,0.283508,0.7510992337872056
0.07050000000000001,1.67574375,1.0,2622.755981340896,0.5478121689180129,1.2786095575373162,0.9827200333863033,0.2834342375,0.7524767680129493
0.07100000000000001,1.673975,1.0,2620.723709812875,0.5503486075054964,1.2778296156074402,0.9828398577964508,0.28335995,0.7538606654700957
0.07150000000000001,1.67219375,1.0,2618.7033144266443,0.552870815792983,1.2770439256160275,0.982957018239388,0.2832851375,0.7552508395384598
0.07200000000000001,1.6704,1.0,2616.694731234152,0.5553788722996663,1.276252488037631,0.983071579652602,0.2832098,0.7566472029751868
0.0725,1.66859375,1.0,2614.697896435806,0.5578728555447396,1.275455303346803,0.9831836048480043,0.2831339375,0.7580496679149258
0.073,1.6667750000000001,1.0,2612.7127463793313,0.5603528440473969,1.274652372018097,0.9832931545941014,0.28305755,0.7594581458700029
0.0735,1.66494375,1.0,2610.7392175588307,0.5628189163268315,1.2738436945260654,0.983400287694457,0.2829806375,0.7608725477305962
0.074,1.6631,1.0,2608.7772466136553,0.5652711509022369,1.273029271345261,0.9835050610626405,0.2829032,0.7622927837649104
0.0745,1.6612437500000001,1.0,2606.8267703272127,0.5677096262928067,1.2722091029502365,0.9836075297938374,0.2828252375,0.7637187636193481
0.075,1.659375,1.0,2604.887725626271,0.5701344210177345,1.2713831898155448,0.9837077472332925,0.28274675,0.7651503963186863
0.0755,1.65749375,1.0,2602.9600495796126,0.5725456135962139,1.2705515324157386,0.9838057650417447,0.2826677375,0.7665875902662486
