Time [s],Phi [rad],STIM [ ],Fsee [N],Gamma [ ],Lcerel [ ],q [ ],Lmtc [m],fisomrel [ ]
0.0,1.8,1.0,20.401744850970704,0.0015946742170469298,1.3790756532591468,0.005650298410088542,0.288653,0.5417782178129817
0.0005,1.79999375,1.0,21.145773281514614,0.007194938664464876,1.378995306570964,0.017917526081596212,0.2886527375,0.5419724413175417
0.001,1.799975,1.0,25.679992637981073,0.012763790056375441,1.3785413126064807,0.04433473179288191,0.28865195,0.5430691155936309
0.0015,1.79994375,1.0,37.93465128064079,0.01830140459544227,1.3774904635528067,0.08223511212799668,0.2886506375,0.5456025188988748
0.002,1.7999,1.0,65.82412341753918,0.02380795749537566,1.3756147688064213,0.1282964804921805,0.2886488,0.5501069689237841
0.0025,1.79984375,1.0,115.57323742785681,0.029283622987339525,1.3730845503099336,0.17922087790844796,0.28864643749999996,0.5561476987246003
0.003,1.7997750000000001,1.0,183.669876625048,0.0347285743257214,1.370392265698932,0.23230687995005034,0.28864354999999997,0.5625305150204456
0.0035,1.79969375,1.0,262.65536110605535,0.04014298379193276,1.367834737229521,0.2854994551049785,0.2886401375,0.5685510398191622
0.004,1.7996,1.0,347.6373015952847,0.04552702270094674,1.3654764958585184,0.3372882048001006,0.2886362,0.5740654686702118
0.0045000000000000005,1.7994937500000001,1.0,436.10010777183976,0.050880861395452275,1.3633029549749396,0.3866487105673379,0.2886317375,0.5791165909007558
0.005,1.799375,1.0,526.5940330573086,0.05620466932636976,1.3612884102548544,0.4329650398380508,0.28862675,0.5837713157382655
0.0055,1.79924375,1.0,618.0661862518833,0.06149861488987174,1.3594119454328017,0.4759353605751138,0.2886212375,0.5880837164547473
0.006,1.7991000000000001,1.0,709.686343640321,0.06676286556836865,1.3576573875950104,0.5154810204465218,0.2886152,0.5920956412586496
0.006500000000000001,1.79894375,1.0,800.7851710969223,0.07199758801204911,1.3560119098523988,0.5516718468892166,0.2886086375,0.5958403062603554
0.007,1.798775,1.0,890.7817731247063,0.07720294770992756,1.3544656311760739,0.5846698997714705,0.28860155,0.5993434831471542
0.0075,1.79859375,1.0,979.2318167542873,0.08237910962405812,1.3530097356310895,0.6146880367185067,0.2885939375,0.6026279545588913
0.008,1.7984,1.0,1065.746481160789,0.08752623723490736,1.3516371117947883,0.6419626989735566,0.2885858,0.6057121862519756
0.0085,1.79819375,1.0,1150.0370067596994,0.09264449345071031,1.3503411592680261,0.6667350614883568,0.2885771375,0.6086131126362742
0.009000000000000001,1.797975,1.0,1231.8919997092685,0.09773404057084033,1.3491158272164836,0.6892397885230562,0.28856795,0.6113461071012448
0.0095,1.79774375,1.0,1311.1285842316536,0.10279503916322798,1.3479560189039994,0.7096986931890491,0.2885582375,0.6139241355499988
0.01,1.7975,1.0,1387.629167532289,0.10782764928106256,1.3468568642141128,0.7283169377460833,0.288548,0.6163594252154099
0.0105,1.79724375,1.0,1461.3380124044902,0.11283203094194544,1.3458136369412343,0.7452816906037878,0.2885372375,0.6186636750812378
0.011,1.796975,1.0,1532.2028119939814,0.11780834202225081,1.3448223630813279,0.760762396553298,0.28852595000000003,0.6208467408131662
0.0115,1.79669375,1.0,1600.201168709375,0.12275673956879662,1.3438793519547474,0.7749112624095006,0.2885141375,0.6229177018468846
0.012,1.7964,1.0,1665.3477350917435,0.1276773802071936,1.3429810280898973,0.7878643436994452,0.28850180000000003,0.624885249905603
0.0125,1.79609375,1.0,1727.6881979728412,0.13257042052061713,1.3421239407900272,0.7997429180919474,0.2884889375,0.6267576822012181
0.013000000000000001,1.7957750000000001,1.0,1787.2582466035149,0.13743601501062044,1.3413051713168362,0.8106550640771668,0.28847555,0.6285420281644932
0.0135,1.79544375,1.0,1844.097690449017,0.14227431694803144,1.3405220971983873,0.8206969294908788,0.2884616375,0.6302445832895793
0.014,1.7951000000000001,1.0,1898.2729357550418,0.14708547960367804,1.3397720959627435,0.8299539244245974,0.2884472,0.6318715650672329
0.0145,1.79474375,1.0,1949.8572866656614,0.1518696551175609,1.3390527319565795,0.8385020037194816,0.2884322375,0.633428714772895
0.015,1.794375,1.0,1998.9485983450825,0.156626996253297,1.3383615341953712,0.846408685617644,0.28841675,0.6349217862785543
0.0155,1.79399375,1.0,2045.6079827665258,0.16135765238898842,1.3376966220754458,0.8537342414045038,0.2884007375,0.6363552022921988
0.016,1.7936,1.0,2089.909287198665,0.1660617727417151,1.3370561413623039,0.8605323670521922,0.2883842,0.6377332830674574
0.0165,1.7931937500000001,1.0,2131.9402389015854,0.17073950652855707,1.3364382378214466,0.8668509547321676,0.2883671375,0.6390603065420912
0.017,1.792775,1.0,2171.784425758487,0.17539100135192834,1.3358412286259427,0.8727328282705941,0.28834955,0.6403401439892134
0.0175,1.7923437500000001,1.0,2209.547763856784,0.18001640646753375,1.3352633162695293,0.8782162623686361,0.2883314375,0.6415768774360893
0.018000000000000002,1.7919,1.0,2245.2974468132406,0.18461586678575714,1.3347031953855761,0.8833356753861769,0.2883128,0.642773504460092
0.0185,1.79144375,1.0,2279.107798771737,0.18918952713939782,1.3341595688315273,0.888121949895666,0.2882936375,0.6439329800967084
0.019,1.790975,1.0,2311.0604186540213,0.1937375323612551,1.333631139464828,0.8926028390810405,0.28827395,0.6450582359037007
0.0195,1.79049375,1.0,2341.2352880902204,0.1982600261785478,1.333116691347391,0.8968033434524675,0.2882537375,0.6461520087556345
0.02,1.79,1.0,2369.720979281455,0.20275715332380664,1.3326149820514321,0.9007459981242036,0.288233,0.647217071795043
0.0205,1.78949375,1.0,2396.593324899817,0.20722905639217473,1.3321249453412574,0.9044511923043482,0.2882117375,0.6482558057463865
0.021,1.788975,1.0,2421.914256125404,0.21167587544740377,1.33164569304019,0.9079374049481791,0.28818995000000003,0.6492701986221047
0.021500000000000002,1.78844375,1.0,2445.749495690685,0.21609775055324543,1.331176336971555,0.9112213758903214,0.2881676375,0.6502622252235429
0.022,1.7879,1.0,2468.1682430912633,0.22049482177345148,1.3307159889586757,0.9143182935188786,0.2881448,0.6512338477266744
0.0225,1.78734375,1.0,2489.23866955082,0.22486722840636922,1.330263800874862,0.9172419675170977,0.28812143749999997,0.652186931861255
0.023,1.786775,1.0,2509.026105333119,0.22921510911593881,1.3298189783843877,0.9200049762543773,0.28809755,0.653123219060838
0.0235,1.78619375,1.0,2527.6049257153986,0.2335386039668936,1.3293806653044093,0.9226187736486618,0.28807313749999996,0.6540445705472726
0.024,1.7856,1.0,2545.0239921474836,0.23783784787161136,1.3289482678865097,0.9250938599554202,0.2880482,0.6549522865257178
0.0245,1.78499375,1.0,2561.333951189284,0.24211297574246984,1.3285211923822713,0.9274398328333892,0.2880227375,0.6558476599353658
0.025,1.784375,1.0,2576.5870862288093,0.24636412249184692,1.3280988450432774,0.9296654772961412,0.28799675,0.6567319766622051
0.025500000000000002,1.78374375,1.0,2590.8371770164913,0.25059142303212034,1.3276806321211103,0.9317788456048706,0.2879702375,0.6576065157293035
0.026000000000000002,1.7831000000000001,1.0,2604.1343663774687,0.2547950110970958,1.3272660064024828,0.9337873353385281,0.2879432,0.6584724523385526
0.0265,1.78244375,1.0,2616.5270649095382,0.2589750202336206,1.3268544478154933,0.9356977491965757,0.2879156375,0.6593308990536637
0.027,1.781775,1.0,2628.0734414258177,0.26313158562884315,1.3264453556842344,0.9375163351835804,0.28788755,0.6601831305873525
0.0275,1.7810937500000001,1.0,2638.8097979952668,0.2672648367348949,1.326038341005597,0.939248879438332,0.2878589375,0.6610299751094327
0.028,1.7804,1.0,2648.7731897886993,0.27137490300390726,1.3256330147764719,0.9409007191480298,0.2878298,0.6618722566568433
0.0285,1.77969375,1.0,2658.0013601504243,0.2754619138880119,1.3252289879937504,0.9424767832604806,0.2878001375,0.6627107951803601
0.029,1.778975,1.0,2666.532679024864,0.27952599883934015,1.3248258716543235,0.9439816290141168,0.28776995,0.6635464065816612
0.029500000000000002,1.7782437500000001,1.0,2674.4060847384612,0.28356728731002356,1.3244232767550819,0.9454194747609835,0.2877392375,0.6643799027407384
0.03,1.7775,1.0,2681.6548692641218,0.28758590607196993,1.3240208707810701,0.9467942360738338,0.287708,0.6652119748031795
0.0305,1.77674375,1.0,2688.318934630057,0.29158198561430876,1.3236182646271415,0.9481095391226751,0.2876762375,0.6660434272950173
0.031,1.775975,1.0,2694.4286353655843,0.2955556521455522,1.3232151603554343,0.949368761501798,0.28764395,0.6668748728201879
0.0315,1.7751937500000001,1.0,2700.009891732332,0.29950702969463056,1.3228113035782931,0.9505750476206845,0.2876111375,0.6677068312566425
0.032,1.7744,1.0,2705.0889040137367,0.30343624229047417,1.3224064399080622,0.9517313232933122,0.2875778,0.6685398198527076
0.0325,1.77359375,1.0,2709.692125637475,0.3073434139620135,1.322000314957086,0.9528403136053251,0.2875439375,0.6693743532128107
0.033,1.772775,1.0,2713.8462377318338,0.31122866873817884,1.321592674337709,0.9539045591155609,0.28750955,0.6702109432790821
0.0335,1.7719437500000002,1.0,2717.5778364638113,0.31509213030593586,1.3211832662917793,0.9549264307712056,0.2874746375,0.6710500939226531
0.034,1.7711000000000001,1.0,2720.9081759440323,0.3189339140388924,1.3207718893374438,0.9559081464752912,0.2874392,0.6718922034785928
0.0345,1.7702437500000001,1.0,2723.872076648887,0.32275415555462744,1.3203582198939836,0.9568517714870429,0.2874032375,0.6727379175585397
0.035,1.7693750000000001,1.0,2726.4861748348685,0.3265529725131977,1.3199421011892805,0.9577592515290562,0.28736675,0.6735875379036614
0.035500000000000004,1.76849375,1.0,2728.767210033702,0.3303304825746598,1.3195233764512162,0.9586324086155368,0.2873297375,0.6744413644809133
0.036000000000000004,1.7676,1.0,2730.732014216127,0.33408680339907054,1.319101888907673,0.9594729503329701,0.2872922,0.6752996954577648
0.0365,1.76669375,1.0,2732.397501500958,0.33782205264648646,1.3186774817865325,0.9602824783235653,0.2872541375,0.6761628271753642
0.037,1.765775,1.0,2733.7806584084806,0.34153634797696436,1.3182499983156764,0.9610624960481255,0.28721555,0.6770310541201275
0.0375,1.76484375,1.0,2734.8985346594177,0.34522980705056094,1.3178192817229868,0.9618144158968804,0.2871764375,0.6779046688937652
0.038,1.7639,1.0,2735.7682345183916,0.3489025475273328,1.3173851752363455,0.9625395657096449,0.28713679999999997,0.678783962181742
0.0385,1.76294375,1.0,2736.4069086825716,0.35255468706733667,1.3169475220836344,0.9632391947603142,0.28709663750000003,0.6796692227201662
0.039,1.761975,1.0,2736.825153024678,0.3561863343771602,1.3165062253465898,0.9639144830357043,0.28705595,0.680560616444049
0.0395,1.7609937500000001,1.0,2737.0394431137715,0.3597976107043247,1.316061135015867,0.964566539881376,0.2870147375,0.6814584149632712
0.04,1.76,1.0,2737.067985085564,0.363388639598766,1.3156120856157902,0.965196410222881,0.286973,0.6823629190473568
0.0405,1.7589937500000001,1.0,2736.9198288161956,0.3669595310983199,1.3151589949715434,0.9658050847474634,0.2869307375,0.6832742598486182
0.041,1.757975,1.0,2736.604040912105,0.3705103952408223,1.314701780908311,0.9663934987593787,0.28688795,0.6841925672612801
0.0415,1.75694375,1.0,2736.1297018629116,0.37404134206410894,1.3142403612512776,0.9669625358477614,0.2868446375,0.6851179699000847
0.042,1.7559,1.0,2735.50590334375,0.37755248160601573,1.3137746538256274,0.9675130312750906,0.28680079999999997,0.6860505950784684
0.0425,1.75484375,1.0,2734.7417456674234,0.38104392390437847,1.3133045764565447,0.9680457751101913,0.2867564375,0.6869905687863045
0.043000000000000003,1.753775,1.0,2733.8463353856487,0.384515778997033,1.3128300469692142,0.9685615151274348,0.28671155,0.6879380156672169
0.043500000000000004,1.75269375,1.0,2732.8287830414984,0.3879681569218152,1.31235098318882,0.9690609594917654,0.28666613750000003,0.6888930589954638
0.044,1.7516,1.0,2731.698201069458,0.3914011677165608,1.3118673029405468,0.9695447792473699,0.2866202,0.6898558206523892
0.0445,1.75049375,1.0,2730.463701847398,0.3948149214191058,1.3113789240495786,0.9700136106261507,0.2865737375,0.6908264211024451
0.045,1.7493750000000001,1.0,2729.1343958966277,0.39820952806728593,1.3108857643411,0.9704680571907012,0.28652675,0.6918049793687819
0.0455,1.74824375,1.0,2727.713598836853,0.40158508354055406,1.310387794299098,0.9709086938028506,0.2864792375,0.6927915087695817
0.046,1.7471,1.0,2726.211737725961,0.4049417086557633,1.3098849197406817,0.9713360650725505,0.2864312,0.6937861496087732
0.0465,1.7459437500000001,1.0,2724.636486975066,0.40827951509309535,1.3093770714581954,0.971750689025999,0.28638263750000004,0.6947889912498427
0.047,1.744775,1.0,2722.9920525519296,0.41159860490637323,1.308864211757687,0.9721530591349976,0.28633355,0.6958000596151235
0.0475,1.74359375,1.0,2721.2826382032968,0.4148990801494202,1.3083463029452038,0.9725436447899614,0.28628393750000003,0.6968193796556907
0.048,1.7424,1.0,2719.5124449400214,0.41818104287605923,1.3078233073267937,0.9729228926963474,0.2862338,0.6978469753392675
0.0485,1.74119375,1.0,2717.6856705556647,0.42144459514011356,1.3072951872085044,0.9732912281775984,0.2861831375,0.6988828696380429
0.049,1.739975,1.0,2715.8065091748235,0.42468983899540624,1.306761904896383,0.9736490563916687,0.28613195,0.6999270845163982
0.0495,1.73874375,1.0,2713.879150834174,0.4279168764957604,1.3062234226964773,0.9739967634675984,0.2860802375,0.7009796409185415
0.05,1.7375,1.0,2711.9077810946255,0.43112580969499914,1.305679702914835,0.9743347175680702,0.286028,0.702040558756053
0.0505,1.73624375,1.0,2709.8965806845467,0.4343167406469456,1.3051307078575038,0.9746632698833911,0.2859752375,0.70310985689534
0.051000000000000004,1.734975,1.0,2707.8497251754816,0.4374897714054229,1.304576399830531,0.9749827555618974,0.28592195,0.7041875531450015
0.051500000000000004,1.73369375,1.0,2705.7713846882493,0.44064500402425416,1.3040167411399644,0.9752934945813813,0.2858681375,0.7052736642430992
0.052000000000000005,1.7324,1.0,2703.6657236312053,0.4437825405572625,1.3034516940918512,0.975595792565756,0.2858138,0.7063682058443417
0.0525,1.73109375,1.0,2701.5335140906473,0.4469024549924953,1.302881251932052,0.9758899405560328,0.28575893750000003,0.7074711327425791
0.053,1.729775,1.0,2699.3818145623222,0.45000488072900796,1.3023053504406232,0.976176219390337,0.28570355000000003,0.7085825098691709
0.0535,1.72844375,1.0,2697.2128824541787,0.45308991666551846,1.301723969198364,0.9764548967538775,0.2856476375,0.7097023163621962
0.054,1.7271,1.0,2695.0283335995505,0.456157656442877,1.3011370936238846,0.9767262285825162,0.2855912,0.7108305192721931
0.0545,1.7257437500000001,1.0,2692.829781409661,0.4592081937019335,1.300544709135796,0.9769904598472949,0.2855342375,0.7119670848548463
0.055,1.724375,1.0,2690.618836827122,0.46224162208353825,1.2999468011527089,0.9772478251135622,0.28547675,0.7131119785658715
0.0555,1.72299375,1.0,2688.3971082844714,0.46525803522854126,1.2993433550932338,0.9774985490670884,0.2854187375,0.7142651650558869
0.056,1.7216,1.0,2686.1662016669343,0.46825752677779264,1.2987343563759817,0.9777428470093751,0.2853602,0.7154266081652678
0.0565,1.72019375,1.0,2683.9277202803914,0.47124019037214254,1.298119790419563,0.9779809253241959,0.28530113749999997,0.7165962709189919
0.057,1.718775,1.0,2681.6832648237614,0.474206119652441,1.2974996426425884,0.978212981917267,0.28524155,0.7177741155214674
0.0575,1.71734375,1.0,2679.4344333660065,0.4771554082595382,1.296873898463669,0.9784392066307945,0.2851814375,0.7189601033513495
0.058,1.7159,1.0,2677.182821328239,0.4800881498342843,1.2962425433014149,0.9786597816345232,0.2851208,0.7201541949563436
0.0585,1.71444375,1.0,2674.930021470216,0.4830044380175292,1.2956055625744372,0.9788748817947988,0.2850596375,0.7213563500479927
0.059000000000000004,1.7129750000000001,1.0,2672.67762388152,0.48590436645012314,1.2949629417013464,0.9790846750230419,0.28499795,0.7225665274964546
0.059500000000000004,1.71149375,1.0,2670.427215977935,0.48878802877291627,1.2943146661007532,0.9792893226049342,0.2849357375,0.7237846853252621
0.06,1.71,1.0,2668.1803825017596,0.49165551862675855,1.2936607211912683,0.9794889795115264,0.284873,0.725010780706072
0.0605,1.7084937500000001,1.0,2665.932709806722,0.4945069281556773,1.2930011475362237,0.9796837975300393,0.2848097375,0.726244666908342
0.061,1.7069767642376577,1.0,2663.7768828159965,0.49734234474210315,1.2923358891007537,0.9798739170991881,0.2847460240979816,0.7274863773714025
0.0615,1.705458405468074,1.0,2662.142415057133,0.5001618571523585,1.2916652198527505,0.9800594907827188,0.2846822530296591,0.7287353301283377
0.062,1.70394004669849,1.0,2661.053435105025,0.5029655540495913,1.2909895333248658,0.9802406716598911,0.28461848196133654,0.7299907254316864
0.0625,1.702421687928906,1.0,2660.466864548676,0.5057535240969498,1.2903092230497497,0.9804176071444303,0.28455471089301404,0.7312517698094729
0.063,1.7009033291593223,1.0,2660.3412591841566,0.5085258556518618,1.2896246690741122,0.980590438532365,0.28449093982469154,0.7325177010960172
0.0635,1.6993849703897386,1.0,2660.63664472525,0.5112826369471665,1.2889362391193466,0.9807593013536015,0.28442716875636903,0.7337877861083155
0.064,1.6978666116201546,1.0,2661.3182058224047,0.5140239553330325,1.2882442543163024,0.980924323844964,0.28436339768804647,0.7350613834618585
0.0645,1.6963482528505707,1.0,2662.3571924630237,0.5167498969009698,1.2875489806311422,0.9810856268112654,0.28429962661972397,0.7363379583481856
0.065,1.694829894080987,1.0,2663.7249080597207,0.519460547742489,1.286850684030029,0.9812433267784754,0.28423585555140146,0.7376169804576038
0.0655,1.693311535311403,1.0,2665.392956011589,0.5221559938687407,1.2861496280400069,0.9813975360573451,0.28417208448307896,0.7388979284839468
0.066,1.6917931765418193,1.0,2667.335909352286,0.5248363206252443,1.285446049049503,0.9815483616771334,0.2841083134147564,0.7401803350829999
0.0665,1.6902748177722353,1.0,2669.5288783631345,0.5275016135211664,1.2847401785793149,0.9816959067485523,0.2840445423464339,0.741463745862946
0.067,1.6887564590026516,1.0,2671.953169456115,0.5301519561509683,1.2840321911897363,0.9818402679756291,0.2839807712781114,0.7427478136733325
0.0675,1.6872381002330676,1.0,2674.5900860695933,0.5327874321091115,1.2833222614410613,0.9819815387728218,0.28391700020978883,0.7440321944257746
0.068,1.685719741463484,1.0,2677.4209208134707,0.5354081249900575,1.282610563893584,0.9821198094044332,0.2838532291414663,0.7453165471165512
0.0685,1.6842013826939,1.0,2680.4363924595427,0.5380141132403304,1.2818971864814863,0.9822551626882459,0.2837894580731438,0.746600689584892
0.069,1.6826830239243162,1.0,2683.6064098371467,0.5406054876790806,1.281182407884083,0.9823876884270136,0.28372568700482126,0.747884099159787
0.0695,1.6811646651547323,1.0,2686.9189036538824,0.5431823294991084,1.2804663411543493,0.9825174651608531,0.28366191593649875,0.7491665544626662
0.07,1.6796463063851486,1.0,2690.3643684878725,0.5457447184638283,1.279749075700312,0.9826445676732287,0.28359814486817625,0.7504478783316999
0.07050000000000001,1.6781279476155646,1.0,2693.933283947156,0.5482927343366553,1.2790307009299966,0.9827690683130906,0.2835343737998537,0.7517278952121008
0.07100000000000001,1.6766095888459809,1.0,2697.616112382387,0.5508264568810037,1.278311306251429,0.9828910370927496,0.2834706027315312,0.7530064311627017
0.07150000000000001,1.675091230076397,1.0,2701.403296775827,0.5533459658602884,1.2775909810726358,0.9830105417812124,0.2834068316632087,0.7542833138620266
0.07200000000000001,1.6735728713068132,1.0,2705.285258808637,0.5558513410379241,1.2768698148016426,0.9831276479932163,0.2833430605948861,0.7555583726138524
0.0725,1.6720545125372293,1.0,2709.2523971049604,0.5583426621773252,1.2761478968464754,0.9832424192741889,0.2832792895265636,0.7568314383522587
0.073,1.6705361537676455,1.0,2713.2950856529023,0.5608200090419067,1.2754253166151603,0.9833549171813394,0.2832155184582411,0.7581023436461692
0.0735,1.6690177949980616,1.0,2717.407677313369,0.5632834563123575,1.2747021270316845,0.9834651994515745,0.28315174738991855,0.7593709866207534
