Time [s],Phi [rad],STIM [ ],Fsee [N],Gamma [ ],Lcerel [ ],q [ ],Lmtc [m],fisomrel [ ]
0.0,1.8,1.0,18.003132181191283,0.0001946832650015375,1.379335717942476,0.005009867343180799,0.288653,0.541149276444727
0.0005,1.79999375,1.0,18.372913423993623,0.00580280055467839,1.379291719270276,0.013461181432385134,0.2886527375,0.5412557133067541
0.001,1.799975,1.0,21.851748535275032,0.011379460740408832,1.3789145310907196,0.0365774487764577,0.28865195,0.5421676598478957
0.0015,1.79994375,1.0,31.598306898065513,0.016924840272642322,1.3780013189819478,0.07192372406702104,0.2886506375,0.5443718203058283
0.002,1.7999,1.0,54.70002452320781,0.02243911460999242,1.3762959993760115,0.11628082288666523,0.2886488,0.5484735996607422
0.0025,1.79984375,1.0,98.97855688048062,0.027922458227891668,1.3738459815514061,0.1662733741363336,0.28864643749999996,0.5543341265238064
0.003,1.7997750000000001,1.0,163.36561707607086,0.033375044624714155,1.3711245650608892,0.21903161591725423,0.28864354999999997,0.5607989706899421
0.0035,1.79969375,1.0,240.39671022264577,0.038797046322714655,1.3685013921741007,0.27235387107819964,0.2886401375,0.5669857269315997
0.004,1.7996,1.0,324.34957361100845,0.04418863487837153,1.3660799083916442,0.3246010240914858,0.2886362,0.572657846530502
0.0045000000000000005,1.7994937500000001,1.0,412.25029531376157,0.04954998088771323,1.3638529295682777,0.3746338621299864,0.2886317375,0.5778413445299169
0.005,1.799375,1.0,502.454748299288,0.054881253978197674,1.361793814250532,0.42174353094638933,0.28862675,0.5826059820473585
0.0055,1.79924375,1.0,593.8568460031032,0.06018262284730293,1.3598790019928628,0.4655586688543943,0.2886212375,0.5870124487392252
0.006,1.7991000000000001,1.0,685.5858066880289,0.06545425522789369,1.3580907146749368,0.5059526504293826,0.2886152,0.591106632855845
0.006500000000000001,1.79894375,1.0,776.9284379850674,0.07069631790611824,1.356415287357673,0.5429643786244623,0.2886086375,0.5949239251841436
0.007,1.798775,1.0,867.2949025501296,0.07590897679378732,1.354841830762533,0.5767371740940894,0.28860155,0.5984925865468556
0.0075,1.79859375,1.0,956.196049169001,0.08109239669566176,1.3533613966741904,0.6074743790367311,0.2885939375,0.6018358524887292
0.008,1.7984,1.0,1043.2532601960093,0.08624674186500064,1.3519660557708904,0.6354083484492444,0.2885858,0.6049741568401865
0.0085,1.79819375,1.0,1128.1449425750864,0.09137217513178472,1.3506491941496925,0.6607804320145945,0.2885771375,0.6079245619967195
0.009000000000000001,1.797975,1.0,1210.6286154572635,0.09646885866082992,1.3494047752603164,0.6838277595304056,0.28856795,0.6107024968918615
0.0095,1.79774375,1.0,1290.542552371687,0.10153695411617752,1.348227070654266,0.7047755341949611,0.2885582375,0.6133224083659081
0.01,1.7975,1.0,1367.7440753455214,0.10657662139267565,1.3471112791441102,0.7238333172094898,0.288548,0.6157964282236594
0.0105,1.79724375,1.0,1442.1465579050125,0.11158801985728392,1.3460528323708334,0.7411928860057461,0.2885372375,0.6181359604850889
0.011,1.796975,1.0,1513.7181710653729,0.11657130874996346,1.3450472975843104,0.757027907838194,0.28852595000000003,0.6203519210132792
0.0115,1.79669375,1.0,1582.4321091793881,0.12152664543475111,1.3440908835334828,0.7714947684675038,0.2885141375,0.6224536475419233
0.012,1.7964,1.0,1648.283548935685,0.1264541862569459,1.3431801125239782,0.7847334755161633,0.28850180000000003,0.624449650408258
0.0125,1.79609375,1.0,1711.3004697728973,0.13135408710879667,1.3423116160337765,0.796868892206009,0.2884889375,0.626348078853139
0.013000000000000001,1.7957750000000001,1.0,1771.5404873863897,0.1362265039871288,1.341482117969983,0.8080121513904507,0.28847555,0.6281567701107611
0.0135,1.79544375,1.0,1829.0498757156427,0.14107159079953738,1.3406888440084808,0.8182622153295301,0.2884616375,0.629882371071955
0.014,1.7951000000000001,1.0,1883.8758755929277,0.14588950008555146,1.3399293159206844,0.8277071051111641,0.2884472,0.6315308041380597
0.0145,1.79474375,1.0,1936.0897763532992,0.15068038438470008,1.3392010554780083,0.8364250211815485,0.2884322375,0.6331079207991236
0.015,1.794375,1.0,1985.7655416294715,0.15544439521877876,1.338501789890552,0.8444855455804205,0.28841675,0.6346190632681523
0.0155,1.79399375,1.0,2033.0069273672566,0.1601816848156045,1.3378291335429773,0.8519505442423103,0.2884007375,0.6360697593418407
0.016,1.7936,1.0,2077.8822965071613,0.16489240209885736,1.3371812556207339,0.8588752868118156,0.2883842,0.6374642884503359
0.0165,1.7931937500000001,1.0,2120.464489758898,0.1695766954430483,1.3365564239539547,0.8653090817080575,0.2883671375,0.638806675686626
0.017,1.792775,1.0,2160.8388305213607,0.17423471322268816,1.335952906372772,0.8712959526311825,0.28834955,0.6401009078433912
0.0175,1.7923437500000001,1.0,2199.0900007479936,0.17886660276159236,1.3353690927890818,0.8768752964250528,0.2883314375,0.6413506747507278
0.018000000000000002,1.7919,1.0,2235.316243772651,0.18347251220305066,1.3348033375064077,0.8820823842625141,0.2883128,0.6425597104418701
0.0185,1.79144375,1.0,2269.5924448316123,0.18805258651227907,1.334254319853234,0.8869489342667696,0.2882936375,0.6437310256997831
0.019,1.790975,1.0,2301.9913424628644,0.19260696972760022,1.3337208144828,0.8915034623979187,0.28827395,0.6448674042759456
0.0195,1.79049375,1.0,2332.592268098796,0.19713580588733665,1.3332015960483459,0.895771626036158,0.2882537375,0.645971608389142
0.02,1.79,1.0,2361.475545162539,0.20163923830954492,1.332695488482198,0.8997765594832794,0.288233,0.6470462753303305
0.0205,1.78949375,1.0,2388.7227511787173,0.20611741034705877,1.3322013559394323,0.9035391552218986,0.2882117375,0.6480939384949063
0.021,1.788975,1.0,2414.413975655868,0.21057046494031273,1.3317181236474678,0.9070783163978434,0.28818995000000003,0.6491169848335564
0.021500000000000002,1.78844375,1.0,2438.6088563827957,0.21499854142952912,1.3312449546196787,0.9104112096535956,0.2881676375,0.6501172832876498
0.022,1.7879,1.0,2461.3704636689663,0.21940177915493025,1.3307810118694396,0.913553404239475,0.2881448,0.6510966906461404
0.0225,1.78734375,1.0,2482.765016605409,0.2237803174567385,1.330325458410125,0.9165190427391116,0.28812143749999997,0.6520570520603981
0.023,1.786775,1.0,2502.8610829978784,0.2281342955712114,1.3298774623036496,0.9193209924787556,0.28809755,0.6530001908931897
0.0235,1.78619375,1.0,2521.715371233083,0.23246384985954865,1.329436328538178,0.9219710014713485,0.28807313749999996,0.6539276321405791
0.024,1.7856,1.0,2539.4097557607424,0.23676912159622177,1.3290011454993067,0.9244797521417026,0.2880482,0.6548413464928062
0.0245,1.78499375,1.0,2555.990243674194,0.24105024494415167,1.32857136001965,0.9268570664409501,0.2880227375,0.6557425426493544
0.025,1.784375,1.0,2571.5044462057817,0.2453073540662593,1.3281464189318222,0.9291119313981727,0.28799675,0.6566324226473886
0.025500000000000002,1.78374375,1.0,2586.0014466850685,0.24954058312546562,1.3277257690684374,0.9312525814880794,0.2879702375,0.6575121820424146
0.026000000000000002,1.7831000000000001,1.0,2599.5316752812414,0.2537500662846915,1.3273088572621101,0.9332865718696362,0.2879432,0.6583830100694248
0.0265,1.78244375,1.0,2612.146790529966,0.25793593770685785,1.3268951303454544,0.9352208436034497,0.2879156375,0.6592460897845294
0.027,1.781775,1.0,2623.8924663939215,0.2620983275166488,1.326484100984881,0.9370617902313755,0.28788755,0.6601024611099939
0.0275,1.7810937500000001,1.0,2634.82324067102,0.26623737304235434,1.3260752086565422,0.9388152925587419,0.2878589375,0.6609533109043129
0.028,1.7804,1.0,2644.9748967938126,0.27035320316115174,1.3256680745600622,0.9404867971131202,0.2878298,0.661799442641396
0.0285,1.77969375,1.0,2654.38346491091,0.2744459465156076,1.325262324004273,0.9420813328270871,0.2878001375,0.6626416472683017
0.029,1.778975,1.0,2663.085604191597,0.2785157317482886,1.3248575822980067,0.9436035480320681,0.28776995,0.6634807118096104
0.029500000000000002,1.7782437500000001,1.0,2671.118545991382,0.2825626875017612,1.3244534747500953,0.9450577441773323,0.2877392375,0.6643174193960117
0.03,1.7775,1.0,2678.5200401303455,0.28658694241859206,1.324049626669371,0.9464479061586505,0.287708,0.6651525492839325
0.0305,1.77674375,1.0,2685.323487608677,0.2905886221994254,1.3236457075050672,0.947777734403522,0.2876762375,0.6659867857574762
0.031,1.775975,1.0,2691.558438806974,0.29456785191554286,1.3232414255956606,0.9490506691159676,0.28764395,0.6668207295245059
0.0315,1.7751937500000001,1.0,2697.2711396327004,0.298524768533621,1.3228363397313203,0.9502698924661678,0.2876111375,0.6676552861890419
0.032,1.7744,1.0,2702.483975758229,0.30245949393217997,1.3224302300462327,0.9514383872387157,0.2875778,0.6684909016337164
0.0325,1.77359375,1.0,2707.219572419811,0.30637214998974,1.3220228766745836,0.9525589308814417,0.2875439375,0.6693280194458735
0.033,1.772775,1.0,2711.500772425003,0.3102628585848213,1.3216140597505592,0.9536341121311985,0.28750955,0.67016708090167
0.0335,1.7719437500000002,1.0,2715.3506152329364,0.31413174159594404,1.3212035594083453,0.9546663461037531,0.2874746375,0.6710085249470968
0.034,1.7711000000000001,1.0,2718.7923171055268,0.3179789209016284,1.320791155782128,0.9556578880059867,0.2874392,0.6718527881759138
0.0345,1.7702437500000001,1.0,2721.8492523309324,0.3218045183803946,1.3203766290060932,0.9566108456107496,0.2874032375,0.6727003048045029
0.035,1.7693750000000001,1.0,2724.5449355189076,0.3256086559107628,1.319959759214427,0.9575271906190463,0.28736675,0.6735515066436413
0.035500000000000004,1.76849375,1.0,2726.9030049673875,0.3293914553712533,1.3195403265413155,0.9584087690204339,0.2873297375,0.6744068230671858
0.036000000000000004,1.7676,1.0,2728.931179618044,0.3331530341637236,1.319118256819682,0.959257324581734,0.2872922,0.6752663844527025
0.0365,1.76669375,1.0,2730.655595746101,0.3368935128300459,1.3186933091772879,0.9600744762289183,0.2872541375,0.676130659074074
0.037,1.765775,1.0,2732.1223257120505,0.34061301666527444,1.318265062412033,0.960861726507158,0.28721555,0.6770004784689567
0.0375,1.76484375,1.0,2733.3378745585414,0.3443116603347764,1.3178334555479998,0.9616205198784397,0.2871764375,0.6778759392041379
0.038,1.7639,1.0,2734.308788656132,0.347989558503919,1.317398427609271,0.9623522139962717,0.28713679999999997,0.6787571369616148
0.0385,1.76294375,1.0,2735.0416526557615,0.3516468258380695,1.316959917619929,0.9630580858737267,0.28709663750000003,0.6796441665254078
0.039,1.761975,1.0,2735.543086522503,0.3552835770025952,1.3165178646040565,0.9637393375488339,0.28705595,0.6805371217681383
0.0395,1.7609937500000001,1.0,2735.819742653036,0.35889992666286336,1.316072207585736,0.964397101293255,0.2870147375,0.6814360956373704
0.04,1.76,1.0,2735.8783030745685,0.36249598948424117,1.3156228855890504,0.9650324444055597,0.286973,0.6823411801417131
0.0405,1.7589976691165656,1.0,2735.9204212948475,0.3660718801320959,1.3151698376380816,0.9656463736262832,0.28693090210289574,0.6832524663366878
0.041,1.757995067495935,1.0,2736.366201602829,0.36962771327179483,1.3147130027569127,0.9662398392082868,0.28688879283482926,0.6841700443103554
0.0415,1.7569924658753044,1.0,2737.239978458829,0.3731635976501917,1.3142522832307728,0.9668137345277918,0.2868466835667628,0.6850940767992544
0.042,1.7559898642546736,1.0,2738.4611772442604,0.3766796502024671,1.313788412107598,0.9673689750497388,0.28680457429869627,0.6860230625860722
0.0425,1.754987262634043,1.0,2739.9835788136543,0.38017598590466783,1.31332181080349,0.9679063999189942,0.2867624650306298,0.6869561316161414
0.043000000000000003,1.7539846610134124,1.0,2741.787991001769,0.38365271264121803,1.3128526556513067,0.9684267818648683,0.28672035576256333,0.6878929076910871
0.043500000000000004,1.7529820593927818,1.0,2743.855241495343,0.3871099382965417,1.3123811229839057,0.9689308524891804,0.2866782464944968,0.6888330165922001
0.044,1.7519794577721512,1.0,2746.166168193417,0.39054777075506275,1.3119073891341444,0.9694193048703804,0.28663613722643033,0.6897760861081679
0.0445,1.7509768561515204,1.0,2748.7016102565804,0.39396631790120534,1.3114316304348805,0.9698927959781273,0.28659402795836386,0.6907217460608164
0.045,1.7499742545308898,1.0,2751.4423998463253,0.3973656876193934,1.3109540232189716,0.9703519489138386,0.2865519186902974,0.6916696283288752
0.0455,1.7489716529102592,1.0,2754.3693545532606,0.4007459877940509,1.3104747438192754,0.9707973549913241,0.28650980942223087,0.6926193668697554
0.046,1.7479690512896287,1.0,2757.463270515236,0.4041073263096019,1.3099939685686497,0.971229575670346,0.2864677001541644,0.6935705977393464
0.0465,1.746966449668998,1.0,2760.7049162240955,0.4074498110504704,1.3095118737999518,0.9716491443548071,0.2864255908860979,0.6945229591098301
0.047,1.7459638480483672,1.0,2764.083046286549,0.41077354440949493,1.309028563411339,0.9720565620982615,0.2863834816180314,0.6954762340431251
0.0475,1.7449612464277366,1.0,2767.580017022112,0.4140786373166067,1.3085441988975788,0.9724523106894227,0.28634137234996493,0.6964300935161076
0.048,1.743958644807106,1.0,2771.184094425897,0.41736519479192147,1.3080588881082518,0.9728368440268684,0.28629926308189846,0.6973843158721544
0.0485,1.7429560431864755,1.0,2774.8873110565405,0.42063331866375453,1.307572704715011,0.9732105914888303,0.286257153813832,0.6983387478134333
0.049,1.7419534415658449,1.0,2778.681683014794,0.42388311076042096,1.3070857223895098,0.9735739621053543,0.28621504454576546,0.699293236940411
0.0495,1.740950839945214,1.0,2782.559208578838,0.42711467291023597,1.3065980148034013,0.9739273457104066,0.286172935277699,0.7002476317557822
0.05,1.7399482383245835,1.0,2786.5118669588624,0.43032810694151474,1.3061096556283387,0.974271114018701,0.2861308260096325,0.7012017816680481
0.0505,1.7389456367039529,1.0,2790.5316171729883,0.43352351468257255,1.305620718535975,0.9746056216327986,0.286088716741566,0.7021555369947525
0.051000000000000004,1.7379430350833223,1.0,2794.6103970431204,0.43670099796172446,1.3051312771979635,0.9749312069855844,0.2860466074734995,0.7031087489653685
0.051500000000000004,1.7369404334626917,1.0,2798.7401223108745,0.43986065860728574,1.3046414052859576,0.9752481932227981,0.28600449820543306,0.7040612697238422
0.052000000000000005,1.7359378318420609,1.0,2802.919742131436,0.443002585890234,1.3041511131784602,0.9755568836474554,0.2859623889373666,0.7050130751030086
0.0525,1.7349352302214303,1.0,2807.1361468369123,0.44612689563322777,1.3036605193174071,0.9758575777714736,0.28592027966930006,0.70596393178534
0.053,1.7339326286007997,1.0,2811.3843514094974,0.44923368735049196,1.3031696690295607,0.9761505556587136,0.2858781704012336,0.706913749300085
0.0535,1.732930026980169,1.0,2815.6614937560926,0.45232305638006937,1.3026785885101169,0.9764360835929976,0.2858360611331671,0.7078624746732249
0.054,1.7319274253595385,1.0,2819.9647032684748,0.45539509806000256,1.3021873039542722,0.9767144163979348,0.2857939518651006,0.7088100552578072
0.0545,1.7309248237389079,1.0,2824.2911006974555,0.45844990772833427,1.301695841557223,0.9769857980278043,0.2857518425970341,0.7097564387343078
0.055,1.729922222118277,1.0,2828.6377980413845,0.4614875807231072,1.301204227514166,0.9772504621231846,0.28570973332896765,0.7107015731109521
0.0555,1.7289196204976465,1.0,2833.001898451072,0.46450821238236406,1.3007124880202972,0.9775086325337171,0.2856676240609012,0.711645406723988
0.056,1.7279170188770159,1.0,2837.380496148785,0.46751189804414744,1.3002206492708128,0.9777605238101956,0.28562551479283466,0.7125878882379196
0.0565,1.7269144172563853,1.0,2841.7706763635942,0.47049873304650014,1.2997287374609097,0.9780063416680288,0.2855834055247682,0.7135289666456923
0.057,1.7259118156357547,1.0,2846.1695152806706,0.47346881272746477,1.2992367787857837,0.9782462834239537,0.28554129625670166,0.7144685912688391
0.0575,1.7249092140151239,1.0,2850.574080007057,0.4764222324250841,1.2987447994406316,0.9784805384077547,0.2854991869886352,0.7154067117575791
0.058,1.7239066123944933,1.0,2854.9814285516923,0.4793590874774007,1.2982528256206496,0.9787092883506059,0.2854570777205687,0.716343278090875
0.0585,1.7229040107738627,1.0,2859.3933827120068,0.4822794466159858,1.2977608411340884,0.978932703137705,0.28541496845250225,0.717278321068623
0.059000000000000004,1.721901409153232,1.0,2863.803650174632,0.48518343548534015,1.2972689018431134,0.9791509547272266,0.2853728591844358,0.7182117346842776
0.059500000000000004,1.7208988075326015,1.0,2868.2106987710063,0.48807114722385636,1.2967770212292598,0.979364203301759,0.28533074991636925,0.71914349384658
0.06,1.719896205911971,1.0,2872.613868914822,0.4909426694227856,1.2962852050014788,0.9795726019628984,0.2852886406483028,0.720073588320254
0.0605,1.71889360429134,1.0,2877.012499069696,0.493798089673379,1.2957934588687217,0.9797762979331078,0.28524653138023626,0.7210020079415749
0.061,1.7178910026707095,1.0,2881.4059257578833,0.49663749556688785,1.2953017885399398,0.9799754328270055,0.2852044221121698,0.721928742618344
0.0615,1.716888401050079,1.0,2885.7934835691067,0.4994609746945632,1.2948101997240846,0.9801701429081335,0.2851623128441033,0.722853782329864
0.062,1.7158857994294483,1.0,2890.174505171084,0.5022686146476563,1.2943186981301074,0.9803605593320894,0.28512020357603685,0.7237771171269093
0.0625,1.7148831978088177,1.0,2894.548321319602,0.5050605030174181,1.2938272894669591,0.9805468083768414,0.2850780943079703,0.7246987371316959
0.063,1.7138805961881869,1.0,2898.9142608705242,0.5078367273951001,1.2933359794435917,0.9807290116609948,0.28503598503990385,0.7256186325378469
0.0635,1.7128779945675563,1.0,2903.2716507914083,0.5105973753719533,1.292844773768956,0.980907286350725,0.2849938757718374,0.7265367936103604
0.064,1.7118753929469257,1.0,2907.619816174558,0.5133425345392287,1.2923536781520035,0.9810817453560441,0.28495176650377085,0.72745321068557
0.0645,1.710872791326295,1.0,2911.9580802507567,0.5160722924881778,1.2918626983016854,0.9812524975170279,0.2849096572357044,0.7283678741711076
0.065,1.7098701897056645,1.0,2916.285764403261,0.5187867368100515,1.2913718399269531,0.9814196477805824,0.2848675479676379,0.7292807745458609
0.0655,1.7088675880850337,1.0,2920.602188182912,0.5214859550961011,1.2908811087367582,0.9815832973682996,0.28482543869957144,0.7301919023599306
0.066,1.707864986464403,1.0,2924.906669323908,0.5241700349375776,1.2903905104400517,0.9817435439359108,0.2847833294315049,0.7311012482345862
0.0665,1.7068623848437725,1.0,2929.199183111404,0.5268390446674845,1.2899000449604363,0.9819004801532484,0.28474122016343845,0.7320088135584726
0.067,1.705859783223142,1.0,2933.479907161658,0.5294930645201475,1.2894097104487448,0.982054196202344,0.284699110895372,0.7329146029909877
0.0675,1.7048571816025113,1.0,2937.7475413723223,0.5321322173816169,1.2889195180092945,0.9822047825683304,0.28465700162730545,0.7338185972999903
0.068,1.7038545799818805,1.0,2942.002075513929,0.5347565821372356,1.288429467422179,0.9823523232294931,0.284614892359239,0.7347207982224432
0.0685,1.70285197836125,1.0,2946.2434995635595,0.5373662376723465,1.2879395584674913,0.98249689932356,0.2845727830911725,0.7356212074921753
0.069,1.7018493767406193,1.0,2950.47180370412,0.5399612628722924,1.287449790925325,0.9826385892635826,0.28453067382310604,0.7365198268398817
0.0695,1.7008467751199887,1.0,2954.6869783239226,0.5425417366224161,1.2869601645757731,0.9827774688483247,0.2844885645550395,0.7374166579931289
0.07,1.6998441734993581,1.0,2958.8890140159315,0.5451077378080604,1.2864706791989293,0.982913611367453,0.28444645528697304,0.7383117026763525
0.07050000000000001,1.6988415718787273,1.0,2963.0779015768658,0.5476593453145683,1.2859813345748865,0.9830470877018085,0.2844043460189065,0.7392049626108637
0.07100000000000001,1.6978389702580967,1.0,2967.253632006721,0.5501966380272825,1.2854921304837383,0.9831779664190219,0.28436223675084005,0.7400964395148473
0.07150000000000001,1.6968363686374661,1.0,2971.4161965080157,0.5527196948315458,1.2850030667055778,0.9833063138647169,0.2843201274827736,0.7409861351033672
0.07200000000000001,1.6958337670168355,1.0,2975.5655864851356,0.5552285946127011,1.2845141430204983,0.9834321942495334,0.2842780182147071,0.7418740510883657
