Time [s],Phi [rad],STIM [ ],Fsee [N],Gamma [ ],Lcerel [ ],q [ ],Lmtc [m],fisomrel [ ]
0.0,1.8,1.0,17.966603704089863,1.0195870779301745e-05,1.379339808338654,0.005000027701822035,0.288653,0.5411393807703864
0.0005,1.79999375,1.0,18.276052862382336,0.005619347988802186,1.3793024645783918,0.012941059420992267,0.2886527375,0.541229720550886
0.001,1.799975,1.0,21.61784821552076,0.0111970371983639,1.378938356587098,0.03560960262723816,0.28865195,0.5421100826118282
0.0015,1.79994375,1.0,31.06892438444051,0.016743439982365986,1.3780462302779815,0.07060311151813417,0.2886506375,0.5442635451932635
0.002,1.7999,1.0,53.5824173158457,0.02225873183205751,1.3763681297746864,0.11471950277127042,0.2886488,0.5483004811540334
0.0025,1.79984375,1.0,97.11939213711061,0.027743087254601843,1.3739351453587683,0.16457648576668146,0.28864643749999996,0.5541215148772859
0.003,1.7997750000000001,1.0,160.95911661538597,0.03319667978079072,1.3712143082046113,0.2172820952414782,0.28864354999999997,0.5605865350260582
0.0035,1.79969375,1.0,237.6846052607947,0.03861968196463763,1.3685846949993283,0.27061451897817174,0.2886401375,0.5667899317992733
0.004,1.7996,1.0,321.4682772156864,0.04401226539415964,1.3661560525112881,0.3229173790686689,0.2886362,0.5724800548767565
0.0045000000000000005,1.7994937500000001,1.0,409.2694407061219,0.04937460069656189,1.3639227744978295,0.3730360042339255,0.2886317375,0.5776792544700318
0.005,1.799375,1.0,499.4153244174256,0.05470685752933119,1.3618583036666942,0.4202488607942574,0.28862675,0.5824571685824698
0.0055,1.79924375,1.0,590.7923316948588,0.06000920462767432,1.3599387976322268,0.46417499465509704,0.2886212375,0.5868751975735551
0.006,1.7991000000000001,1.0,682.5200932140715,0.06528180974773629,1.3581463786674797,0.5046811538816606,0.2886152,0.5909795007888082
0.006500000000000001,1.79894375,1.0,773.8830200714463,0.07052483972272548,1.3564672235352053,0.541801853622326,0.2886086375,0.5948058627075956
0.007,1.798775,1.0,864.2878011431983,0.07573846044323342,1.3548903628524875,0.5756777762377134,0.28860155,0.5983827498546868
0.0075,1.79859375,1.0,953.2450857790845,0.08092283687262661,1.3534067504229594,0.6065108233081592,0.2885939375,0.6017336376131508
0.008,1.7984,1.0,1040.3615188017898,0.08607813304719546,1.3520086012303087,0.6345328738559138,0.2885858,0.6048786500633976
0.0085,1.79819375,1.0,1125.3205743175822,0.09120451210192597,1.3506891516512163,0.6599851516884658,0.2885771375,0.6078352006191015
0.009000000000000001,1.797975,1.0,1207.8698205933958,0.09630213559524226,1.3494424498863296,0.6831051216119625,0.28856795,0.6106185402341839
0.0095,1.79774375,1.0,1287.8683492255766,0.10137116627819323,1.348262439490108,0.7041182828559105,0.2885582375,0.61324385599617
0.01,1.7975,1.0,1365.1746300569307,0.10641176418569577,1.3471442878457323,0.7232347585659283,0.288548,0.615723352729845
0.0105,1.79724375,1.0,1439.6753205714176,0.11142408784617604,1.3460837483712926,0.7406470928898096,0.2885372375,0.6180677267642724
0.011,1.796975,1.0,1511.3205079972345,0.11640829578806018,1.3450765744848785,0.7565296221094998,0.28852595000000003,0.62028749279905
0.0115,1.79669375,1.0,1580.1110532724647,0.1213645462733164,1.3441186020367533,0.7710391062101146,0.2885141375,0.6223928180238222
0.012,1.7964,1.0,1646.056400186973,0.1262929965772115,1.3432061721043616,0.7843159990340007,0.28850180000000003,0.6243926129766306
0.0125,1.79609375,1.0,1709.1693270142916,0.13119380220085847,1.3423360881800455,0.7964857221239332,0.2884889375,0.6262946515611739
0.013000000000000001,1.7957750000000001,1.0,1769.4865683453359,0.1360671179027385,1.341505298378889,0.8076599264496628,0.28847555,0.6281062856477868
0.0135,1.79544375,1.0,1827.0590189612662,0.14091309766640986,1.340710956253789,0.8179379208140769,0.2884616375,0.6298343248999637
0.014,1.7951000000000001,1.0,1881.972148834083,0.14573189628163902,1.3399501500621829,0.8274079053577913,0.2884472,0.6314856360736587
0.0145,1.79474375,1.0,1934.2819889603263,0.1505236654272653,1.33922057069568,0.8361484556343816,0.2884322375,0.633065702860004
0.015,1.794375,1.0,1984.0508572708068,0.15528855602341665,1.3385200667411412,0.8442294672293813,0.28841675,0.6345796059106292
0.0155,1.79399375,1.0,2031.359619836507,0.16002671899022106,1.3378464867854285,0.8517131174002976,0.2884007375,0.6360323704296662
0.016,1.7936,1.0,2076.290303081128,0.16473830425429845,1.337197843901807,0.8586548275023074,0.2883842,0.6374286162881778
0.0165,1.7931937500000001,1.0,2118.9454898898803,0.1694234623232924,1.3365720917319928,0.8651039942776295,0.2883671375,0.6387730454947419
0.017,1.792775,1.0,2159.398984975753,0.17408234057382302,1.3359676181270355,0.8711048454136069,0.28834955,0.6400693863840767
0.0175,1.7923437500000001,1.0,2197.7253476576057,0.1787150856804462,1.3353829143003015,0.8766969521089206,0.2883314375,0.6413211122303463
0.018000000000000002,1.7919,1.0,2234.008826436848,0.18332184431771775,1.3348164714651578,0.8819157475760155,0.2883128,0.6425316659299145
0.0185,1.79144375,1.0,2268.3334207813386,0.1879027621208809,1.3342668717022899,0.886793033123954,0.2882936375,0.643704268119786
0.019,1.790975,1.0,2300.7920547038107,0.192457985703331,1.3337326862538237,0.891357373775968,0.28827395,0.6448421368807618
0.0195,1.79049375,1.0,2331.4592312796754,0.1969876587481349,1.3332127380888636,0.8956345302017304,0.2882537375,0.6459479310437575
0.02,1.79,1.0,2360.40378115961,0.2014919234950672,1.3327059632427298,0.8996477426323605,0.288233,0.6470240498173703
0.0205,1.78949375,1.0,2387.6996596198132,0.2059709221839026,1.332211297750742,0.9034179879980485,0.2882117375,0.648072875149132
0.021,1.788975,1.0,2413.4255151893,0.21042479705441572,1.33172767764822,0.9069642311526452,0.28818995000000003,0.6490967725832864
0.021500000000000002,1.78844375,1.0,2437.6477312871375,0.21485368789466278,1.3312541981744757,0.9103036777788297,0.2881676375,0.6500977557136008
0.022,1.7879,1.0,2460.456262585554,0.21925773849745567,1.3307897633382495,0.9134518953346226,0.2881448,0.6510782285415335
0.0225,1.78734375,1.0,2481.907428140858,0.22363708665500842,1.3303336324359987,0.9164230928299817,0.28812143749999997,0.6520398318929801
0.023,1.786775,1.0,2502.0571598063884,0.2279918696614756,1.3298850939535822,0.9192302013393692,0.28809755,0.6529841351633808
0.0235,1.78619375,1.0,2520.963807431003,0.23232222481101186,1.3294434363768592,0.9218850016696579,0.28807313749999996,0.6539126984317803
0.024,1.7856,1.0,2538.6879356442137,0.23662828939777178,1.3290079481916883,0.9243982425711255,0.2880482,0.6548270727892072
0.0245,1.78499375,1.0,2555.2881518336726,0.24091019994161336,1.3285779552737809,0.9267797516168095,0.2880227375,0.6557287222834862
0.025,1.784375,1.0,2570.8182596440843,0.24516809184796234,1.328152845289914,0.9290385311712035,0.28799675,0.6566189736228754
0.025500000000000002,1.78374375,1.0,2585.348148851168,0.24940210307041957,1.327731870217643,0.9311828080259704,0.2879702375,0.657499429986116
0.026000000000000002,1.7831000000000001,1.0,2598.919101149217,0.2536123655422093,1.3273145631608738,0.933220173833101,0.2879432,0.6583710993074182
0.0265,1.78244375,1.0,2611.57351904987,0.2577990111965557,1.3269004572235126,0.9351576026110485,0.2879156375,0.6592349842699567
0.027,1.781775,1.0,2623.354831890782,0.26196217196668314,1.3264890855094653,0.9370015092763051,0.28788755,0.6600920824081411
0.0275,1.7810937500000001,1.0,2634.307406677417,0.26610197978581596,1.326079981122638,0.938757801915817,0.2878589375,0.6609433861959823
0.028,1.7804,1.0,2644.4764637579515,0.2702185665871783,1.325672677166937,0.9404319285371068,0.2878298,0.6617898831215564
0.0285,1.77969375,1.0,2653.900482197344,0.2743120606236298,1.3252667760220584,0.9420289274556062,0.2878001375,0.6626324120415052
0.029,1.778975,1.0,2662.629006537592,0.27838259643501845,1.3248617842114983,0.9435534445147852,0.28776995,0.6634720062465624
0.029500000000000002,1.7782437500000001,1.0,2670.6941892915343,0.2824303013900635,1.3244573740721846,0.9450097989873113,0.2877392375,0.6643093507977759
0.03,1.7775,1.0,2678.126577532215,0.2864553018895053,1.3240532371027303,0.9464019942594682,0.287708,0.665145087765439
0.0305,1.77674375,1.0,2684.957146348003,0.2904577243340844,1.3236490648017485,0.9477337428869073,0.2876762375,0.6659798560362041
0.031,1.775975,1.0,2691.2172594166914,0.2944376951245411,1.3232445486678523,0.9490084913824743,0.28764395,0.6668142913154222
0.0315,1.7751937500000001,1.0,2696.938631689622,0.2983953406616159,1.322839380199655,0.9502294426001987,0.2876111375,0.667649026123414
0.032,1.7744,1.0,2702.15283331845,0.3023307869221964,1.3224332551060236,0.9513995763597703,0.2875778,0.6684846811279781
0.0325,1.77359375,1.0,2706.8833120848335,0.30624415149917056,1.3220259458009145,0.9525216740588817,0.2875439375,0.6693217162979161
0.033,1.772775,1.0,2711.171892697786,0.310135572527488,1.3216170591394938,0.9535983146086224,0.28750955,0.6701609287961204
0.0335,1.7719437500000002,1.0,2715.038046648022,0.3140051698473603,1.3212064080134336,0.9546319224819232,0.2874746375,0.6710026895762361
0.034,1.7711000000000001,1.0,2718.5014073831635,0.3178530632989988,1.320793805314406,0.9556247615321919,0.2874392,0.6718473675762213
0.0345,1.7702437500000001,1.0,2721.5817545970035,0.321679372722615,1.3203790639340829,0.9565789475292911,0.2874032375,0.6726953296961762
0.035,1.7693750000000001,1.0,2724.2989992948305,0.32548421795842025,1.3199619967641365,0.9574964595771721,0.28736675,0.6735469407739372
0.035500000000000004,1.76849375,1.0,2726.6731696349902,0.32926771884662615,1.3195424166962386,0.9583791505246239,0.2873297375,0.674402563558442
0.036000000000000004,1.7676,1.0,2728.7243975467345,0.33302999522744403,1.319120136622061,0.9592287564683991,0.2872922,0.675262558680858
0.0365,1.76669375,1.0,2730.472906124052,0.33677116694108533,1.3186949694332764,0.9600469054372296,0.2872541375,0.6761272846234792
0.037,1.765775,1.0,2731.9389977959704,0.3404913538277616,1.318266728021556,0.960835125335742,0.28721555,0.676997097686393
0.0375,1.76484375,1.0,2733.13584893587,0.34419066715739555,1.3178352906288258,0.9615948557830959,0.2871764375,0.677872219486256
0.038,1.7639,1.0,2734.0819120691817,0.34786922907513956,1.3174004880602577,0.9623274476643225,0.28713679999999997,0.6787529661323668
0.0385,1.76294375,1.0,2734.799425610465,0.35152716647983895,1.3169621171892492,0.9630341693907065,0.28709663750000003,0.679639720238867
0.039,1.761975,1.0,2735.2991530550653,0.35516459143003104,1.3165200794660434,0.9637162216856977,0.28705595,0.6805326508125304
0.0395,1.7609937500000001,1.0,2735.5918887824114,0.358781615984253,1.316074276340884,0.9643747356214178,0.2870147375,0.6814319254961306
0.04,1.76,1.0,2735.688453840819,0.36237835220104214,1.3156246092640134,0.9650107774001969,0.286973,0.6823377105450857
0.0405,1.7589937500000001,1.0,2735.5996919479185,0.3659549121389356,1.3151709796856752,0.9656253527589973,0.2869307375,0.6832501708034813
0.041,1.757975,1.0,2735.3364657063553,0.3695114078564708,1.3147132890561128,0.966219411030134,0.28688795,0.6841694696794757
0.0415,1.75694375,1.0,2734.909653034844,0.37304795141218483,1.314251438825569,0.9667938488884248,0.2868446375,0.6850957691200881
0.042,1.7559,1.0,2734.3301438145945,0.376564654864615,1.3137853304442872,0.9673495138119849,0.28680079999999997,0.6860292295853618
0.0425,1.75484375,1.0,2733.6088367511625,0.38006163027229856,1.3133148653625109,0.9678872072812706,0.2867564375,0.6869700100219123
0.043000000000000003,1.753775,1.0,2732.756636451141,0.38353898969377276,1.3128399450304826,0.9684076877386462,0.28671155,0.6879182678358566
0.043500000000000004,1.75269375,1.0,2731.7844507151012,0.3869968451875748,1.3123604708984462,0.9689116733286325,0.28666613750000003,0.6888741588651178
0.044,1.7516,1.0,2730.6973335780426,0.39043529796861254,1.3118763976198367,0.9693998469951951,0.2866202,0.6898377315295713
0.0445,1.75049375,1.0,2729.505879837602,0.3938544664012165,1.3113876295166764,0.9698728548067623,0.2865737375,0.6908091332397484
0.045,1.7493750000000001,1.0,2728.2196009946183,0.39725446408421966,1.3108940807349827,0.9703313095815941,0.28652675,0.6917884903187184
0.0455,1.74824375,1.0,2726.843717580507,0.40063539526821423,1.3103957044104189,0.9707757945090564,0.2864792375,0.6927758503940047
0.046,1.7471,1.0,2725.3834495484803,0.40399736420379223,1.309892453678648,0.971206863368473,0.2864312,0.6937712600542952
0.0465,1.7459437500000001,1.0,2723.8440154478817,0.40734047514154587,1.3093842816753334,0.9716250422903929,0.28638263750000004,0.6947747648349425
0.047,1.744775,1.0,2722.2306316478475,0.41066483233206724,1.308871141536138,0.9720308313961867,0.28633355,0.6957864092033259
0.0475,1.74359375,1.0,2720.5485116098507,0.4139705400259486,1.3083529863967254,0.9724247063254519,0.28628393750000003,0.6968062365440717
0.048,1.7424,1.0,2718.8028652077987,0.4172577024737819,1.3078297693927585,0.9728071196598831,0.2862338,0.6978342891441363
0.0485,1.74119375,1.0,2716.998898098495,0.42052642392615946,1.3073014436599006,0.97317850225153,0.2861831375,0.6988706081777453
0.049,1.739975,1.0,2715.141811139155,0.4237768086336733,1.306767962333815,0.9735392644626812,0.28613195,0.6999152336911958
0.0495,1.73874375,1.0,2713.2367998548298,0.42700896084691564,1.3062292785501648,0.9738897973240174,0.2860802375,0.7009682045875179
0.05,1.7375,1.0,2711.289053954036,0.4302229848164785,1.3056853454446131,0.974230473617111,0.286028,0.7020295586109935
0.0505,1.73624375,1.0,2709.2786434475483,0.43341898210723,1.305136345274317,0.9745616637611544,0.2859752375,0.7030988864560996
0.051000000000000004,1.734975,1.0,2707.2665110917446,0.4365970539068178,1.3045817224631104,0.9748836728415532,0.28592195,0.7041772140988672
0.051500000000000004,1.73369375,1.0,2705.2404831055537,0.43975729989659035,1.3040215881860973,0.9751968351334707,0.2858681375,0.7052642663163364
0.052000000000000005,1.7324012424970572,1.0,2703.233148834615,0.4428998191258594,1.3034562060597634,0.9755014795458106,0.2858138521848764,0.7063594738642041
0.0525,1.7311068158646594,1.0,2701.6772184539373,0.4460247106439367,1.302885839700595,0.975797920312005,0.2857594862663157,0.707462270755311
0.053,1.7298123892322617,1.0,2700.638299549087,0.449132073500134,1.3023107527250777,0.9760864577790741,0.28570512034775497,0.7085720943456535
0.0535,1.728517962599864,1.0,2700.0886475561315,0.45222200631901754,1.3017311959659597,0.976367378314639,0.2856507544291943,0.7096884100157898
0.054,1.7272235359674661,1.0,2699.9877564727553,0.4552946070367701,1.3011475382480542,0.9766409630166254,0.28559638851063357,0.710810459844186
0.0545,1.7259291093350684,1.0,2700.289669359572,0.4583499742859454,1.3005601993242644,0.9769074840618474,0.28554202259207284,0.7119373934380053
0.055,1.7246346827026706,1.0,2700.966537241022,0.46138820352210025,1.2999694342814925,0.9771671918950052,0.28548765667351217,0.7130686814312543
0.0555,1.7233402560702729,1.0,2701.9905792449094,0.46440939020079114,1.2993754982066408,0.9774203264203153,0.28543329075495144,0.7142037980660894
0.056,1.722045829437875,1.0,2703.3340639473336,0.4674136297775746,1.2987786461866115,0.9776671175393529,0.28537892483639077,0.7153422212464784
0.0565,1.7207514028054773,1.0,2704.9692921592527,0.4704010177080074,1.2981791333083066,0.977907785657277,0.28532455891783004,0.7164834325877141
0.057,1.7194569761730796,1.0,2706.8720433395097,0.4733716482339839,1.2975771830574225,0.9781425402357675,0.28527019299926937,0.7176269774349784
0.0575,1.7181625495406818,1.0,2709.016643038919,0.4763256169616488,1.2969730322544506,0.9783715831234712,0.28521582708070864,0.7187723791887661
0.058,1.716868122908284,1.0,2711.3838891835253,0.479263017037172,1.2963668586332757,0.9785951045174884,0.2851614611621479,0.7199192764790943
0.0585,1.7155736962758863,1.0,2713.9574762111793,0.4821839404527452,1.2957588134772897,0.9788132854686427,0.28510709524358724,0.7210673604926842
0.059000000000000004,1.7142792696434885,1.0,2716.721091680505,0.48508847920056036,1.2951490480698846,0.9790262998834385,0.2850527293250265,0.7222163246920948
0.059500000000000004,1.7129848430110908,1.0,2719.6584102476413,0.48797672527280916,1.2945377136944527,0.9792343148661162,0.2849983634064658,0.7233658648330505
0.06,1.7116904163786932,1.0,2722.7536558481124,0.4908487702398822,1.2939249564678328,0.9794374907271941,0.2849439974879051,0.7245156886651232
0.0605,1.7103959897462953,1.0,2725.999803005755,0.4937046996323576,1.2933108427153923,0.9796359768424893,0.2848896315693444,0.7256656554387322
0.061,1.7091015631138977,1.0,2729.369535986278,0.49654461521895027,1.2926956231544076,0.9798299280027983,0.2848352656507837,0.7268152812061641
0.0615,1.7078071364814997,1.0,2732.855071995846,0.49936860437538766,1.2920793705312457,0.9800194826300391,0.284780899732223,0.7279644174428295
0.062,1.7065127098491022,1.0,2736.4486152504583,0.5021767544773967,1.2914621575922738,0.9802047739593772,0.2847265338136623,0.7291129167463539
0.0625,1.7052182832167042,1.0,2740.142355367736,0.5049691529007049,1.290844057083859,0.9803859302745423,0.2846721678951016,0.730260632841202
0.063,1.7039238565843067,1.0,2743.928465877325,0.5077458870210392,1.2902251417523685,0.9805630751307882,0.28461780197654085,0.7314074205829644
0.0635,1.7026294299519087,1.0,2747.799102847574,0.510507044214127,1.2896054843441696,0.9807363275662382,0.2845634360579802,0.7325531359623054
0.064,1.7013350033195112,1.0,2751.746403630041,0.5132527118556952,1.2889851576056288,0.980905802302296,0.28450907013941945,0.7336976361085774
0.0645,1.7000405766871132,1.0,2755.7624857214005,0.5159829773214712,1.2883642342831139,0.9810716099337664,0.2844547042208587,0.7348407792930913
0.065,1.6987461500547156,1.0,2759.839445742613,0.5186979279871823,1.2877427871229916,0.9812338571092866,0.28440033830229805,0.7359824249320559
0.0655,1.6974517234223176,1.0,2763.970717840064,0.5213976487691432,1.2871208765933457,0.9813926459247353,0.2843459723837373,0.7371224560722855
0.066,1.69615729678992,1.0,2768.154400662521,0.5240822187310903,1.286498520894139,0.9815480724180018,0.28429160646517665,0.7382608339460158
0.0665,1.6948628701575223,1.0,2772.3776196518866,0.5267517385773167,1.285875837150452,0.9817002355604403,0.2842372405466159,0.739397339711506
0.067,1.6935684435251246,1.0,2776.637543989946,0.5294062898470722,1.2852528516232855,0.9818492252264324,0.28418287462805525,0.740531921686173
0.0675,1.6922740168927268,1.0,2780.931334556023,0.5320459540796064,1.2846295905736407,0.9819951282060322,0.2841285087094945,0.7416645286029391
0.068,1.690979590260329,1.0,2785.256143759439,0.5346708128141693,1.2840060802625186,0.9821380283331854,0.2840741427909338,0.7427951096107137
0.0685,1.6896851636279313,1.0,2789.6091153863413,0.5372809475900105,1.2833823469509205,0.9822780066077682,0.2840197768723731,0.7439236142748347
0.069,1.6883907369955335,1.0,2793.9873844622484,0.5398764399463799,1.2827584168998472,0.982415141311782,0.2839654109538124,0.7450499925774625
0.0695,1.6870963103631358,1.0,2798.3880771302197,0.5424573714225273,1.2821343163702998,0.9825495081200216,0.2839110450352517,0.7461741949179324
0.07,1.685801883730738,1.0,2802.808310543319,0.5450238235577024,1.2815100716232797,0.9826811802055165,0.283856679116691,0.7472961721130611
0.07050000000000001,1.6845074570983403,1.0,2807.245192773763,0.547575877891155,1.2808857089197876,0.9828102283400261,0.2838023131981303,0.748415875397412
0.07100000000000001,1.6832130304659425,1.0,2811.6958227359314,0.550113615962135,1.2802612545208245,0.9829367209898512,0.2837479472795696,0.7495332564235129
0.07150000000000001,1.6819186038335447,1.0,2816.1572901256013,0.5526371193098921,1.2796367346873918,0.9830607244072114,0.28369358136100886,0.750648267262032
0.07200000000000001,1.680624177201147,1.0,2820.6266753744303,0.5551464694736761,1.2790121756804906,0.983182302717422,0.2836392154424482,0.7517608604019101
0.0725,1.6793297505687492,1.0,2825.1061135573127,0.5576417219831894,1.2783875585173714,0.9833015144563264,0.28358484952388746,0.7528710690776056
0.073,1.6780353239363515,1.0,2829.5887118014707,0.5601229893506956,1.2777629448717942,0.9834184231993203,0.28353048360532673,0.7539787833423106
