Time [s],Phi [rad],STIM [ ],Fsee [N],Gamma [ ],Lcerel [ ],q [ ],Lmtc [m],fisomrel [ ]
0.0,1.8,1.0,18.101465504387345,0.00037221457054537657,1.37932472732127,0.005035882702091844,0.288653,0.5411758649319007
0.0005,1.79999375,1.0,18.526491155266047,0.0059793360500035855,1.3792747398880536,0.01397662776182073,0.2886527375,0.5412967847029633
0.001,1.799975,1.0,22.136922703385814,0.011555006011204053,1.3788856545996282,0.0375210163766862,0.28865195,0.5422374385797553
0.0015,1.79994375,1.0,32.1750704700935,0.017099400873306064,1.3779528141582373,0.07320320734820979,0.2886506375,0.5444887444830004
0.002,1.7999,1.0,55.853060424829806,0.022612696063606594,1.3762223505754452,0.11778833505332079,0.2886488,0.5486503282126494
0.0025,1.79984375,1.0,100.84259026876828,0.028095066026885277,1.3737574210506982,0.16790845611537142,0.28864643749999996,0.5545452493926375
0.003,1.7997750000000001,1.0,165.74380056370794,0.03354668423039793,1.3710365249836336,0.22071522557147139,0.28864354999999997,0.5610073250257317
0.0035,1.79969375,1.0,243.05783678531054,0.03896772316586818,1.3684201106710212,0.27402614544381865,0.2886401375,0.567176728485818
0.004,1.7996,1.0,327.16568620563646,0.04435835435935928,1.36600581301518,0.32621863215141805,0.2886362,0.5728308190022229
0.0045000000000000005,1.7994937500000001,1.0,415.1564784050357,0.04971874837681578,1.3637850769702307,0.3761682755665114,0.2886317375,0.5779987811663372
0.005,1.799375,1.0,505.4117426773947,0.055049074815194735,1.3617312607181955,0.4231783443880434,0.28862675,0.5827503029949772
0.0055,1.79924375,1.0,596.8352010451576,0.06034950234189275,1.3598210351754414,0.4668865765838574,0.2886212375,0.5871454803739597
0.006,1.7991000000000001,1.0,688.5623171267348,0.0656201986606474,1.3580367892885052,0.5071726830199625,0.2886152,0.5912297752422784
0.006500000000000001,1.79894375,1.0,779.8831654949322,0.0708613305242644,1.3563649950021275,0.5440797157980019,0.2886086375,0.5950382344934109
0.007,1.798775,1.0,870.2124595107447,0.076073063826993,1.3547948241943262,0.5777534785593891,0.28860155,0.5985989563932308
0.0075,1.79859375,1.0,959.062384669511,0.0812555633204658,1.3533174105366022,0.6083986624823539,0.2885939375,0.6019349726138716
0.008,1.7984,1.0,1046.0584403933399,0.08640899325757803,1.3519248401715118,0.6362481534399821,0.2885858,0.6050666673158669
0.0085,1.79819375,1.0,1130.8810244144477,0.09153351643830339,1.3506105333415974,0.6615433410519596,0.2885771375,0.6080110137433693
0.009000000000000001,1.797975,1.0,1213.2856466353417,0.0966292949322828,1.3493685308978782,0.6845211106155908,0.28856795,0.6107832577112828
0.0095,1.79774375,1.0,1293.1165072319934,0.10169649046669249,1.3481930622891651,0.7054061785705932,0.2885582375,0.6133979316763188
0.01,1.7975,1.0,1370.2351826732481,0.10673526293130547,1.347079306409473,0.7244075497578824,0.288548,0.6158672036425993
0.0105,1.79724375,1.0,1444.5526133011,0.11174577164984587,1.3460227572575412,0.741716460935229,0.2885372375,0.6182023324613799
0.011,1.796975,1.0,1516.0348476361034,0.1167281754822751,1.3450190315943256,0.7575060348639786,0.28852595000000003,0.6204141193804649
0.0115,1.79669375,1.0,1584.6647684766695,0.12168263228027108,1.344064239855027,0.7719320727189621,0.2885141375,0.6225121136893571
0.012,1.7964,1.0,1650.4329171968122,0.1266092981980693,1.3431549797320188,0.785134118682382,0.28850180000000003,0.6245046552459113
0.0125,1.79609375,1.0,1713.3651725529835,0.1315083289820711,1.3422879213536714,0.7972365959799501,0.2884889375,0.6263998051510935
0.013000000000000001,1.7957750000000001,1.0,1773.5179795980757,0.13637988047473745,1.3414598128032793,0.8083502341598583,0.28847555,0.6282053451541756
0.0135,1.79544375,1.0,1830.94454136545,0.14122410710734035,1.3406678113214057,0.8185735997624088,0.2884616375,0.6299280686526887
0.014,1.7951000000000001,1.0,1885.6897848491499,0.1460411611112469,1.3399094745217504,0.8279944001951981,0.2884472,0.6315738173799348
0.0145,1.79474375,1.0,1937.8224176242097,0.15083119471782416,1.3391823600180126,0.8366905576185605,0.2884322375,0.6331483630504187
0.015,1.794375,1.0,1987.4234264365862,0.1555943596140155,1.3384841259690299,0.8447313725286427,0.28841675,0.6346571953666515
0.0155,1.793994061153913,1.0,2034.5989488274042,0.16033080740800054,1.337812509901333,0.8521785254134103,0.28840075056846437,0.6361055744711794
0.016,1.7936093502125032,1.0,2079.7777875084785,0.16504068842570918,1.3371657359120195,0.8590871022984073,0.28838459270892514,0.6374976611189616
0.0165,1.7932246392710935,1.0,2123.1637322759425,0.16972415046336808,1.3365425463545697,0.8655063738804769,0.2883684348493859,0.6388364620318313
0.017,1.792839928329684,1.0,2164.8094959206624,0.17438134131720393,1.3359416835824636,0.8714803261714074,0.2883522769898467,0.6401249529074615
0.0175,1.7924552173882744,1.0,2204.7759988417224,0.17901240878344338,1.3353618899491813,0.877048285315445,0.28833611913030754,0.6413660802605652
0.018000000000000002,1.7920705064468647,1.0,2243.1216211449623,0.18361749928976526,1.3348020095083664,0.8822454918021188,0.2883199612707683,0.6425625460113513
0.0185,1.791685795505455,1.0,2279.913134982925,0.18819676013209416,1.334260869496625,0.8871035475081557,0.2883038034112291,0.6437170635311233
0.019,1.7913010845640456,1.0,2315.200659471839,0.19275033504338618,1.3337375232670325,0.8916508943207282,0.2882876455516899,0.6448318417206216
0.0195,1.790916373622636,1.0,2349.0373289326103,0.19727836743156502,1.33323104477361,0.8959131267762577,0.2882714876921507,0.6459090267828073
0.02,1.7905316626812262,1.0,2381.4809740169653,0.20178100070455435,1.3327405079703778,0.8999133105448054,0.2882553298326115,0.6469507473074456
0.0205,1.7901469517398165,1.0,2412.584154653916,0.2062583763477556,1.3322650799184097,0.9036722860266749,0.2882391719730723,0.6479589179426429
0.021,1.789762240798407,1.0,2442.415734715637,0.21071063900977277,1.3318038075693999,0.9072088713626584,0.2882230141135331,0.6489356928649511
0.021500000000000002,1.7893775298569974,1.0,2471.028828702293,0.21513792971671986,1.3313559248720197,0.9105401456512708,0.2882068562539939,0.6498828158552565
0.022,1.7889928189155877,1.0,2498.4664879342736,0.21954038683931734,1.3309207908493352,0.9136816234889615,0.28819069839445466,0.6508017544121509
0.0225,1.788608107974178,1.0,2524.774367840715,0.2239181487482859,1.3304977645244125,0.9166473979018823,0.2881745405349155,0.6516939657026977
0.023,1.7882233970327686,1.0,2550.000551336789,0.228271353814346,1.3300862049203175,0.9194502903063092,0.2881583826753763,0.6525608970704788
0.0235,1.7878386860913589,1.0,2574.195381311057,0.23260014040821825,1.3296854710601163,0.9221019828781009,0.28814222481583707,0.6534039865174402
0.024,1.7874539751499492,1.0,2597.403061623991,0.23690464456570198,1.3292949987518168,0.9246131482651455,0.28812606695629783,0.6542245019038297
0.0245,1.7870692642085395,1.0,2619.6758426287997,0.2411850052835305,1.3289141659512194,0.9269935304469282,0.28810990909675865,0.6550238247340999
0.025,1.78668455326713,1.0,2641.0581248227336,0.2454413590166274,1.328542439672876,0.9292520602594847,0.2880937512372195,0.6558031420082737
0.025500000000000002,1.7862998423257204,1.0,2661.5831096563356,0.24967383844011598,1.3281794039125199,0.931396939187937,0.28807759337768024,0.6565633891824718
0.026000000000000002,1.7859151313843107,1.0,2681.2852157288216,0.2538825762291196,1.3278246426658846,0.933435692488654,0.28806143551814106,0.6573054963679371
0.0265,1.785530420442901,1.0,2700.2000005497625,0.25806770505876153,1.3274777399287034,0.9353752340954025,0.28804527765860183,0.6580303885560856
0.027,1.7851457095014915,1.0,2718.3640861383396,0.26222935760416527,1.3271382796967097,0.9372219245040306,0.28802911979906265,0.658738985832517
0.0275,1.7847609985600819,1.0,2735.81508845894,0.2663676665404541,1.326805845965637,0.9389816224707626,0.2880129619395234,0.6594322035799881
0.028,1.7843762876186722,1.0,2752.580809646623,0.27048276003572375,1.3264801199530005,0.9406597436976313,0.28799680407998424,0.6601107502406709
0.0285,1.7839915766772625,1.0,2768.7046793973896,0.2745747743803824,1.3261606485032842,0.9422612726036818,0.287980646220445,0.6607756102293275
0.029,1.783606865735853,1.0,2784.214660957751,0.2786438384975945,1.3258471253866853,0.9437908347941338,0.2879644883609058,0.6614274581544446
0.029500000000000002,1.7832221547944433,1.0,2799.1342657812174,0.2826900790087959,1.325539289926262,0.9452527164612646,0.2879483305013666,0.662066870900208
0.03,1.7828374438530337,1.0,2813.4875372238816,0.28671362253542254,1.3252368814450721,0.9466508886732408,0.2879321726418274,0.6626944226654468
0.0305,1.782452732911624,1.0,2827.299018424541,0.29071459569891034,1.324939639266174,0.9479890345559213,0.28791601478228823,0.6633106850560225
0.031,1.7820680219702145,1.0,2840.5937216927236,0.2946931251206951,1.3246473027126264,0.9492705738089018,0.287899856922749,0.6639162271728836
0.0315,1.7816833110288048,1.0,2853.397099402999,0.2986493374222129,1.324359611107487,0.9504986848461929,0.2878836990632098,0.6645116156957904
0.032,1.7812986000873952,1.0,2865.7341881895645,0.30258335862599345,1.324076311120771,0.9516763255278071,0.2878675412036706,0.6650973997779122
0.0325,1.7809138891459855,1.0,2877.620358503608,0.30649530852807527,1.3237972383528178,0.9528062592592355,0.2878513833441314,0.6656739427139302
0.033,1.780529178204576,1.0,2889.0897637874264,0.3103853215113876,1.323522064890547,0.9538910471563101,0.28783522548459217,0.6662419436510099
0.0335,1.7801444672631663,1.0,2900.1575104012395,0.3142535176923302,1.3232506343253507,0.9549330945546274,0.287819067625053,0.6668017455620485
0.034,1.7797597563217566,1.0,2910.838936045886,0.3181000171873026,1.3229827902486206,0.9559346478144437,0.28780290976551376,0.667353690061274
0.0345,1.779375045380347,1.0,2921.1495970545475,0.3219249401127045,1.3227183762517487,0.9568978067124247,0.2877867519059746,0.6678981174407996
0.035,1.7789903344389375,1.0,2931.105256226571,0.3257284065849357,1.3224572359261269,0.9578245357291403,0.28777059404643535,0.6684353667056191
0.035500000000000004,1.7786056234975278,1.0,2940.721871203918,0.32951053672039565,1.3221992128631468,0.9587166743422698,0.28775443618689617,0.6689657756070428
0.036000000000000004,1.7782209125561181,1.0,2950.015583389574,0.33327145063548413,1.3219441506542007,0.9595759464234644,0.287738278327357,0.6694896806745707
0.0365,1.7778362016147085,1.0,2959.002707408994,0.3370112684466008,1.32169189289068,0.9604039688262033,0.28772212046781775,0.6700074172462094
0.037,1.777451490673299,1.0,2967.697232745547,0.34073010725964314,1.3214423048556019,0.9612022607249847,0.2877059626082785,0.6705192750290763
0.0375,1.7770667797318893,1.0,2976.1102113920297,0.3444280821683414,1.3211952786182257,0.9619722514098524,0.28768980474873934,0.6710254878614808
0.038,1.7766820687904796,1.0,2984.2631466218504,0.3481053218685746,1.3209506163950826,0.9627152788431687,0.28767364688920016,0.6715264726901038
0.0385,1.77629735784907,1.0,2992.1651638133403,0.35176193944291667,1.3207082292826933,0.9634326088010765,0.28765748902966093,0.6720224224182381
0.039,1.7759126469076605,1.0,2999.825477812805,0.3553980479739414,1.320468028377579,0.9641254330188408,0.28764133117012175,0.6725135292977911
0.0395,1.7755279359662508,1.0,3007.2533885369326,0.35901376054422274,1.3202299247762603,0.9647948743226948,0.2876251733105825,0.6729999849419345
0.04,1.7751432250248411,1.0,3014.458276751884,0.36260919023633453,1.3199938295752585,0.9654419913531286,0.28760901545104334,0.6734819803372464
0.0405,1.7747585140834314,1.0,3021.449600026072,0.36618445013285067,1.3197596538710943,0.9660677829161528,0.2875928575915041,0.6739597058553507
0.041,1.774373803142022,1.0,3028.23688885984,0.369739653316345,1.3195273087602888,0.9666731919954581,0.2875766997319649,0.6744333512640532
0.0415,1.7739890922006123,1.0,3034.8297429886507,0.3732749128693914,1.3192967053393632,0.9672591094551773,0.28756054187242575,0.6749031057379716
0.042,1.7736043812592026,1.0,3041.2378278629644,0.37679034187456373,1.319067754704838,0.9678263774600778,0.2875443840128865,0.6753691578686651
0.0425,1.773219670317793,1.0,3047.4708713027403,0.3802860534144359,1.3188403679532341,0.9683757926374404,0.2875282261533473,0.6758316956742547
0.043000000000000003,1.7728349593763835,1.0,3053.5306302892473,0.38376214410470616,1.318614525189723,0.9689081119345135,0.2875120682938081,0.6762907663843347
0.043500000000000004,1.7724502484349738,1.0,3059.433618111608,0.3872187455900549,1.318390080044912,0.9694240477102417,0.2874959104342689,0.6767466738807224
0.044,1.772065537493564,1.0,3065.186082407027,0.39065596598963453,1.318166974886796,0.9699242782977249,0.2874797525747297,0.6771995411077327
0.0445,1.7716808265521544,1.0,3070.793100145766,0.3940739107449256,1.3179451624371223,0.9704094472915016,0.28746359471519045,0.6776494696518874
0.045,1.771296115610745,1.0,3076.2597798452075,0.39747268529740853,1.3177245954176398,0.9708801653023597,0.2874474368556513,0.6780965607994169
0.0455,1.7709114046693353,1.0,3081.5912602398175,0.40085239508856374,1.3175052265500957,0.971337011968669,0.2874312789961121,0.6785409155400906
0.046,1.7705266937279256,1.0,3086.792709000497,0.4042131455598717,1.3172870085562383,0.971780537826288,0.28741512113657286,0.678982634570898
0.0465,1.770141982786516,1.0,3091.8693215034587,0.4075550421528128,1.3170698941578156,0.9722112660482577,0.2873989632770337,0.6794218182995906
0.047,1.7697572718451064,1.0,3096.8263196485195,0.4108781903088676,1.3168538360765758,0.972629694064508,0.2873828054174945,0.6798585668480818
0.0475,1.7693725609036968,1.0,3101.6689507269884,0.4141826954695164,1.3166387870342664,0.9730362950709148,0.28736664755795527,0.6802929800557032
0.048,1.768987849962287,1.0,3106.402486339462,0.4174686630762398,1.3164246997526359,0.9734315194362377,0.28735048969841603,0.6807251574823159
0.0485,1.7686031390208774,1.0,3111.03222136269,0.42073619857051814,1.3162115269534318,0.9738157960147362,0.28733433183887686,0.6811551984112854
0.049,1.768218428079468,1.0,3115.563472966134,0.42398540739383195,1.3159992213584024,0.9741895333716091,0.2873181739793377,0.6815832018523067
0.0495,1.7678337171380583,1.0,3119.9956411386183,0.42721636958259235,1.3157877861774903,0.9745531213131534,0.28730201611979844,0.6820091648632643
0.05,1.7674490061966486,1.0,3124.3381263582055,0.43042921387990657,1.3155771396912057,0.9749069316383775,0.2872858582602592,0.682433255434685
0.0505,1.767064295255239,1.0,3128.5964930769323,0.4336240509841948,1.3153672330130461,0.9752513190714815,0.28726970040072003,0.6828555750691807
0.051000000000000004,1.7666795843138294,1.0,3132.7732251605116,0.43680097765341064,1.3151580435588615,0.9755866223088019,0.28725354254118085,0.6832761721305829
0.051500000000000004,1.7662948733724197,1.0,3136.8708170694104,0.4399600906455077,1.3149495487445015,0.9759131647866329,0.2872373846816416,0.683695094852152
0.052000000000000005,1.76591016243101,1.0,3140.8917735054433,0.4431014867184396,1.314741725985816,0.9762312555022182,0.28722122682210244,0.684112391337594
0.0525,1.7655254514896004,1.0,3144.8386090690065,0.44622526263015977,1.3145345526986552,0.9765411897836622,0.2872050689625632,0.6845281095620438
0.053,1.765140740548191,1.0,3148.7138479289533,0.44933151513862213,1.3143280062988687,0.9768432500123552,0.287188911103024,0.6849422973730177
0.0535,1.7647560296067812,1.0,3152.5200235024104,0.4524203410017801,1.3141220642023064,0.9771377063012245,0.2871727532434848,0.6853550024913333
0.054,1.7643713186653716,1.0,3156.2596781471325,0.4554918369775872,1.313916703824818,0.9774248171318689,0.2871565953839456,0.6857662725119944
0.0545,1.7639866077239619,1.0,3159.935362863862,0.4585460998239973,1.313711902582254,0.9777048299533955,0.2871404375244064,0.686176154905046
0.055,1.7636018967825524,1.0,3163.5496370114424,0.4615832262989638,1.3135076378904635,0.9779779817455644,0.2871242796648672,0.6865846970163967
0.0555,1.7632171858411427,1.0,3167.105068031865,0.46460331316044035,1.313303887165297,0.9782444995486509,0.28710812180532796,0.6869919460686063
0.056,1.762832474899733,1.0,3170.604231187789,0.4676064571663806,1.313100627822604,0.9785046009622513,0.2870919639457888,0.6873979491616428
0.0565,1.7624477639583234,1.0,3174.04970931045,0.4705927550747382,1.3128978372782347,0.9787584946150913,0.2870758060862496,0.6878027532736076
0.057,1.762063053016914,1.0,3177.4440925593035,0.47356230364346663,1.3126954929480388,0.9790063806077519,0.2870596482267104,0.6882064052614255
0.0575,1.7616783420755042,1.0,3180.7899781934357,0.4765151996305195,1.312493572247866,0.9792484509300748,0.2870434903671712,0.6886089518615046
0.058,1.7612936311340945,1.0,3184.084906556679,0.4794514947507234,1.3122920952094115,0.9794848883724612,0.28702733250763196,0.6890103548141451
0.0585,1.7609089201926849,1.0,3187.3361293322237,0.4823713395608014,1.3120910001466222,0.9797158723273338,0.2870111746480928,0.6894107386080393
0.059000000000000004,1.7605242092512752,1.0,3190.544803732246,0.4852748219540951,1.3118902767461982,0.9799415726080275,0.28699501678855355,0.6898101252269768
0.059500000000000004,1.7601394983098657,1.0,3193.71205233514,0.488162029451681,1.3116899150144787,0.9801621523744221,0.28697885892901437,0.6902085359638617
0.06,1.759754787368456,1.0,3196.8390009646027,0.4910330495746357,1.3114899049578026,0.980377768458431,0.28696270106947513,0.6906059920579691
0.0605,1.7593700764270463,1.0,3199.9267786113505,0.4938879698440358,1.3112902365825085,0.9805885716582365,0.28694654320993596,0.6910025146951717
0.061,1.7589853654856369,1.0,3202.9765173556975,0.4967268777809579,1.311090899894936,0.9807947070166593,0.2869303853503967,0.6913981250081598
0.0615,1.7586006545442272,1.0,3205.989352293634,0.4995498609064785,1.3108918849014235,0.9809963140846336,0.28691422749085754,0.6917928440766583
0.062,1.7582159436028175,1.0,3208.9664214636564,0.5023570067416742,1.31069318160831,0.9811935271706913,0.28689806963131836,0.6921866929276329
0.0625,1.7578312326614078,1.0,3211.9088657771267,0.5051484028076216,1.3104947800219346,0.9813864755772986,0.28688191177177913,0.6925796925354923
0.063,1.7574465217199984,1.0,3214.8178289501757,0.5079241366253973,1.3102966701486365,0.9815752838248285,0.2868657539122399,0.6929718638222842
0.0635,1.7570618107785887,1.0,3217.6944574381346,0.5106842957160778,1.3100988419947543,0.9817600718639071,0.2868495960527007,0.6933632276578838
0.064,1.756677099837179,1.0,3220.539900371581,0.5134289676007395,1.309901285566627,0.9819409552768156,0.28683343819316154,0.6937538048601783
0.0645,1.7562923888957693,1.0,3223.3553094952385,0.5161582398004594,1.3097039908705936,0.9821180454685888,0.2868172803336223,0.69414361619524
0.065,1.7559076779543599,1.0,3226.141839109229,0.5188721998363138,1.309506947912993,0.9822914498484101,0.2868011224740831,0.6945326823774994
0.0655,1.7555229670129502,1.0,3228.9006460115115,0.5215709352293794,1.3093101467001642,0.9824612720018593,0.2867849646145439,0.6949210240699072
0.066,1.7551382560715405,1.0,3231.632889443855,0.5242545335007325,1.3091135772384463,0.9826276118545396,0.2867688067550047,0.6953086618840914
0.0665,1.7547535451301308,1.0,3234.339731038806,0.52692308217145,1.308917229534178,0.9827905658275738,0.2867526488954655,0.6956956163805101
0.067,1.7543688341887211,1.0,3237.021012630582,0.5295766385460629,1.3087211046291942,0.982950225573784,0.2867364910359263,0.6960818863409761
0.0675,1.7539841232473117,1.0,3239.677242094253,0.5322152842510971,1.3085251980093866,0.9831066808842883,0.2867203331763871,0.6964674814836378
0.068,1.753599412305902,1.0,3242.311304776864,0.5348391550660404,1.3083294853428828,0.9832600209258918,0.2867041753168479,0.6968524504725542
0.0685,1.7532147013644923,1.0,3244.923673947127,0.5374483287597357,1.3081339624479609,0.983410329136377,0.28668801745730865,0.6972368022516539
0.069,1.7528299904230829,1.0,3247.5148239247137,0.5400428831010259,1.307938625142899,0.9835576861444727,0.2866718595977695,0.6976205457433071
0.0695,1.7524452794816732,1.0,3250.0852300625324,0.5426228958587538,1.307743469245976,0.9837021698836861,0.2866557017382303,0.6980036898483771
