Time [s],Phi [rad],STIM [ ],Fsee [N],Gamma [ ],Lcerel [ ],q [ ],Lmtc [m],fisomrel [ ]
0.0,1.8,1.0,19.166740638293426,0.0011181231323378088,1.379207524169829,0.005320814680072051,0.288653,0.5414593546332545
0.0005,1.79999375,1.0,19.797975522357603,0.006721060654592331,1.379136785627051,0.016300689942400002,0.2886527375,0.5416304138532765
0.001,1.799975,1.0,23.96616717819501,0.012292570127485188,1.3787046895840194,0.04161393453612394,0.28865195,0.5426746112470393
0.0015,1.79994375,1.0,35.310743112391975,0.017832827837649376,1.3776963987346877,0.07866938173072185,0.2886506375,0.5451066019861217
0.002,1.7999,1.0,61.51316301788356,0.0233420090823898,1.3758713712932051,0.124174533622376,0.2886488,0.5494920670987422
0.0025,1.79984375,1.0,109.4419003568561,0.028820288177137707,1.3733590817058512,0.17480050987506504,0.28864643749999996,0.5554942477926134
0.003,1.7997750000000001,1.0,176.3679155039435,0.03426783845727701,1.3706507238183996,0.2277888484207693,0.28864354999999997,0.5619197733829608
0.0035,1.79969375,1.0,254.75918474549937,0.03968483228673694,1.3680678749484279,0.28103577112581557,0.2886401375,0.568003952267055
0.004,1.7996,1.0,339.4373927589624,0.04507144106124807,1.3656865915546927,0.3329874901556451,0.2886362,0.573575627414258
0.0045000000000000005,1.7994937500000001,1.0,427.7471171408486,0.050427835230692816,1.3634938220309825,0.382580927378414,0.2886317375,0.5786742389837642
0.005,1.799375,1.0,518.1637822698112,0.055754184227473386,1.3614635717286916,0.429169355157197,0.28862675,0.5833676221719931
0.0055,1.79924375,1.0,609.6455300462146,0.06105065670187656,1.359573345111611,0.4724275452764849,0.2886212375,0.5877136782055048
0.006,1.7991000000000001,1.0,701.3177505874183,0.06631742005237705,1.3578070086105327,0.5122614351179947,0.2886152,0.5917542875930554
0.006500000000000001,1.79894375,1.0,792.5203331276413,0.07155464110361254,1.3561509655064485,0.5487304329062428,0.2886086375,0.5955245209465068
0.007,1.798775,1.0,882.6602058957463,0.07676248541215394,1.3545951505886056,0.5819906179401224,0.28860155,0.5990506351372582
0.0075,1.79859375,1.0,971.2804642039903,0.08194111789769055,1.353130647780997,0.6122517770763167,0.2885939375,0.6023556938704511
0.008,1.7984,1.0,1057.9955142174274,0.0870907023678913,1.3517500674830645,0.6397490951088906,0.2885858,0.6054588329899859
0.0085,1.79819375,1.0,1142.4975970420776,0.0922114014938664,1.35044690975068,0.6647239489291725,0.2885771375,0.60837679670344
0.009000000000000001,1.797975,1.0,1224.5775967775617,0.09730337784416115,1.3492149391711754,0.6874117797560757,0.28856795,0.6111254026137509
0.0095,1.79774375,1.0,1304.0575467950075,0.10236679236355649,1.3480488801714792,0.7080356039947493,0.2885582375,0.6137180389393474
0.01,1.7975,1.0,1380.8045384559996,0.1074018048155093,1.3469439735482136,0.7268021373388486,0.288548,0.6161667066918892
0.0105,1.79724375,1.0,1454.745821802605,0.11240857454779228,1.3458956215647027,0.7439001495649967,0.2885372375,0.6184828411427552
0.011,1.796975,1.0,1525.8582758878965,0.11738726084656685,1.3448994142809128,0.7595003808093732,0.28852595000000003,0.620677276877179
0.0115,1.79669375,1.0,1594.1150246362117,0.12233802076707716,1.343951671527259,0.7737564808045788,0.2885141375,0.6227590805280756
0.012,1.7964,1.0,1659.5108220249242,0.1272610104322712,1.3430490109107336,0.7868059147201669,0.28850180000000003,0.6247365309731103
0.0125,1.79609375,1.0,1722.0779529256447,0.13215638573873958,1.3421880897355993,0.7987711995857002,0.2884889375,0.626617701668053
0.013000000000000001,1.7957750000000001,1.0,1781.8718245939313,0.1370243021191126,1.3413657223681394,0.809761379596387,0.28847555,0.6284102155359641
0.0135,1.79544375,1.0,1838.9474005894594,0.14186491390577813,1.3405790913949716,0.8198734983960315,0.2884616375,0.6301207988028559
0.014,1.7951000000000001,1.0,1893.35209393413,0.1466783733550888,1.3398257656644563,0.8291939038727163,0.2884472,0.6317552582607335
0.0145,1.79474375,1.0,1945.15673703891,0.151464832723397,1.3391033140249538,0.8377993142308352,0.2884322375,0.6333193316877985
0.015,1.794375,1.0,1994.4383760260046,0.15622444326522325,1.3384094666529298,0.8457579860456375,0.28841675,0.6348183446418354
0.0155,1.79399375,1.0,2041.2960768908413,0.16095735729024502,1.3377419196018743,0.8531306425747355,0.2884007375,0.6362576394886514
0.016,1.7936,1.0,2085.8018140649942,0.16566372385924072,1.3370988299648343,0.8599715146498484,0.2883842,0.6376415141464915
0.0165,1.7931937500000001,1.0,2128.0268636408878,0.17034369093834423,1.3364785049623367,0.866329009878299,0.2883671375,0.6389739020992053
0.017,1.792775,1.0,2168.0546481724937,0.17499740649368956,1.3358792518149085,0.8722463575247734,0.28834955,0.6402586996181674
0.0175,1.7923437500000001,1.0,2205.975644458914,0.17962501804151296,1.335299418770008,0.8777622311097201,0.2883314375,0.641499680396986
0.018000000000000002,1.7919,1.0,2241.879181085097,0.18422667251885766,1.3347374659806592,0.8829113019074094,0.2883128,0.6427003471583133
0.0185,1.79144375,1.0,2275.8551015493645,0.18880251668658632,1.3341919359189158,0.8877246965685462,0.2882936375,0.6438639986185181
0.019,1.790975,1.0,2307.9704559509487,0.19335269389787205,1.3336616732190152,0.8922304578720013,0.28827395,0.6449932647470891
0.0195,1.79049375,1.0,2338.2985776051146,0.19787734750588795,1.333145522515194,0.8964538236770335,0.2882537375,0.6460907551915764
0.02,1.79,1.0,2366.9185621418696,0.20237662086380712,1.3326423284416902,0.9004175447668501,0.288233,0.6471590603599833
0.0205,1.78949375,1.0,2393.9066708823666,0.20685065606747907,1.3321510143017123,0.9041421803602424,0.2882117375,0.6482005857727797
0.021,1.788975,1.0,2419.3463300681524,0.21129959644668359,1.331670478996254,0.9076463192997561,0.28818995000000003,0.6492177722015162
0.021500000000000002,1.78844375,1.0,2443.3097107765484,0.21572358326608781,1.3311997706940544,0.9109468302162798,0.2881676375,0.6502127292481052
0.022,1.7879,1.0,2465.854977781941,0.22012275495179748,1.3307381060106402,0.9140590494034021,0.2881448,0.6511871978076993
0.0225,1.78734375,1.0,2487.0432847257657,0.2244972499299184,1.3302847015615369,0.9169969110898814,0.28812143749999997,0.6521429078903269
0.023,1.786775,1.0,2506.9385257925856,0.22884720662655625,1.3298387739622703,0.9197730950258862,0.28809755,0.6530815790531452
0.0235,1.78619375,1.0,2525.607100993001,0.23317276346781682,1.3293995398283667,0.9223991567872418,0.28807313749999996,0.6540049207935597
0.024,1.7856,1.0,2543.1050098263786,0.23747405564213853,1.328966335229968,0.924885662924046,0.2880482,0.6549143822875136
0.0245,1.78499375,1.0,2559.504537091562,0.24175122383855935,1.328538361337382,0.9272422499932415,0.2880227375,0.6558116872759816
0.025,1.784375,1.0,2574.8520127163283,0.24600440164259382,1.3281150801809976,0.9294777794982665,0.28799675,0.6566980043297754
0.025500000000000002,1.78374375,1.0,2589.193421199658,0.250233722156292,1.3276959702902118,0.9316003751995073,0.2879702375,0.6575744612740964
0.026000000000000002,1.7831000000000001,1.0,2602.576031138655,0.2544393184817041,1.327280510194422,0.9336174922165876,0.2879432,0.6584421799964248
0.0265,1.78244375,1.0,2615.0482847475187,0.2586213237208799,1.3268681784230252,0.93553598108046,0.2879156375,0.6593022765765733
0.027,1.781775,1.0,2626.6596934059107,0.2627798709758697,1.3264584535054182,0.9373621448685096,0.28788755,0.6601558613993963
0.0275,1.7810937500000001,1.0,2637.45012501715,0.26691508968299804,1.3260509121193167,0.9391018034722172,0.2878589375,0.6610038351599542
0.028,1.7804,1.0,2647.472410078104,0.2710271155504629,1.325645018668359,0.9407603108614305,0.2878298,0.6618473272209314
0.0285,1.77969375,1.0,2656.7664363315457,0.2751160790035546,1.3252403642770516,0.9423426273448494,0.2878001375,0.6626871984851109
0.029,1.778975,1.0,2665.364433938721,0.27918210728899995,1.324836616383198,0.9438533482066994,0.28776995,0.6635241475022804
0.029500000000000002,1.7782437500000001,1.0,2673.299161921324,0.28322532765352587,1.3244334424246025,0.9452967265071219,0.2877392375,0.6643588693766651
0.03,1.7775,1.0,2680.603861079777,0.28724586734385904,1.3240305098390688,0.9466767029428583,0.287708,0.6651920557826312
0.0305,1.77674375,1.0,2687.312209363364,0.29124385360672633,1.3236274860644006,0.9479969327480497,0.2876762375,0.6660243949733298
0.031,1.775975,1.0,2693.458279692424,0.2952194136888546,1.3232240385384024,0.9492608099606848,0.28764395,0.6668565717822874
0.0315,1.7751937500000001,1.0,2699.0747448751245,0.2991726738923228,1.322819850744089,0.9504714910401928,0.2876111375,0.6676892345840695
0.032,1.7744,1.0,2704.188307919521,0.3031037580419554,1.322414663523957,0.9516319190838123,0.2875778,0.6685229105380535
0.0325,1.77359375,1.0,2708.8352442658056,0.30701279580553603,1.3220081327190538,0.9527448266568584,0.2875439375,0.6693582986696054
0.033,1.772775,1.0,2713.036996481131,0.3108999085002934,1.3216000517686204,0.953812774825447,0.28750955,0.6701958121888415
0.0335,1.7719437500000002,1.0,2716.8151927213294,0.3147652174434562,1.3211902141118983,0.9548381532367476,0.2874746375,0.6710358621133703
0.034,1.7711000000000001,1.0,2720.191628449572,0.31860884395225303,1.3207784131881286,0.9558231936306367,0.2874392,0.6718788572465122
0.0345,1.7702437500000001,1.0,2723.1882491012016,0.32243090934391255,1.320364442436553,0.9567699821344812,0.2874032375,0.6727252041527949
0.035,1.7693750000000001,1.0,2725.827133694491,0.32623153493566354,1.3199480952964129,0.9576804704634296,0.28736675,0.6735753071307318
0.035500000000000004,1.76849375,1.0,2728.130479387535,0.3300108420447346,1.3195291652069496,0.9585564861350842,0.2873297375,0.6744295681828759
0.036000000000000004,1.7676,1.0,2730.1078457759872,0.3337689439523906,1.3191075614071142,0.9593997518709302,0.2872922,0.675288151316342
0.0365,1.76669375,1.0,2731.791227515914,0.3375059695771642,1.318682989970848,0.9602118663341292,0.2872541375,0.6761516323445165
0.037,1.765775,1.0,2733.201804787643,0.3412220392283748,1.3182552560336949,0.9609943380796563,0.28721555,0.677020382675151
0.0375,1.76484375,1.0,2734.352424362173,0.3449172675407847,1.3178242410051217,0.9617485904377159,0.2871764375,0.6778946168033109
0.038,1.7639,1.0,2735.2559824497907,0.34859176914915646,1.3173898262945956,0.9624759614387911,0.28713679999999997,0.6787745477190257
0.0385,1.76294375,1.0,2735.9254186401563,0.35224565868825247,1.3169518933115838,0.9631777098575705,0.28709663750000003,0.679660386882023
0.039,1.761975,1.0,2736.373710153805,0.3558790507928351,1.3165103234655535,0.9638550207654222,0.28705595,0.6805523441955699
0.0395,1.7609937500000001,1.0,2736.613866406252,0.35949206009766677,1.316064998165972,0.9645090106362412,0.2870147375,0.6814506279794137
0.04,1.76,1.0,2736.6589238829924,0.36308480123751,1.3156157988223063,0.9651407320459958,0.286973,0.6823554449418288
0.0405,1.7589937500000001,1.0,2736.5219413270675,0.36665738884712723,1.3151626068440236,0.9657511780022715,0.2869307375,0.6832670001507635
0.041,1.757975,1.0,2736.2159952378242,0.3702099375612808,1.3147053036405911,0.966341285936538,0.28688795,0.6841854970040924
0.0415,1.75694375,1.0,2735.767966274409,0.37374255565860126,1.3142436454137227,0.9669119296637957,0.2868446375,0.6851113881284902
0.042,1.7559055102745036,1.0,2735.4325877433894,0.37725536009738697,1.3137778080202895,0.9674639718376744,0.28680103143152913,0.6860442831440763
0.0425,1.7548672472614502,1.0,2735.513689477123,0.3807484663663649,1.3133081786678322,0.9679982453244474,0.2867574243849809,0.6869833711092019
0.043000000000000003,1.753828984248397,1.0,2735.9868580576594,0.3842219821334084,1.3128349896864902,0.9685155242376171,0.28671381733843265,0.6879281544255536
0.043500000000000004,1.7527907212353437,1.0,2736.826600925532,0.387676015066391,1.3123584734064027,0.9690165414992997,0.28667021029188444,0.6888781380459874
0.044,1.7517524582222903,1.0,2738.0074869986975,0.39111067283318596,1.3118788621577093,0.9695019914485222,0.2866266032453362,0.6898328295255503
0.0445,1.750714195209237,1.0,2739.5041301323895,0.3945260631016668,1.3113963882705493,0.9699725322597783,0.28658299619878796,0.6907917390690603
0.045,1.749675932196184,1.0,2741.2911737743802,0.397922293539707,1.3109112840750619,0.970428788187365,0.28653938915223975,0.691754379575243
0.0455,1.7486376691831305,1.0,2743.3432768177618,0.40129947181517994,1.3104237819013866,0.9708713516496035,0.2864957821056915,0.6927202666774246
0.046,1.7475994061700773,1.0,2745.6351006506475,0.404657705595959,1.3099341140796625,0.9713007851657928,0.2864521750591432,0.6936889187807868
0.0465,1.746561143157024,1.0,2748.1412974019713,0.40799710254991767,1.3094425129400291,0.9717176231576029,0.286408568012595,0.6946598570961733
0.047,1.7455228801439706,1.0,2750.8436397684645,0.4113177659485585,1.30894914616147,0.9721223683779724,0.28636496096604674,0.6956327330551616
0.0475,1.7444846171309174,1.0,2753.7246582871703,0.4146198023828051,1.3084541744355964,0.9725154989480082,0.28632135391949853,0.6966072138815518
0.048,1.7434463541178642,1.0,2756.759972626934,0.41790332296793903,1.3079578207894857,0.972897474805413,0.28627774687295027,0.6975828463475477
0.0485,1.7424080911048108,1.0,2759.9395618062335,0.4211684288283551,1.3074601780879402,0.9732687235486235,0.28623413982640206,0.6985594352363906
0.049,1.7413698280917576,1.0,2763.253392767835,0.424415221088448,1.3069613391957626,0.9736296525358747,0.28619053277985385,0.6995367864768622
0.0495,1.7403315650787043,1.0,2766.691417820724,0.42764380087261256,1.3064613969777552,0.9739806500302155,0.2861469257333056,0.7005147071506466
0.05,1.739293302065651,1.0,2770.2435722729056,0.43085426930524345,1.305960444298721,0.9743220862697968,0.2861033186867573,0.7014930054991368
0.0505,1.7382550390525977,1.0,2773.899772255309,0.4340467275107354,1.305458574023462,0.9746543144689358,0.2860597116402091,0.7024714909296975
0.051000000000000004,1.7372167760395445,1.0,2777.649912736472,0.43722127661348326,1.304955879016781,0.9749776717550117,0.2860161045936609,0.7034499740213725
0.051500000000000004,1.736178513026491,1.0,2781.483865729182,0.4403780177378817,1.3044524521434806,0.9752924800458369,0.2859724975471126,0.7044282665300435
0.052000000000000005,1.7351402500134379,1.0,2785.3914786881637,0.4435170520083255,1.3039483862683632,0.9755990468717775,0.28592889050056436,0.7054061813930418
0.0525,1.7341019870003846,1.0,2789.3643355654267,0.4466384779891081,1.3034437584089122,0.9758976648807148,0.28588528345401615,0.7063835634013831
0.053,1.7330637239873314,1.0,2793.3974729997326,0.4497423924172988,1.3029386143614101,0.9761886117622323,0.28584167640746794,0.7073603186504747
0.0535,1.732025460974278,1.0,2797.4795870208873,0.4528289023631538,1.3024330567359814,0.9764721576926253,0.28579806936091967,0.708336244238937
0.054,1.7309871979612248,1.0,2801.606824742591,0.45589810280526705,1.3019271210051842,0.9767485559083298,0.2857544623143714,0.7093112678619926
0.0545,1.7299489349481716,1.0,2805.775322638233,0.45895008872223214,1.301420842641576,0.977018048859072,0.2857108552678232,0.7102853176697774
0.055,1.7289106719351182,1.0,2809.9812062576043,0.461984955092643,1.300914257117715,0.977280868758725,0.285667248221275,0.7112583222681559
0.0555,1.727872408922065,1.0,2814.2205899713035,0.4650027968950933,1.3004073999061587,0.9775372381036177,0.2856236411747267,0.7122302107194555
0.056,1.7268341459090117,1.0,2818.4895767434464,0.46800370910817685,1.299900306479465,0.97778737016047,0.2855800341281785,0.7132009125431218
0.0565,1.7257958828959583,1.0,2822.7842579313033,0.4709877867104874,1.299393012310192,0.9780314694259719,0.28553642708163024,0.7141703577162921
0.057,1.724757619882905,1.0,2827.1007131141696,0.4739551246806188,1.2988855528708971,0.9782697320598706,0.28549282003508203,0.7151384766742926
0.0575,1.723719356869852,1.0,2831.435009948804,0.47690581799716475,1.2983779636341386,0.9785023462932968,0.28544921298853376,0.7161052003110481
0.058,1.7226810938567985,1.0,2835.7837200351114,0.4798399594600002,1.2978702754711304,0.9787294923684253,0.28540560594198555,0.717070468720513
0.0585,1.7216428308437453,1.0,2840.148161319438,0.4827576248393007,1.2973624768653786,0.9789513395758014,0.2853619988954373,0.7180343027821656
0.059000000000000004,1.720604567830692,1.0,2844.519082138596,0.485658937523934,1.2968546504476857,0.9791680597183151,0.2853183918488891,0.7189965449859131
0.059500000000000004,1.7195663048176386,1.0,2848.8953630397205,0.4885439854400161,1.2963468062420285,0.9793798109667391,0.2852747848023408,0.7199571761165486
0.06,1.7185280418045854,1.0,2853.2758811106182,0.49141285651366307,1.2958389542723834,0.9795867453758742,0.2852311777557926,0.7209161770887202
0.0605,1.7174897787915322,1.0,2857.6595099764286,0.494265638670991,1.295331104562727,0.9797890091687504,0.28518757070924433,0.7218735289469377
0.061,1.7164515157784788,1.0,2862.0451197994453,0.49710241983811587,1.2948232671370359,0.9799867430055138,0.2851439636626961,0.722829212865574
0.0615,1.7154132527654256,1.0,2866.431577280263,0.49992328794115376,1.2943154520192868,0.9801800822379361,0.28510035661614785,0.7237832101488613
0.062,1.7143749897523723,1.0,2870.817745662228,0.5027283309062207,1.2938076692334564,0.98036915715042,0.28505674956959964,0.7247355022308798
0.0625,1.713336726739319,1.0,2875.2024847369034,0.5055176366594328,1.293299928803521,0.9805540931883096,0.2850131425230514,0.7256860706755406
0.063,1.7122984637262657,1.0,2879.5846508528057,0.508291293126906,1.2927922407534571,0.9807350111742696,0.28496953547650317,0.7266348971765613
0.0635,1.7112602007132125,1.0,2883.963096925562,0.5110493882347565,1.2922846151072418,0.980912027513438,0.2849259284299549,0.7275819635574348
0.064,1.710221937700159,1.0,2888.336672451205,0.5137920099091002,1.2917770618888513,0.9810852543880136,0.2848823213834067,0.7285272517713948
0.0645,1.7091836746871059,1.0,2892.7042235203803,0.5165192460760533,1.2912695911222625,0.9812547999418976,0.2848387143368584,0.7294707439013713
0.065,1.7081454116740526,1.0,2897.064592836434,0.5192311846617317,1.2907622128314515,0.9814207684559647,0.2847951072903102,0.7304124221599416
0.0655,1.7071071486609992,1.0,2901.4166197340733,0.5219279135922515,1.2902549370403955,0.9815832605145056,0.28475150024376195,0.7313522688892731
0.066,1.706068885647946,1.0,2905.7608814950186,0.5246094936530791,1.2897477584329256,0.9817423705739419,0.28470789319721374,0.7322902949078285
0.0665,1.7050306226348928,1.0,2910.0959858348147,0.5272760322702071,1.2892406890475447,0.9818981937900716,0.2846642861506655,0.7332264789518543
0.067,1.7039923596218394,1.0,2914.4206407213223,0.5299276298548423,1.2887337400056786,0.9820508214881034,0.28462067910411726,0.7341608016018277
0.0675,1.7029540966087862,1.0,2918.7346978007563,0.532564366121832,1.2882269123435972,0.9822003400075092,0.284577072057569,0.7350932621201414
0.068,1.701915833595733,1.0,2923.0380084680382,0.535186320786024,1.2877202070975704,0.9823468327486871,0.2845334650110208,0.7360238597823061
0.0685,1.7008775705826795,1.0,2927.3304238695673,0.537793573562266,1.287213625303868,0.9824903802936392,0.28448985796447257,0.736952593876943
0.069,1.6998393075696263,1.0,2931.6117949063137,0.5403862041654055,1.2867071679987598,0.9826310605208918,0.2844462509179243,0.7378794637057746
0.0695,1.698801044556573,1.0,2935.881972236532,0.5429642923102903,1.2862008362185158,0.9827689487149719,0.28440264387137604,0.738804468583617
0.07,1.6977627815435197,1.0,2940.1408062786677,0.545527917711768,1.2856946309994057,0.9829041176707316,0.2843590368248278,0.7397276078383719
0.07050000000000001,1.6967245185304665,1.0,2944.3881472140824,0.5480771600846862,1.2851885533776997,0.9830366377927976,0.2843154297782796,0.7406488808110171
0.07100000000000001,1.6956862555174133,1.0,2948.6238449901102,0.5506120991438926,1.2846826043896675,0.9831665771904019,0.28427182273173135,0.7415682868555997
0.07150000000000001,1.6946479925043598,1.0,2952.8477493231367,0.5531328146042349,1.2841767850715788,0.9832940017678432,0.2842282156851831,0.7424858253392274
0.07200000000000001,1.6936097294913066,1.0,2957.0597097014647,0.5556393861805607,1.283671096459704,0.9834189753108017,0.2841846086386349,0.7434014956420577
