Time [s],Phi [rad],STIM [ ],Fsee [N],Gamma [ ],Lcerel [ ],q [ ],Lmtc [m],fisomrel [ ]
0.0,1.8,1.0,18.02987761964414,0.00025774203766796194,1.379332725665039,0.0050172562085146356,0.288653,0.541156515432182
0.0005,1.79999375,1.0,18.419690228900052,0.0058655056175039785,1.3792865401886416,0.013642595872648298,0.2886527375,0.5412682411726083
0.001,1.799975,1.0,21.945339094508302,0.01144181407741803,1.3789050335306288,0.03691124395202973,0.28865195,0.5421906108582688
0.0015,1.79994375,1.0,31.794645846421027,0.016986843856749288,1.3779847578938813,0.07237724019221786,0.2886506375,0.5444117436221427
0.002,1.7999,1.0,55.09989662836215,0.022500770402975927,1.376270370875861,0.11681574080032509,0.2886488,0.5485351020438202
0.0025,1.79984375,1.0,99.63131406470082,0.027983768180662772,1.3738148748322632,0.16685392715575587,0.28864643749999996,0.5544082887568222
0.003,1.7997750000000001,1.0,164.20249893441294,0.033436010677113215,1.3710935111664595,0.21962964112330285,0.28864354999999997,0.5608724680170563
0.0035,1.79969375,1.0,241.33544114450638,0.03885767040373805,1.3684726684405442,0.2729480411982304,0.2886401375,0.567053228993319
0.004,1.7996,1.0,325.34431127646064,0.044248918906221374,1.3660536990159438,0.32517589344769554,0.2886362,0.5727190351937017
0.0045000000000000005,1.7994937500000001,1.0,413.27772492563577,0.04960992676991586,1.3638289142343871,0.37517925115923656,0.2886317375,0.5778970700479178
0.005,1.799375,1.0,503.5009450194076,0.054940863611667966,1.3617716615660311,0.4222535740887384,0.28862675,0.5826570946675799
0.0055,1.79924375,1.0,594.9108700358805,0.06024189811759199,1.359858471261011,0.46603075012549716,0.2886212375,0.5870595684365059
0.006,1.7991000000000001,1.0,686.6400297437588,0.06551319801111227,1.358071601971466,0.5063863997964282,0.2886152,0.5911502801708801
0.006500000000000001,1.79894375,1.0,777.9751517406705,0.07075493006038963,1.3563974603439426,0.543360921652669,0.2886086375,0.5949644459833796
0.007,1.798775,1.0,868.3300408441806,0.07596726019179717,1.3548251439714376,0.5770985015192814,0.28860155,0.5985303482322977
0.0075,1.79859375,1.0,957.2131404626634,0.08115035315310884,1.3533457810840985,0.6078029940854475,0.2885939375,0.6018710426979219
0.008,1.7984,1.0,1044.249581621074,0.08630437323284562,1.3519514108064963,0.6357069222599483,0.2885858,0.6050070294365972
0.0085,1.79819375,1.0,1129.1181117902327,0.0914294832686285,1.350635437912312,0.6610516558931622,0.2885771375,0.6079553242348252
0.009000000000000001,1.797975,1.0,1211.5741394575803,0.09652584528548408,1.3493918728843037,0.6840742495900626,0.28856795,0.610731247329077
0.0095,1.79774375,1.0,1291.4564800957382,0.10159362106123068,1.3482149915092012,0.7049997440603109,0.2885582375,0.613349233699767
0.01,1.7975,1.0,1368.6283167550557,0.1066329706069783,1.347099926797806,0.7240374709732846,0.288548,0.6158215587275435
0.0105,1.79724375,1.0,1443.0004261572553,0.11164405315661921,1.3460421563533742,0.7413790286462562,0.2885372375,0.6181595217675604
0.011,1.796975,1.0,1514.531067772777,0.11662702730948848,1.3450373768930122,0.7571979428327785,0.28852595000000003,0.6203737517435889
0.0115,1.79669375,1.0,1583.2166817993948,0.12158205156161493,1.3440815186115407,0.7716502765545895,0.2885141375,0.6224741981823214
0.012,1.7964,1.0,1649.0430107155742,0.12650928185376129,1.3431712301854513,0.7848759229657292,0.28850180000000003,0.6244690904751404
0.0125,1.79609375,1.0,1712.0328097651088,0.13140887393775838,1.3423032100114638,0.7969996127575022,0.2884889375,0.6263664298974736
0.013000000000000001,1.7957750000000001,1.0,1772.2274275636526,0.13628098280387552,1.3414743682027255,0.8081324038471113,0.28847555,0.6281736475145072
0.0135,1.79544375,1.0,1829.7035449117598,0.14112576390559173,1.3406815863951476,0.8183729873403678,0.2884616375,0.6298981399594568
0.014,1.7951000000000001,1.0,1884.5096815308123,0.14594336976504937,1.3399223819657342,0.8278092725029097,0.2884472,0.6315458362204767
0.0145,1.79474375,1.0,1936.7024664894277,0.1507339521636186,1.3391944435035699,0.836519420756702,0.2884322375,0.6331222241591312
0.015,1.794375,1.0,1986.3596051485056,0.15549766288266942,1.3384954595977394,0.8445729087339827,0.28841675,0.6346327290552143
0.0155,1.79399375,1.0,2033.5589046127923,0.16023465264570044,1.3378233204181584,0.8520316106247566,0.2884007375,0.6360822837425073
0.016,1.7936,1.0,2078.405774132324,0.1649450727044331,1.337175802467772,0.8589505942236743,0.2883842,0.6374760147647129
0.0165,1.7931937500000001,1.0,2120.9697892542013,0.16962907108411449,1.3365512132683492,0.8653791216314535,0.2883671375,0.63881785984567
0.017,1.792775,1.0,2161.32570125169,0.1742867954005316,1.3359479328352877,0.8713611962383312,0.28834955,0.6401115638510748
0.0175,1.7923437500000001,1.0,2199.559243560313,0.17891839326947148,1.335364341183985,0.8769361629416897,0.2883314375,0.6413608375708918
0.018000000000000002,1.7919,1.0,2235.7511394996186,0.1835240110592093,1.3347989695136524,0.882139295613101,0.2883128,0.6425690370299633
0.0185,1.79144375,1.0,2270.0038331314972,0.1881037962553281,1.3342502192693861,0.8870021988334023,0.2882936375,0.6437397669590794
0.019,1.790975,1.0,2302.3885563041567,0.19265789270117523,1.3337168831376407,0.8915533617912496,0.28827395,0.6448757713931705
0.0195,1.79049375,1.0,2332.9769803898294,0.1971864437131203,1.3331978134857994,0.8958184322180164,0.2882537375,0.6459796463274314
0.02,1.79,1.0,2361.8465891217415,0.2016895926075331,1.3326918626812452,0.8998205245210411,0.288233,0.6470539684492459
0.0205,1.78949375,1.0,2389.074182993461,0.20616748179360467,1.332197941419851,0.9035805167086519,0.2882117375,0.6481011725650931
0.021,1.788975,1.0,2414.741520572303,0.21062025428189357,1.3317149581815289,0.907117285714682,0.28818995000000003,0.6491236815007224
0.021500000000000002,1.78844375,1.0,2438.9217730555415,0.21504805149040115,1.3312419455580877,0.9104479520312808,0.2881676375,0.6501236399964696
0.022,1.7879,1.0,2461.6740945592187,0.21945101210944085,1.3307781056296413,0.9135880772557329,0.2881448,0.6511028215435775
0.0225,1.78734375,1.0,2483.060698103575,0.2238292748293261,1.3303226404763033,0.9165517970563515,0.28812143749999997,0.6520629884845754
0.023,1.786775,1.0,2503.1466005268667,0.2281829783403703,1.3298747521781875,0.9193519715717664,0.28809755,0.6530058924597557
0.0235,1.78619375,1.0,2521.980720527081,0.23251226028084446,1.3294338192770583,0.9220003508873288,0.28807313749999996,0.6539329040705693
0.024,1.7856,1.0,2539.6368036808044,0.2368172584224682,1.3289990059179413,0.9245076166189695,0.2880482,0.6548458357940257
0.0245,1.78499375,1.0,2556.2237794636712,0.24109811133125617,1.3285691664506083,0.9268834752218467,0.2880227375,0.6557471392154097
0.025,1.784375,1.0,2571.759376863731,0.24535495252741935,1.3281440316425752,0.9291369600422971,0.28799675,0.6566374186777952
0.025500000000000002,1.7837449169642874,1.0,2586.3188362348187,0.24958791553116877,1.3277233322613584,0.9312763467866605,0.28797028651250006,0.657517275164258
0.026000000000000002,1.7831128182703504,1.0,2600.374240762976,0.2537971338627155,1.3273067990744738,0.9333092273206416,0.2879437383673547,0.6583873063763458
0.0265,1.7824807195764134,1.0,2614.0481557852795,0.25798274104227054,1.326894162849438,0.935242575385753,0.28791719022220935,0.6592481068079246
0.027,1.7818486208824764,1.0,2627.366300818877,0.26214487051844887,1.3264851547647318,0.9370828052352989,0.287890642077064,0.6601002669587026
0.0275,1.7812165221885394,1.0,2640.337209394146,0.266283654184714,1.3260796684011213,0.9388358478469382,0.28786409393191864,0.660944036528746
0.028,1.7805844234946022,1.0,2652.9606744316334,0.2703992231061324,1.3256776797465883,0.9405071832549827,0.2878375457867733,0.661779492713261
0.0285,1.7799523248006652,1.0,2665.2453861170434,0.27449170670062023,1.3252790839274315,0.9421018574697637,0.28781099764162793,0.6626068799723563
0.029,1.7793202261067282,1.0,2677.200218027568,0.27856123438609337,1.3248837760699506,0.9436245339385261,0.2877844494964826,0.663426441474905
0.029500000000000002,1.7786881274127913,1.0,2688.822577337914,0.2826078994676085,1.324491757919399,0.9450795288792859,0.2877579013513372,0.664238198476971
0.03,1.7780560287188543,1.0,2700.1343544314814,0.28663186704308524,1.3241028081130815,0.9464708364676434,0.28773135320619186,0.6650426332054054
0.0305,1.7774239300249173,1.0,2711.1519415040348,0.2906332858492928,1.3237167578860332,0.9478021611153501,0.2877048050610465,0.6658401169124853
0.031,1.77679183133098,1.0,2721.8825748954414,0.29461227642609394,1.3233335237125528,0.9490769429006297,0.28767825691590115,0.6666308432513524
0.0315,1.776159732637043,1.0,2732.3336171751034,0.2985689593133513,1.3229530220669385,0.9502983786793027,0.2876517087707558,0.6674150049037995
0.032,1.775527633943106,1.0,2742.512552004212,0.3025034550509276,1.3225751694234889,0.9514694422916439,0.28762516062561044,0.6681927935950494
0.0325,1.774895535249169,1.0,2752.426979152576,0.30641588417868565,1.3221998822565024,0.9525929028572253,0.2875986124804651,0.6689644001080867
0.033,1.774263436555232,1.0,2762.0846096707655,0.310306367236488,1.3218270770402774,0.9536713413591426,0.28757206433531973,0.6697300142975491
0.0335,1.773631337861295,1.0,2771.4932612159023,0.3141750247641975,1.3214566702491122,0.9547071656958324,0.2875455161901744,0.6704898251031683
0.034,1.772999239167358,1.0,2780.6608535331006,0.3180219773016768,1.3210885783573054,0.955702624358362,0.287518968045029,0.6712440205627697
0.0345,1.772367140473421,1.0,2789.595404090984,0.32184734538878856,1.3207227178391554,0.9566598188732531,0.28749241989988367,0.6719927878248263
0.035,1.771735041779484,1.0,2798.3050238722194,0.32565124956539565,1.3203590051689604,0.9575807151352529,0.2874658717547383,0.6727363131605676
0.035500000000000004,1.771102943085547,1.0,2806.797913318529,0.32943381037136066,1.319997356821019,0.9584671537407056,0.28743932360959296,0.6734747819756424
0.036000000000000004,1.7704708443916097,1.0,2815.0823584303184,0.3331951483465463,1.3196376892696295,0.9593208594200702,0.2874127754644476,0.6742083788213385
0.0365,1.7698387456976727,1.0,2823.1667270214493,0.3369353840308153,1.3192799189890905,0.9601434496574422,0.28738622731930225,0.6749372874053566
0.037,1.7692066470037358,1.0,2831.059465127963,0.34065463796403045,1.3189239624537001,0.9609364425755237,0.2873596791741569,0.6756616906021393
0.0375,1.7685745483097988,1.0,2838.7690935722803,0.3443530306860544,1.318569736137757,0.9617012641561509,0.28733313102901153,0.6763817704627546
0.038,1.7679424496158618,1.0,2846.3042046813166,0.34803068273674986,1.3182171565155598,0.9624392548591307,0.2873065828838662,0.6770977082243358
0.0385,1.7673103509219248,1.0,2853.6681527517558,0.35168769819740436,1.3178661872336024,0.9631516768241074,0.2872800347387208,0.6778095886912388
0.039,1.7666782522279876,1.0,2860.8676875818405,0.35532419677367033,1.3175167621344643,0.9638397186753276,0.28725348659357547,0.6785175566442794
0.0395,1.7660461535340506,1.0,2867.914462930634,0.35894031248652825,1.3171687720520502,0.9645044990083221,0.2872269384484301,0.6792218432238349
0.04,1.7654140548401136,1.0,2874.8128204811765,0.3625361550757729,1.316822173246527,0.9651470736239917,0.28720039030328476,0.6799225463627155
0.0405,1.7647819561461766,1.0,2881.567138780466,0.36611183428119926,1.316476921978062,0.9657684386282875,0.2871738421581394,0.6806197635691696
0.041,1.7641498574522396,1.0,2888.1818319112303,0.369667459842602,1.316132974506823,0.9663695344363965,0.28714729401299405,0.6813135919307026
0.0415,1.7635177587583024,1.0,2894.6613482066637,0.37320314149977607,1.3157902870929767,0.9669512494681021,0.2871207458678487,0.6820041281177784
0.042,1.7628856600643654,1.0,2901.0101690068036,0.37671898899251627,1.3154488159966908,0.9675144235610954,0.28709419772270334,0.6826914683873913
0.0425,1.7622535613704284,1.0,2907.232807458203,0.3802151120606175,1.3151085174781325,0.9680598511264549,0.287067649577558,0.6833757085865225
0.043000000000000003,1.7616214626764914,1.0,2913.333807355206,0.38369162044387445,1.3147693477974691,0.9685882840682046,0.2870411014324126,0.6840569441554717
0.043500000000000004,1.7609893639825545,1.0,2919.31774202436,0.3871486238820821,1.3144312632148678,0.9691004344868116,0.28701455328726727,0.6847352701310667
0.044,1.7603572652886172,1.0,2925.189213250627,0.3905862321150352,1.314094219990496,0.9695969771846195,0.2869880051421219,0.6854107811497512
0.0445,1.7597251665946803,1.0,2930.9528502463586,0.3940045548825287,1.3137581743845208,0.9700785519895657,0.28696145699697656,0.6860835714505505
0.045,1.7590930679007433,1.0,2936.613308662754,0.39740370192435737,1.3134230826571098,0.9705457659120337,0.2869349088518312,0.6867537348779162
0.0455,1.7584609692068063,1.0,2942.175269643464,0.40078378298031603,1.3130889010684301,0.9709991951483433,0.28690836070668585,0.6874213648844476
0.046,1.7578288705128693,1.0,2947.6434389207157,0.4041449077901995,1.3127555858786493,0.9714393869431719,0.2868818125615405,0.6880865545334913
0.0465,1.7571967718189323,1.0,2953.016785019352,0.4074871559610315,1.3124231436918692,0.971866860955973,0.28685526441639514,0.6887492961916124
0.047,1.756564673124995,1.0,2958.3039891110975,0.4108106658447089,1.3120914963306292,0.9722821129902793,0.2868287162712498,0.6894097510143778
0.0475,1.755932574431058,1.0,2963.509162870776,0.41411554811390217,1.311760605797361,0.9726856138472507,0.28680216812610443,0.6900679995945871
0.048,1.7553004757371211,1.0,2968.634556030662,0.4174019028738689,1.311430450490646,0.9730778114167056,0.2867756199809591,0.6907240896275297
0.0485,1.7546683770431841,1.0,2973.682430551883,0.42066983022986665,1.311101008809065,0.9734591322152931,0.2867490718358137,0.691378068616014
0.049,1.7540362783492471,1.0,2978.6550602771554,0.4239194302871529,1.3107722591511994,0.9738299826028883,0.28672252369066836,0.6920299838713639
0.0495,1.75340417965531,1.0,2983.5547305944206,0.4271508031509851,1.3104441799156301,0.9741907499190159,0.286695975545523,0.6926798825143874
0.05,1.752772080961373,1.0,2988.383738110442,0.43036404892662083,1.310116749500938,0.9745418035452437,0.28666942740037765,0.6933278114763153
0.0505,1.752139982267436,1.0,2993.144390334926,0.4335592677193177,1.3097899463057043,0.9748834958989974,0.2866428792552323,0.6939738174997092
0.051000000000000004,1.751507883573499,1.0,2997.8390053749135,0.43673655963433305,1.3094637487285101,0.9752161633637938,0.28661633111008694,0.6946179471393417
0.051500000000000004,1.750875784879562,1.0,3002.469911639626,0.4398960247769245,1.3091381351679365,0.9755401271604971,0.2865897829649416,0.695260246763044
0.052000000000000005,1.7502436861856248,1.0,3007.039447555583,0.44303776325234956,1.3088130840225645,0.9758556941638211,0.28656323481979623,0.6959007625525273
0.0525,1.7496115874916878,1.0,3011.549961291936,0.4461618751658657,1.308488573690975,0.9761631576679698,0.2865366866746509,0.6965395405041706
0.053,1.7489794887977508,1.0,3016.003810496516,0.4492684606227305,1.3081645825717492,0.9764627981050017,0.2865101385295055,0.6971766264297818
0.0535,1.7483473901038138,1.0,3020.4033620417185,0.4523576197282015,1.3078410890634682,0.9767548837192195,0.28648359038436016,0.6978120659573274
0.054,1.7477152914098768,1.0,3024.750991781281,0.4554294525875362,1.3075180715647128,0.977039671200629,0.2864570422392148,0.6984459045316334
0.0545,1.7470831927159398,1.0,3029.0490843168227,0.45848405930599206,1.3071955084740645,0.9773174062802849,0.28643049409406945,0.6990781874150541
0.055,1.7464510940220026,1.0,3033.2952383758206,0.4615214904494578,1.3068734195294964,0.977588322023546,0.2864039459489241,0.6997088787827606
0.0555,1.7458189953280656,1.0,3037.4964052048967,0.46454190515715854,1.3065517438404912,0.9778526472701765,0.28637739780377874,0.7003381006006182
0.056,1.7451868966341286,1.0,3041.6537431836978,0.46754539493962294,1.3062304705756527,0.9781105978784237,0.2863508496586334,0.7009658765657345
0.0565,1.7445547979401916,1.0,3045.7683151303404,0.4705320501874343,1.3059095897649058,0.9783623807762174,0.28632430151348803,0.7015922286028924
0.057,1.7439226992462546,1.0,3049.841188036625,0.4735019612911759,1.3055890914381747,0.9786081944550099,0.2862977533683427,0.702217178552267
0.0575,1.7432906005523174,1.0,3053.8734329822432,0.4764552186414309,1.3052689656253844,0.9788482293817866,0.2862712052231973,0.7028407481696679
0.058,1.7426585018583804,1.0,3057.8661250514033,0.47939191262878267,1.304949202356459,0.9790826683877588,0.28624465707805197,0.7034629591267838
0.0585,1.7420264031644435,1.0,3061.820343251655,0.48231213364381437,1.3046297916613234,0.9793116870352344,0.2862181089329066,0.7040838330114116
0.059000000000000004,1.7413943044705065,1.0,3065.737170434712,0.48521597207710926,1.3043107235699019,0.979535453964056,0.28619156078776126,0.7047033913276874
0.059500000000000004,1.7407622057765695,1.0,3069.6176932197222,0.48810351831925064,1.3039919881121191,0.9797541312188939,0.2861650126426159,0.7053216554963049
0.06,1.7401301070826323,1.0,3073.463001918565,0.49097486276082175,1.3036735753178998,0.9799678745585982,0.28613846449747055,0.7059386468547315
0.0605,1.7394980083886953,1.0,3077.274190463497,0.4938300957924059,1.3033554752171683,0.9801768337487198,0.2861119163523252,0.7065543866574171
0.061,1.7388659096947583,1.0,3081.052356336853,0.4966693078045863,1.3030376778398494,0.9803811528382425,0.28608536820717984,0.7071688960759939
0.0615,1.7382338110008213,1.0,3084.7986005031735,0.49949258918794615,1.302720173215867,0.980580970421491,0.2860588200620345,0.7077821961994752
0.062,1.7376017123068843,1.0,3088.5140273431043,0.5023000303330688,1.3024029513751467,0.9807764198861169,0.2860322719168891,0.7083943080344408
0.0625,1.7369696136129473,1.0,3092.199744590067,0.5050917216305375,1.3020860023476122,0.9809676296480021,0.28600572377174377,0.7090052525052246
0.063,1.7363375149190101,1.0,3095.85686326878,0.5078677534709355,1.3017693161631885,0.9811547233738628,0.2859791756265984,0.7096150504540868
0.0635,1.7357054162250731,1.0,3099.486497635986,0.5106282162448459,1.3014528828517997,0.9813378201922816,0.28595262748145306,0.7102237226413874
0.064,1.7350733175311361,1.0,3103.0897651234154,0.5133732003428523,1.301136692443371,0.9815170348938599,0.2859260793363077,0.7108312897457482
0.0645,1.7344412188371992,1.0,3106.6657668483626,0.5161027537278214,1.3008207521734287,0.9816924760068789,0.28589953119116235,0.7114377393552697
0.065,1.7338091201432622,1.0,3110.217124256069,0.518817011795223,1.3005050392882131,0.981864252777314,0.285872983046017,0.7120431165892521
0.0655,1.733177021449325,1.0,3113.7445506215763,0.5215160608099804,1.300189547328181,0.9820324679552838,0.28584643490087164,0.7126474351878245
0.066,1.732544922755388,1.0,3117.2485454099237,0.5241999819659615,1.2998742716698037,0.9821972204164905,0.2858198867557263,0.7132507053268646
0.0665,1.731912824061451,1.0,3120.729609624449,0.5268688564570339,1.2995592076895524,0.9823586055826111,0.2857933386105809,0.7138529371441571
0.067,1.731280725367514,1.0,3124.188245784499,0.5295227654770651,1.2992443507638973,0.982516715566482,0.28576679046543557,0.7144541407394566
0.0675,1.730648626673577,1.0,3127.624957904216,0.5321617902199232,1.2989296962693102,0.9826716393101956,0.2857402423202902,0.715054326174547
0.068,1.7300165279796398,1.0,3131.0402514713014,0.5347860118794755,1.298615239582262,0.9828234627165021,0.28571369417514486,0.7156535034733043
0.0685,1.7293844292857028,1.0,3134.434633426783,0.5373955116495899,1.2983009760792235,0.9829722687738842,0.2856871460299995,0.7162516826217556
0.069,1.7287523305917658,1.0,3137.8086121447645,0.5399903707241339,1.2979869011366658,0.9831181376756511,0.28566059788485415,0.7168488735681344
0.0695,1.7281202318978288,1.0,3141.162697412964,0.5425706702969755,1.29767301013106,0.9832611469333796,0.2856340497397088,0.7174450862229395
0.07,1.7274881332038918,1.0,3144.4974004135147,0.5451364915619821,1.297359298438877,0.983401371485001,0.28560750159456344,0.7180403304589886
0.07050000000000001,1.7268560345099546,1.0,3147.813233704525,0.5476879157130214,1.2970457614365882,0.9835388837978286,0.2855809534494181,0.7186346161114716
