Time [s],Phi [rad],STIM [ ],Fsee [N],Gamma [ ],Lcerel [ ],q [ ],Lmtc [m],fisomrel [ ]
0.0,1.8,1.0,20.562982781614416,0.0016471274277938628,1.3790587346211987,0.005693545017102822,0.288653,0.541819118964846
0.0005,1.79999375,1.0,21.31869970150875,0.007247097654160315,1.37897748476309,0.01810169515116392,0.2886527375,0.5420155167176081
0.001,1.799975,1.0,25.893886993309565,0.012815656475301656,1.3785213099474385,0.04463914194011165,0.28865195,0.5431174040678419
0.0015,1.79994375,1.0,38.251963871908025,0.018352980084816062,1.377466048858902,0.08263098737379185,0.2886506375,0.5456612945116361
0.002,1.7999,1.0,66.33075895122256,0.0238592436871717,1.37558517115753,0.1287520926866901,0.2886488,0.5501778673678857
0.0025,1.79984375,1.0,116.27585194619265,0.029334621504047996,1.3730535606153056,0.17970820240832228,0.28864643749999996,0.5562214314803653
0.003,1.7997750000000001,1.0,184.49662581734017,0.03477928678096374,1.3703633286463766,0.2328040787812752,0.28864354999999997,0.5625988673277298
0.0035,1.79969375,1.0,263.54148777415503,0.040193411791315296,1.367808793989405,0.28599007062101656,0.2886401375,0.5686118975256997
0.004,1.7996,1.0,348.5554366212634,0.045577167840471146,1.3654531266350547,0.3377604388293905,0.2886362,0.574119936966399
0.0045000000000000005,1.7994937500000001,1.0,437.0261023097561,0.050930725236584734,1.3632819088400663,0.3870951520657299,0.2886317375,0.5791653530277991
0.005,1.799375,1.0,527.5321873034072,0.05625425350892479,1.361269004508107,0.433381341900069,0.28862675,0.5838160280029379
0.0055,1.79924375,1.0,618.9933438229613,0.06154792091392566,1.3593942418708216,0.47632005818685613,0.2886212375,0.588124294993933
0.006,1.7991000000000001,1.0,710.6121871190893,0.06681189505468747,1.357640888878816,0.5158339615749089,0.2886152,0.5921332736032219
0.006500000000000001,1.79894375,1.0,801.6945498580386,0.0720463424403339,1.3559966534923633,0.5519942874453404,0.2886086375,0.5958749448413209
0.007,1.798775,1.0,891.6823475190891,0.07725142873376996,1.3544513056167942,0.5849635026870257,0.28860155,0.5993758671764987
0.0075,1.79859375,1.0,980.1115393951341,0.0824273186759785,1.352996388347691,0.6149550097804801,0.2885939375,0.6026580032317799
0.008,1.7984,1.0,1066.5982218135848,0.0875741757602678,1.3516247243693067,0.6422053167017228,0.2885858,0.6057399656001565
0.0085,1.79819375,1.0,1150.8706437630904,0.09269216318568008,1.3503294876847578,0.6669554460292455,0.2885771375,0.6086391902376759
0.009000000000000001,1.797975,1.0,1232.701636860799,0.09778144297110375,1.3491048745428047,0.6894401074510162,0.28856795,0.6113704928904738
0.0095,1.79774375,1.0,1311.90877467975,0.10284217563013535,1.3479457883118493,0.7098809657476581,0.2885582375,0.613946837997595
0.01,1.7975,1.0,1388.3801301331885,0.10787452127919274,1.3468472920479106,0.728482980909231,0.288548,0.6163805994867072
0.0105,1.79724375,1.0,1462.063274617463,0.11287864001528303,1.3458046284260872,0.7454331372985349,0.2885372375,0.6186835425991575
0.011,1.796975,1.0,1532.9058097854636,0.11785468974664422,1.344813835352054,0.7609007224463571,0.28852595000000003,0.6208654941001486
0.0115,1.79669375,1.0,1600.8795588966855,0.12280282736557198,1.343871299401183,0.775037823429181,0.2885141375,0.6229353617606568
0.012,1.7964,1.0,1665.999871828044,0.12772320958484898,1.3429734400244497,0.7879803472864758,0.28850180000000003,0.6249018476970509
0.0125,1.79609375,1.0,1728.3088296955807,0.13261599254593096,1.3421168507339902,0.7998494561542467,0.2884889375,0.6267731519255633
0.013000000000000001,1.7957750000000001,1.0,1787.8519037207002,0.13748133144495334,1.341298503351359,0.8107530647002388,0.28847555,0.6285565421241149
0.0135,1.79544375,1.0,1844.6669952027034,0.14231937931914762,1.3405158020392738,0.8207872268794726,0.2884616375,0.6302582543416777
0.014,1.7951000000000001,1.0,1898.8184111580579,0.1471302892057454,1.339766150960453,0.8300372690585754,0.2884472,0.6318844472624957
0.0145,1.79474375,1.0,1950.3776906966045,0.15191421314012576,1.3390471356996863,0.8385790699340827,0.2884322375,0.6334408156053526
0.015,1.794375,1.0,1999.4429974207708,0.156671304186603,1.3383562832516467,0.8464800729975209,0.28841675,0.6349331172963375
0.0155,1.79399375,1.0,2046.0826310220048,0.1614017120857104,1.3376916387084485,0.8538004599819191,0.2884007375,0.6363659347780697
0.016,1.7936,1.0,2090.3662183742513,0.16610558562186978,1.3370513951111682,0.8605938856854412,0.2883842,0.6377434855025994
0.0165,1.7931937500000001,1.0,2132.377049450833,0.1707830735795028,1.3364337455008823,0.8669082056320022,0.2883671375,0.6390699454344628
0.017,1.792775,1.0,2172.205043934411,0.17543432413692586,1.335836942686503,0.8727861797934775,0.28834955,0.6403493237467552
0.0175,1.7923437500000001,1.0,2209.9429887187252,0.1800594853887214,1.3352593236261774,0.8782660805761143,0.2883314375,0.6415854142911928
0.018000000000000002,1.7919,1.0,2245.675801561038,0.18465870416482102,1.3346994037086095,0.8833822422001566,0.2883128,0.6427815980774911
0.0185,1.79144375,1.0,2279.472814877366,0.18923212472134068,1.3341559380544583,0.8881655314515209,0.2882936375,0.6439407176752074
0.019,1.790975,1.0,2311.410460180878,0.1937798913143965,1.3336276817843824,0.8926436873193119,0.28827395,0.6450655929438103
0.0195,1.79049375,1.0,2341.571675298779,0.19830214820010442,1.333113390019041,0.8968416788252452,0.2882537375,0.6461590222896119
0.02,1.79,1.0,2370.031475717973,0.20279903781232847,1.3326119531777176,0.9007820486827445,0.288233,0.6472234968217595
0.0205,1.78949375,1.0,2396.8828133899797,0.20727070520364682,1.332122137268266,0.9044851282057264,0.2882117375,0.6482617536235942
0.021,1.788975,1.0,2422.1914712064035,0.21171729097276956,1.3316430181101848,0.907969372704694,0.28818995000000003,0.6492758563098457
0.021500000000000002,1.78844375,1.0,2446.018680614304,0.21613893452273744,1.3311737522118487,0.9112515173039013,0.2881676375,0.650267684457669
0.022,1.7879,1.0,2468.429045941107,0.22053577525659127,1.3307134960816307,0.9143467460844118,0.2881448,0.6512391055786519
0.0225,1.78734375,1.0,2489.4902624381593,0.2249079525773718,1.330261406227905,0.917268857297825,0.28812143749999997,0.6521919756261694
0.023,1.786775,1.0,2509.2672517144715,0.22925560476508258,1.3298166922323853,0.9200304185965671,0.28809755,0.6531280278217093
0.0235,1.78619375,1.0,2527.825687481813,0.233578870415608,1.3293785801070828,0.9226428883247513,0.28807313749999996,0.6540489507864862
0.024,1.7856,1.0,2545.232387943107,0.23787788813836358,1.3289463062366103,0.9251167276175241,0.2880482,0.6549564018280938
0.0245,1.78499375,1.0,2561.534916592485,0.24215279211692392,1.3285193067063517,0.9274615320708192,0.2880227375,0.6558516107180423
0.025,1.784375,1.0,2576.782424243594,0.24640371653486343,1.3280970176016906,0.9296860848160292,0.28799675,0.6567358005129972
0.025500000000000002,1.78374375,1.0,2591.0255160297884,0.2506307955757567,1.3276788750080115,0.9317984363885067,0.2879702375,0.6576101877343239
0.026000000000000002,1.7831000000000001,1.0,2604.3161254554934,0.2548341634231781,1.327264315010698,0.9338059757710379,0.2879432,0.6584759825273554
0.0265,1.78244375,1.0,2616.702062956965,0.25901395290740553,1.3268528231995764,0.9357155008978861,0.2879156375,0.6593342856073547
0.027,1.781775,1.0,2628.2293400345093,0.26317029694322636,1.3264439115604252,0.9375332712926453,0.28788755,0.6601861371337032
0.0275,1.7810937500000001,1.0,2638.9536844435997,0.26730333019272035,1.3260370108657413,0.9392650425826913,0.2878589375,0.6610327408983816
0.028,1.7804,1.0,2648.909885963249,0.2714131812840279,1.3256317534841557,0.9409161514032137,0.2878298,0.6618748760294453
0.0285,1.77969375,1.0,2658.133399686245,0.2754999788452896,1.325227771784299,0.9424915262023372,0.2878001375,0.6627133177940685
0.029,1.778975,1.0,2666.6602881089407,0.27956385150464585,1.3248246981348017,0.9439957237632753,0.28776995,0.6635488376327645
0.029500000000000002,1.7782437500000001,1.0,2674.5271662185874,0.2836049278902372,1.3244221649042944,0.9454329620208994,0.2877392375,0.6643822031849834
0.03,1.7775,1.0,2681.771149576206,0.28762333663020423,1.3240198044614078,0.9468071495890463,0.287708,0.6652141783060941
0.0305,1.77674375,1.0,2688.4243798305583,0.291619204340243,1.3236172988664139,0.9481219181400421,0.2876762375,0.6660454205178767
0.031,1.775975,1.0,2694.521296134092,0.29559265938932316,1.3232143126475953,0.9493806384845476,0.28764395,0.6668766202160158
0.0315,1.7751937500000001,1.0,2700.0959317211054,0.2995438290195454,1.3228105172541944,0.9505864445794555,0.2876111375,0.6677084500959167
0.032,1.7744,1.0,2705.1726890349455,0.3034728363076445,1.322405674911246,0.9517422623971232,0.2875778,0.6685413928093875
0.0325,1.77359375,1.0,2709.776213919306,0.3073798043303553,1.3219995478437854,0.952850817178472,0.2875439375,0.6693759285344316
0.033,1.772775,1.0,2713.9313720041887,0.31126485616441246,1.321591898276847,0.9539146496333744,0.28750955,0.6702125349575703
0.0335,1.7719437500000002,1.0,2717.6632263451816,0.3151281148865509,1.321182488435466,0.9549361306488353,0.2874746375,0.6710516872525568
0.034,1.7711000000000001,1.0,2720.9970163159755,0.31896970357350535,1.3207710805446773,0.9559174746582497,0.2874392,0.6718938580554852
0.0345,1.7702437500000001,1.0,2723.9481788834314,0.3227897397707484,1.3203575274440154,0.956860760294569,0.2874032375,0.6727393323021587
0.035,1.7693750000000001,1.0,2726.5462765249963,0.3265883508978371,1.3199415545887863,0.9577679211810414,0.28736675,0.6735886532120877
0.035500000000000004,1.76849375,1.0,2728.8163068223357,0.3303656596368529,1.3195229301220504,0.9586407713997324,0.2873297375,0.6744422739994239
0.036000000000000004,1.7676,1.0,2730.7740344045046,0.33412178281614235,1.319101507047679,0.9594810185344544,0.2872922,0.675300472576212
0.0365,1.76669375,1.0,2732.4353028971695,0.337856837264052,1.3186771383695428,0.9602902642346459,0.2872541375,0.676163525129462
0.037,1.765775,1.0,2733.816025884377,0.3415709398089288,1.3182496770915133,0.9610700119766469,0.28721555,0.6770317060942204
0.0375,1.76484375,1.0,2734.93217835052,0.3452642072791191,1.317818976217461,0.9618216741732053,0.2871764375,0.677905288125271
0.038,1.7639,1.0,2735.799788600202,0.3489367565029697,1.3173848887512571,0.9625465786925301,0.28713679999999997,0.6787845420674494
0.0385,1.76294375,1.0,2736.43493065819,0.35258870430882716,1.3169472676967726,0.9632459748418685,0.28709663750000003,0.6796697369245865
0.039,1.761975,1.0,2736.8537171473754,0.35622016752503816,1.3165059660578788,0.9639210388649257,0.28705595,0.680561139827069
0.0395,1.7609937500000001,1.0,2737.068786789188,0.3598312587723419,1.3160608686612703,0.964572881086835,0.2870147375,0.6814589518529441
0.04,1.76,1.0,2737.092107329715,0.3634220938132867,1.315611866657528,0.9652025495115464,0.286973,0.6823633597734399
0.0405,1.7589937500000001,1.0,2736.9401065437833,0.36699279320853784,1.3151588109050156,0.965811030203454,0.2869307375,0.6832746298116601
0.041,1.757975,1.0,2736.6217262234363,0.37054346702371704,1.314701620364561,0.9663992581109581,0.28688795,0.684192889476785
0.0415,1.75694375,1.0,2736.1459218142836,0.3740742253244462,1.3142402139969924,0.9669681164910551,0.2868446375,0.6851182650099631
0.042,1.7559,1.0,2735.521659774753,0.3775851781763469,1.3137745107631382,0.9675184402960069,0.28680079999999997,0.6860508813627336
0.0425,1.75484375,1.0,2734.757915080792,0.3810764356450411,1.313304429623826,0.968051019304698,0.2867564375,0.6869908621750287
0.043000000000000003,1.753775,1.0,2733.8636688753154,0.3845481077961506,1.3128298895398847,0.9685666010203337,0.28671155,0.6879383297527537
0.043500000000000004,1.75269375,1.0,2732.847906265341,0.3880003046952971,1.3123508094721419,0.9690658933540979,0.28666613750000003,0.6888934050449544
0.044,1.7516,1.0,2731.7196142621588,0.39143313640810234,1.3118671083814262,0.9695495671125638,0.2866202,0.6898562076205605
0.0445,1.75049375,1.0,2730.4877798694506,0.3948467130001883,1.3113787052285653,0.9700182583050174,0.2865737375,0.6908268556447139
0.045,1.7493750000000001,1.0,2729.1554231739988,0.39824113232626945,1.3108855731986608,0.9704725726721543,0.28652675,0.6918053583448345
0.0455,1.74824375,1.0,2727.7329363701238,0.4016165108211904,1.3103876184709922,0.9709130827770386,0.2864792375,0.6927918568236793
0.046,1.7471,1.0,2726.2321165909357,0.4049729670216854,1.309884734393167,0.971340331678439,0.2864312,0.6937865159122333
0.0465,1.7459437500000001,1.0,2724.6572860119995,0.40831060329087665,1.3093768822345122,0.9717548381488798,0.28638263750000004,0.6947893646009335
0.047,1.744775,1.0,2723.012765056934,0.41162952199188646,1.308864023264355,0.9721570953963333,0.28633355,0.6958004309086608
0.0475,1.74359375,1.0,2721.302871833307,0.4149298254878371,1.308346118752022,0.97254757256095,0.28628393750000003,0.6968197418704207
0.048,1.7424,1.0,2719.5319216003836,0.4182116161418507,1.3078231299668404,0.9729267161106525,0.2862338,0.697847323524929
0.0485,1.74119375,1.0,2717.7042262713394,0.4214749963170497,1.3072950181781373,0.973294951143303,0.2861831375,0.6988832009020991
0.049,1.739975,1.0,2715.824093948055,0.42472006837655624,1.3067617446552395,0.9736526826025024,0.28613195,0.6999273980104389
0.0495,1.73874375,1.0,2713.8958284893197,0.42794693468349265,1.3062232706674741,0.9740002964134898,0.2860802375,0.700979937824346
0.05,1.7375,1.0,2711.923729112536,0.4311556976009811,1.305679557484168,0.9743381605450658,0.286028,0.7020408422713114
0.0505,1.73624375,1.0,2709.9120900282132,0.43434645949214395,1.3051305663746482,0.9746666260029845,0.2859752375,0.7031101322190256
0.051000000000000004,1.734975,1.0,2707.8652001082214,0.43751932272010335,1.3045762586082417,0.9749860277598071,0.28592195,0.7041878274623901
0.051500000000000004,1.73369375,1.0,2705.7873425869666,0.44067438964798167,1.3040165954542753,0.9752966856258102,0.2858681375,0.7052739467104322
0.052000000000000005,1.7324,1.0,2703.6701427943376,0.4438117619468606,1.3034516537318903,0.9755989123507137,0.2858138,0.7063682839521076
0.0525,1.73109375,1.0,2701.521666010984,0.4469315373280911,1.3028813601827338,0.9758929969089424,0.28575893750000003,0.7074709236411258
0.053,1.729775,1.0,2699.392010582559,0.45003381487416855,1.3023052572471503,0.9761791917731519,0.28570355000000003,0.7085826895431578
0.0535,1.72844375,1.0,2697.248940217731,0.45311869139782,1.301723639492174,0.9764577844913025,0.2856476375,0.709702950802285
0.054,1.7271059690543458,1.0,2695.3549702637697,0.4561862637117724,1.30113680148484,0.97672905016417,0.2855914507002825,0.7108310803299749
0.0545,1.725768184878454,1.0,2693.9998457270776,0.45923662862875264,1.3005450377921828,0.976993252097559,0.2855352637648951,0.7119664549059166
0.055,1.7244304007025624,1.0,2693.151129437933,0.46226988296148774,1.2999486429812372,0.9772506424152251,0.2854790768295076,0.7131084552733236
0.0555,1.7230926165266707,1.0,2692.7786078763215,0.465286122838923,1.2993478913577923,0.9775014613754187,0.2854228898941202,0.7142565049095773
0.056,1.721754832350779,1.0,2692.8398959398833,0.46828544417985574,1.2987431698944607,0.9777459457857451,0.28536670295873273,0.7154098164585758
0.0565,1.7204170481748873,1.0,2693.2920200423855,0.4712679432018105,1.2981348719557424,0.9779843230831535,0.28531051602334523,0.7165675960584601
0.057,1.7190792639989956,1.0,2694.108186818934,0.47423371300448436,1.2975232435775177,0.9782168027033333,0.2852543290879578,0.7177293352395188
0.0575,1.717741479823104,1.0,2695.2616641542863,0.47718284668757455,1.2969085307956665,0.9784435856057837,0.2851981421525704,0.7188945291478277
0.058,1.7164036956472124,1.0,2696.725763686377,0.4801154373507781,1.2962909796460689,0.9786648646915548,0.2851419552171829,0.7200626765955765
0.0585,1.7150659114713207,1.0,2698.4738246526836,0.48303157809379227,1.2956708361646045,0.978880825197266,0.28508576828179544,0.721233280107537
0.059000000000000004,1.713728127295429,1.0,2700.4811798992105,0.48593136125004316,1.2950483282857457,0.9790916440057432,0.285029581346408,0.7224058800248305
0.059500000000000004,1.7123903431195373,1.0,2702.724821334187,0.48881487925850675,1.294423668812958,0.9792974902821422,0.28497339441102054,0.7235800486056047
0.06,1.7110525589436456,1.0,2705.1829978593732,0.49168222438651255,1.2937970590202426,0.9794985260121546,0.2849172074756331,0.7247553830071942
0.0605,1.709714774767754,1.0,2707.840524837257,0.4945334861631326,1.2931686401385796,0.9796949035352732,0.28486102054024565,0.7259315957885715
0.061,1.7083769905918622,1.0,2710.682210192442,0.49736875411743897,1.2925385533989493,0.97988676939946,0.2848048336048582,0.7271084017067924
0.0615,1.7070392064159705,1.0,2713.6928489679626,0.5001881177785036,1.291906940032332,0.9800742646291728,0.28474864666947075,0.7282855177326548
0.062,1.7057014222400788,1.0,2716.8572183236965,0.5029916666753986,1.2912739412697074,0.9802575249790693,0.2846924597340833,0.7294626630650862
0.0625,1.7043636380641871,1.0,2720.1644093048953,0.5057794869434212,1.2906396588588815,0.9804366788746987,0.28463627279869586,0.7306396323290592
0.063,1.7030258538882954,1.0,2723.5997204262735,0.5085516686882633,1.2900042289155156,0.980611852081847,0.2845800858633084,0.7318161581987157
0.0635,1.7016880697124037,1.0,2727.14490145673,0.5113083056651456,1.2893678195690104,0.9807831676806866,0.28452389892792096,0.7329919164473109
0.064,1.700350285536512,1.0,2730.792870745792,0.5140494827800217,1.2887304970827322,0.9809507385222975,0.2844677119925335,0.7341667731325203
0.0645,1.6990125013606203,1.0,2734.536532979072,0.5167752849388452,1.288092327720048,0.9811146734092094,0.28441152505714606,0.7353405953725908
0.065,1.6976747171847286,1.0,2738.3687778855315,0.5194857970475695,1.287453377744324,0.9812750772717888,0.2843553381217586,0.7365132513500605
0.0655,1.696336933008837,1.0,2742.282479041729,0.5221811040121483,1.286813713418927,0.9814320513357326,0.28429915118637117,0.7376846103151964
0.066,1.6949991488329452,1.0,2746.2704927739474,0.5248612907385353,1.2861734010072234,0.9815856932811785,0.2842429642509837,0.7388545425891546
0.0665,1.6936613646570535,1.0,2750.32565715731,0.5275264421326837,1.2855325067725798,0.9817360973939023,0.2841867773155963,0.7400229195668581
0.067,1.6923235804811618,1.0,2754.4407911121193,0.5301766431005476,1.284891096978363,0.9818833547090555,0.2841305903802088,0.7411896137195951
0.0675,1.6909857963052701,1.0,2758.608693597805,0.5328119785480802,1.284249237887939,0.9820275531478558,0.2840744034448213,0.74235449859734
0.068,1.6896480121293784,1.0,2762.8244315034967,0.5354325289260151,1.2836069750880081,0.9821687763759107,0.2840182165094339,0.7435174862290496
0.0685,1.6883102279534867,1.0,2767.084612915327,0.5380383748265104,1.2829643401233322,0.9823071045887793,0.2839620295740464,0.744678514727574
0.069,1.686972443777595,1.0,2771.378673540678,0.5406296120658141,1.2823214291500953,0.982442619289127,0.283905842638659,0.745837406385994
0.0695,1.6856346596017033,1.0,2775.704093095678,0.543206319758758,1.2816782655264876,0.9825753948425382,0.28384965570327153,0.746994115848181
0.07,1.6842968754258116,1.0,2780.0583436686597,0.5457685770201736,1.281034872610699,0.9827055031632947,0.2837934687678841,0.7481485981399496
0.07050000000000001,1.68295909124992,1.0,2784.438889595557,0.5483164629648924,1.28039127376092,0.9828330138124749,0.28373728183249664,0.749300808669416
0.07100000000000001,1.6816213070740282,1.0,2788.843187347048,0.5508500567077463,1.2797474923353402,0.9829579940915009,0.2836810948971092,0.7504507032273239
0.07150000000000001,1.6802835228981365,1.0,2793.268685427948,0.5533694373635667,1.2791035516921505,0.9830805091313695,0.28362490796172174,0.7515982379873313
0.07200000000000001,1.6789457387222448,1.0,2797.7128242889057,0.5558746840471853,1.2784594751895406,0.9832006219777985,0.2835687210263343,0.752743369506268
0.0725,1.6776079545463531,1.0,2802.1730362498274,0.5583658758734336,1.2778152861857006,0.9833183936724946,0.28351253409094684,0.7538860547243535
0.073,1.6762701703704614,1.0,2806.6467454355006,0.5608430919571433,1.2771710080388208,0.9834338833307499,0.2834563471555594,0.7550262509653826
