Time [s],Phi [rad],STIM [ ],Fsee [N],Gamma [ ],Lcerel [ ],q [ ],Lmtc [m],fisomrel [ ]
0.0,1.8,1.0,19.59268988387803,0.0013020727953802387,1.3791615749552724,0.00543443336104993,0.288653,0.541570472185706
0.0005,1.79999375,1.0,20.268908559061238,0.0069039785054737035,1.3790868194354349,0.016912713315174455,0.2886527375,0.5417512223543559
0.001,1.799975,1.0,24.575846478765595,0.01247446195518132,1.3786459198809535,0.04265455922629793,0.28865195,0.5428165413185795
0.0015,1.79994375,1.0,36.2657498597487,0.018013699394700263,1.3776205875518037,0.08003914117489071,0.2886506375,0.545289195972674
0.002,1.7999,1.0,63.114456606203525,0.023521866093266335,1.37577503827815,0.12576185442277474,0.2886488,0.5497229611194354
0.0025,1.79984375,1.0,111.75279416433395,0.028999136331933788,1.3732547296673927,0.17650525697001146,0.28864643749999996,0.5557426874391633
0.003,1.7997750000000001,1.0,179.14106796646516,0.034445683415488655,1.370551947204034,0.22953298021550292,0.28864354999999997,0.5621532347681724
0.0035,1.79969375,1.0,257.76943695493253,0.03986167967528954,1.3679785756450806,0.28276015961197115,0.2886401375,0.5682135454917656
0.004,1.7996,1.0,342.5694749480407,0.04524729647508635,1.3656060458664623,0.33464981122348564,0.2886362,0.573763454164191
0.0045000000000000005,1.7994937500000001,1.0,430.94388842627404,0.05060270423534843,1.3634205570844629,0.38415380191607457,0.2886317375,0.5788440646952127
0.005,1.799375,1.0,521.3920296407397,0.05592807236737024,1.3613963289270197,0.4306374480178679,0.28862675,0.5835226193816117
0.0055,1.79924375,1.0,612.8730778700892,0.06122356944452359,1.3595113513910653,0.4737845597722884,0.2886212375,0.5878558297862564
0.006,1.7991000000000001,1.0,704.5275031027059,0.0664893628893282,1.357749516871277,0.5135071141689813,0.2886152,0.5918854693187752
0.006500000000000001,1.79894375,1.0,795.6929030302692,0.07172561949799955,1.3560975017602026,0.5498685757160523,0.2886086375,0.595645947832087
0.007,1.798775,1.0,885.7785544668557,0.07693250475037454,1.354545350261952,0.5830273916256544,0.28860155,0.5991632481110643
0.0075,1.79859375,1.0,974.334114594047,0.08211018355810437,1.3530841541550536,0.6131945382411674,0.2885939375,0.6024603956779668
0.008,1.7984,1.0,1060.975025326104,0.08725881969478858,1.351706597944225,0.6406056819455697,0.2885858,0.6055563423549082
0.0085,1.79819375,1.0,1145.3955097105043,0.09237857579314118,1.3504062214182115,0.6655021778952389,0.2885771375,0.6084677295644494
0.009000000000000001,1.797975,1.0,1227.3893528898093,0.09746961446818914,1.3491768042556074,0.6881191401073048,0.28856795,0.6112103296232183
0.0095,1.79774375,1.0,1306.7781429735955,0.10253209653077038,1.3480131218809892,0.7086791144792235,0.2885582375,0.6137974075211983
0.01,1.7975,1.0,1383.4315901952587,0.10756618174599071,1.3469104165208783,0.7273882422434087,0.288548,0.61624095315469
0.0105,1.79724375,1.0,1457.2790340997587,0.11257202946413745,1.3458640950134009,0.7444346999853314,0.2885372375,0.6185523845043406
0.011,1.796975,1.0,1528.29679265062,0.11754979891723877,1.344869780803761,0.7599886609577271,0.28852595000000003,0.6207424562766767
0.0115,1.79669375,1.0,1596.4583444263405,0.12249964710547555,1.3439238103413926,0.7742032298687737,0.2885141375,0.62282019349572
0.012,1.7964,1.0,1661.7605241274841,0.12742173016069525,1.3430227943790796,0.7872153578940525,0.28850180000000003,0.6247938856389277
0.0125,1.79609375,1.0,1724.2361534576803,0.1323162039238432,1.3421633999815532,0.7991471017889934,0.2884889375,0.6266715807176775
0.013000000000000001,1.7957750000000001,1.0,1783.9417642531705,0.13718322392905344,1.3413424424868243,0.8101070882630161,0.28847555,0.6284608959092125
0.0135,1.79544375,1.0,1840.9303578515878,0.14202294428628046,1.3405571381335155,0.8201919998547351,0.2884616375,0.6301684810787935
0.014,1.7951000000000001,1.0,1895.250053057495,0.1468355172782785,1.3398050571119384,0.8294878515039462,0.2884472,0.6318001376312253
0.0145,1.79474375,1.0,1946.9723105976286,0.1516210951878018,1.3390837696124047,0.8380710666473244,0.2884322375,0.6333615981678624
0.015,1.794375,1.0,1996.1728982878994,0.15637982926946511,1.3383910265835062,0.8460096479845598,0.28841675,0.6348581413512782
0.0155,1.79399375,1.0,2042.9536016043419,0.16111187177379485,1.3377245012822527,0.8533640802483073,0.2884007375,0.6362951569950692
0.016,1.7936,1.0,2087.384888746282,0.16581737157083493,1.3370823722368723,0.8601883978249512,0.2883842,0.6376768951759013
0.0165,1.7931937500000001,1.0,2129.538828386743,0.17049647670714432,1.336462943035511,0.8665308277372076,0.2883671375,0.6390072958031966
0.017,1.792775,1.0,2169.499611795185,0.175149335229282,1.3358645172663146,0.8724344400595772,0.28834955,0.6402902616118159
0.0175,1.7923437500000001,1.0,2207.3556941426145,0.17977609445012913,1.3352854674970427,0.877937775390519,0.2883314375,0.6415295130270713
0.018000000000000002,1.7919,1.0,2243.200159390996,0.18437690192152184,1.334724219118998,0.883075372386961,0.2883128,0.6427286260688041
0.0185,1.79144375,1.0,2277.1146996512184,0.18895190342830026,1.3341793991103978,0.8878782700532576,0.2882936375,0.6438907181448132
0.019,1.790975,1.0,2309.1686024591218,0.19350124250669862,1.3336498311979699,0.8923744077239307,0.28827395,0.645018463461627
0.0195,1.79049375,1.0,2339.437488109852,0.198025062692951,1.3331343391084418,0.8965889316803902,0.2882537375,0.6461145156466253
0.02,1.79,1.0,2368.0027800011844,0.20252350752329148,1.332631746568541,0.9005445115314356,0.288233,0.6471815088480927
0.0205,1.78949375,1.0,2394.9368359399323,0.20699671855542662,1.3321410167451309,0.904261647634975,0.2882117375,0.6482217633785419
0.021,1.788975,1.0,2420.331236061272,0.2114448403245395,1.3316609710012697,0.907758851895805,0.28818995000000003,0.6492378836559151
0.021500000000000002,1.78844375,1.0,2444.249067920244,0.21586801255137772,1.3311907469426232,0.9110529580341478,0.2881676375,0.6502317893481739
0.022,1.7879,1.0,2466.7496468076665,0.2202663738848219,1.3307295508803756,0.9141592516250135,0.2881448,0.6512052429032686
0.0225,1.78734375,1.0,2487.895290932085,0.22464006297375272,1.3302765891257107,0.9170916215656346,0.28812143749999997,0.6521599957764238
0.023,1.786775,1.0,2507.7510701953884,0.22898921846705078,1.3298310679898129,0.9198627070298238,0.28809755,0.6530977888670263
0.0235,1.78619375,1.0,2526.379657237515,0.23331397809152782,1.3293922401893699,0.922484035381855,0.28807313749999996,0.6540202554305756
0.024,1.7856,1.0,2543.842130329097,0.23761447916165956,1.3289593943864113,0.9249661341507532,0.2880482,0.6549289440208084
0.0245,1.78499375,1.0,2560.2084021394403,0.24189086024166825,1.328531754874926,0.9273186149693642,0.2880227375,0.655825529460464
0.025,1.784375,1.0,2575.5232573498847,0.24614325471061466,1.3281087986751783,0.929550316510602,0.28799675,0.6567111486987607
0.025500000000000002,1.78374375,1.0,2589.832880423219,0.25037179594755954,1.3276900028074319,0.9316693393887006,0.2879702375,0.6575869325894939
0.026000000000000002,1.7831000000000001,1.0,2603.1847388744977,0.2545766173315636,1.3272748442919513,0.9336831177984826,0.2879432,0.6584540060385173
0.0265,1.78244375,1.0,2615.6274726058705,0.2587578522416877,1.3268628001490006,0.9355984833275187,0.2879156375,0.6593134881337834
0.027,1.781775,1.0,2627.209630557203,0.2629156336087243,1.326453358134514,0.9374217233397856,0.28788755,0.660166469906565
0.0275,1.7810937500000001,1.0,2637.9733952568404,0.26705009169662663,1.3260460737418565,0.9391586392943987,0.2878589375,0.6610138960380099
0.028,1.7804,1.0,2647.9723834593283,0.27116136202058505,1.325640404451125,0.9408145701045271,0.2878298,0.66185691004116
0.0285,1.77969375,1.0,2657.240189033975,0.2752495724645577,1.3252359996912968,0.9423944707975409,0.2878001375,0.6626962516097028
0.029,1.778975,1.0,2665.8110001101636,0.2793148509125031,1.3248325088913493,0.9439029223784251,0.28776995,0.6635326567836464
0.029500000000000002,1.7782437500000001,1.0,2673.7195467329043,0.28335732524837953,1.32442958148026,0.9453441648820277,0.2877392375,0.6643668579736713
0.03,1.7775,1.0,2681.001051243141,0.28737712335614535,1.3240268668870063,0.9467221271101449,0.287708,0.6651995839776477
0.0305,1.77674375,1.0,2687.6911813832576,0.29137437311975894,1.323624014540566,0.9480404534220205,0.2876762375,0.6660315599893099
0.031,1.775975,1.0,2693.8186790838263,0.29534919863190523,1.3232207409095558,0.9493025351911496,0.28764395,0.6668633694064983
0.0315,1.7751937500000001,1.0,2699.416385397668,0.299301728367522,1.3228167280060217,0.9505115218513022,0.2876111375,0.6676956636463209
0.032,1.7744,1.0,2704.5220027301816,0.30323209288170083,1.3224116162958302,0.9516703393660377,0.2875778,0.6685291762675714
0.0325,1.77359375,1.0,2709.1575912373514,0.30714041368025,1.3220051916395998,0.9527817275598798,0.2875439375,0.6693643385113028
0.033,1.772775,1.0,2713.3454204803625,0.31102681226897794,1.3215972398979494,0.9538482405742622,0.28750955,0.6702015793686886
0.0335,1.7719437500000002,1.0,2717.1079493659095,0.31489141015369293,1.3211875469314975,0.954872261679074,0.2874746375,0.6710413255616297
0.034,1.7711000000000001,1.0,2720.4678071023077,0.3187343288402033,1.3207758986008624,0.9558560167350945,0.2874392,0.6718840015204377
0.0345,1.7702437500000001,1.0,2723.447775173252,0.3225556898343173,1.3203620807666632,0.9568015864444481,0.2874032375,0.6727300293585905
0.035,1.7693750000000001,1.0,2726.0707703272046,0.32635561464184343,1.319945879289518,0.9577109175109256,0.28736675,0.67357982884457
0.035500000000000004,1.76849375,1.0,2728.359828584564,0.3301342247685899,1.3195270800300458,0.9585858328185739,0.2873297375,0.6744338173707676
0.036000000000000004,1.7676,1.0,2730.3330161665363,0.3338916378601693,1.3191055149634052,0.9594280445817462,0.2872922,0.6752923160712372
0.0365,1.76669375,1.0,2732.0086616124036,0.33762797420235585,1.318681014445386,0.9602391591623186,0.2872541375,0.6761556474236597
0.037,1.765775,1.0,2733.411377200281,0.34134335842312635,1.3182533524265905,0.9610206797232519,0.28721555,0.6770242463942487
0.0375,1.76484375,1.0,2734.5540228980567,0.34503790519494254,1.3178224102110287,0.961774026666239,0.2871764375,0.6778983277029738
0.038,1.7639,1.0,2735.4495080756446,0.3487117291902662,1.3173880691027113,0.9625005353013373,0.28713679999999997,0.678778104563943
0.0385,1.76294375,1.0,2736.1107854378206,0.3523649450815591,1.316950210405648,0.9632014618739335,0.28709663750000003,0.6796637886601257
0.039,1.761975,1.0,2736.5508452684167,0.35599766754128287,1.3165087154238493,0.9638779891018036,0.28705595,0.6805555901171709
0.0395,1.7609937500000001,1.0,2736.782709987962,0.3596100112418994,1.3160634654613248,0.964531231266946,0.2870147375,0.6814537174763328
0.04,1.76,1.0,2736.8194290227734,0.36320209085587035,1.3156143418220854,0.9651622389023653,0.286973,0.6823583776664919
0.0405,1.7589937500000001,1.0,2736.674073987109,0.36677402105565754,1.3151612258101406,0.9657720031099858,0.2869307375,0.6832697759752856
0.041,1.757975,1.0,2736.3597341773198,0.3703259165137227,1.3147039987295008,0.9663614595423086,0.28688795,0.6841881160193315
0.0415,1.75694375,1.0,2735.886721521495,0.3738578834698245,1.3142425672223745,0.9669314927929399,0.2868446375,0.6851135489333273
0.042,1.7559,1.0,2735.268738972576,0.37737004433467247,1.3137768072390195,0.9674829392039229,0.28680079999999997,0.6860462858382883
0.0425,1.75484375,1.0,2734.514020277405,0.38086250868215155,1.3133066444526373,0.9680165917868181,0.2867564375,0.6869864366767497
0.043000000000000003,1.753775,1.0,2733.6303211352647,0.38433538462906314,1.312832008934458,0.9685332012032218,0.28671155,0.6879341013585177
0.043500000000000004,1.75269375,1.0,2732.625401785971,0.3877887802922088,1.3123528307557109,0.9690334783374367,0.28666613750000003,0.6888893785679027
0.044,1.7516,1.0,2731.5070252454643,0.39122280378839,1.3118690399876252,0.9695180967967355,0.2866202,0.6898523657436131
0.0445,1.75049375,1.0,2730.2829556513952,0.39463756323440824,1.3113805667014302,0.969987695230559,0.2865737375,0.6908231590583425
0.045,1.7493750000000001,1.0,2728.9609567159146,0.398033166747065,1.3108873409683555,0.9704428794834086,0.28652675,0.6918018533980405
0.0455,1.74824375,1.0,2727.548790287573,0.40140972244316186,1.3103892928596301,0.9708842245948749,0.2864792375,0.6927885423408762
0.046,1.7471,1.0,2726.054215021377,0.4047673384395002,1.309886352446484,0.9713122766590276,0.2864312,0.6937833181358847
0.0465,1.7459437500000001,1.0,2724.4836712320684,0.40810612234906535,1.3093784617542201,0.9717275553619983,0.28638263750000004,0.6947862480950018
0.047,1.744775,1.0,2722.842017212226,0.41142617910901463,1.308865577169763,0.972130555429801,0.28633355,0.6957973700242002
0.0475,1.74359375,1.0,2721.1350263265053,0.414727613081361,1.3083476467238768,0.972521746751062,0.28628393750000003,0.6968167371168599
0.048,1.7424,1.0,2719.366880742942,0.4180105283585963,1.307824632895472,0.9729015774690494,0.2862338,0.6978443730317856
0.0485,1.74119375,1.0,2717.5368969920555,0.42127502883156775,1.3072965424586898,0.9732704773063453,0.2861831375,0.6988802136254295
0.049,1.739975,1.0,2715.6579723966024,0.4245212181411815,1.3067632584576048,0.9736288470719915,0.28613195,0.6999244364173238
0.0495,1.73874375,1.0,2713.75195105248,0.42774919951730317,1.306224582230726,0.9739770631733264,0.2860802375,0.7009773763954636
0.05,1.737502231478194,1.0,2711.901257140072,0.4309590742983682,1.3056807701715283,0.9743155147232158,0.28602809372208415,0.7020384781484098
0.0505,1.7362597005447253,1.0,2710.535992926857,0.4341509438228122,1.3051320786734868,0.9746445728403945,0.2859759074228785,0.7031071892997356
0.051000000000000004,1.7350171696112566,1.0,2709.6780632516516,0.43732490936397295,1.3045787617794797,0.9749645914881659,0.28592372112367276,0.704182965155864
0.051500000000000004,1.733774638677788,1.0,2709.2914301845444,0.44048107138508186,1.304021146082299,0.9752759131685913,0.2858715348244671,0.7052651235165989
0.052000000000000005,1.7325321077443192,1.0,2709.3307788507063,0.44361953056988185,1.3034596440854553,0.9755788704975338,0.2858193485252614,0.7063528201898239
0.0525,1.7312895768108505,1.0,2709.7652552317372,0.4467403853782517,1.302894537343558,0.9758737728026144,0.2857671622260557,0.7074454695390048
0.053,1.7300470458773818,1.0,2710.564086518326,0.4498437342700705,1.3023261074112173,0.976160915795315,0.28571497592685,0.7085424897244295
0.0535,1.728804514943913,1.0,2711.696559486297,0.4529296757052172,1.3017546358430432,0.9764405822948912,0.28566278962764435,0.7096433027654094
0.054,1.7275619840104444,1.0,2713.144179689009,0.45599830357197846,1.3011802931573053,0.9767130356868539,0.2856106033284387,0.7107475478752538
0.0545,1.7263194530769757,1.0,2714.86212905375,0.45904972280052064,1.3006034901258527,0.9769785436676676,0.28555841702923296,0.7118544060081516
0.055,1.725076922143507,1.0,2716.8322871445293,0.4620840282169227,1.3000243941747245,0.9772373470883955,0.2855062307300273,0.7129635296558978
0.0555,1.7238343912100385,1.0,2719.037866718307,0.4651013141341965,1.2994431606802186,0.9774896759413725,0.2854540444308216,0.7140745966895434
0.056,1.7225918602765697,1.0,2721.4620847653227,0.4681016748653538,1.2988599450186329,0.9777357506636358,0.2854018581316159,0.7151872871921547
0.0565,1.721349329343101,1.0,2724.0881554130783,0.4710852047234066,1.2982749025662657,0.9779757826162778,0.2853496718324102,0.7163012834792243
0.057,1.7201067984096323,1.0,2726.899283365417,0.47405199802136666,1.2976881886994143,0.9782099745360446,0.28529748553320455,0.7174162701175444
0.0575,1.7188642674761636,1.0,2729.8786578771214,0.4770021490722459,1.2970999587943772,0.978438520960993,0.2852452992339989,0.7185319339425362
0.058,1.717621736542695,1.0,2733.0094472634837,0.47993575218905615,1.2965103682274521,0.9786616086318889,0.2851931129347932,0.7196479640740457
0.0585,1.7163792056092262,1.0,2736.2808596666428,0.48285289727652625,1.2959195173081506,0.9788794134339235,0.2851409266355875,0.7207641558549464
0.059000000000000004,1.7151366746757575,1.0,2739.6758780112127,0.48575368138667263,1.2953275626870178,0.979092108033002,0.2850887403363818,0.7218801999915357
0.059500000000000004,1.7138941437422888,1.0,2743.18171522447,0.4886381980564527,1.2947346223542524,0.9792998559502694,0.2850365540371761,0.7229958621992865
0.06,1.71265161280882,1.0,2746.790885128399,0.4915065365037052,1.2941407660308213,0.9795028114172237,0.2849843677379704,0.7241110005063829
0.0605,1.7114090818753513,1.0,2750.495887192165,0.4943587859462691,1.2935460634376916,0.9797011227491195,0.28493218143876475,0.7252254739803403
0.061,1.7101665509418826,1.0,2754.2892051700455,0.49719503560198314,1.2929505842958302,0.9798949326191805,0.2848799951395591,0.726339142731925
0.0615,1.708924020008414,1.0,2758.1633058474035,0.5000153746886862,1.292354398326204,0.9800843783181035,0.2848278088403534,0.7274518679187603
0.062,1.7076814890749454,1.0,2762.110637893675,0.5028198924242171,1.29175757524978,0.9802695919997481,0.2847756225411477,0.7285635117486253
0.0625,1.7064389581414767,1.0,2766.1236308242587,0.5056086780264147,1.2911601847875254,0.980450700913844,0.284723436241942,0.7296739374824429
0.063,1.705196427208008,1.0,2770.1946940690214,0.508381820713118,1.290562296660407,0.9806278276264992,0.28467124994273635,0.730783009436957
0.0635,1.7039538962745393,1.0,2774.319435049928,0.5111394037386644,1.289963951568093,0.9808010883165821,0.2846190636435306,0.7318906466550276
0.064,1.7027113653410706,1.0,2778.4920853310077,0.513881515869486,1.289365202497847,0.9809705959780172,0.28456687734432495,0.7329967461204719
0.0645,1.7014688344076019,1.0,2782.7025540943378,0.5166082547893275,1.2887661411999347,0.98113646211752,0.2845146910451193,0.7341011342362862
0.065,1.7002263034741332,1.0,2786.9480717596202,0.5193197038563487,1.2881667932963423,0.9812987899725142,0.2844625047459136,0.735203760335788
0.0655,1.6989837725406645,1.0,2791.2258606456644,0.5220159464287103,1.2875671844090553,0.98145767913101,0.2844103184467079,0.7363045741423737
0.066,1.6977412416071958,1.0,2795.5331348148484,0.5246970658645724,1.2869673401600594,0.981613225687567,0.2843581321475022,0.7374035257699642
0.0665,1.696498710673727,1.0,2799.867099931909,0.5273631455220954,1.2863672861713409,0.9817655223915259,0.28430594584829655,0.7385005657234099
0.067,1.6952561797402583,1.0,2804.224953137744,0.5300142687594394,1.285767048064885,0.9819146587879442,0.2842537595490908,0.7395956448988574
0.0675,1.6940136488067896,1.0,2808.603882937675,0.5326505189347648,1.2851666514626778,0.9820607213516434,0.28420157324988515,0.7406887145840677
0.068,1.692771117873321,1.0,2813.001069103604,0.5352719794062318,1.284566121986705,0.9822037936147542,0.2841493869506795,0.741779726458698
0.0685,1.6915285869398522,1.0,2817.4136825918454,0.5378787335320009,1.2839654852589524,0.9823439562881112,0.2840972006514738,0.74286863259454
0.069,1.6902860560063835,1.0,2821.838885474393,0.5404708646702321,1.2833647669014059,0.9824812873768406,0.2840450143522681,0.7439553854557139
0.0695,1.6890435250729148,1.0,2826.2738308858347,0.5430484561790858,1.282763992536051,0.9826158622904533,0.2839928280530624,0.7450399378988268
0.07,1.687800994139446,1.0,2830.7157881027506,0.5456115906611451,1.2821631866681074,0.982747753849605,0.28394064175385675,0.746122245182713
0.07050000000000001,1.6865584632059776,1.0,2835.167165979154,0.5481603239934009,1.2815623278880184,0.9828770287563119,0.283888455454651,0.7472023453899236
0.07100000000000001,1.6853159322725089,1.0,2839.620511933057,0.5506947753949487,1.2809614827349713,0.9830037593730886,0.28383626915544535,0.7482801186842041
0.07150000000000001,1.6840734013390402,1.0,2844.0750933113522,0.5532150212471991,1.2803606577009399,0.9831280104376866,0.2837840828562397,0.7493555536144656
0.07200000000000001,1.6828308704055714,1.0,2848.5301751785582,0.5557211379315623,1.279759859277898,0.983249844613086,0.283731896557034,0.7504286388291157
0.0725,1.6815883394721027,1.0,2852.985020320147,0.5582132018294488,1.2791590939578192,0.9833693225680253,0.28367971025782834,0.7514993630760506
