Time [s],Phi [rad],STIM [ ],Fsee [N],Gamma [ ],Lcerel [ ],q [ ],Lmtc [m],fisomrel [ ]
0.0,1.8,1.0,18.10814789340737,0.0003823064277343223,1.379323981521597,0.00503784671909457,0.288653,0.541177669140954
0.0005,1.79999375,1.0,18.536300632843083,0.0059893712998548695,1.3792736577586608,0.014006368753045218,0.2886527375,0.5412994022014229
0.001,1.799975,1.0,22.154251258083512,0.01156498497123902,1.378883905936592,0.03757501669506958,0.28865195,0.5422416639739531
0.0015,1.79994375,1.0,32.20919832857524,0.017109323859266903,1.3779499577416627,0.07327620169764303,0.2886506375,0.5444956296016434
0.002,1.7999,1.0,55.92023190003777,0.022622563389457343,1.3762180836185063,0.11787418805069091,0.2886488,0.548660566193937
0.0025,1.79984375,1.0,100.95010356507854,0.028104878004843622,1.3737523381473733,0.1680014764280994,0.28864643749999996,0.5545573652084552
0.003,1.7997750000000001,1.0,165.8802159318182,0.033556441170916315,1.3710314941182467,0.22081094133739546,0.28864354999999997,0.5610192295037676
0.0035,1.79969375,1.0,243.21007116646734,0.03897742537766327,1.3684154743091768,0.2741211701923796,0.2886401375,0.5671876220967613
0.004,1.7996,1.0,327.32656354445135,0.04436800214941688,1.3660015897826057,0.3263105171698719,0.2886362,0.5728406769024402
0.0045000000000000005,1.7994937500000001,1.0,415.32236478817896,0.049728342050409574,1.3637812110861298,0.376255411523336,0.2886317375,0.5780077501935863
0.005,1.799375,1.0,505.5803978782196,0.055058614675815645,1.3617276984367748,0.423259808886781,0.28862675,0.58275852099373
0.0055,1.79924375,1.0,597.0050490225601,0.060358988691471153,1.3598177338400474,0.4669619602565538,0.2886212375,0.5871530561677704
0.006,1.7991000000000001,1.0,688.7319007546233,0.06562963179925706,1.3580337204577604,0.5072419372775048,0.2886152,0.5912367825738977
0.006500000000000001,1.79894375,1.0,780.051460491323,0.07087071075116583,1.356362133326653,0.5441430231011828,0.2886086375,0.59504473829999
0.007,1.798775,1.0,870.3782600905535,0.0760823914369637,1.3547921552464666,0.5778111658820924,0.28860155,0.5986049954578034
0.0075,1.79859375,1.0,959.2252723521892,0.08126483861224051,1.3533149128740933,0.6084511252261495,0.2885939375,0.6019406005764408
0.008,1.7984,1.0,1046.2176755081214,0.08641821652145118,1.351922502240333,0.6362958221909971,0.2885858,0.6050719145947158
0.0085,1.79819375,1.0,1131.0361019540603,0.0915426879633363,1.3506083434988272,0.6615866469809677,0.2885771375,0.608015910296583
0.009000000000000001,1.797975,1.0,1213.436385504542,0.09663841501871084,1.3493664758704982,0.6845604674334157,0.28856795,0.6107878365364433
0.0095,1.79774375,1.0,1293.2629693000847,0.10170555939962879,1.3481911281780732,0.7054419733921888,0.2885582375,0.6134022265882673
0.01,1.7975,1.0,1370.3768219588994,0.10674428098167554,1.3470774893785182,0.7244401440044069,0.288548,0.6158712256591345
0.0105,1.79724375,1.0,1444.68963172351,0.1117547390922746,1.3460210453143038,0.7417461790340926,0.2885372375,0.6182061103303461
0.011,1.796975,1.0,1516.167874965311,0.11673709267250108,1.3450174091711884,0.7575331678376137,0.28852595000000003,0.620417689313778
0.0115,1.79669375,1.0,1584.7918820254977,0.12169149943995959,1.3440627234968008,0.7719568957302578,0.2885141375,0.6225154410075384
0.012,1.7964,1.0,1650.5541990856061,0.12661811560184869,1.3431535620578925,0.7851568668618154,0.28850180000000003,0.6245077578028704
0.0125,1.79609375,1.0,1713.481050112042,0.13151709689449,1.3422865919575537,0.7972574773739677,0.2884889375,0.6264027071622549
0.013000000000000001,1.7957750000000001,1.0,1773.6307026801128,0.13638859931327899,1.3414585417155267,0.8083694262005918,0.28847555,0.6282081131680674
0.0135,1.79544375,1.0,1831.053283453298,0.1412327770180602,1.340666604505565,0.8185912735008415,0.2884616375,0.6299306906079366
0.014,1.7951000000000001,1.0,1885.7945912445325,0.14604978232493845,1.3399083283914242,0.8280107042097467,0.2884472,0.6315763019456242
0.0145,1.79474375,1.0,1937.9242550610331,0.15083976755001843,1.3391812614368588,0.8367056207044278,0.2884322375,0.633150739445476
0.015,1.794375,1.0,1987.5247945758263,0.15560288431767613,1.338483046181985,0.8447453037890571,0.28841675,0.6346595262989931
0.0155,1.79399375,1.0,2034.6869902570345,0.1603392845301524,1.3378114424855978,0.8521914298553878,0.2884007375,0.6361078741256367
0.016,1.7936,1.0,2079.4875446615265,0.16504911796389157,1.3371645356607913,0.8590990287648003,0.2883842,0.6375002420046014
0.0165,1.7931937500000001,1.0,2121.996742228986,0.16973253257470247,1.336540625165937,0.8655172316540719,0.2883671375,0.6388405855003834
0.017,1.792775,1.0,2162.297188713906,0.17438967631839397,1.3359380104594072,0.871489905731885,0.28834955,0.6401328224763241
0.0175,1.7923437500000001,1.0,2200.4804680327443,0.17902069689744124,1.3353550142361728,0.877056282609079,0.2883314375,0.6413807857992869
0.018000000000000002,1.7919,1.0,2236.631623348546,0.18362574076109045,1.334790127436716,0.8822515411778454,0.2883128,0.6425879163613121
0.0185,1.79144375,1.0,2270.8487227384917,0.18820495567431622,1.334241798851492,0.8871072256007987,0.2882936375,0.6437577165195112
0.019,1.790975,1.0,2303.197017899404,0.1927584849146347,1.3337088825968515,0.8916517739449625,0.28827395,0.6448927987116096
0.0195,1.79049375,1.0,2333.7480841997867,0.19728647175956207,1.3331902327891443,0.8959107742569846,0.2882537375,0.6459957550188643
0.02,1.79,1.0,2362.579300250127,0.2017890594866145,1.3326847035447211,0.8999072879798369,0.288233,0.6470691582505135
0.0205,1.78949375,1.0,2389.771103367174,0.20626639098900448,1.3321911708682468,0.9036621381587058,0.2882117375,0.6481155165726508
0.021,1.788975,1.0,2415.397293683795,0.21071860776304555,1.3317086212914149,0.9071941762595687,0.28818995000000003,0.6491370872479232
0.021500000000000002,1.78844375,1.0,2439.5419132054926,0.21514585320925733,1.3312359827519695,0.9105204634068099,0.2881676375,0.650136236385003
0.022,1.7879,1.0,2462.2626461162213,0.21954826562543892,1.3307724727475934,0.9136565316143689,0.2881448,0.651114704312636
0.0225,1.78734375,1.0,2483.6201934572596,0.22392598330938943,1.3303173087759692,0.9166164900913191,0.28812143749999997,0.6520742204177329
0.023,1.786775,1.0,2503.678023601948,0.2282791445589079,1.3298697083347801,0.9194131752687574,0.28809755,0.6530165035814002
0.0235,1.78619375,1.0,2522.5021363070596,0.23260788767179347,1.329428888921709,0.9220582832351043,0.28807313749999996,0.6539432625759195
0.024,1.7856,1.0,2540.1504642173595,0.23691234849503065,1.328994165801443,0.9245625033041642,0.2880482,0.6548559912902188
0.0245,1.78499375,1.0,2556.689542699525,0.24119266667089986,1.3285647919007921,0.9269355943804545,0.2880227375,0.6557563058775164
0.025,1.784375,1.0,2572.171502244004,0.2454489774414747,1.3281401725590805,0.9291865109286223,0.28799675,0.656645494747758
0.025500000000000002,1.78374375,1.0,2586.6416940761246,0.24968141374335465,1.3277197905450104,0.931323469961043,0.2879702375,0.6575246775673931
0.026000000000000002,1.7831000000000001,1.0,2600.1467629287886,0.25389010851313915,1.3273031286272852,0.9333540108492794,0.2879432,0.6583949680828789
0.0265,1.78244375,1.0,2612.7345366775744,0.2580751946874277,1.326889669574607,0.935285060353882,0.2879156375,0.6592574742519266
0.027,1.781775,1.0,2624.4539219079606,0.26223680520281983,1.3264788961556786,0.9371229906206112,0.28788755,0.6601132983576838
0.0275,1.7810937500000001,1.0,2635.349796220946,0.2663750714820052,1.3260703374770386,0.9388736773379255,0.2878589375,0.6609634407449303
0.028,1.7804,1.0,2645.4630650568274,0.27049012463114824,1.3256635671600157,0.9405425455366297,0.2878298,0.6618088042876722
0.0285,1.77969375,1.0,2654.847742089472,0.2745820993646569,1.3252580447913775,0.9421345891197551,0.2878001375,0.6626505239110021
0.029,1.778975,1.0,2663.5351873117356,0.2786511227563558,1.3248534452888387,0.943654451845556,0.28776995,0.6634892827932763
0.029500000000000002,1.7782437500000001,1.0,2671.557288005521,0.28269732188006974,1.3244494435701133,0.9451064309875429,0.2877392375,0.664325760736747
0.03,1.7775,1.0,2678.9464125736254,0.2867208238096235,1.3240457145529156,0.9464945076197029,0.287708,0.6651606341833237
0.0305,1.77674375,1.0,2685.735366715292,0.29072175561884184,1.32364193315496,0.9478223738949945,0.2876762375,0.6659945762235981
0.031,1.775975,1.0,2691.957351943965,0.2947002443815495,1.3232377742939612,0.949093457648303,0.28764395,0.666828256599127
0.0315,1.7751937500000001,1.0,2697.6459264486834,0.2986564171715713,1.322832912887633,0.9503109446152785,0.2876111375,0.6676623416979781
0.032,1.7744,1.0,2702.8282524002834,0.3025903966866989,1.3224270851990851,0.9514778046764374,0.2875778,0.6684973683993045
0.0325,1.77359375,1.0,2707.5390542318064,0.3065023129407017,1.322019960866309,0.9525967976269342,0.2875439375,0.6693340076647347
0.033,1.772775,1.0,2711.8019232155243,0.3103922886975662,1.321611313409555,0.9536705059728464,0.28750955,0.670172713925322
0.0335,1.7719437500000002,1.0,2715.6383948380853,0.31426044513619644,1.3212009368634812,0.9547013409984351,0.2874746375,0.6710138971875701
0.034,1.7711000000000001,1.0,2719.0701741440794,0.31810690343549614,1.3207886252627457,0.9556915543870431,0.2874392,0.6718579652488449
0.0345,1.7702437500000001,1.0,2722.1191183234237,0.32193178477436923,1.3203741726420062,0.9566432506674291,0.2874032375,0.67270532367331
0.035,1.7693750000000001,1.0,2724.807220238914,0.3257352103317194,1.319957373035921,0.9575583985504614,0.28736675,0.6735563757651545
0.035500000000000004,1.76849375,1.0,2727.1565928950104,0.3295173012864507,1.3195380204791485,0.9584388412667063,0.2873297375,0.6744115225391176
0.036000000000000004,1.7676,1.0,2729.1839093542,0.3332781732816895,1.319115959415668,0.9592863099242465,0.2872922,0.6752710600963574
0.0365,1.76669375,1.0,2730.9098454989066,0.33701794731278817,1.3186909986859512,0.9601024255720709,0.2872541375,0.6761353550910429
0.037,1.765775,1.0,2732.36159256016,0.3407367522585198,1.3182628886583616,0.9608887055424308,0.28721555,0.6770048906340412
0.0375,1.76484375,1.0,2733.5518176316177,0.3444347023467418,1.3178315122900626,0.9616465848340493,0.2871764375,0.6778798781741449
0.038,1.7639,1.0,2734.4932379338584,0.34811191180531137,1.3173967525382169,0.9623774123186354,0.28713679999999997,0.6787605276728124
0.0385,1.76294375,1.0,2735.1986147931943,0.35176849486208595,1.3169584923599877,0.9630824568521767,0.28709663750000003,0.6796470475793481
0.039,1.761975,1.0,2735.680747923893,0.3554045657449229,1.3165166147125384,0.9637629128886269,0.28705595,0.6805396448052121
0.0395,1.7609937500000001,1.0,2735.9524700149777,0.3590202386816795,1.316071002553032,0.9644199056414366,0.2870147375,0.681438524697453
0.04,1.76,1.0,2736.0266416197687,0.36261562790021307,1.3156215388386316,0.9650544958338029,0.286973,0.6823438910112696
0.0405,1.7589937500000001,1.0,2735.9161463498785,0.36619084762838094,1.3151681065265002,0.9656676840744274,0.2869307375,0.6832559458816985
0.041,1.757975,1.0,2735.6338863722112,0.36974601209404057,1.314710588573801,0.9662604148919495,0.28688795,0.6841748897944251
0.0415,1.75694375,1.0,2735.1927782104767,0.37328123552504916,1.3142488679376976,0.9668335804579682,0.2868446375,0.6851009215557256
0.042,1.7559,1.0,2734.601801886623,0.3767966253220212,1.313782863418264,0.9673880258918964,0.28680079999999997,0.6860341665339129
0.0425,1.75484375,1.0,2733.871676938312,0.3802922967579078,1.31331247809811,0.9679245504825735,0.2867564375,0.6869747801913946
0.043000000000000003,1.753775,1.0,2733.0146991428305,0.38376836744003945,1.3128376007915765,0.9684439098140752,0.28671155,0.6879229449329407
0.043500000000000004,1.75269375,1.0,2732.03767301285,0.3872249442045256,1.3123581702193574,0.9689468216484626,0.28666613750000003,0.6888787420191803
0.044,1.7516,1.0,2730.9474064720735,0.39066213388747584,1.3118741251021473,0.9694339660504082,0.2866202,0.6898422515681447
0.0445,1.75049375,1.0,2729.75070941418,0.3940800433249999,1.3113854041606399,0.9699059877362929,0.2865737375,0.6908135525373564
0.045,1.7493750000000001,1.0,2728.4543923434417,0.3974787793532073,1.3108919461155297,0.9703634982546242,0.28652675,0.6917927227056715
0.0455,1.74824375,1.0,2727.065265099789,0.4008584488082076,1.310393689687511,0.9708070780114169,0.2864792375,0.6927798386548888
0.046,1.7471,1.0,2725.590135666667,0.40421915852611046,1.3098905735972777,0.9712372781529549,0.2864312,0.6937749757511169
0.0465,1.7459437500000001,1.0,2724.035809062086,0.40756101534302547,1.309382536565524,0.971654622317261,0.28638263750000004,0.6947782081258997
0.047,1.744775,1.0,2722.4090863128695,0.41088412609506225,1.3088695173129443,0.9720596082645867,0.28633355,0.6957896086571072
0.0475,1.74359375,1.0,2720.716763512933,0.4141885976183303,1.3083514545602326,0.972452709396354,0.28628393750000003,0.6968092489495816
0.048,1.7424,1.0,2718.9569109709937,0.41747451889849,1.3078283664429788,0.9728343795193292,0.2862338,0.6978370434089514
0.0485,1.74119375,1.0,2717.1395952266926,0.4207420087938758,1.307300161854026,0.973205046802826,0.2861831375,0.6988731202949279
0.049,1.739975,1.0,2715.2756598592196,0.423991183901457,1.3067667425019063,0.9735651182458555,0.28613195,0.6999176202001567
0.0495,1.73874375,1.0,2713.367916129884,0.4272221428495013,1.306228083200719,0.9739149844776241,0.2860802375,0.7009705390918801
0.05,1.7375,1.0,2711.419172554612,0.43043498426627597,1.3056841587645638,0.9742550179277071,0.286028,0.7020318720676051
0.0505,1.73624375,1.0,2709.432234684742,0.4336298067800487,1.305134944007541,0.9745855738344308,0.2859752375,0.7031016133466671
0.051000000000000004,1.734975,1.0,2707.4099049021047,0.4368067090190869,1.3045804137437498,0.9749069911886882,0.28592195,0.7041797562617544
0.051500000000000004,1.73369375,1.0,2705.354982227518,0.43996578961165816,1.3040205427872902,0.9752195936178586,0.2858681375,0.7052662932503873
0.052000000000000005,1.7324,1.0,2703.270262143934,0.44310714718603,1.303455305952262,0.9755236902141278,0.2858138,0.7063612158463619
0.0525,1.73109375,1.0,2701.1585364335792,0.4462308803704698,1.302884678052765,0.9758195763111539,0.28575893750000003,0.7074645146711509
0.053,1.729775,1.0,2699.0225930288425,0.4493370877932452,1.3023086339028986,0.9761075342127317,0.28570355000000003,0.7085761794252654
0.0535,1.72844375,1.0,2696.865215877347,0.4524258680826237,1.3017271483167632,0.9763878338767952,0.2856476375,0.7096961988795727
0.054,1.7271,1.0,2694.6891848215837,0.4554973198668727,1.3011401961084579,0.9766607335578681,0.2855912,0.7108245608665802
0.0545,1.7257437500000001,1.0,2692.497275491689,0.4585515417742599,1.3005477520920827,0.9769264804108037,0.2855342375,0.711961252271671
0.055,1.724375,1.0,2690.2922592129767,0.4615886324330526,1.2999497910817375,0.977185311058464,0.28547675,0.713106259024305
0.0555,1.72299375,1.0,2688.076902927401,0.4646086904715184,1.2993462878915218,0.9774374521257662,0.2854187375,0.7142595660891777
0.056,1.7216,1.0,2685.8503848148653,0.46761179193610736,1.2987372501792578,0.9776831205667689,0.2853602,0.7154210948830853
0.0565,1.72019375,1.0,2683.6184636039343,0.47059805577771624,1.298122625292287,0.9779225248016115,0.28530113749999997,0.7165908810230696
0.057,1.718775,1.0,2681.383280304809,0.47356758031957935,1.2975023936681533,0.9781558646567763,0.28524155,0.7177688959238493
0.0575,1.71734375,1.0,2679.145677249978,0.4765204558092053,1.2968765476268094,0.9783833317537945,0.2851814375,0.7189550875930701
0.058,1.7159,1.0,2676.90649538164,0.47945677249410257,1.2962450794882077,0.978605109965116,0.2851208,0.7201494033132192
0.0585,1.71444375,1.0,2674.66657424677,0.4823766206217798,1.2956079815723012,0.9788213757871853,0.2850596375,0.7213517896388714
0.059000000000000004,1.7129750000000001,1.0,2672.426751994006,0.48528009043974535,1.2949652461990426,0.9790322986926973,0.28499795,0.7225621923939356
0.059500000000000004,1.71149375,1.0,2670.18786537165,0.4881672721955079,1.294316865688385,0.9792380414633458,0.2849357375,0.723780556668894
0.06,1.71,1.0,2667.9507497270447,0.4910382561365759,1.2936628323602808,0.9794387605042911,0.284873,0.725006826818041
0.0605,1.7084937500000001,1.0,2665.7162390071903,0.493893132510458,1.2930031385346832,0.9796346061414825,0.2848097375,0.7262409464567132
0.061,1.7069750000000001,1.0,2663.4851657606355,0.4967319915646627,1.2923377765315445,0.9798257229028957,0.28474595,0.7274828584585229
0.0615,1.7054437500000001,1.0,2661.2583611408095,0.4995549235466985,1.2916667386708178,0.9800122497846738,0.2846816375,0.7287325049525792
0.062,1.7039,1.0,2659.0366549106907,0.502362018704074,1.290990017272456,0.9801943205030839,0.2846168,0.7299898273207136
0.0625,1.70234375,1.0,2656.820875448528,0.5051533672842977,1.2903076046564117,0.9803720637331543,0.2845514375,0.7312547661946958
0.063,1.7007750000000001,1.0,2654.611849755028,0.5079290595348782,1.2896194931426377,0.9805456033347852,0.28448555,0.732527261453449
0.0635,1.69919375,1.0,2652.4104034621705,0.510689185703324,1.2889256750510867,0.9807150585670787,0.28441913750000003,0.733807252220261
0.064,1.6976,1.0,2650.2158600524426,0.5134337865767378,1.2882261565458708,0.9808805413945476,0.2843522,0.7350946514119745
0.0645,1.69599375,1.0,2648.0324439825695,0.516163013084299,1.2875208985734181,0.9810421653814686,0.2842847375,0.7363894543480045
0.065,1.694375,1.0,2645.860258751437,0.5188769478442262,1.2868099000615463,0.9812000369369643,0.28421675,0.7376915855442788
0.0655,1.69274375,1.0,2643.699354934468,0.5215756723354593,1.286093160425664,0.9813542585860379,0.2841482375,0.7390009679772171
0.066,1.6911,1.0,2641.5497830647364,0.5242592680369379,1.2853706790811805,0.9815049291921372,0.2840792,0.7403175239819704
0.0665,1.6894437500000001,1.0,2639.4115936342127,0.5269278164276017,1.2846424554435043,0.9816521441124674,0.2840096375,0.7416411752522087
0.067,1.687775,1.0,2637.2848370946654,0.5295813989863903,1.2839084889280445,0.9817959953456431,0.28393955,0.7429718428399057
0.0675,1.68609375,1.0,2635.169563859504,0.5322200971922436,1.2831687789502098,0.9819365716721078,0.2838689375,0.7443094471551251
0.068,1.6844000000000001,1.0,2633.0658243044354,0.5348439925241012,1.2824233249254091,0.9820739587877247,0.2837978,0.7456539079658061
0.0685,1.68269375,1.0,2630.9736687691648,0.5374531664609027,1.2816721262690514,0.9822082394309156,0.2837261375,0.7470051443975497
0.069,1.680975,1.0,2628.8931475586114,0.5400477004815878,1.2809151823965454,0.9823394935036989,0.28365395,0.7483630749334044
0.0695,1.67924375,1.0,2626.8243109440114,0.5426276760650963,1.2801524927233,0.9824677981869627,0.28358123749999997,0.7497276174136525
0.07,1.6775,1.0,2624.767209164413,0.5451931746903679,1.2793840566647239,0.9825932280502829,0.283508,0.7510986890355943
0.07050000000000001,1.67574375,1.0,2622.72189242798,0.5477442778363422,1.2786098736362261,0.9827158551565786,0.2834342375,0.7524762063533359
0.07100000000000001,1.673975,1.0,2620.6884109130233,0.5502810669819589,1.2778299430532156,0.9828357491618819,0.28335995,0.7538600852775732
0.07150000000000001,1.67219375,1.0,2618.66681476977,0.5528036236061578,1.277044264331101,0.98295297741048,0.2832851375,0.7552502410753795
0.07200000000000001,1.6704,1.0,2616.657154121441,0.5553120291878785,1.2762528368852915,0.9830676050256755,0.2832098,0.7566465883699891
0.0725,1.66859375,1.0,2614.6594790654904,0.5578063652060606,1.2754556601311957,0.9831796949963894,0.2831339375,0.7580490411405842
0.073,1.6667750000000001,1.0,2612.6738396753058,0.5602867131396441,1.2746527334842224,0.9832893082598287,0.28305755,0.7594575127220814
0.0735,1.66494375,1.0,2610.7002274410115,0.5627531541008448,1.2738440569040461,0.9833965037834623,0.2829806375,0.76087191485438
0.074,1.6631,1.0,2608.7395219636733,0.565205762886155,1.2730296220936361,0.9835013379109292,0.2829032,0.7622921730210659
0.0745,1.6612437500000001,1.0,2606.7918799877825,0.5676446152089976,1.2722094274676006,0.9836038655314076,0.2828252375,0.7637182002479628
0.075,1.659375,1.0,2604.8561417947803,0.5700697874626413,1.271383483688083,0.9837041403654445,0.28274675,0.7651498876955356
0.0755,1.65749375,1.0,2602.9311494459016,0.5724813560403552,1.2705518014172277,0.9838022144424531,0.2826677375,0.7665871261157302
