Time [s],Phi [rad],STIM [ ],Fsee [N],Gamma [ ],Lcerel [ ],q [ ],Lmtc [m],fisomrel [ ]
0.0,1.8,1.0,17.972655490489547,7.75972772658694e-05,1.379339130382811,0.00500157904948752,0.288653,0.5411410209196832
0.0005,1.79999375,1.0,18.304455086740166,0.005686371326720685,1.3792993108092717,0.013129242888492657,0.2886527375,0.5412373495523326
0.001,1.799975,1.0,21.696349385971637,0.011263684588351136,1.3789303460147049,0.03596168866543623,0.28865195,0.5421294415471175
0.0015,1.79994375,1.0,31.254508673749072,0.016809713533218626,1.378030442595577,0.0710845115369246,0.2886506375,0.5443016086447455
0.002,1.7999,1.0,53.981646293571366,0.022324633640635517,1.3763422779275059,0.11528928647485416,0.2886488,0.5483625313913774
0.0025,1.79984375,1.0,97.78981265990811,0.027808619406182893,1.3739028950301908,0.16519615525979647,0.28864643749999996,0.5541984218368691
0.003,1.7997750000000001,1.0,161.83099225794012,0.033261844348807065,1.3711817172405167,0.21792125626550699,0.28864354999999997,0.5606636887320826
0.0035,1.79969375,1.0,238.66945624702643,0.03868448101091108,1.3685543904244584,0.2712501573737086,0.2886401375,0.5668611648560458
0.004,1.7996,1.0,322.51587583274323,0.044076700968996255,1.3661283282587764,0.3235327969472959,0.2886362,0.5725447935154135
0.0045000000000000005,1.7994937500000001,1.0,410.3541032659963,0.04943867483888819,1.3638973302329551,0.37362016033121015,0.2886317375,0.5777383069174988
0.005,1.799375,1.0,500.5219649876148,0.0547705722671955,1.3618348007020136,0.4207953571856098,0.28862675,0.5825114062529788
0.0055,1.79924375,1.0,591.9085935481207,0.06007256197502444,1.3599169989098907,0.464680950112213,0.2886212375,0.5869252356367913
0.006,1.7991000000000001,1.0,683.6375122853134,0.06534481171011948,1.3581260752993356,0.5051461133284659,0.2886152,0.5910258743325721
0.006500000000000001,1.79894375,1.0,774.9931847957106,0.07058748829653187,1.3564482791082357,0.5422269823597264,0.2886086375,0.5948489295943153
0.007,1.798775,1.0,865.373288698234,0.07580075745306325,1.354872834272365,0.5760653109901847,0.28860155,0.5984224218606459
0.0075,1.79859375,1.0,954.3217461320301,0.08098478461887118,1.353390194963703,0.606863197682262,0.2885939375,0.6017709505851911
0.008,1.7984,1.0,1041.4198952804372,0.0861397334057769,1.3519930227530013,0.6348530100731695,0.2885858,0.6049136222359858
0.0085,1.79819375,1.0,1126.347564042793,0.0912657668154147,1.3506746166090986,0.6602760178041506,0.2885771375,0.6078677081188193
0.009000000000000001,1.797975,1.0,1208.8862145109142,0.0963630472869757,1.3494285648174973,0.6833693184729547,0.28856795,0.6106494837040309
0.0095,1.79774375,1.0,1288.8485332895914,0.10143173621713654,1.348249471380586,0.7043586081715373,0.2885582375,0.6132726584283881
0.01,1.7975,1.0,1366.0979967245044,0.1064719936186852,1.3471324221270138,0.7234537413826763,0.288548,0.6157496221563543
0.0105,1.79724375,1.0,1440.540255969708,0.11148397846180133,1.346072924725914,0.7408469088963577,0.2885372375,0.6180916159810328
0.011,1.796975,1.0,1512.1770920568222,0.1164678513381737,1.3450661124164953,0.7567119422130271,0.28852595000000003,0.6203105167785925
0.0115,1.79669375,1.0,1580.95973840683,0.12142376875678562,1.3441084645134869,0.7712057226308638,0.2885141375,0.6224150658487575
0.012,1.7964,1.0,1646.873794075893,0.12635188679134568,1.343196605837242,0.7844686342549964,0.28850180000000003,0.6244135514725662
0.0125,1.79609375,1.0,1709.9465733832917,0.1312523615155624,1.3423271612081142,0.796625835236783,0.2884889375,0.6263141412601843
0.013000000000000001,1.7957750000000001,1.0,1770.2304893351481,0.13612534856661884,1.341496900977425,0.8077887444654218,0.28847555,0.6281245746900983
0.0135,1.79544375,1.0,1827.7846155577413,0.1409710025101189,1.3407028957309228,0.8180565030094318,0.2884616375,0.6298518394150636
0.014,1.7951000000000001,1.0,1882.6621422348885,0.14578947608769666,1.3399425976459343,0.8275173246942393,0.2884472,0.63150200990349
0.0145,1.79474375,1.0,1934.92931789061,0.15058092158169406,1.3392135816775006,0.8362496249205275,0.2884322375,0.6330808227216889
0.015,1.794375,1.0,1984.6585494370413,0.15534549051212723,1.3385135884365298,0.8443231618473945,0.28841675,0.6345935919764787
0.0155,1.79399375,1.0,2031.9490450567603,0.1600833348571073,1.3378402767913744,0.8517999664702046,0.2884007375,0.6360457505660955
0.016,1.7936,1.0,2076.8688153652142,0.16479460360743067,1.33719181517399,0.8587354397430891,0.2883842,0.6374415809300693
0.0165,1.7931937500000001,1.0,2119.493266349613,0.16947944538190085,1.3365664410250357,0.8651789970099678,0.2883671375,0.6387851746675419
0.017,1.792775,1.0,2159.909076064232,0.1741380086453331,1.3359624056635817,0.8711747603362675,0.28834955,0.6400805547855197
0.0175,1.7923437500000001,1.0,2198.205446771473,0.178770440875462,1.3353780512601248,0.8767622047276059,0.2883314375,0.6413315138168403
0.018000000000000002,1.7919,1.0,2234.4771926996746,0.18337689001635038,1.3348117659434706,0.8819766925485112,0.2883128,0.6425417136027254
0.0185,1.79144375,1.0,2268.792790471105,0.18795750050281715,1.3342622916094395,0.8868500295857196,0.2882936375,0.6437140319132845
0.019,1.790975,1.0,2301.2280314984237,0.19251241676968128,1.3337283701538518,0.8914107857798061,0.28827395,0.6448513231965998
0.0195,1.79049375,1.0,2331.865413138469,0.19704178325176167,1.3332087434725275,0.8956846664598517,0.2882537375,0.6459564198771026
0.02,1.79,1.0,2360.778986057304,0.20154574245663537,1.3327022959509212,0.8996948695922973,0.288233,0.6470318312148777
0.0205,1.78949375,1.0,2388.0653443773904,0.2060244399218628,1.3322077439934787,0.9034622988809035,0.2882117375,0.648080404434832
0.021,1.788975,1.0,2413.7895924476297,0.21047801628849175,1.3317241584186164,0.9070059293095545,0.28818995000000003,0.6491042178618007
0.021500000000000002,1.78844375,1.0,2438.0135159604683,0.21490661119282453,1.331250680050671,0.9103429571682405,0.2881676375,0.6501051880292349
0.022,1.7879,1.0,2460.8023923780365,0.2193103642711634,1.33078644971398,0.9134889782158082,0.2881448,0.6510852190230247
0.0225,1.78734375,1.0,2482.2246990454305,0.2236894151598108,1.330330608232881,0.9164581587826884,0.28812143749999997,0.6520462030117823
0.023,1.786775,1.0,2502.3343273038413,0.22804390239518715,1.3298824626616246,0.9192634183047512,0.28809755,0.6529896710086156
0.0235,1.78619375,1.0,2521.210862089363,0.23237396476199917,1.3294410997655195,0.9219164854689778,0.28807313749999996,0.6539176077336895
0.024,1.7856,1.0,2538.951089354876,0.23667974104255873,1.329005468024471,0.9244280372919734,0.2880482,0.6548322768175983
0.0245,1.78499375,1.0,2555.580516775919,0.24096136564894777,1.3285752087693108,0.9268079526178568,0.2880227375,0.6557344776218235
0.025,1.7843750798221996,1.0,2571.1298241046416,0.24521897299324819,1.3281499633308707,0.9290652692641882,0.2879967533525324,0.6566250049934574
0.025500000000000002,1.7837514924633386,1.0,2585.989948468021,0.24945269748754184,1.3277293730399826,0.9312082670757775,0.2879705626834602,0.6575046493839921
0.026000000000000002,1.7831279051044775,1.0,2600.431503045498,0.2536626735439107,1.3273130792274783,0.9332445417696782,0.28794437201438805,0.658374196959906
0.0265,1.7825043177456166,1.0,2614.48767427074,0.25784903519045393,1.326900737932268,0.9351810728572141,0.2879181813453159,0.6592343990412586
0.027,1.7818807303867557,1.0,2628.160465707894,0.2620119152921138,1.3264922987604142,0.9370243250111618,0.2878919906762437,0.6600853917415193
0.0275,1.7812571430278947,1.0,2641.452576690019,0.2661514453845333,1.326087706356778,0.9387802493879859,0.28786580000717155,0.6609273206727544
0.028,1.7806335556690336,1.0,2654.3739933917154,0.27026775566480726,1.3256868396732113,0.9404543222086503,0.2878396093380994,0.661760467039783
0.0285,1.7800099683101727,1.0,2666.934924363205,0.274360976330031,1.3252895776615663,0.9420515984353639,0.28781341866902727,0.6625851105381373
0.029,1.7793863809513117,1.0,2679.1301979935597,0.27843119755364604,1.324895942331368,0.94357675450682,0.2877872279999551,0.6634012329611365
0.029500000000000002,1.7787627935924506,1.0,2690.9829748664215,0.2824785781206362,1.324505696923507,0.9450341075867091,0.28776103733088293,0.6642093516077457
0.03,1.7781392062335897,1.0,2702.5187975990807,0.286503283989323,1.3241185857346578,0.946427655941996,0.28773484666181076,0.6650100203487415
0.0305,1.7775156188747288,1.0,2713.745315240477,0.2905054357360506,1.323734518988551,0.9477611127277661,0.2877086559927386,0.6658034477527153
0.031,1.7768920315158678,1.0,2724.6703212863385,0.294485153937163,1.3233534069089168,0.9490379249000054,0.2876824653236664,0.6665898413277949
0.0315,1.7762684441570067,1.0,2735.3017477084795,0.2984425591690043,1.3229751597194854,0.950261295623431,0.28765627465459426,0.6673694075388166
0.032,1.7756448567981458,1.0,2745.647659163219,0.30237777200791854,1.3225996876439872,0.9514342045327494,0.28763008398552214,0.6681423518239857
0.0325,1.7750212694392848,1.0,2755.716247377877,0.3062909130302498,1.3222269009061525,0.9525594260760507,0.28760389331645,0.6689088786110223
0.033,1.774397682080424,1.0,2765.5158257166527,0.31018210281234204,1.3218567097297111,0.9536395461424312,0.2875777026473778,0.6696691913327948
0.0335,1.7737740947215628,1.0,2775.054823924682,0.31405146193053946,1.321489024338394,0.9546769771526546,0.28755151197830564,0.6704234924424345
0.034,1.7731505073627019,1.0,2784.3417830511116,0.317899110961186,1.321123754955931,0.9556739717712512,0.2875253213092335,0.6711719834279439
0.0345,1.772526920003841,1.0,2793.385350550652,0.3217251704806258,1.3207608118060525,0.9566326353805898,0.2874991306401613,0.6719148648262824
0.035,1.7719033326449798,1.0,2802.1942755639475,0.3255297610652029,1.3204001051124887,0.957554937441725,0.28747293997108914,0.6726523362369458
0.035500000000000004,1.7712797452861189,1.0,2810.7774043765507,0.32931300329126134,1.3200415450989702,0.9584427218530416,0.28744674930201697,0.6733845963350249
0.036000000000000004,1.770656157927258,1.0,2819.1436760568618,0.3330750177351452,1.3196850419892268,0.959297716405538,0.2874205586329448,0.6741118428837574
0.0365,1.770032570568397,1.0,2827.302118272396,0.33681592497319846,1.319330506006989,0.9601215414228885,0.2873943679638727,0.674834272746557
0.037,1.7694089832095359,1.0,2835.261843284816,0.3405358455817653,1.3189778473759872,0.9609157176649702,0.2873681772948005,0.6755520818985377
0.0375,1.768785395850675,1.0,2843.0320441240283,0.3442349001371897,1.3186269763199516,0.9616816735651743,0.28734198662572835,0.676265465437516
0.038,1.768161808491814,1.0,2850.6219909405104,0.34791320921581576,1.3182778030626123,0.9624207518644357,0.2873157959566562,0.6769746175945057
0.0385,1.7675382211329531,1.0,2858.041027536737,0.3515708933939875,1.3179302378276998,0.9631342156983642,0.287289605287584,0.6776797317436933
0.039,1.766914633774092,1.0,2865.289985944887,0.35520805179180515,1.317584266976327,0.9638232570296277,0.28726341461851185,0.6783808462025163
0.0395,1.766291046415231,1.0,2872.380052800638,0.35882481786233655,1.317239785340478,0.9644889971333955,0.28723722394943974,0.6790781843020646
0.04,1.7656674590563701,1.0,2879.3171120435145,0.3624213054487939,1.3168967353366956,0.9651324935840142,0.28721103328036757,0.679771872235154
0.0405,1.765043871697509,1.0,2886.1058568962626,0.36599762474803327,1.316555070308062,0.9657547444154774,0.2871848426112954,0.6804620135913838
0.041,1.764420284338648,1.0,2892.7510184769462,0.3695538859569105,1.3162147435976599,0.9663566918419372,0.28715865194222323,0.681148711516155
0.0415,1.7637966969797871,1.0,2899.2573643903834,0.37309019927228176,1.3158757085485717,0.9669392259630261,0.28713246127315106,0.681832068714725
0.042,1.7631731096209262,1.0,2905.629697368054,0.37660667489100297,1.31553791850388,0.9675031881862621,0.2871062706040789,0.6825121874561185
0.0425,1.762549522262065,1.0,2911.8728539558633,0.38010342300993016,1.315201326806667,0.9680493743908348,0.2870800799350067,0.683189169576903
0.043000000000000003,1.7619259349032041,1.0,2917.9917032503745,0.3835805538259193,1.3148658868000151,0.9685785378547602,0.28705388926593456,0.6838631164848217
0.043500000000000004,1.7613023475443432,1.0,2923.9911456835434,0.3870381775358265,1.314531551827007,0.9690913919653283,0.2870276985968624,0.684534129162292
0.044,1.7606787601854823,1.0,2929.876111855104,0.3904764043365076,1.314198275230725,0.9695886127309085,0.2870015079277902,0.6852023081697626
0.0445,1.7600551728266212,1.0,2935.6515614139366,0.3938953444248187,1.3138660103542517,0.9700708411105075,0.28697531725871805,0.6858677536489312
0.045,1.7594315854677602,1.0,2941.322481987252,0.39729510799761586,1.3135347105406694,0.9705386851759812,0.28694912658964594,0.6865305653258249
0.0455,1.7588079981088993,1.0,2946.8910985314456,0.40067579161437517,1.3132043535365137,0.9709927220381728,0.2869229359205738,0.6871907937684139
0.046,1.7581844107500382,1.0,2952.3611448421752,0.40403750272729577,1.3128749040378933,0.971433500392399,0.2868967452515016,0.6878485153803542
0.0465,1.7575608233911773,1.0,2957.7411357852366,0.4073803729750671,1.3125462851730714,0.971861541850598,0.28687055458242944,0.6885038891087792
0.047,1.7569372360323163,1.0,2963.0335668045054,0.4107045035404419,1.312218472906287,0.9722773420372587,0.28684436391335727,0.6891569680359254
0.0475,1.7563136486734554,1.0,2968.240947605207,0.4140099956061733,1.3118914432017779,0.972681372442506,0.28681817324428516,0.6898078050303322
0.048,1.7556900613145943,1.0,2973.3658017300663,0.4172969503550141,1.3115651720237829,0.9730740818228708,0.286791982575213,0.6904564527480568
0.0485,1.7550664739557333,1.0,2978.4106661490537,0.42056546896971725,1.3112396353365403,0.9734558975081898,0.2867657919061408,0.6911029636338566
0.049,1.7544428865968724,1.0,2983.378090861394,0.42381565263303567,1.3109148091042886,0.9738272266217339,0.28673960123706865,0.6917473899223335
0.0495,1.7538192992380113,1.0,2988.270638510655,0.4270476025277222,1.3105906692912663,0.9741884572200787,0.2867134105679965,0.6923897836390409
0.05,1.7531957118791504,1.0,2993.0908840123743,0.43026141983652993,1.3102671918617117,0.9745399593586747,0.2866872198989243,0.6930301966015555
0.0505,1.7525721245202894,1.0,2997.8414141948356,0.4334572057422117,1.3099443527798633,0.9748820860885921,0.28666102922985215,0.693668680420509
0.051000000000000004,1.7519485371614285,1.0,3002.5248274523797,0.4366350614275204,1.3096221280099598,0.9752151743894618,0.28663483856078,0.694305286500587
0.051500000000000004,1.7513249498025674,1.0,3007.1437334117313,0.43979508807520895,1.3093004935162391,0.9755395460432342,0.2866086478917078,0.694940066041489
0.052000000000000005,1.7507013624437064,1.0,3011.700752610891,0.44293738686803025,1.30897942526294,0.9758555084529941,0.28658245722263564,0.6955730700388496
0.0525,1.7500777750848455,1.0,3016.1985161909815,0.4460620589887373,1.3086588992143011,0.9761633554107436,0.2865562665535635,0.6962043492851273
0.053,1.7494541877259846,1.0,3020.639665601236,0.44916920562008295,1.3083388913345604,0.9764633678177504,0.28653007588449136,0.6968339543704534
0.0535,1.7488306003671235,1.0,3025.0265835037494,0.4522589252788031,1.3080193799089368,0.976755814234751,0.2865038852154192,0.6974619311240882
0.054,1.7482070130082625,1.0,3029.357298362279,0.45533127757685044,1.3077003808683594,0.9770409500917475,0.28647769454634703,0.6980882513184521
0.0545,1.7475834256494016,1.0,3033.639153341905,0.45838641754978016,1.3073818298020368,0.9773190244638952,0.28645150387727486,0.6987130443480603
0.055,1.7469598382905405,1.0,3037.8733352978447,0.46142443678694317,1.3070637155359783,0.9775902728399655,0.2864253132082027,0.699336334825382
0.0555,1.7463362509316795,1.0,3042.0610359928196,0.4644454268776905,1.306746026896193,0.977854920850323,0.2863991225391305,0.699958147268495
0.056,1.7457126635728186,1.0,3046.203451990187,0.4674494794113731,1.3064287527086906,0.9781131847609127,0.2863729318700584,0.7005785061013907
0.0565,1.7450890762139577,1.0,3050.3017845497434,0.47043668597734184,1.3061118817994801,0.978365271938577,0.28634674120098624,0.7011974356542765
0.057,1.7444654888550966,1.0,3054.357239526701,0.4734071381649478,1.305795402994571,0.9786113812895878,0.2863205505319141,0.7018149601638644
0.0575,1.7438419014962356,1.0,3058.371027272997,0.47636092756354187,1.305479305119973,0.9788517036731381,0.2862943598628419,0.7024311037736559
0.058,1.7432183141373747,1.0,3062.344362541598,0.479298145762475,1.305163577001695,0.9790864222914164,0.28626816919376974,0.7030458905342175
0.0585,1.7425947267785138,1.0,3066.2784643933774,0.48221888435109816,1.3048482074657464,0.9793157130577628,0.28624197852469757,0.703659344403448
0.059000000000000004,1.7419711394196526,1.0,3070.1745561071693,0.4851232349187623,1.3045331853381366,0.9795397449443071,0.2862157878556254,0.7042714892468374
0.059500000000000004,1.7413475520607917,1.0,3074.033865092004,0.48801128905481844,1.304218499444875,0.9797586803103817,0.28618959718655324,0.7048823488377189
0.06,1.7407239647019308,1.0,3077.8576228024945,0.49088313834861746,1.303904138611971,0.9799726752129158,0.28616340651748107,0.7054919468575126
0.0605,1.7401003773430697,1.0,3081.647064657196,0.49373887438951036,1.303590091665434,0.9801818796999321,0.2861372158484089,0.7061003068959613
0.061,1.7394767899842087,1.0,3085.403429959183,0.49657858876684813,1.303276347431273,0.9803864380881916,0.28611102517933673,0.7067074524513579
0.0615,1.7388532026253478,1.0,3089.1279618197045,0.49940237306998164,1.3029628947354976,0.9805864892259514,0.2860848345102646,0.7073134069307646
0.062,1.738229615266487,1.0,3092.821907084463,0.502210318888262,1.3026497224041174,0.9807821667417485,0.28605864384119245,0.7079181936502255
0.0625,1.7376060279076257,1.0,3096.486516263129,0.5050025178110399,1.3023368192631415,0.9809735992800472,0.2860324531721203,0.7085218358349699
0.063,1.7369824405487648,1.0,3100.1221277119434,0.5077790432716045,1.3020241819489995,0.9811609097946744,0.2860062625030481,0.7091243415753752
0.0635,1.736358853189904,1.0,3103.7293544102204,0.5105399826764738,1.3017118047691516,0.9813442176382806,0.28598007183397595,0.7097257234149916
0.064,1.735735265831043,1.0,3107.3103464907335,0.513285452887341,1.3013996689529697,0.9815236392578272,0.28595388116490383,0.7103260189892867
0.0645,1.7351116784721818,1.0,3110.865665216162,0.5160155363645805,1.3010877693046,0.9816992851171691,0.28592769049583167,0.7109252397167731
0.065,1.734488091113321,1.0,3114.3958736213035,0.5187303155685675,1.3007761006281875,0.9818712617300961,0.2859014998267595,0.711523396973541
0.0655,1.73386450375446,1.0,3117.9015364855363,0.5214298729596765,1.3004646577278787,0.9820396718301652,0.28587530915768733,0.7121205020933314
0.066,1.7332409163955989,1.0,3121.3832203070024,0.5241142909982824,1.3001534354078188,0.9822046145320551,0.28584911848861516,0.7127165663676159
0.0665,1.732617329036738,1.0,3124.8414932766154,0.5267836521447602,1.2998424284721537,0.9823661854849217,0.285822927819543,0.7133116010456677
0.067,1.731993741677877,1.0,3128.2769252528788,0.5294380388594845,1.2995316317250292,0.9825244770182047,0.2857967371504708,0.713905617334635
0.0675,1.731370154319016,1.0,3131.69008773769,0.5320775336028302,1.2992210399705908,0.9826795782803109,0.28577054648139866,0.7144986263996114
0.068,1.730746566960155,1.0,3135.0815538521797,0.534702218835172,1.2989106480129846,0.9828315753705662,0.2857443558123265,0.7150906393637042
0.0685,1.730122979601294,1.0,3138.451898313466,0.5373121770168849,1.298600450656356,0.9829805514648071,0.2857181651432543,0.715681667308103
0.069,1.729499392242433,1.0,3141.8016974120064,0.5399074906083436,1.2982904427048507,0.9831265869349636,0.28569197447418215,0.7162717212721434
0.0695,1.728875804883572,1.0,3145.131528989271,0.542488242069923,1.2979806189626146,0.9832697594629575,0.28566578380511,0.7168608122533708
0.07,1.728252217524711,1.0,3148.441972416571,0.5450545138619978,1.2976709742337933,0.9834101441492235,0.2856395931360379,0.7174489512076032
0.07050000000000001,1.72762863016585,1.0,3151.733608573611,0.5476063884449428,1.2973615033225325,0.9835478136161426,0.2856134024669657,0.7180361490489907
