Time [s],Phi [rad],STIM [ ],Fsee [N],Gamma [ ],Lcerel [ ],q [ ],Lmtc [m],fisomrel [ ]
0.0,1.8,1.0,17.966826100545727,1.0010062369898782e-05,1.379339783422506,0.005000026705226192,0.288653,0.5411394410489994
0.0005,1.79999375,1.0,18.27619211514535,0.005619163222630863,1.3793024491098573,0.012940543121264188,0.2886527375,0.5412297579695922
0.001,1.799975,1.0,21.6178368865339,0.011196853468584789,1.3789383577442018,0.03560863293310254,0.28865195,0.542110079815457
0.0015,1.79994375,1.0,31.068617768145863,0.0167432572831655,1.3780462564008324,0.07060178358721578,0.2886506375,0.5442634822108293
0.002,1.7999,1.0,53.58152747592372,0.022258550157655318,1.376368187503139,0.1147179298745912,0.2886488,0.5483003425880166
0.0025,1.79984375,1.0,97.11775082948671,0.027742906599249245,1.3739352244496144,0.1645747747680827,0.28864643749999996,0.5541213262621701
0.003,1.7997750000000001,1.0,160.95690304093998,0.03319650013877185,1.37121439106085,0.21728033041838676,0.28864354999999997,0.5605863388690123
0.0035,1.79969375,1.0,237.68205943979345,0.038619503330268624,1.3685847734173495,0.270612763956411,0.2886401375,0.5667897474645444
0.004,1.7996,1.0,321.46553911823247,0.0440120877617883,1.366156125033016,0.3229156799463834,0.2886362,0.5724798855255302
0.0045000000000000005,1.7994937500000001,1.0,409.26658379309856,0.049374424060567225,1.3639228415604463,0.3730343914826883,0.2886317375,0.5776790988219717
0.005,1.799375,1.0,499.4123918793012,0.054706681884121484,1.361858365982864,0.42024735208043373,0.28862675,0.582457024771083
0.0055,1.79924375,1.0,590.789360084885,0.06000902996770084,1.3599388556902585,0.4641735979195957,0.2886212375,0.5868750642997043
0.006,1.7991000000000001,1.0,682.5171055296781,0.06528163606746933,1.35814643297561,0.5046798703969376,0.2886152,0.5909793767437718
0.006500000000000001,1.79894375,1.0,773.8805419693106,0.07052466701586692,1.3564672658380206,0.5418006746934153,0.2886086375,0.5948057665368813
0.007,1.798775,1.0,864.2846574768924,0.07573828870618092,1.3548904136327593,0.5756767088707517,0.28860155,0.5983826349220951
0.0075,1.79859375,1.0,953.2417039817217,0.08092266610098292,1.3534068024384929,0.6065098553075702,0.2885939375,0.6017335203769135
0.008,1.7984,1.0,1040.3532575230881,0.08607796317882006,1.3520087228610558,0.6345320376923945,0.2885858,0.6048783770080626
0.0085,1.79819375,1.0,1125.318498009569,0.09120434327234613,1.3506891810440345,0.6599843433711062,0.2885771375,0.6078351348809452
0.009000000000000001,1.797975,1.0,1207.8833035056539,0.096301968298365,1.34944226565656,0.6831042709500079,0.28856795,0.610618950806155
0.0095,1.79774375,1.0,1287.870417445816,0.10137099959497493,1.348262412121781,0.7041175870939111,0.2885582375,0.6132439167829042
0.01,1.7975,1.0,1365.1630061121166,0.10641159792786281,1.3471444372447485,0.7232342143320187,0.288548,0.6157230219707489
0.0105,1.79724375,1.0,1439.6598899948426,0.11142392228960044,1.3460839414962567,0.7406466216457407,0.2885372375,0.6180673005051518
0.011,1.796975,1.0,1511.30924176722,0.11640813114498981,1.345076712107084,0.756529169849247,0.28852595000000003,0.6202871899278213
0.0115,1.79669375,1.0,1580.1124643838857,0.1213643830531857,1.3441185851788027,0.771038626206438,0.2885141375,0.6223928550208518
0.012,1.7964,1.0,1646.0656497909042,0.1262928344839184,1.3432060638394943,0.7843155194445373,0.28850180000000003,0.6243928499483451
0.0125,1.79609375,1.0,1709.1779374967095,0.1311936407974495,1.3423359892742428,0.7964852836103485,0.2884889375,0.6262948674988059
0.013000000000000001,1.7957750000000001,1.0,1769.4932023104736,0.13606695720390816,1.3415052234867009,0.8076595310815052,0.28847555,0.6281064487605181
0.0135,1.79544375,1.0,1827.0751248229365,0.14091293823597972,1.3407107773192837,0.8179375160668134,0.2884616375,0.629834713706918
0.014,1.7951000000000001,1.0,1881.9894837565305,0.14573173787755625,1.3399499603034877,0.8274075257599014,0.2884472,0.6314860474797741
0.0145,1.79474375,1.0,1934.2897027468055,0.1505235075811814,1.3392204874053344,0.8361481399220129,0.2884322375,0.6330658830500235
0.015,1.794375,1.0,1984.0502147891011,0.15528839879939876,1.3385200735908447,0.8442292045882204,0.28841675,0.6345795911226055
0.0155,1.79399375,1.0,2031.353066868007,0.16002656208761218,1.3378465558304549,0.8517128937168741,0.2884007375,0.6360322216629444
0.016,1.7936,1.0,2076.295879766546,0.16473814891449626,1.337197785782665,0.8586545812663213,0.2883842,0.6374287412731761
0.0165,1.7931937500000001,1.0,2118.9593486941753,0.16942330837874817,1.336571948759484,0.865103739562349,0.2883671375,0.6387733523859798
0.017,1.792775,1.0,2159.4121173556973,0.17408218747463314,1.335967483923576,0.8711046094114695,0.28834955,0.6400696739351457
0.0175,1.7923437500000001,1.0,2197.733626480003,0.17871493319641643,1.3353828304376043,0.8766967447666745,0.2883314375,0.6413212916060624
0.018000000000000002,1.7919,1.0,2234.013205861787,0.18332169253836325,1.3348164274642325,0.8819155639265771,0.2883128,0.6425317598854858
0.0185,1.79144375,1.0,2268.3343490822185,0.18790261095903474,1.3342668624463045,0.8867928699065881,0.2882936375,0.6437042878517325
0.019,1.790975,1.0,2300.793316300564,0.19245783557159243,1.3337326737636295,0.8913572202096319,0.28827395,0.644842163464856
0.0195,1.79049375,1.0,2331.46127579373,0.19698750960643827,1.333212717981114,0.8956343843746807,0.2882537375,0.6459479737743579
0.02,1.79,1.0,2360.406781921187,0.20149177527725184,1.3327059339118168,0.8996476034616735,0.288233,0.6470241120531435
0.0205,1.78949375,1.0,2387.703506109264,0.20597077479771267,1.3322112603687966,0.9034178551264128,0.2882117375,0.64807295435005
0.021,1.788975,1.0,2413.429806609564,0.21042465038150035,1.3317276361651125,0.9069641048575674,0.28818995000000003,0.649096860345366
0.021500000000000002,1.78844375,1.0,2437.654296993085,0.21485354215347086,1.331254135023067,0.9103035539587129,0.2881676375,0.650097889126657
0.022,1.7879,1.0,2460.462342575543,0.2192575933012429,1.3307897051303201,0.9134517790035093,0.2881448,0.6510783513386348
0.0225,1.78734375,1.0,2481.9137877189055,0.2236369422201388,1.3303335718150662,0.9164229821328483,0.28812143749999997,0.6520399596042746
0.023,1.786775,1.0,2502.064015474884,0.22799172611215823,1.3298850288674782,0.9192300955538715,0.28809755,0.6529842720953543
0.0235,1.78619375,1.0,2520.970817205674,0.23232208217930095,1.3294433700777295,0.9218849010800768,0.28807313749999996,0.653912837729044
0.024,1.7856,1.0,2538.6941908746876,0.2366281476235666,1.3290078892359927,0.9243981483562701,0.2880482,0.6548271964938673
0.0245,1.78499375,1.0,2555.2946360724936,0.2409100592943475,1.3285778943585125,0.9267796618517147,0.2880227375,0.6557288499328005
0.025,1.784375,1.0,2570.8237310645177,0.24516795157402205,1.328152794044908,0.9290384471677708,0.28799675,0.6566190808690056
0.025500000000000002,1.78374375,1.0,2585.3526651379266,0.24940196341985119,1.32773182803739,0.931182729456962,0.2879702375,0.6574995181481844
0.026000000000000002,1.7831000000000001,1.0,2598.9227858382205,0.25361222668580047,1.327314528837365,0.9332201002520175,0.2879432,0.6583711709565492
0.0265,1.78244375,1.0,2611.57656204588,0.25779887322583545,1.3269004289462405,0.9351575334682873,0.2879156375,0.6592350432230993
0.027,1.781775,1.0,2623.3574898798383,0.26196203489392184,1.3264890608654234,0.937001443933185,0.28788755,0.6600921337219829
0.0275,1.7810937500000001,1.0,2634.310003445438,0.2661018435440251,1.326079957096321,0.9387577396567675,0.2878589375,0.6609434361609101
0.028,1.7804,1.0,2644.4793904292596,0.27021843103011084,1.3256726501403406,0.9404318685802534,0.2878298,0.6617899392556355
0.0285,1.77969375,1.0,2653.9068990442793,0.27431192644826785,1.3252667168704606,0.9420288657416286,0.2878001375,0.6626325347458917
0.029,1.778975,1.0,2662.634592483122,0.2783824628720435,1.3248617328037575,0.9435533864035194,0.28776995,0.6634721127542731
0.029500000000000002,1.7782437500000001,1.0,2670.696137799077,0.2824301682689884,1.3244573561670618,0.9450097477523459,0.2877392375,0.6643093878478329
0.03,1.7775,1.0,2678.1236507586955,0.28645516915382707,1.324053263959951,0.9464019510439653,0.287708,0.6651450322605306
0.0305,1.77674375,1.0,2684.94968509596,0.2904575920412839,1.3236491331820026,0.9477337068961944,0.2876762375,0.6659797148932982
0.031,1.775975,1.0,2691.2071912047677,0.29443756344608324,1.323244640832794,0.9490084600578966,0.28764395,0.6668141013165753
0.0315,1.7751937500000001,1.0,2696.9294771441,0.29839520988294954,1.3228394639119025,0.9502294117761009,0.2876111375,0.6676488537661842
0.032,1.7744,1.0,2702.1418836666967,0.3023306530322495,1.322433355136692,0.9513995477969328,0.2875778,0.6684844754314281
0.0325,1.77359375,1.0,2706.8750593779496,0.3062440206318528,1.3220260211276873,0.9525216445719961,0.2875439375,0.6693215615965251
0.033,1.772775,1.0,2711.166058274887,0.31013544397053583,1.3216171123511762,0.9535982843024023,0.28750955,0.6701608196520756
0.0335,1.7719437500000002,1.0,2715.034355275299,0.31400504299797977,1.3212064416558722,0.9546318914888939,0.2874746375,0.671002620659352
0.034,1.7711000000000001,1.0,2718.4995874341134,0.317852937663866,1.3207938218904884,0.9556247300083428,0.2874392,0.6718473336635638
0.0345,1.7702437500000001,1.0,2721.5815382188184,0.3216792479178758,1.320379065903738,0.9565789156502924,0.2874032375,0.6726953256717102
0.035,1.7693750000000001,1.0,2724.3001225606577,0.3254840937096904,1.3199619865443342,0.9574964275350885,0.28736675,0.6735469616281995
0.035500000000000004,1.76849375,1.0,2726.675372683159,0.32926759498899116,1.3195423966609898,0.958379118525058,0.2873297375,0.6744026043882354
0.036000000000000004,1.7676,1.0,2728.7274247067353,0.3330298717054594,1.3191201091024183,0.9592287247280145,0.2872922,0.675262614688969
0.0365,1.76669375,1.0,2730.476506029961,0.33677104380877626,1.3186949367173328,0.9600468741815995,0.2872541375,0.6761273511184159
0.037,1.765775,1.0,2731.942923487739,0.34049123124862324,1.3182666923544464,0.9608350947974883,0.28721555,0.6769971700821434
0.0375,1.76484375,1.0,2733.140045142575,0.34419054822594386,1.3178352525122854,0.9615948266368358,0.2871764375,0.6778722967488897
0.038,1.7639,1.0,2734.0868798636648,0.3478691159728361,1.3174004429427564,0.9623274198520658,0.28713679999999997,0.6787530574609122
0.0385,1.76294375,1.0,2734.803950593778,0.35152705580647825,1.316962076098748,0.9630341431887612,0.28709663750000003,0.6796398033009297
0.039,1.761975,1.0,2735.3024112962908,0.35516448053812405,1.3165200498812821,0.9637161971966149,0.28705595,0.680532710533006
0.0395,1.7609937500000001,1.0,2735.593447184468,0.3587815029790273,1.3160742621913812,0.9643747127787841,0.2870147375,0.681431954018412
0.04,1.76,1.0,2735.688270341224,0.3623782359404417,1.3156246109300678,0.9650107559734975,0.286973,0.6823377071914648
0.0405,1.7589937500000001,1.0,2735.5981155710633,0.365954792233621,1.3151709939983638,0.9656253323585009,0.2869307375,0.6832501420347046
0.041,1.757975,1.0,2735.3342364823434,0.369511284669819,1.3147133092972918,0.9662193911117525,0.28688795,0.6841694290534029
0.0415,1.75694375,1.0,2734.907901801057,0.37304782606028936,1.314251454727874,0.9667938287585108,0.2868446375,0.6850957372494098
0.042,1.7559,1.0,2734.330391915901,0.37656452921628586,1.3137853281911327,0.9673494926320426,0.28680079999999997,0.686029234094334
0.0425,1.75484375,1.0,2733.6129956540667,0.38006150694906227,1.3133148275880904,0.9678871840725558,0.2867564375,0.6869700855020575
0.043000000000000003,1.753775,1.0,2732.760531791132,0.3835388657205103,1.3128399096444305,0.9684076651630753,0.28671155,0.6879183384364302
0.043500000000000004,1.75269375,1.0,2731.7862623513424,0.3869967214457148,1.3123604544382466,0.9689116528261218,0.28666613750000003,0.6888741916553958
0.044,1.7516,1.0,2730.7021862755746,0.39043518664788673,1.3118763535203408,0.9693998266686495,0.2866202,0.689837819243799
0.0445,1.75049375,1.0,2729.5143165955706,0.3938543674246734,1.3113875528298764,0.9698728342174213,0.2865737375,0.6908092855313168
0.045,1.7493750000000001,1.0,2728.2286673450917,0.397254369873722,1.3108939983060153,0.970331289665195,0.28652675,0.6917886537541434
0.0455,1.74824375,1.0,2726.8512524587127,0.4006353000926798,1.3103956358879203,0.9707757759076593,0.2864792375,0.6927759860386914
0.046,1.7471,1.0,2725.388084736186,0.40399726417919396,1.3098924115147539,0.9712068464368608,0.2864312,0.6937713433851098
0.0465,1.7459437500000001,1.0,2723.8451748712246,0.4073403682309118,1.3093842711256785,0.9716250271025229,0.28638263750000004,0.6947747856506145
0.047,1.744775,1.0,2722.2285305448413,0.41066471834548046,1.3088711606598569,0.9720308177516368,0.28633355,0.6957863715326305
0.0475,1.74359375,1.0,2720.544155584579,0.41397042062054723,1.308353026056451,0.972424693755827,0.28628393750000003,0.6968061585517525
0.048,1.7424,1.0,2718.798049186594,0.4172575811537593,1.3078298132546242,0.9728071074351395,0.2862338,0.6978342030345127
0.0485,1.74119375,1.0,2716.9919264972586,0.42052629529452407,1.307301507174778,0.9731784907727108,0.2861831375,0.6988704836993299
0.049,1.739975,1.0,2715.135212061052,0.4237766781875365,1.30676802247537,0.9735392528042625,0.28613195,0.6999151160285425
0.0495,1.73874375,1.0,2713.233741342412,0.42700883633642917,1.3062293064340893,0.9738897844488212,0.2860802375,0.7009681501304101
0.05,1.7375,1.0,2711.2904257169266,0.43022286891018935,1.305685332934004,0.9742304593058724,0.286028,0.7020295830007245
0.0505,1.73624375,1.0,2709.3081735018027,0.4334188750778043,1.3051360758581811,0.9745616337170689,0.2859752375,0.70309941074576
0.051000000000000004,1.734975,1.0,2707.289889739457,0.43659695400826126,1.3045815090896886,0.974883647714389,0.28592195,0.7041776285734946
0.051500000000000004,1.73369375,1.0,2705.238475995304,0.4397572048705476,1.3040216065115935,0.9751968259080778,0.2858681375,0.705264230784789
0.052000000000000005,1.7324,1.0,2703.1568301711277,0.44289972683365053,1.3034563420069638,0.9755014783186923,0.2858138,0.7063592107645174
0.0525,1.73109375,1.0,2701.0478463337154,0.44602461906655727,1.3028856894588667,0.9757979011572301,0.28575893750000003,0.7074625609726625
0.053,1.729775,1.0,2698.914414558143,0.4491319807382553,1.3023096227503699,0.9760863775569983,0.28570355000000003,0.7085742729353606
0.0535,1.72844375,1.0,2696.759420786718,0.45222191101773174,1.3017281157645408,0.976367178260602,0.2856476375,0.7096943372359051
0.054,1.7271,1.0,2694.5857467025803,0.4552945090739739,1.3011411423844472,0.9766405622651609,0.2855912,0.7108227435057082
0.0545,1.7257437500000001,1.0,2692.396269618792,0.4583498740759691,1.3005486764931562,0.9769067774286295,0.2855342375,0.7119594804152173
0.055,1.724375,1.0,2690.1911425983467,0.46138807196896064,1.2999507168754971,0.9771660593295112,0.28547675,0.7131044880289393
0.0555,1.72299375,1.0,2687.9774728247517,0.46440924197879646,1.299347198618994,0.9774186368377374,0.2854187375,0.714257827420155
0.056,1.7216,1.0,2685.756807813032,0.46741347939039424,1.2987381076501356,0.9776647280140999,0.2853602,0.7154194612168876
0.0565,1.72019375,1.0,2683.530251228553,0.470400875115755,1.2981234339413326,0.9779045416979405,0.28530113749999997,0.7165893435428187
0.057,1.718775,1.0,2681.298904951114,0.4733715200668797,1.2975031674649946,0.978138278137446,0.28524155,0.7177674277687991
0.0575,1.71734375,1.0,2679.063869061442,0.47632550515576916,1.296877298193532,0.9783661294103637,0.2851814375,0.7189536665092753
0.058,1.7159,1.0,2676.8262418313384,0.4792629212944243,1.2962458160993542,0.978588279820839,0.2851208,0.7201480116187106
0.0585,1.71444375,1.0,2674.587119715114,0.48218385939484615,1.2956087111548715,0.9788049062739157,0.2850596375,0.7213504141879966
0.059000000000000004,1.7129750000000001,1.0,2672.347597343387,0.4850884103690355,1.2949659733324943,0.9790161786291139,0.28499795,0.7225608245408618
0.059500000000000004,1.71149375,1.0,2670.1087675195595,0.48797666512899335,1.294317592604632,0.9792222600344184,0.2849357375,0.7237791922302739
0.06,1.71,1.0,2667.8717212177776,0.4908487145867206,1.293663558943695,0.9794233072419003,0.284873,0.7250054660348311
0.0605,1.7084937500000001,1.0,2665.6375475839727,0.4937046496542182,1.293003862322093,0.9796194709061206,0.2848097375,0.7262395939551531
0.061,1.7069750000000001,1.0,2663.4073339384045,0.496544561243487,1.292338492712236,0.9798108958663767,0.28474595,0.7274815232102612
0.0615,1.7054437500000001,1.0,2661.182165780706,0.49936854026652805,1.2916674400865347,0.9799977214137869,0.2846816375,0.7287312002339532
0.062,1.7039,1.0,2658.9631267976692,0.5021766776353421,1.2909906944173983,0.9801800815441324,0.2846168,0.7299885706711744
0.0625,1.70234375,1.0,2656.7512988720955,0.5049690642619302,1.290308245677237,0.9803581051973203,0.2845514375,0.7312535793743782
0.063,1.7007750000000001,1.0,2654.5477620949764,0.5077457910582933,1.289620083838461,0.980531916484269,0.28448555,0.7325261703998813
0.0635,1.69919375,1.0,2652.3503604551233,0.5105069471266416,1.288926228696758,0.9807016362928337,0.28441913750000003,0.7338062320506018
0.064,1.6976,1.0,2650.16268728904,0.5132526162926516,1.2882266470449129,0.9808673779874781,0.2843522,0.7350937497871404
0.0645,1.69599375,1.0,2647.9861538463542,0.515982884510056,1.2875213257585059,0.9810292519457137,0.2842847375,0.7363886710270127
0.065,1.694375,1.0,2645.8194222338725,0.5186978378099277,1.286810277072789,0.9811873658064573,0.28421675,0.7376908959356825
0.0655,1.69274375,1.0,2643.661156778242,0.5213975622233391,1.2860935132230142,0.9813418233325452,0.2841482375,0.739000324272044
0.066,1.6911,1.0,2641.5035897485723,0.5240821432056679,1.2853711058955355,0.9814927274609672,0.2840792,0.7403167471937471
0.0665,1.6894447901894496,1.0,2639.4191574786005,0.526751666331373,1.2846428552905589,0.9816401642490488,0.2840096811879569,0.7416404494006312
0.067,1.6877873896733684,1.0,2637.821611367704,0.5294062154907724,1.283909120873792,0.9817842436461794,0.28394007036628144,0.7429706986118321
0.0675,1.6861299891572872,1.0,2636.774472223776,0.5320458744506381,1.2831703004647883,0.9819250737014479,0.28387045954460605,0.744306699409061
0.068,1.684472588641206,1.0,2636.234904760442,0.5346707268843343,1.2824267872163233,0.9820627586096348,0.28380084872293065,0.7456476717559491
0.0685,1.6828151881251248,1.0,2636.1607007468438,0.5372808560472493,1.2816789700760611,0.9821973988784883,0.2837312379012552,0.7469928501814077
0.069,1.6811577876090436,1.0,2636.511216469614,0.5398763448566525,1.2809272247553252,0.9823290910666911,0.2836616270795798,0.7483414999721653
0.0695,1.6795003870929623,1.0,2637.254309835581,0.5424572748746104,1.2801718492616105,0.9824579248658768,0.2835920162579044,0.7496930321470963
0.07,1.6778429865768811,1.0,2638.357913237262,0.5450237276631895,1.2794131416024122,0.9825839870579419,0.283522405436229,0.7510468632011172
0.07050000000000001,1.6761855860608,1.0,2639.7960534163562,0.5475757829810807,1.2786513439323832,0.9827073589450844,0.2834527946145536,0.7524025144281782
0.07100000000000001,1.6745281855447187,1.0,2641.5345617238363,0.5501135234035482,1.2778867744841726,0.9828281228941467,0.2833831837928782,0.7537593768073424
0.07150000000000001,1.6728707850286377,1.0,2643.5404105604375,0.5526370317404231,1.2771197410428297,0.9829463582207107,0.2833135729712028,0.7551168658302138
0.07200000000000001,1.6712133845125563,1.0,2645.7959962983646,0.5551463862407389,1.2763504089335376,0.9830621350380313,0.28324396214952735,0.7564746539613092
0.0725,1.6695559839964753,1.0,2648.2837216622725,0.5576416651535289,1.2755789434814797,0.9831755212594523,0.28317435132785196,0.7578324168036716
0.073,1.667898583480394,1.0,2650.98598760583,0.5601229467278269,1.2748055100118396,0.9832865826860813,0.28310474050617657,0.7591898331222344
0.0735,1.666241182964313,1.0,2653.885185795451,0.5625903092126663,1.2740302738498004,0.9833953830904647,0.2830351296845011,0.7605465848654446
0.074,1.6645837824482317,1.0,2656.9636916994796,0.5650438308570807,1.2732534003205456,0.9835019842964672,0.2829655188628257,0.7619023571851392
0.0745,1.6629263819321505,1.0,2660.203858283046,0.5674835899101034,1.2724750547492583,0.9836064462555476,0.28289590804115033,0.7632568384546834
