Time [s],Phi [rad],STIM [ ],Fsee [N],Gamma [ ],Lcerel [ ],q [ ],Lmtc [m],fisomrel [ ]
0.0,1.8,1.0,17.97022607618764,6.410986126055856e-05,1.3793394025260282,0.005001079461903991,0.288653,0.5411403625357014
0.0005,1.79999375,1.0,18.297631948251034,0.005672959564449907,1.379300068223814,0.013091417641726125,0.2886527375,0.5412355173641905
0.001,1.799975,1.0,21.67953464438412,0.011250348055461526,1.378932060636784,0.03589109826156152,0.28865195,0.5421252979003846
0.0015,1.79994375,1.0,31.216190305879724,0.016796451807728877,1.3780336984967647,0.07098808703806614,0.2886506375,0.5442937589313048
0.002,1.7999,1.0,53.90045085974716,0.022311446302950573,1.376347527927744,0.11517521816708376,0.2886488,0.5483499305570025
0.0025,1.79984375,1.0,97.65438139199425,0.027795506039027085,1.373909400968779,0.1650721374899618,0.28864643749999996,0.5541829077396969
0.003,1.7997750000000001,1.0,161.6554203396289,0.033248804537274565,1.3711882730967981,0.21779336159482204,0.28864354999999997,0.5606481693731404
0.0035,1.79969375,1.0,238.47144444040373,0.03867151434241862,1.3685604783614427,0.2711229844197877,0.2886401375,0.5668468551976549
0.004,1.7996,1.0,322.3054371158641,0.04406380703326575,1.366133893811932,0.3234096815304836,0.2886362,0.5725317978383702
0.0045000000000000005,1.7994937500000001,1.0,410.13634917690314,0.04942585322792006,1.363902435658335,0.37350330721961933,0.2886317375,0.5777264582969752
0.005,1.799375,1.0,500.2998972393258,0.05475782257516573,1.3618395149179938,0.42068604301390644,0.28862675,0.5825005275634915
0.0055,1.79924375,1.0,591.6846999849367,0.06005988379889918,1.3599213695267636,0.46457974850134054,0.2886212375,0.5869152033098818
0.006,1.7991000000000001,1.0,683.4135363972646,0.06533220464858046,1.3581301435834827,0.5050531129774576,0.2886152,0.5910165824517668
0.006500000000000001,1.79894375,1.0,774.7733566649732,0.07057495195232666,1.3564520292916067,0.5421419213652579,0.2886086375,0.5948404043810445
0.007,1.798775,1.0,865.1624232514617,0.07578829148153572,1.3548762384915438,0.575987731669224,0.28860155,0.5984147173281025
0.0075,1.79859375,1.0,954.1091009534846,0.0809723884381402,1.3533934639996996,0.6067926890682189,0.2885939375,0.6017635829154752
0.008,1.7984,1.0,1041.214140039286,0.08612740684877468,1.3519960506897746,0.6347889238810508,0.2885858,0.6049068249324032
0.0085,1.79819375,1.0,1126.147899161379,0.09125350941571113,1.3506774419580785,0.6602177913251193,0.2885771375,0.6078613893550335
0.009000000000000001,1.797975,1.0,1208.6829723593592,0.09635085851192503,1.349431340863791,0.6833164729836433,0.28856795,0.6106432972644551
0.0095,1.79774375,1.0,1288.6558295104849,0.101419615888666,1.3482520205159816,0.7043105140488763,0.2885582375,0.6132669968320674
0.01,1.7975,1.0,1365.9192448894219,0.10645994138611728,1.3471347188634868,0.7234099001625388,0.288548,0.6157445374986225
0.0105,1.79724375,1.0,1440.3842110663948,0.11147199440981546,1.346074877203372,0.7408068363655507,0.2885372375,0.6180873066603031
0.011,1.796975,1.0,1512.0164298634527,0.1164559339224519,1.345068074471952,0.7566754110467334,0.28852595000000003,0.6203061989165157
0.0115,1.79669375,1.0,1580.7976694833014,0.12141191781013577,1.3441104002126005,0.7711723520563304,0.2885141375,0.6224108178109818
0.012,1.7964,1.0,1646.715638244979,0.12634010223596387,1.3431984566089583,0.7844380744768251,0.28850180000000003,0.6244095005778985
0.0125,1.79609375,1.0,1709.7960641331308,0.13124064309183928,1.3423288897060153,0.7965977833623621,0.2884889375,0.6263103675785933
0.013000000000000001,1.7957750000000001,1.0,1770.0921063535984,0.13611369597759743,1.341498462914886,0.8077629284174824,0.28847555,0.6281211729169969
0.0135,1.79544375,1.0,1827.6597077218055,0.140959415651192,1.340704283195721,0.8180326957949021,0.2884616375,0.6298488246558991
0.014,1.7951000000000001,1.0,1882.5431625835533,0.14577795436612517,1.339943899855067,0.8274953599648194,0.2884472,0.6314991867070414
0.0145,1.79474375,1.0,1934.8107067306044,0.1505694643758991,1.3392148621994717,0.8362293454854507,0.2884322375,0.6330780524967903
0.015,1.794375,1.0,1984.5446528727084,0.15533409733788564,1.3385148025557472,0.844304390840678,0.28841675,0.6345909708247561
0.0155,1.79399375,1.0,2031.8354196069638,0.1600720049891631,1.3378414738423874,0.8517825771912889,0.2884007375,0.6360431714030723
0.016,1.7936,1.0,2076.766522533748,0.16478333772440587,1.3371928811155451,0.8587192694646175,0.2883842,0.6374392886638962
0.0165,1.7931937500000001,1.0,2119.4044143260235,0.16946824334742164,1.3365673575477495,0.8651639286912904,0.2883671375,0.6387832073766753
0.017,1.792775,1.0,2159.827784914263,0.17412686966201815,1.3359632363115306,0.8711607126500395,0.28834955,0.640078775022585
0.0175,1.7923437500000001,1.0,2198.126531117545,0.17875936447200308,1.3353788505794177,0.876749102747559,0.2883314375,0.6413298041582545
0.018000000000000002,1.7919,1.0,2234.3841522341245,0.18336587399282459,1.3348127006511499,0.8819644977023879,0.2883128,0.642539717738149
0.0185,1.79144375,1.0,2268.6999095191813,0.18794654621178924,1.334263217630927,0.8868386292497885,0.2882936375,0.6437120578412612
0.019,1.790975,1.0,2301.1445823701315,0.1925015249639629,1.3337291962551259,0.8914000914381172,0.28827395,0.6448495649454964
0.0195,1.79049375,1.0,2331.7889994159123,0.19703095335440016,1.3332094949406332,0.8956746256879246,0.2882537375,0.6459548229636738
0.02,1.79,1.0,2360.709805771605,0.2015349744881556,1.3327029721043357,0.8996854295082644,0.288233,0.6470303965336148
0.0205,1.78949375,1.0,2387.988972153234,0.20601373147028385,1.3322084861631207,0.9034534421510034,0.2882117375,0.6480788320191571
0.021,1.788975,1.0,2413.6956945558277,0.2104673650620649,1.3317250660254103,0.9069976311064586,0.28818995000000003,0.6491022977373635
0.021500000000000002,1.78844375,1.0,2437.919992537661,0.2148960194804155,1.3312515795355802,0.9103351399641617,0.2881676375,0.650103287803518
0.022,1.7879,1.0,2460.7204234730616,0.2192998333269717,1.3307872344105567,0.9134815846810442,0.2881448,0.6510835636193094
0.0225,1.78734375,1.0,2482.1556493768603,0.22367894474874994,1.3303312663928297,0.9164511548456833,0.28812143749999997,0.6520448164646344
0.023,1.786775,1.0,2502.2870767457944,0.22803349189276667,1.3298829112248889,0.9192567588029247,0.28809755,0.6529887273016329
0.0235,1.78619375,1.0,2521.178625429948,0.23236361290603824,1.3294414046492238,0.9219101570757513,0.28807313749999996,0.6539169671643699
0.024,1.7856,1.0,2538.889740500493,0.23666944450315625,1.3290060462127606,0.9244220911809612,0.2880482,0.6548310636334401
0.0245,1.78499375,1.0,2555.4835727083373,0.24095112446315062,1.3285761194538226,0.9268023736908645,0.2880227375,0.655732569275087
0.025,1.784375,1.0,2571.0212843633353,0.24520878977616217,1.3281509438087196,0.9290599891853678,0.28799675,0.6566229530530823
0.025500000000000002,1.78374375,1.0,2585.54706905955,0.24944257330247302,1.3277300124199776,0.9312031972714393,0.2879702375,0.6575033130076574
0.026000000000000002,1.7831000000000001,1.0,2599.106404368935,0.2536526079023652,1.3273128184301224,0.9332395757857042,0.2879432,0.6583747413626586
0.0265,1.78244375,1.0,2611.7459435535916,0.2578390264361208,1.32689885498168,0.9351760862730419,0.2879156375,0.6592383246545489
0.027,1.781775,1.0,2623.5134129750345,0.26200196176402185,1.3264876152171765,0.937019132378265,0.28788755,0.6600951438450284
0.0275,1.7810937500000001,1.0,2634.455385894141,0.2661415459303046,1.3260786119797436,0.938774614626963,0.2878589375,0.6609462334482263
0.028,1.7804,1.0,2644.6125528512857,0.27025790911362874,1.3256714204563942,0.9404479826200409,0.2878298,0.6617924932969212
0.0285,1.77969375,1.0,2654.0363221168277,0.274351186217149,1.3252655238416067,0.9420442562308141,0.2878001375,0.6626350095664707
0.029,1.778975,1.0,2662.759004519461,0.27842150448210307,1.3248605878474382,0.9435680982595372,0.28776995,0.6634744848960998
0.029500000000000002,1.7782437500000001,1.0,2670.8134493516823,0.2824689911497288,1.324456278185947,0.9450238233504745,0.2877392375,0.6643116184493729
0.03,1.7775,1.0,2678.2329966489724,0.286493773461264,1.3240522605691902,0.946415428444503,0.287708,0.6651471059311149
0.0305,1.77674375,1.0,2685.051431946218,0.29049597865794646,1.3236482007092258,0.9477466202063013,0.2876762375,0.665981639597196
0.031,1.775975,1.0,2691.3029435120898,0.294475733981014,1.3232437643181112,0.9490208397595652,0.28764395,0.6668159082571983
0.0315,1.7751937500000001,1.0,2697.0196916007053,0.2984331651030143,1.322838638966724,0.950241287258428,0.2876111375,0.6676505522643918
0.032,1.7744,1.0,2702.22741330074,0.30236839447060165,1.322432573785137,0.9514109462140071,0.2875778,0.6684860821501664
0.0325,1.77359375,1.0,2706.9670934120413,0.3062815564257965,1.3220251810914134,0.952532581891932,0.2875439375,0.6693232868081709
0.033,1.772775,1.0,2711.259226169251,0.31017277177197894,1.3216162626389487,0.9536087900199773,0.28750955,0.6701625625196261
0.0335,1.7719437500000002,1.0,2715.124491238001,0.31404216131252904,1.3212056201811382,0.9546419921613664,0.2874746375,0.6710043034567934
0.034,1.7711000000000001,1.0,2718.583736043642,0.317889845850827,1.3207930554713772,0.9556344494747033,0.2874392,0.6718489016624296
0.0345,1.7702437500000001,1.0,2721.657958972145,0.32171594619025284,1.3203783702630614,0.9565882752320242,0.2874032375,0.6726967470267371
0.035,1.7693750000000001,1.0,2724.368293441785,0.3255205831341867,1.3199613663095857,0.957505446220106,0.28736675,0.6735482272618084
0.035500000000000004,1.76849375,1.0,2726.735992846501,0.32930387748600864,1.319541845364346,0.9583878131363419,0.2873297375,0.6744037278735601
0.036000000000000004,1.7676,1.0,2728.782416370569,0.3330659500490988,1.3191196091807371,0.9592371100783001,0.2872922,0.6752636321311658
0.0365,1.76669375,1.0,2730.5284318857,0.3368069205055556,1.318694464817576,0.960054963499947,0.2872541375,0.6761283102507615
0.037,1.765775,1.0,2731.9907035482206,0.3405269010243243,1.3182662582478717,0.9608429020751522,0.28721555,0.6769980512146017
0.0375,1.76484375,1.0,2733.192121677403,0.3442260228501062,1.3178347794738328,0.9616023602433704,0.2871764375,0.677873255602105
0.038,1.7639,1.0,2734.1451696714507,0.3479043997801757,1.3173999135578784,0.9623346917133929,0.28713679999999997,0.6787541290607504
0.0385,1.76294375,1.0,2734.8623748458153,0.35156214561180726,1.3169615455624282,0.9630411698420069,0.28709663750000003,0.6796408757483315
0.039,1.761975,1.0,2735.3563028250214,0.3551993741422755,1.3165195605499012,0.9637229932745779,0.28705595,0.6805336983077087
0.0395,1.7609937500000001,1.0,2735.639552228635,0.3588161991688547,1.3160738435827168,0.9643812911310645,0.2870147375,0.6814327978407151
0.04,1.76,1.0,2735.7247496485925,0.3624127344888195,1.3156242797232942,0.965017127778582,0.286973,0.6823383738812236
0.0405,1.7589937500000001,1.0,2735.624544920577,0.3659890938994443,1.315170754034053,0.9656315072275162,0.2869307375,0.6832506243673677
0.041,1.757975,1.0,2735.3516066875395,0.36954539119800345,1.3147131515774122,0.9662253771845422,0.28688795,0.6841697456129234
0.0415,1.75694375,1.0,2734.918618256678,0.3730817401817716,1.314251357415791,0.9667996327926343,0.2868446375,0.6850959322778469
0.042,1.7559,1.0,2734.3390747826074,0.37659825437551,1.3137852493369613,0.9673551194292821,0.28680079999999997,0.686029391895858
0.0425,1.754848728963654,1.0,2733.8650552521904,0.38009504392329596,1.3133147868028594,0.9678926427940564,0.2867566466164735,0.6869701669983379
0.043000000000000003,1.7537973857594016,1.0,2733.826607622382,0.38357222130212826,1.3128403358426468,0.9684129987409006,0.2867124902018949,0.6879174881054209
0.043500000000000004,1.752746042555149,1.0,2734.196974419741,0.38702989495250467,1.3123621719705705,0.9689169326851599,0.28666833378731627,0.6888707701588895
0.044,1.7516946993508968,1.0,2734.945897550068,0.39046817331492295,1.3118805707008776,0.9694051506831067,0.28662417737273765,0.6898294311839761
0.0445,1.7506433561466443,1.0,2736.0431852605107,0.3938871648298809,1.3113958075478154,0.9698783219071486,0.28658002095815904,0.6907928923521809
0.045,1.7495920129423919,1.0,2737.4586919836534,0.3972869779378764,1.310908158025631,0.9703370809422245,0.2865358645435805,0.6917605780392515
0.0455,1.7485406697381394,1.0,2739.163423172965,0.40066772062480194,1.3104178874561425,0.9707820290838719,0.2864917081290018,0.6927319360563318
0.046,1.7474893265338869,1.0,2741.13290672284,0.4040294997416832,1.309925220254866,0.9712137339990723,0.28644755171442327,0.693706498246087
0.0465,1.7464379833296344,1.0,2743.3401143462115,0.4073724237927182,1.3094304040599654,0.9716327368784672,0.28640339529984465,0.6946837533268067
0.047,1.745386640125382,1.0,2745.76793948628,0.4106965970710628,1.308933596494916,0.9720395450159712,0.28635923888526604,0.6956633703976927
0.0475,1.7443352969211294,1.0,2748.399272645809,0.41400212386987284,1.3084349551831929,0.9724346408722441,0.28631508247068743,0.6966450204755799
0.048,1.743283953716877,1.0,2751.2169947031457,0.41728910848230405,1.3079346377482706,0.9728184835267653,0.2862709260561088,0.6976283765141627
0.0485,1.7422326105126247,1.0,2754.203970779162,0.42055765520151217,1.3074328018136239,0.9731915100320911,0.28622676964153027,0.698613113421636
0.049,1.7411812673083722,1.0,2757.343982356332,0.4238078677005676,1.306929596522519,0.9735541360198828,0.2861826132269516,0.6995989246764149
0.0495,1.7401299241041197,1.0,2760.622770642113,0.42703984910666515,1.3064251530875401,0.9739067562932346,0.28613845681237304,0.7005855406737168
0.05,1.7390785808998672,1.0,2764.0256435601063,0.4302537033255305,1.305919606422352,0.9742497476128763,0.28609430039779443,0.7015726862448766
0.0505,1.7380272376956147,1.0,2767.54300699676,0.4334495306615938,1.3054130451689514,0.9745834658913988,0.2860501439832158,0.7025601780632272
0.051000000000000004,1.7369758944913622,1.0,2771.1652491330733,0.43662743141928545,1.3049055579693356,0.9749082508064996,0.2860059875686372,0.7035478339266841
0.051500000000000004,1.7359245512871098,1.0,2774.882738538196,0.4397875059030356,1.3043972334655014,0.9752244266875961,0.2859618311540586,0.7045354727632304
0.052000000000000005,1.7348732080828573,1.0,2778.6858224362877,0.44292985441727456,1.3038881602994463,0.9755323033465331,0.28591767473948,0.7055229146358993
0.0525,1.7338218648786048,1.0,2782.567838975755,0.4460545729983092,1.303378399981092,0.975832174694832,0.2858735183249014,0.7065100332427059
0.053,1.7327705216743525,1.0,2786.5208477177307,0.4491617604970771,1.302868025381162,0.9761243227472799,0.2858293619103228,0.7074966811279204
0.0535,1.7317191784701,1.0,2790.530184282476,0.4522515266431169,1.3023571696341643,0.9764090220673058,0.2857852054957442,0.7084825955702081
0.054,1.7306678352658476,1.0,2794.5917526217745,0.45532396618140886,1.301845870572023,0.9766865280368217,0.2857410490811656,0.7094676990389589
0.0545,1.729616492061595,1.0,2798.7014458262393,0.45837917385693316,1.3013341660266617,0.976957085141716,0.285696892666587,0.7104519144930366
0.055,1.7285651488573426,1.0,2802.8551457692665,0.4614172444146702,1.3008220938300044,0.9772209275292123,0.2856527362520084,0.7114351653817987
0.0555,1.72751380565309,1.0,2807.0487227826816,0.4644382725996001,1.3003096918139745,0.977478279532247,0.28560857983742977,0.7124173756460321
0.056,1.7264624624488376,1.0,2811.278035364395,0.46744235315670324,1.299796997810496,0.9777293561630664,0.28556442342285115,0.7133984697187931
0.0565,1.7254111192445851,1.0,2815.538929917614,0.4704295808309598,1.2992840496514928,0.9779743635780979,0.2855202670082726,0.7143783725261569
0.057,1.7243597760403326,1.0,2819.8272405215307,0.4734000503673501,1.2987708851688886,0.9782134995159797,0.285476110593694,0.7153570094878787
0.0575,1.7233084328360802,1.0,2824.1387887343035,0.4763538565108544,1.2982575421946072,0.9784469537105117,0.2854319541791154,0.7163343065179595
0.058,1.7222570896318277,1.0,2828.4693834275045,0.47929109400645287,1.2977440585605724,0.9786749082801491,0.28538779776453677,0.7173101900251226
0.0585,1.7212057464275754,1.0,2832.8148206519727,0.4822118575991259,1.297230472098708,0.9788975380955491,0.28534364134995815,0.7182845869131989
0.059000000000000004,1.720154403223323,1.0,2837.1774202113857,0.485116218463558,1.296716762363385,0.979115005945068,0.28529948493537954,0.7192575348615768
0.059500000000000004,1.7191030600190704,1.0,2841.547637456204,0.4880043007112118,1.2962030146683032,0.979327478422726,0.28525532852080093,0.7202288714968397
0.06,1.718051716814818,1.0,2845.924174566538,0.4908761924419936,1.2956892406538765,0.9795351086992405,0.2852111721062224,0.7211985744946873
0.0605,1.7170003736105655,1.0,2850.3058693623184,0.49373198117851497,1.2951754507182798,0.9797380439493029,0.28516701569164377,0.7221666240218763
0.061,1.715949030406313,1.0,2854.6915560710063,0.4965717544433876,1.2946616552596868,0.9799364257411338,0.28512285927706515,0.7231330003814461
0.0615,1.7148976872020605,1.0,2859.0800653245506,0.49939559975922304,1.2941478646762727,0.9801303902933125,0.28507870286248654,0.7240976840127205
0.062,1.713846343997808,1.0,2863.4702241594823,0.502203604648633,1.2936340893662115,0.9803200687179615,0.28503454644790793,0.7250606554913128
0.0625,1.7127950007935557,1.0,2867.8608560192706,0.5049958566342291,1.2931203397276776,0.9805055872511083,0.2849903900333293,0.7260218955291163
0.063,1.7117436575893032,1.0,2872.2507807589413,0.5077724432386228,1.2926066261588458,0.9806870674709902,0.2849462336187507,0.7269813849742903
0.0635,1.7106923143850508,1.0,2876.6388146524637,0.5105334519844259,1.2920929590578902,0.9808646265050238,0.28490207720417215,0.7279391048112426
0.064,1.7096409711807983,1.0,2881.02377040169,0.5132789703942501,1.2915793488229854,0.9810383772260979,0.28485792078959354,0.7288950361605988
0.0645,1.7085896279765458,1.0,2885.404457148945,0.5160090859907067,1.291065805852306,0.9812084284388249,0.28481376437501493,0.7298491602791701
0.065,1.7075382847722933,1.0,2889.779680490959,0.5187238862964078,1.290552340544026,0.9813748850563282,0.2847696079604363,0.7308014585599119
0.0655,1.7064869415680408,1.0,2894.1482424955784,0.5214234588339645,1.2900389632963203,0.9815378482681117,0.2847254515458577,0.7317519125318743
0.066,1.7054355983637883,1.0,2898.508941721034,0.5241078911259888,1.289525684507363,0.9816974156995271,0.2846812951312791,0.7327005038601495
0.0665,1.7043842551595358,1.0,2902.8627939329012,0.5267772354628806,1.2890124950020647,0.9818536782477559,0.2846371387167005,0.7336472504230915
0.067,1.7033329119552834,1.0,2907.207801769513,0.5294316090780228,1.288499412171259,0.9820067292827722,0.2845929823021219,0.7345921210996111
0.0675,1.7022815687510309,1.0,2911.5426405350445,0.5320711121905218,1.2879864474343659,0.9821566575243673,0.28454882588754327,0.735535095963435
0.068,1.7012302255467786,1.0,2915.86716037121,0.534695823846756,1.2874736018456534,0.982303546787047,0.2845046694729647,0.7364761742407102
0.0685,1.7001788823425261,1.0,2920.1812111577733,0.5373058230931033,1.2869608764593894,0.9824474780501922,0.2844605130583861,0.7374153551711067
0.069,1.6991275391382736,1.0,2924.484642515514,0.5399011889759419,1.2864482723298416,0.9825885295737591,0.2844163566438075,0.738352638007809
0.0695,1.6980761959340211,1.0,2928.777303808983,0.5424820005416501,1.285935790511278,0.9827267770084924,0.2843722002292289,0.7392880220175081
0.07,1.6970248527297687,1.0,2933.059044149313,0.5450483368366061,1.2854234320579667,0.9828622935009508,0.28432804381465027,0.7402215064803931
0.07050000000000001,1.6959735095255162,1.0,2937.3297123972284,0.547600276907188,1.2849111980241754,0.9829951497936157,0.2842838874000717,0.7411530906901438
0.07100000000000001,1.6949221663212637,1.0,2941.5891571655993,0.5501378997997742,1.2843990894641721,0.9831254143203533,0.28423973098549304,0.7420827739539216
0.07150000000000001,1.6938708231170112,1.0,2945.837226822941,0.5526612845607427,1.2838871074322247,0.9832531532974669,0.2841955745709145,0.7430105555923614
0.07200000000000001,1.692819479912759,1.0,2950.073769495712,0.5551705102364718,1.2833752529826008,0.9833784308105801,0.2841514181563359,0.7439364349395632
