Time [s],Phi [rad],STIM [ ],Fsee [N],Gamma [ ],Lcerel [ ],q [ ],Lmtc [m],fisomrel [ ]
0.0,1.8,1.0,20.21765674449365,0.0015332693888100793,1.379095051505076,0.00560142713897524,0.288653,0.5417313199118745
0.0005,1.79999375,1.0,20.94795249290238,0.0071338782687766136,1.3790157835940526,0.017703488896301557,0.2886527375,0.541922945748043
0.001,1.799975,1.0,25.434475291288386,0.012703072161326946,1.378564375505009,0.04397961925979857,0.28865195,0.5430134362197148
0.0015,1.79994375,1.0,37.56838699454741,0.01824102727961749,1.3775187719977176,0.08177255280675198,0.2886506375,0.5455343647619112
0.002,1.7999,1.0,65.23817616658476,0.023747918848554858,1.3756491422537702,0.12776360441675816,0.2886488,0.5500246234821642
0.0025,1.79984375,1.0,114.75540757745375,0.029223921110051707,1.3731207405981676,0.1786506151220158,0.28864643749999996,0.5560615846156727
0.003,1.7997750000000001,1.0,182.70786488004273,0.034669207328584896,1.3704260191811417,0.2317248008528455,0.28864354999999997,0.5624507790612643
0.0035,1.79969375,1.0,261.6203905977038,0.04008394979650614,1.3678650936581462,0.28492496190565986,0.2886401375,0.5684798241960565
0.004,1.7996,1.0,346.5653330652262,0.04546831983871388,1.3655038196783142,0.336735106219876,0.2886362,0.5740017787007728
0.0045000000000000005,1.7994937500000001,1.0,435.0136931148809,0.05082248782759403,1.36332767566726,0.3861258084655082,0.2886317375,0.5790593115249563
0.005,1.799375,1.0,525.496718941752,0.056146623169041565,1.3613111301749297,0.43247733933994664,0.28862675,0.5837189643230709
0.0055,1.79924375,1.0,616.9695817777823,0.06144089432010895,1.3594329016390674,0.47548479532992766,0.2886212375,0.5880356799085475
0.006,1.7991000000000001,1.0,708.599922979745,0.066705468765962,1.3576767615584113,0.5150675289158416,0.2886152,0.5920514484728552
0.006500000000000001,1.79894375,1.0,799.7142051684544,0.07194051317947056,1.3560298882218182,0.5512941150712094,0.2886086375,0.5957994856274222
0.007,1.798775,1.0,889.728185103305,0.07714619300085078,1.3544823999386508,0.5843258736664324,0.28860155,0.5993055744060409
0.0075,1.79859375,1.0,978.2008732727453,0.08232267325601862,1.3530253848919334,0.6143752256902656,0.2885939375,0.6025927220086171
0.008,1.7984,1.0,1064.7450898755117,0.08747011747313589,1.3516516820206914,0.6416784510429144,0.2885858,0.6056795106250592
0.0085,1.79819375,1.0,1149.0608711844222,0.09258868842366569,1.350354831323011,0.666476830588877,0.2885771375,0.6085825643132161
0.009000000000000001,1.797975,1.0,1230.9429168929069,0.09767854854185468,1.3491286708777528,0.6890050786146521,0.28856795,0.6113175101120337
0.0095,1.79774375,1.0,1310.2129293513487,0.10273985849833144,1.3479680297166936,0.7094851376924406,0.2885582375,0.613897481808298
0.01,1.7975,1.0,1386.7472868221341,0.10777277830470647,1.3468681084391683,0.728122403058046,0.288548,0.6163345514918157
0.0105,1.79724375,1.0,1460.4837741360166,0.11277746743750179,1.345824250341476,0.7451042738879418,0.2885372375,0.6186402674609573
0.011,1.796975,1.0,1531.3854057645494,0.11775408460231106,1.3448322811047047,0.7606002924687478,0.28852595000000003,0.6208249295539732
0.0115,1.79669375,1.0,1599.4206323682777,0.12270278658892496,1.3438886191045571,0.7747629042691896,0.2885141375,0.6228973777116098
0.012,1.7964,1.0,1664.5999182118544,0.12762372990475485,1.3429897312894077,0.7877283522264887,0.28850180000000003,0.6248662124681758
0.0125,1.79609375,1.0,1726.9654320385628,0.13251707080757547,1.342132199225845,0.799618078225322,0.2884889375,0.6267396627961948
0.013000000000000001,1.7957750000000001,1.0,1786.5645850679973,0.13738296471933664,1.341312963936524,0.8105402414562508,0.28847555,0.6285250658445953
0.0135,1.79544375,1.0,1843.4333462140057,0.1422215645122427,1.3405294444972562,0.820591131556152,0.2884616375,0.6302286270101726
0.014,1.7951000000000001,1.0,1897.6340613594316,0.14703302305849797,1.339779059983853,0.8298562839704353,0.2884472,0.6318564744786008
0.0145,1.79474375,1.0,1949.2461729681493,0.15181749271146536,1.3390593046294252,0.8384117255554572,0.2884322375,0.6334145023731206
0.015,1.794375,1.0,1998.3564808974995,0.15657512570353516,1.3383678238469472,0.8463251012120382,0.28841675,0.634908213600387
0.0155,1.79399375,1.0,2045.0472131141564,0.1613060731300156,1.3377025103824127,0.8536566841356703,0.2884007375,0.636342520667782
0.016,1.7936,1.0,2089.382889316221,0.16601048342695796,1.337061609823608,0.8604602730437492,0.2883842,0.6377215280073909
0.0165,1.7931937500000001,1.0,2131.441484485781,0.17068850503041338,1.3364433677583198,0.8667838498895891,0.2883671375,0.6390492993987243
0.017,1.792775,1.0,2171.313293812755,0.17534028637643315,1.3358460297743344,0.8726702690956449,0.28834955,0.6403298606020946
0.0175,1.7923437500000001,1.0,2209.080430509545,0.17996597426774757,1.3352680378285045,0.8781579160169073,0.2883314375,0.6415667819216343
0.018000000000000002,1.7919,1.0,2244.846893562433,0.18456571730162097,1.3347077110156103,0.883281146062673,0.2883128,0.6427638653912333
0.0185,1.79144375,1.0,2278.682395161047,0.1891396597824674,1.3341638006436982,0.8880708941995096,0.2882936375,0.6439239615413225
0.019,1.790975,1.0,2310.658304213827,0.19368794549111062,1.333635111840286,0.8925549728195228,0.28827395,0.6450497836330351
0.0195,1.79049375,1.0,2340.8523586849064,0.1982107182083741,1.333120449732891,0.8967584157803208,0.2882537375,0.6461440241382539
0.02,1.79,1.0,2369.3479498297197,0.20270812168487456,1.3326186211932918,0.9007037933784945,0.288233,0.6472093521539333
0.0205,1.78949375,1.0,2396.2175751910045,0.20718029738593768,1.3321285904113316,0.9044115215389312,0.2882117375,0.6482480849214985
0.021,1.788975,1.0,2421.5499400303147,0.21162738981106724,1.331649208666352,0.9079000434547062,0.28818995000000003,0.6492627627263472
0.021500000000000002,1.78844375,1.0,2445.404060878301,0.21604953790409118,1.3311796541041383,0.9111861331014469,0.2881676375,0.6502552190926764
0.022,1.7879,1.0,2467.8422782059133,0.2204468806088374,1.3307191048704754,0.9142850092175848,0.2881448,0.651227275745126
0.0225,1.78734375,1.0,2488.9299819789953,0.2248195568691339,1.3302667391111482,0.917210501010508,0.28812143749999997,0.6521807431023239
0.023,1.786775,1.0,2508.7353521884984,0.2291677056288086,1.3298217349719414,0.919975194272071,0.28809755,0.6531174207273547
0.0235,1.78619375,1.0,2527.318099354938,0.23349146305675214,1.3293833746485022,0.9225905782446095,0.28807313749999996,0.6540388791618764
0.024,1.7856,1.0,2544.7466540422142,0.23779097006141628,1.3289508786216446,0.925067131399175,0.2880482,0.6549468094835715
0.0245,1.78499375,1.0,2561.0719382449433,0.24206636172932863,1.3285236509836988,0.9274144612448613,0.2880227375,0.6558425087510869
0.025,1.784375,1.0,2576.34194018016,0.24631777171191999,1.3281011385509278,0.9296413682758019,0.28799675,0.6567271775560742
0.025500000000000002,1.78374375,1.0,2590.6060900362036,0.25054533366062104,1.3276827881395943,0.9317559186982952,0.2879702375,0.6576020100671613
0.026000000000000002,1.7831000000000001,1.0,2603.9151362962684,0.2547491812268626,1.3272680465659614,0.933765515657679,0.2879432,0.6584681941865425
0.0265,1.78244375,1.0,2616.321028846103,0.25892944806207535,1.326856360646292,0.9356769626868738,0.2879156375,0.6593269116870571
0.027,1.781775,1.0,2627.8661565020316,0.2630862650248658,1.3264472758773547,0.9374965343046585,0.28788755,0.660179132883464
0.0275,1.7810937500000001,1.0,2638.598819195682,0.26721976634759437,1.3260402914376797,0.9392300056962759,0.2878589375,0.66102591951286
0.028,1.7804,1.0,2648.570371315192,0.2713300856413384,1.3256348862376204,0.9408827008730518,0.2878298,0.661868370105268
0.0285,1.77969375,1.0,2657.8134276079763,0.2754173505638648,1.3252307190829415,0.9424595602424787,0.2878001375,0.6627072046071198
0.029,1.778975,1.0,2666.361186484481,0.27948168877294055,1.3248274487794085,0.9439651514855765,0.28776995,0.6635431394115457
0.029500000000000002,1.7782437500000001,1.0,2674.247379239086,0.28352322792633255,1.3244247341327864,0.9454037024779101,0.2877392375,0.6643768873816036
0.03,1.7775,1.0,2681.5062218514804,0.2875420956818077,1.3240222339488399,0.946779130910284,0.287708,0.6652091578660819
0.0305,1.77674375,1.0,2688.1723693693375,0.291538419697133,1.3236196070333344,0.9480950709758654,0.2876762375,0.6660406567078772
0.031,1.775975,1.0,2694.280872872208,0.2955123276300754,1.3232165121920347,0.9493548974461384,0.28764395,0.6668720862449499
0.0315,1.7751937500000001,1.0,2699.8595048473053,0.2994639427766411,1.3228126780022351,0.950561754716377,0.2876111375,0.6677040016614326
0.032,1.7744,1.0,2704.9434417839684,0.303393395459366,1.3224077680750628,0.9517185628429833,0.2875778,0.6685370889185476
0.0325,1.77359375,1.0,2709.5585181002525,0.3073008097697869,1.3220015338448456,0.9528280501807456,0.2875439375,0.669371850132547
0.033,1.772775,1.0,2713.7269276498164,0.31118630726041563,1.3215937619564364,0.9538927636753874,0.28750955,0.6702087125979175
0.0335,1.7719437500000002,1.0,2717.471052422287,0.31505000948376405,1.321184239054687,0.9549150799703755,0.2874746375,0.6710481013484109
0.034,1.7711000000000001,1.0,2720.813443617437,0.31889203799234384,1.3207727517844499,0.9558972188178717,0.2874392,0.6718904391346675
0.0345,1.7702437500000001,1.0,2723.776803729209,0.3227125143386669,1.3203590867905772,0.956841255282912,0.2874032375,0.6727361463989394
0.035,1.7693750000000001,1.0,2726.383969638309,0.3265115600752449,1.3199430307179214,0.9577491308620794,0.28736675,0.6735856412469108
0.035500000000000004,1.76849375,1.0,2728.6578967148735,0.33028929675458973,1.3195243702113346,0.9586226636245613,0.2873297375,0.6744393394166135
0.036000000000000004,1.7676,1.0,2730.609417882424,0.3340458332991765,1.3191030030231166,0.9594635659849721,0.2872922,0.6752974281301941
0.0365,1.76669375,1.0,2732.274925521768,0.33778130738678985,1.3186785953774505,0.9602734272163967,0.2872541375,0.6761605639293853
0.037,1.765775,1.0,2733.6675336498306,0.34149583387579485,1.3182510257822533,0.9610537551981405,0.28721555,0.677028968713468
0.0375,1.76484375,1.0,2734.8001724526453,0.3451895273772989,1.3178201749234455,0.9618059666100252,0.2871764375,0.6779028584554545
0.038,1.7639,1.0,2735.685821451306,0.3488625025024095,1.317385923486947,0.9625313933055281,0.28713679999999997,0.6787824476158733
0.0385,1.76294375,1.0,2736.337503406685,0.35251487386223407,1.3169481521586777,0.9632312883170467,0.28709663750000003,0.6796679491173461
0.039,1.761975,1.0,2736.7682785387674,0.35614675606788,1.316506741624558,0.963906831373249,0.28705595,0.6805595743182569
0.0395,1.7609937500000001,1.0,2736.9912390632844,0.3597582637304548,1.316061572570508,0.9645591339729805,0.2870147375,0.681457532985515
0.04,1.76,1.0,2737.019504042373,0.3633495114610658,1.315612525682448,0.9651892440557313,0.286973,0.6823620332664098
0.0405,1.7589937500000001,1.0,2736.866214551783,0.3669206138708206,1.3151594816462981,0.9657981503046837,0.2869307375,0.6832732816595557
0.041,1.757975,1.0,2736.5445291633846,0.3704716855708266,1.3147023211479782,0.96638678611481,0.28688795,0.6841914829849323
0.0415,1.75694375,1.0,2736.0650632346415,0.37400283601028644,1.3142409480832051,0.9669560343469727,0.2868446375,0.6851167938385472
0.042,1.7559,1.0,2735.4381898341567,0.37751417815521604,1.3137752686436097,0.9675067303588605,0.28680079999999997,0.686049364756475
0.0425,1.75484375,1.0,2734.676720769202,0.38100583157683,1.3133051669450944,0.9680396635416585,0.2867564375,0.6869893889206204
0.043000000000000003,1.753775,1.0,2733.7878569391423,0.38447790362773115,1.312830578096334,0.9685555831773139,0.28671155,0.6879369560201322
0.043500000000000004,1.75269375,1.0,2732.7788038600993,0.38793050166052223,1.312351437206004,0.9690551988634761,0.28666613750000003,0.6888921545769893
0.044,1.7516,1.0,2731.6567700449305,0.39136373302780586,1.3118676793827784,0.9695391830067455,0.2866202,0.6898550719272978
0.0445,1.75049375,1.0,2730.4289654777544,0.3947777050821849,1.3113792397353323,0.9700081731354616,0.2865737375,0.6908257942023165
0.045,1.7493750000000001,1.0,2729.102600180856,0.3981725251762621,1.3108860533723408,0.9704627740467356,0.28652675,0.6918044063092159
0.0455,1.74824375,1.0,2727.6848828756697,0.4015483006626402,1.3103880554024783,0.9709035598011118,0.2864792375,0.6927909919115691
0.046,1.7471,1.0,2726.1830197365703,0.4049051388939218,1.3098851809344199,0.9713310755770396,0.2864312,0.6937856334095723
0.0465,1.7459437500000001,1.0,2724.6042132384828,0.4082431472227098,1.3093773650768403,0.97174583939627,0.28638263750000004,0.6947884119199983
0.047,1.744775,1.0,2722.9556610974632,0.41156243300160694,1.3088645429384143,0.9721483437302971,0.28633355,0.6957994072558815
0.0475,1.74359375,1.0,2721.2356781836675,0.41486307912921633,1.3083467304398657,0.9725390596171745,0.28628393750000003,0.696818538989301
0.048,1.7424,1.0,2719.4576165970975,0.41814521780686303,1.3078238066125334,0.9729184319670324,0.2862338,0.6978459951612552
0.0485,1.74119375,1.0,2717.628453284998,0.421408959768851,1.3072957084238443,0.9732868856574017,0.2861831375,0.6988818481641825
0.049,1.739975,1.0,2715.7512696526373,0.42465440403377797,1.3067624082695803,0.9736448264055053,0.28613195,0.6999260997214518
0.0495,1.73874375,1.0,2713.829144280665,0.4278816496202417,1.306223878545523,0.9739926408832138,0.2860802375,0.7009787506649772
0.05,1.7375,1.0,2711.8651526626422,0.4310907955468399,1.3056800916474538,0.974330697780104,0.286028,0.702039800926034
0.0505,1.73624375,1.0,2709.8623669585113,0.4342819408321702,1.305131019971155,0.9746593487979559,0.2859752375,0.7031092495260287
0.051000000000000004,1.734975,1.0,2707.8238557661425,0.4374551844948303,1.3045766359124078,0.9749789295816825,0.28592195,0.7041870945672213
0.051500000000000004,1.73369375,1.0,2705.752683908919,0.44061062555341796,1.304016911866994,0.9752897605912824,0.2858681375,0.7052733332233942
0.052000000000000005,1.7324,1.0,2703.651912240454,0.44374836302653087,1.3034518202306955,0.9755921479190379,0.2858138,0.7063679617304772
0.0525,1.73109375,1.0,2701.524597466586,0.4468684959327667,1.302881333399294,0.9758863840558442,0.28575893750000003,0.707470975377123
0.053,1.729775,1.0,2699.373791983587,0.44997112329072314,1.3023054237685712,0.9761727486102466,0.28570355000000003,0.7085823684952315
0.0535,1.72844375,1.0,2697.2025437338543,0.453056344118998,1.3017240637343086,0.9764515089834903,0.2856476375,0.7097021344504302
0.054,1.7271,1.0,2695.013896078328,0.4561242574361889,1.3011372256922882,0.9767229210036193,0.2855912,0.7108302656324996
0.0545,1.7257437500000001,1.0,2692.8108876854176,0.4591749622608935,1.3005448820382914,0.9769872295214402,0.2855342375,0.7119667534457572
0.055,1.724375,1.0,2690.5965524374055,0.46220855761170965,1.2999470051681004,0.9772446689709406,0.28547675,0.7131115882993864
0.0555,1.72299375,1.0,2688.368696907215,0.46522512376441605,1.2993436153092972,0.977495464953993,0.2854187375,0.714264668283034
0.056,1.7216,1.0,2686.130391840653,0.46822476610222913,1.2987346844898593,0.9777398331928968,0.2853602,0.715425983044465
0.0565,1.72019375,1.0,2683.8882248181626,0.4712075974770613,1.298120152454738,0.9779779792579205,0.28530113749999997,0.7165955825904455
0.057,1.718775,1.0,2681.6431009681687,0.4741737080580455,1.297500010958652,0.9782101011732377,0.28524155,0.7177734167079142
0.0575,1.71734375,1.0,2679.3959239234605,0.47712318801431447,1.2968742517563199,0.9784363889031634,0.2851814375,0.7189594344519299
0.058,1.7159,1.0,2677.14759581604,0.4800561275150011,1.29624286660246,0.9786570247426887,0.2851208,0.7201535841427205
0.0585,1.71444375,1.0,2674.899017272592,0.4829726167292382,1.2956058472517908,0.9788721836860803,0.2850596375,0.721355813362726
0.059000000000000004,1.7129750000000001,1.0,2672.6510874116016,0.4858727458261586,1.294963185459031,0.9790820337749445,0.28499795,0.7225660689536391
0.059500000000000004,1.71149375,1.0,2670.4047038424224,0.48875660497489515,1.294314872978899,0.9792867364270477,0.2849357375,0.7237842970134394
0.06,1.71,1.0,2668.160762665084,0.49162428434458055,1.2936609015661134,0.9794864467470995,0.284873,0.7250104428934232
0.0605,1.7084937500000001,1.0,2665.9201584725056,0.4944758741043478,1.2930012629753926,0.9796813138206206,0.2848097375,0.7262444511952322
0.061,1.7069750000000001,1.0,2663.683784353577,0.4973114644233297,1.2923359489614554,0.9798714809919391,0.28474595,0.7274862657678742
0.0615,1.7054437500000001,1.0,2661.452531897737,0.500131145470659,1.29166495127902,0.9800570861272829,0.2846816375,0.7287358297047415
0.062,1.7039,1.0,2659.2272912017197,0.5029350074154686,1.290988261682805,0.9802382618638791,0.2846168,0.7299930853406231
0.0625,1.70234375,1.0,2657.008950876954,0.5057231404268913,1.290305871927529,0.9804151358459015,0.2845514375,0.7312579742487151
0.063,1.7007750000000001,1.0,2654.7983980588965,0.5084956346740598,1.2896177737679106,0.9805878309480509,0.28448555,0.7325304372376255
0.0635,1.69919375,1.0,2652.5965184182633,0.5112525803261072,1.288923958958668,0.98075646548751,0.28441913750000003,0.7338104143483735
0.064,1.6976,1.0,2650.4013594707544,0.5139940660319668,1.288224445420989,0.9809211546379638,0.2843522,0.7350977967530719
0.0645,1.69599375,1.0,2648.2165791678262,0.5167201751982193,1.2875191993324877,0.9810820064005232,0.2842847375,0.7363925702015472
0.065,1.694375,1.0,2646.043540186294,0.5194309931304465,1.2868082080049634,0.9812391260443198,0.28421675,0.7376946805515996
0.0655,1.69274375,1.0,2643.8804968199115,0.5221266052595055,1.2860914874378009,0.9813926164753377,0.2841482375,0.7390040204579931
0.066,1.6911,1.0,2641.725706250156,0.5248070970162532,1.285369053630384,0.9815425769292094,0.2840792,0.7403204822388364
0.0665,1.6894437500000001,1.0,2639.5832002771813,0.5274725532419943,1.284640869232879,0.9816891004900135,0.2840096375,0.7416440547268848
0.067,1.687775,1.0,2637.4493419962287,0.5301230588459549,1.2839069677469146,0.9818322803822643,0.28393955,0.7429745971452564
0.0675,1.68609375,1.0,2635.3259042533077,0.5327586971139903,1.2831673326852793,0.9819722040745232,0.2838689375,0.744312058992042
0.068,1.6844000000000001,1.0,2633.2150261890865,0.5353795512791703,1.2824219441448084,0.9821089558276452,0.2837978,0.745656394979167
0.0685,1.68269375,1.0,2631.112596420642,0.5379857043809079,1.2816708400584396,0.982242619715618,0.2837261375,0.7470074549131791
0.069,1.680975,1.0,2629.0314475836617,0.540577239284316,1.2809139014899618,0.9823732695599743,0.28365395,0.7483653697375257
0.0695,1.67924375,1.0,2626.9721859280835,0.5431542379678289,1.2801511225974396,0.982500981854975,0.28358123749999997,0.7497300653934771
0.07,1.6775053842524692,1.0,2625.1652339079433,0.5457167815232692,1.2793827990338165,0.9826258444404236,0.2835082261386037,0.7511009298597899
0.07050000000000001,1.6757669862484927,1.0,2623.9234971642554,0.5482649510424596,1.278609226452035,0.9827479423158519,0.2834352134224367,0.7524773563003785
0.07100000000000001,1.674028588244516,1.0,2623.2144726473766,0.5507988272323345,1.2778307170690804,0.9828673584950476,0.28336220070626966,0.7538587138165836
0.07150000000000001,1.6722901902405396,1.0,2622.986969021385,0.5533184908120848,1.2770477435445975,0.9829841806714168,0.28328918799010266,0.7552440937399456
0.07200000000000001,1.6705517922365631,1.0,2623.202884254755,0.555824021096646,1.2762606585769716,0.983098488332327,0.28321617527393567,0.7566328077889602
0.0725,1.6688133942325867,1.0,2623.826937978061,0.5583154970916793,1.275469789751854,0.9832103573708147,0.2831431625577686,0.7580242185397619
0.073,1.6670749962286102,1.0,2624.8245967921184,0.5607929976300875,1.2746754585112272,0.9833198610769858,0.2830701498416016,0.7594177056493849
0.0735,1.6653365982246335,1.0,2626.1719775246315,0.5632565989211961,1.2738778881468285,0.9834270660102276,0.2829971371254346,0.7608128264803359
0.074,1.663598200220657,1.0,2627.820061160651,0.5657063843409509,1.2730775352516113,0.9835320474293694,0.2829241244092676,0.7622087364187022
0.0745,1.6618598022166806,1.0,2629.749273807017,0.5681424297613824,1.2722745837046197,0.9836348659949494,0.28285111169310057,0.7636050735601916
