Time [s],Phi [rad],STIM [ ],Fsee [N],Gamma [ ],Lcerel [ ],q [ ],Lmtc [m],fisomrel [ ]
0.0,1.8,1.0,18.013730934592395,0.0002201983358281079,1.379334531889123,0.005012610911663163,0.288653,0.5411521457795279
0.0005,1.79999375,1.0,18.391594627716007,0.005828172506137896,1.3792896501160283,0.013534362027947677,0.2886527375,0.5412607184785103
0.001,1.799975,1.0,21.88933696709241,0.011404690375284405,1.3789107141813752,0.03671232357056043,0.28865195,0.5421768835413272
0.0015,1.79994375,1.0,31.67735664381346,0.016949928389221693,1.3779946450068172,0.07210709039551033,0.2886506375,0.5443879092671244
0.002,1.7999,1.0,54.861288402205446,0.022464062002057424,1.3762856524586258,0.11649717809095389,0.2886488,0.5484984303373288
0.0025,1.79984375,1.0,99.24217290231607,0.02794726568482737,1.3738334067904352,0.16650823733880932,0.28864643749999996,0.5543641070390848
0.003,1.7997750000000001,1.0,163.703874489294,0.033399712931425914,1.3711120039011255,0.21927358138611092,0.28864354999999997,0.5608287007668717
0.0035,1.79969375,1.0,240.77628394424764,0.038821576259719486,1.3684897710557156,0.27259430102019777,0.2886401375,0.5670130377146247
0.004,1.7996,1.0,324.7518690613963,0.04421302722181949,1.3660693038663907,0.3248336614057846,0.2886362,0.5726826044858933
0.0045000000000000005,1.7994937500000001,1.0,412.66585554085304,0.04957423640943541,1.3638432125848672,0.3748545815438584,0.2886317375,0.5778638923977142
0.005,1.799375,1.0,502.87793527639104,0.05490537344573981,1.361784850706027,0.4219499540277549,0.28862675,0.5826266639018423
0.0055,1.79924375,1.0,594.2832228063858,0.06020660702357201,1.3598706946500805,0.4657497335695735,0.2886212375,0.5870315150895042
0.006,1.7991000000000001,1.0,686.0122942779827,0.0654781048720418,1.3580829808321049,0.5061282044795258,0.2886152,0.5911242947652884
0.006500000000000001,1.79894375,1.0,777.3519476911329,0.07072003377006764,1.3564080729436068,0.5431248755600179,0.2886086375,0.5949403237902573
0.007,1.798775,1.0,867.7138346054754,0.07593255963479367,1.3548350762324781,0.5768834181041076,0.28860155,0.5985078720506742
0.0075,1.79859375,1.0,956.6077263825281,0.0811158472476968,1.3533550751180734,0.6076073832174091,0.2885939375,0.6018500984958569
0.008,1.7984,1.0,1043.6566955788985,0.08627006088116684,1.3519601248175503,0.6355291925142427,0.2885858,0.6049874698291275
0.0085,1.79819375,1.0,1128.539153181479,0.09139536335861856,1.350643621069421,0.6608902052785002,0.2885771375,0.6079370248830493
0.009000000000000001,1.797975,1.0,1211.0092684483607,0.09649191679020383,1.3493995803623382,0.6839275400306578,0.28856795,0.6107140728399936
0.0095,1.79774375,1.0,1290.9098145627966,0.10155988290958795,1.3482222161315238,0.7048663000033832,0.2885582375,0.6133331893891911
0.01,1.7975,1.0,1368.1003711596168,0.10659942161903717,1.3471067043937868,0.7239159569224124,0.288548,0.6158065553727179
0.0105,1.79724375,1.0,1442.4916847992972,0.11161069227172944,1.3460485168273035,0.7412682279268316,0.2885372375,0.6181454846990544
0.011,1.796975,1.0,1514.049418160053,0.11659385385051725,1.3450432546825677,0.757096714216089,0.28852595000000003,0.620360817595857
0.0115,1.79669375,1.0,1582.7526692958163,0.12154906407208349,1.3440870569399839,0.7715576913604,0.2885141375,0.6224620447907535
0.012,1.7964,1.0,1648.5937603298958,0.1264764791801754,1.3431764841776905,0.7847911137783877,0.28850180000000003,0.6244575915415795
0.0125,1.79609375,1.0,1711.598515383248,0.13137625493830665,1.3423081947581388,0.7969217901542207,0.2884889375,0.626355547836174
0.013000000000000001,1.7957750000000001,1.0,1771.8251689765434,0.13624854738948317,1.3414789061309367,0.8080607904352622,0.28847555,0.6281637648839891
0.0135,1.79544375,1.0,1829.3229357142088,0.14109351066712802,1.3406858120972662,0.8183070112349586,0.2884616375,0.6298889586595224
0.014,1.7951000000000001,1.0,1884.13754917575,0.14591129713241388,1.339926453021623,0.8277484337800969,0.2884472,0.6315370106381961
0.0145,1.79474375,1.0,1936.3386788235168,0.1507020591465132,1.339198369268503,0.8364632229740162,0.2884322375,0.633113731778024
0.015,1.794375,1.0,1986.0083314971955,0.15546594834721061,1.3384992026269593,0.844520894034344,0.28841675,0.6346246486636249
0.0155,1.79399375,1.0,2033.237605119769,0.1602031167120374,1.337826704074092,0.8519833276290434,0.2884007375,0.6360749936684815
0.016,1.7936,1.0,2078.10226858469,0.16491371392700047,1.3371789640515703,0.858905738096803,0.2883842,0.6374692162025186
0.0165,1.7931937500000001,1.0,2120.673201685762,0.16959788801204978,1.3365542716259453,0.8653374146836947,0.2883671375,0.6388112954411015
0.017,1.792775,1.0,2161.0336793260635,0.17425578698713534,1.335950915863769,0.8713223640658934,0.28834955,0.6401051726093585
0.0175,1.7923437500000001,1.0,2199.274641459221,0.1788875584728024,1.3353672230361424,0.8768999447352755,0.2883314375,0.6413546738298033
0.018000000000000002,1.7919,1.0,2235.483604471981,0.1834933493144844,1.3348016565237069,0.8821054396928615,0.2883128,0.6425632997097634
0.0185,1.79144375,1.0,2269.754764539382,0.1880733068761858,1.3342527018591595,0.8869705012830102,0.2882936375,0.6437344748082011
0.019,1.790975,1.0,2302.154032641461,0.19262757451889953,1.3337192042480386,0.8915236521240091,0.28827395,0.6448708313649743
0.0195,1.79049375,1.0,2332.7536884168135,0.19715629560361841,1.3332000088958824,0.895790555202038,0.2882537375,0.6459749810962496
0.02,1.79,1.0,2361.631854654794,0.20165961349133527,1.3326939610082296,0.8997943384778582,0.288233,0.6470495162903528
0.0205,1.78949375,1.0,2388.868476639834,0.20613767090177,1.3321999400370261,0.9035558867433789,0.2882117375,0.6480969382633809
0.021,1.788975,1.0,2414.540286284708,0.21059060996504916,1.331716902928403,0.907094099763566,0.28818995000000003,0.6491195673201162
0.021500000000000002,1.78844375,1.0,2438.726046328068,0.2150185734604088,1.3312438276780063,0.9104260978737104,0.2881676375,0.6501196639834925
0.022,1.7879,1.0,2461.48435270346,0.21942169977877962,1.330779921745761,0.9135674538901735,0.2881448,0.6510989903375901
0.0225,1.78734375,1.0,2482.876849248388,0.2238001273110924,1.3303243925915917,0.9165323135169262,0.28812143749999997,0.6520592973820025
0.023,1.786775,1.0,2502.9679743501083,0.22815399444827777,1.329876447675424,0.919333545881385,0.28809755,0.6530023254752657
0.0235,1.78619375,1.0,2521.8247215181805,0.2324834395812665,1.3294352944571823,0.9219828764134479,0.28807313749999996,0.653929804738232
0.024,1.7856,1.0,2539.503952217081,0.23678859819126238,1.329000257829345,0.9244910241553836,0.2880482,0.6548432090185732
0.0245,1.78499375,1.0,2556.074361972773,0.2410696107168383,1.3285705698966777,0.9268677699583586,0.2880227375,0.6557441983347336
0.025,1.784375,1.0,2571.5860306029585,0.24532661187528784,1.3281456549247082,0.9291220942698738,0.28799675,0.6566340215370994
0.025500000000000002,1.78374375,1.0,2586.084318303855,0.24955973463213738,1.3277249951853791,0.9312622345435805,0.2879702375,0.6575137995240536
0.026000000000000002,1.7831000000000001,1.0,2599.6158830704926,0.25376911195291324,1.327308072950634,0.9332957486166895,0.2879432,0.658384647261934
0.0265,1.78244375,1.0,2612.228570023209,0.2579548768031418,1.3268943704924152,0.935229579954932,0.2879156375,0.6592476739169885
0.027,1.781775,1.0,2623.9713066776603,0.2621171621483493,1.3264833700826661,0.9370701158382025,0.28788755,0.6601039829702324
0.0275,1.7810937500000001,1.0,2634.8902759683606,0.2662560997088777,1.326074588484173,0.9388232440119362,0.2878589375,0.6609546005895321
0.028,1.7804,1.0,2645.0254685327964,0.2703718198741792,1.325667607597124,0.9404944030984709,0.2878298,0.6618004125062679
0.0285,1.77969375,1.0,2654.431412796165,0.27446445807686737,1.3252618820543702,0.9420885980286208,0.2878001375,0.6626425640384215
0.029,1.778975,1.0,2663.1393883134274,0.2785341413562191,1.324857087364674,0.9436104831033597,0.28776995,0.6634817372096322
0.029500000000000002,1.7782437500000001,1.0,2671.181202762545,0.2825809967515115,1.3244528990367976,0.9450643652119177,0.2877392375,0.6643186106716124
0.03,1.7775,1.0,2678.5891458009773,0.2866051513020214,1.3240489925795043,0.9464542342094927,0.287708,0.6651538597200524
0.0305,1.77674375,1.0,2685.395945256678,0.2906067320470259,1.323645043501556,0.9477837902780224,0.2876762375,0.6659881563038134
0.031,1.775975,1.0,2691.6347256534723,0.294585866025802,1.323240727311716,0.949056468602407,0.28764395,0.6668221690274008
0.0315,1.7751937500000001,1.0,2697.3389690712334,0.29854268027762665,1.322835719518746,0.9502754616546969,0.2876111375,0.6676565631467271
0.032,1.7744,1.0,2702.5356587337023,0.30247729787380045,1.322429757927485,0.9514437457402924,0.2875778,0.6684918724579827
0.0325,1.77359375,1.0,2707.2589286121874,0.3063898481431596,1.3220225174739173,0.9525640866832131,0.2875439375,0.6693287571420938
0.033,1.772775,1.0,2711.533809949622,0.31028045462904985,1.321613758457804,0.9536390707989258,0.28750955,0.6701676988859862
0.0335,1.7719437500000002,1.0,2715.381764988328,0.3141492384436125,1.3212032755329086,0.9546711142251574,0.2874746375,0.671009106463426
0.034,1.7711000000000001,1.0,2718.824425793376,0.31799632069898887,1.3207908633529946,0.9556624731189157,0.2874392,0.6718533864452818
0.0345,1.7702437500000001,1.0,2721.8835768679055,0.32182182250732055,1.320376316571825,0.9566152561367941,0.2874032375,0.6727009431756052
0.035,1.7693750000000001,1.0,2724.581138702143,0.3256258649807488,1.319959429843163,0.9575314358022438,0.28736675,0.6735521787450194
0.035500000000000004,1.76849375,1.0,2726.9391522581154,0.3294085692314151,1.3195399978207725,0.958412858870723,0.2873297375,0.6744074929614181
0.036000000000000004,1.7676,1.0,2728.9770209870685,0.3331700533132745,1.3191178400972858,0.9592612576575552,0.2872922,0.6752672325626374
0.0365,1.76669375,1.0,2730.711512761756,0.33691043316996333,1.3186928010229055,0.9600782587439698,0.2872541375,0.6761316918883123
0.037,1.765775,1.0,2732.1713649855624,0.34062984056741413,1.3182646168795358,0.9608653814413513,0.28721555,0.6770013827886554
0.0375,1.76484375,1.0,2733.3692926195945,0.344328389770594,1.3178331701710775,0.9616240632864007,0.2871764375,0.6778765176626369
0.038,1.7639,1.0,2734.31806099503,0.3480061950444701,1.317398343401431,0.9623556555074333,0.28713679999999997,0.6787573074171791
0.0385,1.76294375,1.0,2735.0304797597983,0.35166337065400977,1.3169600190744968,0.9630614291505376,0.28709663750000003,0.679643961442266
0.039,1.761975,1.0,2735.5193971301346,0.35530003086418005,1.3165180796941753,0.9637425807067574,0.28705595,0.6805366875851775
0.0395,1.7609937500000001,1.0,2735.7976944498914,0.3589162899399483,1.3160724077643673,0.964400237285893,0.2870147375,0.6814356921238378
0.04,1.76,1.0,2735.8782810542293,0.3625122621462816,1.3156228857889734,0.9650354613779092,0.286973,0.682341179739288
0.0405,1.7589937500000001,1.0,2735.774089440769,0.36608806174814723,1.3151693962718938,0.9656492552388628,0.2869307375,0.6832533534872768
0.041,1.757975,1.0,2735.498070745781,0.3696438030105124,1.314711821717029,0.9662425649346006,0.28688795,0.6841724147689698
0.0415,1.75694375,1.0,2735.0631905271816,0.3731796001983443,1.3142500446282799,0.9668162840722413,0.2868446375,0.6850985633007785
0.042,1.7559,1.0,2734.47587019939,0.37669555939441285,1.313784007034605,0.9673712608735454,0.28680079999999997,0.6860318779633514
0.0425,1.75484375,1.0,2733.749890789694,0.3801917996098044,1.3133135842150625,0.967908294150964,0.2867564375,0.6869725699818588
0.043000000000000003,1.753775,1.0,2732.896939831016,0.38366843494222125,1.3128386705022557,0.9684281405738312,0.28671155,0.6879208107091235
0.043500000000000004,1.75269375,1.0,2731.923759466032,0.3871255724398546,1.312359205180245,0.9689315191216804,0.28666613750000003,0.6888766802907065
0.044,1.7516,1.0,2730.837095333185,0.39056331915089554,1.3118751275330904,0.9694191109993406,0.2866202,0.6898402577366665
0.0445,1.75049375,1.0,2729.6436951361425,0.3939817821235353,1.3113863768448517,0.9698915619917021,0.2865737375,0.6908116209038138
0.045,1.7493750000000001,1.0,2728.350307293805,0.39738106840596504,1.3108928923995893,0.9703494846493355,0.28652675,0.691790846477734
0.0455,1.74824375,1.0,2726.9636796727027,0.4007612850463759,1.3103946134813627,0.970793460318653,0.2864792375,0.6927780099545775
0.046,1.7471,1.0,2725.490558401028,0.4041225390929591,1.3098914793742322,0.9712240410290656,0.2864312,0.6937731856226078
0.0465,1.7459437500000001,1.0,2723.9376867642386,0.4074649375939057,1.3093834293622582,0.9716417512484955,0.28638263750000004,0.6947764465435224
0.047,1.744775,1.0,2722.311804182361,0.41078858759740694,1.3088704027295002,0.9720470895175924,0.28633355,0.6957878645335344
0.0475,1.74359375,1.0,2720.619645269714,0.4140935961516539,1.3083523387600182,0.9724405299721066,0.28628393750000003,0.6968075101442186
0.048,1.7424,1.0,2718.863483925896,0.41738004690681335,1.3078292173117012,0.9728225236716405,0.2862338,0.697835372988729
0.0485,1.74119375,1.0,2717.0561466267145,0.4206480765381197,1.30730092209941,0.9731934999698485,0.2861831375,0.6988716303471056
0.049,1.739975,1.0,2715.2005882182402,0.42389778438482645,1.3067674266645002,0.9735538693396416,0.28613195,0.6999162816889046
0.0495,1.73874375,1.0,2713.299745910465,0.4271292697191331,1.3062287046854382,0.9739040229426021,0.2860802375,0.7009693253401745
0.05,1.7375,1.0,2711.3565540848163,0.4303426318132392,1.30568472984069,0.974244333708265,0.286028,0.702030758744338
0.0505,1.73624375,1.0,2709.373944057311,0.43353796993934424,1.3051354758087217,0.9745751573447246,0.2859752375,0.7031005784533961
0.051000000000000004,1.734975,1.0,2707.354843857753,0.4367153833696478,1.3045809162679995,0.9748968332844978,0.28592195,0.7041787801190875
0.051500000000000004,1.73369375,1.0,2705.3021780233803,0.4398749713763494,1.3040210248969897,0.9752096855703403,0.2858681375,0.7052653584840051
0.052000000000000005,1.7324,1.0,2703.218867408521,0.44301683323164864,1.3034557753741582,0.975514023685313,0.2858138,0.7063603073726672
0.0525,1.73109375,1.0,2701.1078290094847,0.4461410682077449,1.3028851413779716,0.9758101433310709,0.28575893750000003,0.7074636196825451
0.053,1.729775,1.0,2698.9719758047167,0.44924777557683787,1.3023090965868955,0.976098327158021,0.28570355000000003,0.708575287375048
0.0535,1.72844375,1.0,2696.8142166101766,0.45233705461112705,1.3017276146793966,0.976378845450716,0.2856476375,0.7096953014664591
0.054,1.7271,1.0,2694.637455950544,0.45540900458281197,1.3011406693339405,0.976651956771587,0.2855912,0.710823652018834
0.0545,1.7257437500000001,1.0,2692.444593945253,0.45846372476409214,1.3005482342289938,0.9769179085658771,0.2855342375,0.7119603281308479
0.055,1.7243773278526953,1.0,2690.353693422757,0.46150131361764124,1.299950279905128,0.9771769374648382,0.2854768477698132,0.7131053239312355
0.0555,1.7230099565037809,1.0,2688.7885530183635,0.46452186541834783,1.299347089108648,0.9774292881807177,0.2854194181731588,0.7142580364865406
0.056,1.7216425851548662,1.0,2687.749812267187,0.4675254748714452,1.2987390804550172,0.9776752031963863,0.2853619885765044,0.7154176078089629
0.0565,1.7202752138059516,1.0,2687.199322196135,0.4705122362477019,1.2981266006284058,0.9779149107512684,0.28530455897984996,0.7165833226969103
0.057,1.7189078424570372,1.0,2687.0990894485008,0.4734822438178867,1.2975099963129848,0.9781486297299179,0.2852471293831956,0.7177544709625248
0.0575,1.7175404711081226,1.0,2687.4112432481124,0.4764355918527683,1.2968896141929245,0.9783765701311997,0.28518969978654113,0.7189303475267106
0.058,1.716173099759208,1.0,2688.1022477662236,0.4793723736639489,1.2962657620916833,0.9785989312392012,0.28513227018988674,0.720110325931869
0.0585,1.7148057284102933,1.0,2689.137483507581,0.482292683341002,1.2956387583769606,0.978815905054356,0.2850748405932323,0.721293764494034
0.059000000000000004,1.7134383570613787,1.0,2690.491690009004,0.4851966125049057,1.2950088361344068,0.9790276710814453,0.2850174109965779,0.7224801868706082
0.059500000000000004,1.7120709857124643,1.0,2692.140488472078,0.4880842525503244,1.29437622069291,0.9792344013597554,0.2849599813999235,0.7236691348550994
0.06,1.7107036143635497,1.0,2694.0595209861262,0.49095569487192225,1.2937411373813588,0.9794362612588455,0.28490255180326907,0.7248601537305668
0.0605,1.709336243014635,1.0,2696.2255453275025,0.49381103045418373,1.2931038013982101,0.9796334092174662,0.2848451222066147,0.7260528112433629
0.061,1.7079688716657206,1.0,2698.616422307286,0.49665035027552434,1.2924644178420044,0.979825997102843,0.2847876926099603,0.7272466973735251
0.0615,1.706601500316806,1.0,2701.2131745778074,0.4994737442997774,1.2918231628305876,0.9800141694400487,0.28473026301330584,0.728441459297042
0.062,1.7052341289678914,1.0,2704.000230484767,0.50228130113325,1.2911801812679076,0.9801980636056502,0.28467283341665145,0.729636804964249
0.0625,1.7038667576189768,1.0,2706.9620066399857,0.5050731093822489,1.2905356180579128,0.9803778118755696,0.284615403819997,0.7308324446419215
0.063,1.7024993862700621,1.0,2710.082902608099,0.5078492576530812,1.289889618104551,0.9805535416564223,0.2845579742233426,0.7320280909285639
0.0635,1.7011320149211477,1.0,2713.356228147352,0.5106098281862247,1.2892422448812075,0.9807253710785945,0.28450054462668817,0.7332236089798456
0.064,1.6997646435722331,1.0,2716.7556450714915,0.5133549184310926,1.2885937408365304,0.98089342415913,0.2844431150300338,0.7344185355547752
0.0645,1.6983972722233185,1.0,2720.2710063112177,0.5160846145239872,1.2879442004815307,0.9810578122292596,0.2843856854333794,0.7356126830645793
0.065,1.697029900874404,1.0,2723.8946195143367,0.5187990008118609,1.2872936958167582,0.9812186414047942,0.28432825583672494,0.7368059067090178
0.0655,1.6956625295254895,1.0,2727.618777772853,0.5214981616416662,1.2866422988427637,0.981376014048657,0.28427082624007055,0.7379980628639533
0.066,1.6942951581765748,1.0,2731.4357581406553,0.5241821813603554,1.2859900815600969,0.9815300289324366,0.28421339664341616,0.7391890090856159
0.0665,1.6929277868276602,1.0,2735.3378202666404,0.5268511443148811,1.2853371159693077,0.9816807813898916,0.2841559670467617,0.740378604114534
0.067,1.6915604154787456,1.0,2739.3172051428996,0.5295051348521956,1.2846834740709467,0.981828363462865,0.2840985374501073,0.7415667078791346
0.0675,1.6901930441298312,1.0,2743.366133967426,0.5321442373192513,1.2840292278655638,0.9819728640400333,0.28404110785345293,0.7427531814990167
0.068,1.6888256727809166,1.0,2747.476807121817,0.5347685360630007,1.2833744493537091,0.982114368988889,0.2839836782567985,0.7439378872878895
0.0685,1.687458301432002,1.0,2751.641403264548,0.5373781154303962,1.2827192105359326,0.982252961281332,0.2839262486601441,0.745120688756183
0.069,1.6860909300830873,1.0,2755.8598702565137,0.5399730473039633,1.2820635129284867,0.982388717009311,0.28386881906348965,0.7463015774057442
0.0695,1.684723558734173,1.0,2760.118860542621,0.5425534304402044,1.2814074782336482,0.9825217170299639,0.28381138946683526,0.7474803290630703
0.07,1.6833561873852583,1.0,2764.4144951027733,0.5451193455243556,1.28075114226677,0.9826520344337075,0.2837539598701808,0.7486568753695917
0.07050000000000001,1.6819888160363436,1.0,2768.743981626544,0.5476708712483033,1.2800945309303218,0.982779739338035,0.2836965302735264,0.749831166272076
0.07100000000000001,1.680621444687429,1.0,2773.1045193612663,0.5502080863039336,1.279437670126774,0.9829048995795386,0.28363910067687204,0.7510031521496181
0.07150000000000001,1.6792540733385146,1.0,2777.493298961757,0.5527310693831331,1.2787805857585965,0.9830275808041461,0.2835816710802176,0.7521727838140746
0.07200000000000001,1.6778867019896,1.0,2781.907502354421,0.5552398991777882,1.27812330372826,0.9831478465532147,0.2835242414835632,0.753340012510453
0.0725,1.6765193306406854,1.0,2786.344302616163,0.5577346543797849,1.2774658499382343,0.9832657583457022,0.2834668118869088,0.7545047899172617
0.073,1.675151959291771,1.0,2790.8008638682427,0.5602154136810099,1.2768082502909894,0.9833813757566188,0.28340938229025436,0.7556670681468143
0.0735,1.6737845879428563,1.0,2795.2743411855354,0.5626822557733494,1.2761505306889958,0.9834947564919464,0.2833519526936,0.7568267997454912
