Time [s],Phi [rad],STIM [ ],Fsee [N],Gamma [ ],Lcerel [ ],q [ ],Lmtc [m],fisomrel [ ]
0.0,1.8,1.0,19.176926487410125,0.001123525505928908,1.3792064194483564,0.005323908056736104,0.288653,0.5414620263047104
0.0005,1.79999375,1.0,19.80962575598344,0.006726432725139749,1.379135542407749,0.016318450689466826,0.2886527375,0.5416334199081059
0.001,1.799975,1.0,23.98198932420755,0.012297912064955972,1.3787031550313014,0.04164433279021648,0.28865195,0.542678317504267
0.0015,1.79994375,1.0,35.336551818384585,0.017838139811078676,1.3776943365818761,0.07870950649195192,0.2886506375,0.5451115692409965
0.002,1.7999,1.0,61.558233923998564,0.023347291259891902,1.3758686428173976,0.12422109618070765,0.2886488,0.5494986076103558
0.0025,1.79984375,1.0,109.50834931755178,0.028825540725658086,1.3733560657995045,0.17485055473457548,0.28864643749999996,0.5555014289882527
0.003,1.7997750000000001,1.0,176.44607783756334,0.03427306154342742,1.3706479291711668,0.22784011260062223,0.28864354999999997,0.5619263794678753
0.0035,1.79969375,1.0,254.84495893680523,0.03969002607618622,1.3680653231725115,0.28108646857267316,0.2886401375,0.5680099422127382
0.004,1.7996,1.0,339.5287557626512,0.04507660572137407,1.3656842367836581,0.33303635068046683,0.2886362,0.5735811191580149
0.0045000000000000005,1.7994937500000001,1.0,427.8399438724969,0.05043297091735929,1.363491690737131,0.38262717681979713,0.2886317375,0.5786791797355291
0.005,1.799375,1.0,518.2612623769696,0.05575929113254886,1.3614615382041184,0.4292124833132476,0.28862675,0.5833723099461501
0.0055,1.79924375,1.0,609.7332205535521,0.061055734906230646,1.3595716586143212,0.47246753466125774,0.2886212375,0.5877175456675576
0.006,1.7991000000000001,1.0,701.415655263253,0.06632246981889119,1.357805253040172,0.5122980254619369,0.2886152,0.5917582936762067
0.006500000000000001,1.79894375,1.0,792.6125420596742,0.07155966248994215,1.3561494101048839,0.5487639148477368,0.2886086375,0.5955280538327272
0.007,1.798775,1.0,882.7537472014423,0.07676747871410673,1.354593655446313,0.5820210904384088,0.28860155,0.5990540163176707
0.0075,1.79859375,1.0,971.3632826150563,0.08194608308987006,1.3531293858584856,0.6122795683315023,0.2885939375,0.6023585358520689
0.008,1.7984,1.0,1058.0771886240068,0.08709563973018158,1.3517488750800335,0.6397743388666043,0.2885858,0.6054615079079433
0.0085,1.79819375,1.0,1142.586402784757,0.092216311410964,1.3504456621019125,0.6647468086310581,0.2885771375,0.6083795851847964
0.009000000000000001,1.797975,1.0,1224.6544730598791,0.09730825993314547,1.3492138959418654,0.6874326265744709,0.28856795,0.6111277260239287
0.0095,1.79774375,1.0,1304.1289449758278,0.1023716469102463,1.3480479412696142,0.7080545889040383,0.2885582375,0.6137201230165279
0.01,1.7975,1.0,1380.883945679392,0.10740663244880522,1.3469429587608703,0.7268193600885087,0.288548,0.6161689520607558
0.0105,1.79724375,1.0,1454.8287887975293,0.11241337539108125,1.345894588582148,0.7439158187518086,0.2885372375,0.618485119864753
0.011,1.796975,1.0,1525.9231628637222,0.11739203412833239,1.344898625451318,0.7595147784256342,0.28852595000000003,0.6206790119955086
0.0115,1.79669375,1.0,1594.1744914336937,0.1223427671463566,1.3439509642363905,0.7737696682372606,0.2885141375,0.6227606320180397
0.012,1.7964,1.0,1659.5807897994748,0.127265730669538,1.3430481952851931,0.786817935617839,0.28850180000000003,0.6247383154067985
0.0125,1.79609375,1.0,1722.1526547232409,0.13216107983097805,1.3421872348907138,0.7987822002387429,0.2884889375,0.6266195672125239
0.013000000000000001,1.7957750000000001,1.0,1781.9360943128129,0.1370289697637781,1.34136499934594,0.8097715302543573,0.28847555,0.6284117896095229
0.0135,1.79544375,1.0,1838.9943864971492,0.14186955447901362,1.3405785710785036,0.8198829105547775,0.2884616375,0.6301219289608566
0.014,1.7951000000000001,1.0,1893.4007744229486,0.14668298824023981,1.3398252343840187,0.8292025750468879,0.2884472,0.6317564096806338
0.0145,1.79474375,1.0,1945.208699378734,0.15146942224614743,1.3391027545303842,0.8378073102534321,0.2884322375,0.6333205416769963
0.015,1.794375,1.0,1994.4916529566678,0.15622900766888428,1.3384089001353863,0.8457653784960951,0.28841675,0.6348195673123667
0.0155,1.79399375,1.0,2041.33295309868,0.16096189496094712,1.337741532006424,0.8531375462388269,0.2884007375,0.6362584743557195
0.016,1.7936,1.0,2085.82679867448,0.16566823498818767,1.3370985701750178,0.8599779596712211,0.2883842,0.6376420726593068
0.0165,1.7931937500000001,1.0,2128.062192968163,0.17034817742824698,1.3364781412714735,0.8663349707449344,0.2883671375,0.6389746825462193
0.017,1.792775,1.0,2168.1055502134463,0.17500186892674277,1.335878732674407,0.8722518624306618,0.28834955,0.6402598116614612
0.0175,1.7923437500000001,1.0,2206.0337021205505,0.1796294561292928,1.335298831762435,0.8777673434552307,0.2883314375,0.6415009356465124
0.018000000000000002,1.7919,1.0,2241.9330289589243,0.18423108568151478,1.3347369259141728,0.8829160855960485,0.2883128,0.6427015000941632
0.0185,1.79144375,1.0,2275.8901161427366,0.18880690323231786,1.3341915873709997,0.8877292155504896,0.2882936375,0.643864741487409
0.019,1.790975,1.0,2307.9965718915255,0.19335705497342312,1.333661415066299,0.8922347105148752,0.28827395,0.6449938140814888
0.0195,1.79049375,1.0,2338.331420518114,0.19788168507858758,1.3331451999796806,0.8964577961626089,0.2882537375,0.6460914404671512
0.02,1.79,1.0,2366.9604784817234,0.20238093535735466,1.3326419192967822,0.900421254421104,0.288233,0.6471599283372227
0.0205,1.78949375,1.0,2393.9544874650674,0.20685494761926781,1.3321505502032416,0.9041456548839427,0.2882117375,0.648201568876543
0.021,1.788975,1.0,2419.388704637103,0.21130386367387047,1.3316700698846966,0.907649599804869,0.28818995000000003,0.649218637572323
0.021500000000000002,1.78844375,1.0,2443.3250528328426,0.215727824018399,1.3311996232996461,0.910949974055881,0.2881676375,0.6502130405809072
0.022,1.7879,1.0,2465.8577214978295,0.2201269703595579,1.3307380797719213,0.9140620393274812,0.2881448,0.6511872531530046
0.0225,1.78734375,1.0,2487.066941308504,0.22450144263674843,1.3302844762949997,0.9169996964548645,0.28812143749999997,0.6521433823932965
0.023,1.786775,1.0,2506.9911867777714,0.22885137762210211,1.32983827450052,0.9197756761342224,0.28809755,0.6530826297019122
0.0235,1.78619375,1.0,2525.67100047006,0.23317691208775038,1.32939893602012,0.9224015790439576,0.28807313749999996,0.6540061892500413
0.024,1.7856051003063633,1.0,2543.3934489904927,0.23747818280582478,1.328965922485438,0.9248879917199263,0.28804841421286725,0.654915248224824
0.0245,1.7850163922352986,1.0,2560.5584147020613,0.24175532654845683,1.3285386955281122,0.9272445891563317,0.28802368847388254,0.6558109870557601
0.025,1.784427684164234,1.0,2577.207294240393,0.24600847889031593,1.3281168359119426,0.9294802456993031,0.28799896273489783,0.6566943303288755
0.025500000000000002,1.7838389760931692,1.0,2593.337746066711,0.2502377755059337,1.3277003135403045,0.9316031590906175,0.2879742369959131,0.6575653842652619
0.026000000000000002,1.7832502680221045,1.0,2608.96306790091,0.25444334938769714,1.3272889550567184,0.9336208254693266,0.28794951125692836,0.6584245532457952
0.0265,1.78266155995104,1.0,2624.0986494485355,0.25862533285028894,1.3268825714664851,0.935540128956449,0.28792478551794365,0.6592722719115378
0.027,1.7820728518799753,1.0,2638.7602848046577,0.2627838582083918,1.326480973774906,0.9373674024275492,0.28790005977895894,0.6601089724585114
0.0275,1.7814841438089106,1.0,2652.9539227902933,0.26691904301922437,1.3260840672987142,0.9391084868987923,0.28787533403997423,0.6609348885648203
0.028,1.780895435737846,1.0,2666.6982589527156,0.27103102126869844,1.3256916425115193,0.9407687590885719,0.2878506083009895,0.6617504910655253
0.0285,1.7803067276667812,1.0,2680.0293098667767,0.2751199524769292,1.3253033344204574,0.9423531711931988,0.2878258825620048,0.6625565708384312
0.029,1.7797180195957165,1.0,2692.9581806201327,0.2791859606022608,1.324919010721358,0.9438663197905868,0.2878011568230201,0.6633534326270857
0.029500000000000002,1.779129311524652,1.0,2705.4962232611924,0.28322916960303723,1.3245385391100506,0.9453124589164967,0.2877764310840354,0.6641413795673283
0.03,1.7785406034535873,1.0,2717.655025305645,0.2872497034376024,1.324161787282365,0.9466955299736323,0.2877517053450507,0.6649207132203532
0.0305,1.7779518953825226,1.0,2729.446398630795,0.29124768606430057,1.3237886229341302,0.9480191886754574,0.28772697960606597,0.6656917336046545
0.031,1.777363187311458,1.0,2740.8823687579643,0.29522324144147566,1.3234189137611765,0.949286829350886,0.28770225386708126,0.6664547392268517
0.0315,1.7767744792403932,1.0,2751.975164523087,0.2991764935274717,1.3230525274593328,0.950501606896913,0.2876775281280965,0.6672100271114064
0.032,1.7761857711693287,1.0,2762.737208135708,0.3031075662806328,1.3226893317244288,0.9516664566322173,0.2876528023891118,0.6679578928292141
0.0325,1.775597063098264,1.0,2773.1811056252764,0.30701658365930284,1.3223291942522941,0.952784112275044,0.2876280766501271,0.6686986305250856
0.033,1.7750083550271993,1.0,2783.3196376765427,0.31090366962182603,1.3219719827387582,0.9538571222427159,0.28760335091114236,0.6694325329441098
0.0335,1.7744196469561346,1.0,2793.1657508521157,0.3147689481265463,1.3216175648796504,0.9548878644473988,0.28757862517215765,0.6701598914569
0.034,1.77383093888507,1.0,2802.7325492038244,0.3186125431318078,1.3212658083708007,0.95587855974287,0.28755389943317294,0.6708809960837245
0.0345,1.7732422308140052,1.0,2812.0332862719383,0.3224345785959545,1.320916580908038,0.9568312841595623,0.28752917369418823,0.6715961355175213
0.035,1.7726535227429407,1.0,2821.0813574721938,0.32623517847733036,1.3205697501871927,0.9577479800498588,0.2875044479552035,0.6723055971457936
0.035500000000000004,1.772064814671876,1.0,2829.8845244511103,0.3300144568586414,1.3202252353984574,0.9586304692917236,0.28747972221621876,0.6730095619068959
0.036000000000000004,1.7714761066008113,1.0,2838.4538691910516,0.33377253828442877,1.3198829269642411,0.9594804588656344,0.28745499647723405,0.6737082686122129
0.0365,1.7708873985297466,1.0,2846.8019272253,0.33750954810998174,1.3195427033289169,0.960299548778131,0.28743027073824934,0.6744019794299995
0.037,1.770298690458682,1.0,2854.935817887109,0.34122560106333,1.3192044920540094,0.9610892434780219,0.28740554499926463,0.6750908553971361
0.0375,1.7697099823876172,1.0,2862.862734578699,0.344920811872503,1.318868220701043,0.9618509563405018,0.2873808192602799,0.6757750568461447
0.038,1.7691212743165527,1.0,2870.5899415973718,0.3485952952655303,1.3185338168315424,0.9625860161920907,0.2873560935212952,0.6764547434143158
0.0385,1.768532566245488,1.0,2878.1247710782277,0.3522491659704415,1.3182012080070324,0.9632956732992864,0.2873313677823105,0.6771300740525041
0.039,1.7679438581744233,1.0,2885.474620052797,0.35588253871526604,1.3178703217890373,0.9639811048703617,0.2873066420433258,0.6778012070335903
0.0395,1.7673551501033586,1.0,2892.646947624371,0.3594955282280336,1.317541085739082,0.9646434201147329,0.2872819163043411,0.6784682999606029
0.04,1.766766442032294,1.0,2899.649272259516,0.36308824923677363,1.3172134274186906,0.9652836648998425,0.28725719056535637,0.6791315097745124
0.0405,1.7661777339612295,1.0,2906.4891691958865,0.36666081646951576,1.3168872743893882,0.965902826041523,0.28723246482637166,0.6797909927616854
0.041,1.7655890258901648,1.0,2913.174267966659,0.3702133446542895,1.316562554212699,0.9665018352602499,0.28720773908738695,0.6804469045610075
0.0415,1.7650003178191,1.0,2919.710578050707,0.3737459434305951,1.316239209144523,0.9670815732102819,0.2871830133484022,0.6810993705345876
0.042,1.7644116097480353,1.0,2926.1007967222954,0.3772587146084716,1.3159172108904178,0.9676428736351338,0.2871582876094175,0.6817484561964902
0.0425,1.7638229016769706,1.0,2932.3586595928105,0.3807517950646429,1.3155964345850824,0.9681865230603296,0.28713356187043276,0.6823944211644893
0.043000000000000003,1.763234193605906,1.0,2938.4881402306673,0.38422529106427467,1.3152768415087415,0.9687132679777571,0.28710883613144805,0.6830373507916834
0.043500000000000004,1.7626454855348415,1.0,2944.493240171513,0.3876793088725328,1.3149583929416209,0.9692238154514219,0.28708411039246334,0.6836773300881108
0.044,1.7620567774637768,1.0,2950.377987919176,0.391113954754583,1.3146410501639458,0.9697188355935016,0.28705938465347863,0.6843144437236267
0.0445,1.761468069392712,1.0,2956.1464379797503,0.3945293349755912,1.314324774455942,0.9701989638612416,0.2870346589144939,0.6849487760306796
0.045,1.7608793613216474,1.0,2961.802669928889,0.39792555580072303,1.3140095270978347,0.9706648031892979,0.28700993317550916,0.685580411006997
0.0455,1.7602906532505826,1.0,2967.350787512611,0.4013027234951444,1.3136952693698494,0.9711169259708111,0.28698520743652445,0.6862094323181684
0.046,1.759701945179518,1.0,2972.794917780628,0.40466094432402105,1.3133819625522116,0.9715558758993125,0.28696048169753974,0.6868359233001411
0.0465,1.7591132371084535,1.0,2978.13921025387,0.4080003245525188,1.3130695679251467,0.9719821696824836,0.286935755958555,0.6874599669616134
0.047,1.7585245290373888,1.0,2983.387836124394,0.4113209704458034,1.3127580467688802,0.9723962986378305,0.2869110302195703,0.6880816459863359
0.0475,1.757935820966324,1.0,2988.5449874892556,0.41462298826904065,1.3124473603636373,0.9727987301794483,0.2868863044805856,0.6887010427353168
0.048,1.7573471128952594,1.0,2993.614876616895,0.4179064842873964,1.3121374699896438,0.9731899092042724,0.2868615787416009,0.6893182392489294
0.0485,1.7567584048241947,1.0,2998.601735247627,0.4211715647660364,1.3118283369271246,0.9735702593854799,0.2868368530026162,0.6899333172489275
0.049,1.7561696967531302,1.0,3003.5052088433754,0.42441831024888066,1.3115199623597589,0.973940184011609,0.2868121272636315,0.6905462788628011
0.0495,1.7555809886820655,1.0,3008.3322765692474,0.42764684904431954,1.3112122840042102,0.9743000689368774,0.28678740152464677,0.6911572521839375
0.05,1.7549922806110008,1.0,3013.087347347075,0.4308572928017636,1.3109052620425201,0.9746502816199564,0.28676267578566206,0.6917663202623467
0.0505,1.754403572539936,1.0,3017.77241670063,0.43404973873479713,1.3105988776709816,0.974991172376355,0.2867379500466773,0.6923735242012966
0.051000000000000004,1.7538148644688714,1.0,3022.3894896686584,0.4372242840570045,1.3102931120858872,0.9753230756169495,0.2867132243076926,0.6929789049491553
0.051500000000000004,1.7532261563978067,1.0,3026.9405805421256,0.4403810259819699,1.3099879464835298,0.9756463107103142,0.2866884985687079,0.6935825033001413
0.052000000000000005,1.7526374483267422,1.0,3031.4277126106745,0.4435200617232777,1.3096833620602022,0.9759611827909835,0.28666377282972316,0.6941843598950566
0.0525,1.7520487402556775,1.0,3035.8529179162033,0.4466414884945121,1.3093793400121971,0.976267983517483,0.28663904709073845,0.694784515221994
0.053,1.7514600321846128,1.0,3040.218237014626,0.4497454035092575,1.3090758615358074,0.9765669917836518,0.28661432135175374,0.695383009617023
0.0535,1.750871324113548,1.0,3044.525718745264,0.4528319039810982,1.308772907827326,0.9768584743865222,0.28658959561276903,0.695979883264852
0.054,1.7502826160424834,1.0,3048.7774200080435,0.45590108712361843,1.3084704600830455,0.9771426866537498,0.28656486987378427,0.6965751761994715
0.0545,1.7496939079714187,1.0,3052.975405548948,0.45895305015040255,1.3081684994992588,0.977419873033374,0.28654014413479956,0.6971689283047682
0.055,1.7491051999003542,1.0,3057.1217477525834,0.4619878902750348,1.3078670072722587,0.9776902676484632,0.28651541839581485,0.6977611793151244
0.0555,1.7485164918292895,1.0,3061.2185264433433,0.4650057047110994,1.307565964598338,0.9779540948190164,0.28649069265683014,0.6983519688159883
0.056,1.7479277837582248,1.0,3065.2678286938226,0.46800659067218087,1.3072653526737894,0.9782115695533062,0.2864659669178454,0.6989413362444254
0.0565,1.74733907568716,1.0,3069.271748641493,0.47099064537186325,1.3069651526949058,0.9784628980106925,0.2864412411788607,0.6995293208896467
0.057,1.7467503676160954,1.0,3073.232387312899,0.47395796602373097,1.30666534585798,0.9787082779377827,0.286416515439876,0.7001159618935124
0.0575,1.7461616595450307,1.0,3077.14763141798,0.4769086010627015,1.3063659494946598,0.9789478968696398,0.2863917897008913,0.7007012276474349
0.058,1.7455729514739662,1.0,3081.02348253266,0.4798427046832099,1.3060669114759267,0.979181940094549,0.2863670639619066,0.7012852222563369
0.0585,1.7449842434029015,1.0,3084.8611148353034,0.482760367850646,1.3057682210865003,0.979410582368173,0.2863423382229219,0.7018679686658071
0.059000000000000004,1.7443955353318368,1.0,3088.6614454924666,0.48566167826685663,1.305469869840879,0.9796339914149158,0.28631761248393717,0.7024494853934834
0.059500000000000004,1.743806827260772,1.0,3092.425394893238,0.48854672363368845,1.3051718492535616,0.9798523284137222,0.28629288674495246,0.7030297908901834
0.06,1.7432181191897074,1.0,3096.1538865860534,0.4914155916529881,1.3048741508390465,0.9800657483043971,0.2862681610059677,0.7036089035400841
0.0605,1.742629411118643,1.0,3099.847847217533,0.4942683700266024,1.3045767661118324,0.9802744000773024,0.286243435266983,0.7041868416608998
0.061,1.7420407030475782,1.0,3103.5082064724543,0.497105146456378,1.3042796865864177,0.9804784270474509,0.28621870952799827,0.7047636235040543
0.0615,1.7414519949765135,1.0,3107.1358970155725,0.4999260086441616,1.303982903777301,0.9806779671139533,0.28619398378901356,0.7053392672548475
0.062,1.7408632869054488,1.0,3110.7318544351015,0.5027310442917999,1.303686409198981,0.9808731530057043,0.28616925805002885,0.7059137910326181
0.0625,1.740274578834384,1.0,3114.297017187585,0.5055203411011396,1.303390194365956,0.9810641125141373,0.28614453231104414,0.7064872128909038
0.063,1.7396858707633194,1.0,3117.8323265443632,0.5082939867740275,1.303094250792725,0.9812509687138178,0.2861198065720594,0.7070595508175916
0.0635,1.739097162692255,1.0,3121.3387265403367,0.5110520690123103,1.302798569993786,0.9814338401716003,0.2860950808330747,0.7076308227350709
0.064,1.7385084546211902,1.0,3124.8171639226434,0.5137946755178345,1.302503143483638,0.9816128411450179,0.28607035509408996,0.7082010465003747
0.0645,1.7379197465501255,1.0,3128.268588103106,0.5165218939924471,1.3022079627767795,0.9817880817705356,0.28604562935510525,0.708770239905321
0.065,1.7373310384790608,1.0,3131.693951110665,0.5192338121379945,1.3019130193877089,0.9819596682422563,0.28602090361612054,0.7093384206766484
0.0655,1.736742330407996,1.0,3135.0942075457892,0.5219305176563237,1.3016183048309247,0.982127702981626,0.2859961778771358,0.7099056064761461
0.066,1.7361536223369314,1.0,3138.470314537085,0.5246120982492812,1.3013238106209255,0.9822922847986574,0.2859714521381511,0.71047181490078
0.0665,1.735564914265867,1.0,3141.82323169862,0.5272786416187139,1.3010295282722102,0.9824535090451497,0.2859467263991664,0.7110370634828145
0.067,1.7349762061948022,1.0,3145.152804535366,0.5299302072814455,1.3007354587539446,0.9826114663831771,0.2859220006601817,0.7116013515562962
0.0675,1.7343874981237375,1.0,3148.4601264665453,0.5325668971619959,1.300441592474347,0.9827662465917595,0.285897274921197,0.7121646986973162
0.068,1.7337987900526728,1.0,3151.746508841272,0.5351888146776573,1.3001479180207434,0.9829179363688975,0.2858725491822123,0.7127271278948123
0.0685,1.733210081981608,1.0,3155.0123759647295,0.537796038473367,1.2998544315059004,0.9830666182550565,0.28584782344322757,0.7132886476603102
0.069,1.7326213739105434,1.0,3158.258153332257,0.540388647194062,1.2995611290425861,0.9832123720166688,0.2858230977042428,0.7138492664755455
0.0695,1.732032665839479,1.0,3161.48426761385,0.5429667194846798,1.2992680067435673,0.983355274758434,0.2857983719652581,0.7144089927925132
0.07,1.7314439577684142,1.0,3164.6911466377946,0.5455303339901575,1.2989750607216122,0.9834954010303396,0.2857736462262734,0.7149678350335087
0.07050000000000001,1.7308552496973495,1.0,3167.8792193757645,0.5480795693554324,1.2986822870894874,0.9836328229296812,0.28574892048728867,0.7155258015911767
