Time [s],Phi [rad],STIM [ ],Fsee [N],Gamma [ ],Lcerel [ ],q [ ],Lmtc [m],fisomrel [ ]
0.0,1.8,1.0,18.064299419692283,0.00031598395387803937,1.3793288778212673,0.005025893972977589,0.288653,0.5411658241417667
0.0005,1.79999375,1.0,18.472059558387596,0.005923420842625687,1.3792807497045674,0.013811785269596977,0.2886527375,0.5412822477791497
0.001,1.799975,1.0,22.040783348765263,0.011499404443924376,1.3788953686925798,0.037220860505959734,0.28865195,0.5422139655080167
0.0015,1.79994375,1.0,31.98578347812515,0.017044111186846893,1.377968684582993,0.07279702903732363,0.2886506375,0.544450489396052
0.002,1.7999,1.0,55.480183098768755,0.022557716508599415,1.3762460837880401,0.11731031105376954,0.2886488,0.5485933814864894
0.0025,1.79984375,1.0,100.24481285537202,0.028040394863687958,1.3737857317061508,0.1673903306249762,0.28864643749999996,0.5544777639441884
0.003,1.7997750000000001,1.0,164.98448073115597,0.033492319729208755,1.3710645658700575,0.22018195416225578,0.28864354999999997,0.5609409692463831
0.0035,1.79969375,1.0,242.2100301921376,0.038913663606556695,1.3684459575770553,0.27349662890569176,0.2886401375,0.5671159959984909
0.004,1.7996,1.0,326.2695575347334,0.044304598031436646,1.3660293565448347,0.32570654320990194,0.2886362,0.5727758614393312
0.0045000000000000005,1.7994937500000001,1.0,414.2323626813757,0.04966529357933033,1.363806627091037,0.3756826060426164,0.2886317375,0.5779487821576632
0.005,1.799375,1.0,504.47210489754656,0.05499591985706008,1.3617511183374762,0.422724253926199,0.28862675,0.5827044910127083
0.0055,1.79924375,1.0,595.8889334523427,0.06029664554094186,1.3598394363850903,0.46646635899450545,0.2886212375,0.5871032526213666
0.006,1.7991000000000001,1.0,687.6173494571975,0.06556763834473733,1.358053896600789,0.5067866209718263,0.2886152,0.591190711508264
0.006500000000000001,1.79894375,1.0,778.9451756363198,0.0708090650255136,1.3563809501705102,0.5437267988561303,0.2886086375,0.5950019717970801
0.007,1.798775,1.0,869.2876074595732,0.0760210915049476,1.3548097165167556,0.5774318938079989,0.28860155,0.5985652584990419
0.0075,1.79859375,1.0,958.1537864325215,0.0812038825141567,1.3533313465558068,0.6081062001820496,0.2885939375,0.601903569965116
0.008,1.7984,1.0,1045.1699100378848,0.08635760233258442,1.3519378890722111,0.6359824176991156,0.2885858,0.6050373795771558
0.0085,1.79819375,1.0,1130.0155878826633,0.09148241380355646,1.3506227568888571,0.6613019273665518,0.2885771375,0.6079836809682952
0.009000000000000001,1.797975,1.0,1212.4471338405367,0.09657847891827173,1.349379964698047,0.6843016917133473,0.28856795,0.6107577814655336
0.0095,1.79774375,1.0,1292.302364072436,0.10164595944137285,1.3482038154886442,0.7052066150670301,0.2885582375,0.6133740525483107
0.01,1.7975,1.0,1369.445595692129,0.10668501543806017,1.3470894374109348,0.7242258465401311,0.288548,0.6158447781816352
0.0105,1.79724375,1.0,1443.7885090644595,0.11169580605819379,1.3460323056606525,0.7415507941721549,0.2885372375,0.6181812609667501
0.011,1.796975,1.0,1515.2865521214655,0.1166784898243983,1.345028159255881,0.7573548178790942,0.28852595000000003,0.6203940348230179
0.0115,1.79669375,1.0,1583.9423150782159,0.121633225422755,1.3440728592746207,0.771793770807863,0.2885141375,0.6224931999699842
0.012,1.7964,1.0,1649.7425404574217,0.12656016879409965,1.3431630505957284,0.785007382512307,0.28850180000000003,0.6244869920466631
0.0125,1.79609375,1.0,1712.7046931337518,0.1314594754757224,1.3422954995099958,0.797120264460174,0.2884889375,0.6263832621658241
0.013000000000000001,1.7957750000000001,1.0,1772.8761245965711,0.1363313006159667,1.3414670512571192,0.8082433126275776,0.28847555,0.6281895819699232
0.0135,1.79544375,1.0,1830.3228240639135,0.1411757991801499,1.3406747118062845,0.8184751467206007,0.2884616375,0.62991307632559
0.014,1.7951000000000001,1.0,1885.1027625144611,0.14599312436800943,1.3399158946053384,0.8279035276036666,0.2884472,0.6315598998553968
0.0145,1.79474375,1.0,1937.2712019775688,0.1507834277805866,1.3391883068109123,0.8366065288800795,0.2884322375,0.6331354991159006
0.015,1.794375,1.0,1986.9043587254846,0.15554686101892282,1.3384896555796366,0.8446535493998315,0.28841675,0.634645258499933
0.0155,1.79399375,1.0,2034.0815514955425,0.1602835746580303,1.3378178169119317,0.8521063837843076,0.2884007375,0.6360941408700784
0.016,1.7936,1.0,2078.9052276032476,0.16499372022843575,1.3371706002185375,0.8590200454242022,0.2883842,0.6374872013656605
0.0165,1.7931937500000001,1.0,2121.4480084969287,0.1696774459260392,1.336546282407963,0.8654437285042041,0.2883671375,0.6388284432314401
0.017,1.792775,1.0,2161.7831468455656,0.17433489910385702,1.3359432603952133,0.8714213901596988,0.28834955,0.6401215746015113
0.0175,1.7923437500000001,1.0,2199.9948048508563,0.17896622711490567,1.3353599310952937,0.8769923343948457,0.2883314375,0.6413702698206628
0.018000000000000002,1.7919,1.0,2236.170534118012,0.18357157656744844,1.3347947576128365,0.8821917763008805,0.2883128,0.642578030213527
0.0185,1.79144375,1.0,2270.402297244764,0.18815109433300084,1.3342462478638268,0.8870513138867825,0.2882936375,0.6437482327453866
0.019,1.790975,1.0,2302.7717303832274,0.19270492563541652,1.3337130910695834,0.8915993787007673,0.28827395,0.6448838419922958
0.0195,1.79049375,1.0,2333.3468468195406,0.19723321329108062,1.3331941771845575,0.8958616005735529,0.2882537375,0.6459873733746995
0.02,1.79,1.0,2362.2013602241896,0.20173610011637835,1.3326883961632008,0.8998610778995324,0.288233,0.6470613235279247
0.0205,1.78949375,1.0,2389.414208838784,0.20621372892769485,1.3321946379599656,0.9036186617525612,0.2882117375,0.648108171271197
0.021,1.788975,1.0,2415.05685271699,0.21066624072915546,1.331711910945319,0.9071532299016718,0.28818995000000003,0.6491301279878978
0.021500000000000002,1.78844375,1.0,2439.21665893101,0.2150937791488303,1.331239110060469,0.9104818556563637,0.2881676375,0.6501296299947337
0.022,1.7879,1.0,2461.957883929405,0.21949648373229227,1.330775389467395,0.913620076469587,0.2881448,0.651108551411649
0.0225,1.78734375,1.0,2483.337329457605,0.22387449236104268,1.3303200042480077,0.9165820256956001,0.28812143749999997,0.6520685420714165
0.023,1.786775,1.0,2503.4144935956247,0.22822794291658274,1.3298722094842172,0.9193805612962784,0.28809755,0.6530112417410736
0.0235,1.78619375,1.0,2522.251346007494,0.2325569732804137,1.3294312602579348,0.9220273985785632,0.28807313749999996,0.6539382805002195
0.024,1.7856,1.0,2539.911651177956,0.23686172122092927,1.3289964160262118,0.9245332282678407,0.2880482,0.6548512699040427
0.0245,1.78499375,1.0,2556.44871946505,0.2411423213679431,1.3285670537153387,0.9269078387451753,0.2880227375,0.6557515663674163
0.025,1.784375,1.0,2571.9364950046556,0.24539891373110334,1.3281423730955875,0.9291601591094765,0.28799675,0.6566408896020289
0.025500000000000002,1.78374375,1.0,2586.417869841285,0.2496316308751174,1.3277218804942832,0.9312984196917934,0.2879702375,0.6575203094556465
0.026000000000000002,1.7831000000000001,1.0,2599.936994082934,0.2538406053646926,1.32730508223875,0.9333301718745909,0.2879432,0.6583908901169806
0.0265,1.78244375,1.0,2612.5391709739715,0.2580259697645364,1.326891484656313,0.9352623532614208,0.2879156375,0.659253690239769
0.027,1.781775,1.0,2624.2707573717,0.2621878566393562,1.3264805940742963,0.937101345797082,0.28788755,0.660109763051322
0.0275,1.7810937500000001,1.0,2635.1790696261014,0.2663263985538593,1.3260719168200252,0.9388530276764244,0.2878589375,0.6609601564455183
0.028,1.7804,1.0,2645.302724797651,0.27044172409666145,1.325665047582556,0.9405228311646296,0.2878298,0.6618057295377919
0.0285,1.77969375,1.0,2654.695167832821,0.2745339690666714,1.3252594510172082,0.9421157559096233,0.2878001375,0.6626476069004603
0.029,1.778975,1.0,2663.3911873780276,0.27860326193976925,1.324854770320699,0.9436364458323812,0.28776995,0.6634865376271872
0.029500000000000002,1.7782437500000001,1.0,2671.4222401338866,0.282649729568566,1.3244506843603423,0.9450892026443275,0.2877392375,0.6643231932975304
0.03,1.7775,1.0,2678.820261205962,0.2866734988056724,1.324046872003453,0.9464780114745945,0.287708,0.6651582421708473
0.0305,1.77674375,1.0,2685.6176208202132,0.2906746965036994,1.323643012117345,0.9478065681857699,0.2876762375,0.6659923491951916
0.031,1.775975,1.0,2691.8470833244164,0.29465344951525796,1.3232387835693327,0.949078304010115,0.28764395,0.6668261760096241
0.0315,1.7751937500000001,1.0,2697.541768476213,0.2986098846929588,1.3228338652267304,0.9502964077981458,0.2876111375,0.6676603809399531
0.032,1.7744,1.0,2702.722619660711,0.30254412314437235,1.3224280500960486,0.9514638583156659,0.2875778,0.6684953842833545
0.0325,1.77359375,1.0,2707.4279850903754,0.3064562958138399,1.322020974539316,0.9525834135042985,0.2875439375,0.6693319258824909
0.033,1.772775,1.0,2711.6905162258636,0.31034652944090413,1.3216123293664814,0.9536576492569719,0.28750955,0.6701706301003376
0.0335,1.7719437500000002,1.0,2715.530234211019,0.31421494429568886,1.3212019225184801,0.954688980461615,0.2874746375,0.6710118780944907
0.034,1.7711000000000001,1.0,2718.9673235138985,0.318061660648318,1.320789561936247,0.9556796621329764,0.2874392,0.6718560489564755
0.0345,1.7702437500000001,1.0,2722.022115799039,0.3218867987689152,1.3203750555607177,0.9566318018822382,0.2874032375,0.6727035196889894
0.035,1.7693750000000001,1.0,2724.71507461733,0.3256904789276043,1.319958211332827,0.9575473712748442,0.28736675,0.6735546651807973
0.035500000000000004,1.76849375,1.0,2727.066780913752,0.3294728213945091,1.3195388371935106,0.9584282161873067,0.2873297375,0.6744098581792701
0.036000000000000004,1.7676,1.0,2729.097919353012,0.33323394643975346,1.3191167410837035,0.9592760662616049,0.2872922,0.6752694692605758
0.0365,1.76669375,1.0,2730.829265463113,0.336973974333461,1.3186917309443407,0.960092543545142,0.2872541375,0.6761338667975128
0.037,1.765775,1.0,2732.27901276914,0.3406930228229052,1.3182636388899616,0.9608791722477917,0.28721555,0.6770033678588016
0.0375,1.76484375,1.0,2733.4623327358345,0.3443912084976451,1.3178323250775583,0.9616373865099167,0.2871764375,0.6778782306626062
0.038,1.7639,1.0,2734.401917313222,0.3480686559764401,1.3173975818568657,0.96236852953613,0.28713679999999997,0.6787588489522137
0.0385,1.76294375,1.0,2735.109366457667,0.3517254787817868,1.3169593027547253,0.9630738721310241,0.28709663750000003,0.6796454094299693
0.039,1.761975,1.0,2735.5963168050544,0.3553617904361817,1.3165173812979782,0.9637546105691097,0.28705595,0.6805380973733108
0.0395,1.7609937500000001,1.0,2735.874436817936,0.35897770446212135,1.3160717110134663,0.9644118717661581,0.2870147375,0.6814370966103949
0.04,1.76,1.0,2735.9554221827148,0.36257333438210226,1.3156221854280306,0.9650467180384573,0.286973,0.6823425894950061
0.0405,1.7589937500000001,1.0,2735.8509914589595,0.366148793718621,1.3151686980685124,0.9656601514868441,0.2869307375,0.6832547568807361
0.041,1.757975,1.0,2735.572881979646,0.36970419599417415,1.3147111424617537,0.9662531180387401,0.28688795,0.6841737780944445
0.0415,1.75694375,1.0,2735.1328460029395,0.3732396547312582,1.3142494121345951,0.9668265111781682,0.2868446375,0.6850998309089968
0.042,1.7559,1.0,2734.54253995428,0.37675528329361363,1.313783401587033,0.967381175445936,0.28680079999999997,0.6860330895678275
0.0425,1.75484375,1.0,2733.8028229376437,0.3802511777289311,1.3133131034582977,0.9679179148506004,0.2867564375,0.6869735306164862
0.043000000000000003,1.753775,1.0,2732.941014530076,0.38372747408593677,1.3128382701305712,0.9684374771303392,0.28671155,0.6879216095080094
0.043500000000000004,1.75269375,1.0,2731.96310119859,0.3871842784834505,1.3123588477387167,0.9689405811134829,0.28666613750000003,0.688877392344838
0.044,1.7516,1.0,2730.875072843009,0.3906216970402918,1.3118747824175976,0.9694279078707622,0.2866202,0.6898409441708424
0.0445,1.75049375,1.0,2729.682921567782,0.39403983587528063,1.311386020302077,0.9699001030685126,0.2865737375,0.6908123289554671
0.045,1.7493750000000001,1.0,2728.3926405166553,0.39743880110723656,1.3108925075270186,0.9703577791528991,0.28652675,0.6917916095776873
0.0455,1.74824375,1.0,2727.0102227723255,0.4008186988549793,1.3103941902272853,0.9708015173788298,0.2864792375,0.6927788478097826
0.046,1.7471,1.0,2725.5416603205276,0.4041796352373286,1.3098910145377405,0.9712318696960003,0.2864312,0.6937741043009245
0.0465,1.7459437500000001,1.0,2723.992943078049,0.4075217163731042,1.3093829265932477,0.9716493605034063,0.28638263750000004,0.6947774385605775
0.047,1.744775,1.0,2722.3700579852493,0.41084504838112573,1.30886987252867,0.9720544882826698,0.28633355,0.6957889089417191
0.0475,1.74359375,1.0,2720.678988163259,0.41414973738021293,1.3083517984788708,0.9724477271196116,0.28628393750000003,0.6968085726238706
0.048,1.7424,1.0,2718.925712134695,0.4174358894891856,1.3078286505787136,0.9728295281227016,0.2862338,0.6978364855959447
0.0485,1.74119375,1.0,2717.116203109787,0.42070361082686336,1.3073003749630612,0.9732003207462667,0.2861831375,0.6988727026389094
0.049,1.739975,1.0,2715.253153253892,0.42395298958163824,1.30676694761402,0.9735605139082795,0.28613195,0.6999172189144678
0.0495,1.73874375,1.0,2713.345372614077,0.42718414995888526,1.3062282887214258,0.9739104978164438,0.2860802375,0.7009701377128414
0.05,1.7375,1.0,2711.3965893250547,0.4303971948804255,1.3056843647212997,0.9742506450302831,0.286028,0.7020314705514523
0.0505,1.73624375,1.0,2709.409619273318,0.4335922225960461,1.305135150333385,0.9745813109119372,0.2859752375,0.7031012118336177
0.051000000000000004,1.734975,1.0,2707.3872751605704,0.43676933135553436,1.3045806202774246,0.9749028345706082,0.28592195,0.7041793550746789
0.051500000000000004,1.73369375,1.0,2705.3323663113383,0.43992861940867756,1.3040207492731621,0.9752155397467474,0.2858681375,0.7052658928934474
0.052000000000000005,1.7324,1.0,2703.2476984958,0.44307018500526296,1.3034555120403404,0.9755197356406256,0.2858138,0.7063608170036187
0.0525,1.73109375,1.0,2701.136073766163,0.4461941263950777,1.3028848832987028,0.975815717689242,0.28575893750000003,0.7074641182051378
0.053,1.729775,1.0,2699.000290307601,0.4493005418279093,1.3023088377679923,0.9761037682952101,0.28570355000000003,0.7085757863755284
0.0535,1.72844375,1.0,2696.843142302842,0.45238952955354483,1.3017273501679525,0.9763841575109768,0.2856476375,0.7096958104611792
0.054,1.7271,1.0,2694.667419811672,0.45546118782177153,1.301140395218326,0.9766571436814714,0.2855912,0.7108241784685918
0.0545,1.7257437500000001,1.0,2692.475908663829,0.45851561488237674,1.3005479476388564,0.9769229740480392,0.2855342375,0.7119608774555843
0.055,1.724375,1.0,2690.2713903664894,0.4615529089851477,1.2999499821492868,0.9771818853162993,0.28547675,0.713105893522457
0.0555,1.72299375,1.0,2688.0566420261184,0.4645731683798717,1.2993464734693605,0.9774341041903629,0.2854187375,0.7142592118031169
0.056,1.7216,1.0,2685.8365570441024,0.4675764862381784,1.2987373768858468,0.9776798462655119,0.2853602,0.7154208534801134
0.0565,1.72019375,1.0,2683.608123360062,0.47056296073450066,1.2981227200813417,0.9779193228438003,0.28530113749999997,0.7165907008013457
0.057,1.718775,1.0,2681.3722138795406,0.47353268563750034,1.2975024951563963,0.9781527340852377,0.28524155,0.717768703366449
0.0575,1.71734375,1.0,2679.130779099171,0.4764857532875467,1.2968766843122268,0.9783802712914035,0.2851814375,0.7189548288003139
0.058,1.7159,1.0,2676.8857662991777,0.4794222560250093,1.2962452697500495,0.9786021180213185,0.2851208,0.7201490438479605
0.0585,1.71444375,1.0,2674.6391195232177,0.48234228619025743,1.2956082336710804,0.9788184504642531,0.2850596375,0.7213513143681887
0.059000000000000004,1.7129750000000001,1.0,2672.3927795652785,0.4852459361236605,1.294965558276536,0.9790294377917151,0.28499795,0.7225616053272048
0.059500000000000004,1.71149375,1.0,2670.1486839644126,0.48813329816558804,1.2943172257676325,0.9792352424899309,0.2849357375,0.7237798807922335
0.06,1.71,1.0,2667.908767005484,0.49100446465640923,1.293663218345586,0.9794360206740492,0.284873,0.7250061039251041
0.0605,1.7084937500000001,1.0,2665.6756269734324,0.4938595271059131,1.2930035120744228,0.9796319219884829,0.2848097375,0.7262402484440484
0.061,1.7069750000000001,1.0,2663.446598917233,0.4966985749705361,1.2923381314085858,0.9798230927155442,0.28474595,0.7274821968256902
0.0615,1.7054437500000001,1.0,2661.222140174453,0.4995216979874321,1.2916670721013526,0.9800096720514869,0.2846816375,0.7287318847315829
0.062,1.7039,1.0,2658.9999492211873,0.5023289855627799,1.2909903553062358,0.9801917952110394,0.2846168,0.729989199996016
0.0625,1.70234375,1.0,2656.7857062292373,0.5051205264250862,1.290307928675358,0.9803695884500038,0.2845514375,0.7312541662889771
0.063,1.7007750000000001,1.0,2654.581475916888,0.5078964089971455,1.289619773097349,0.9805431749803615,0.28448555,0.7325267443591839
0.0635,1.6991940000049799,1.0,2652.3960751311033,0.510656721032308,1.2889259200749326,0.9807126759729202,0.2844191480002092,0.733806800729763
0.064,1.6976090000298796,1.0,2650.6183646172576,0.5134015498741784,1.2882265082796005,0.9808782135447377,0.2843525780012549,0.7350940048627213
0.0645,1.6960240000547793,1.0,2649.401567704523,0.5161309825048725,1.2875219267197395,0.9810399179471355,0.28428600800230075,0.7363875690541095
0.065,1.694439000079679,1.0,2648.70155523925,0.518845105068228,1.286812579021524,0.9811979154823589,0.2842194380033465,0.7376866853157593
0.0655,1.6928540001045786,1.0,2648.4853268839897,0.52154400130624,1.2860987678084337,0.9813523228538169,0.2841528680043923,0.7389907367936733
0.066,1.6912690001294783,1.0,2648.6945774355904,0.5242277608718429,1.2853810305265585,0.9815032646414853,0.28408629800543805,0.7402986843609678
0.0665,1.689684000154378,1.0,2649.2959911556445,0.5268964683297207,1.284659675017287,0.9816508496238189,0.2840197280064839,0.7416099152393258
0.067,1.6880990001792775,1.0,2650.263063544292,0.5295502067779432,1.2839349470026855,0.9817951797520869,0.2839531580075296,0.7429239345362952
0.0675,1.6865140002041772,1.0,2651.569350121326,0.5321890593145795,1.2832070922048195,0.9819363535103748,0.28388658800857547,0.7442402516737591
0.068,1.6849290002290769,1.0,2653.188448720486,0.5348131090376993,1.2824763563457553,0.9820744660643723,0.2838200180096212,0.745558380438858
0.0685,1.6833440002539766,1.0,2655.093983125298,0.5374224390453721,1.2817429851475584,0.9822096094028403,0.28375344801066704,0.7468778390310673
0.069,1.6817590002788763,1.0,2657.2595880411513,0.5400171324356673,1.2810072243322947,0.9823418724721569,0.2836868780117128,0.7481981501054189
0.0695,1.6801740003037757,1.0,2659.6620738237657,0.5425972710267825,1.2802692903545774,0.9824713398544033,0.28362030801275856,0.7495188931254515
0.07,1.6785890003286754,1.0,2662.281625381969,0.5451629364855847,1.279529368529097,0.9825980919228283,0.28355373801380435,0.7508397070463148
0.07050000000000001,1.677004000353575,1.0,2665.0925673479733,0.5477142134629334,1.2787876979709603,0.9827222091181336,0.28348716801485013,0.7521601385843515
0.07100000000000001,1.6754190003784748,1.0,2668.0822088525883,0.5502511810193561,1.2780443981212095,0.9828437634845502,0.2834205980158959,0.753479951126959
0.07150000000000001,1.6738340004033745,1.0,2671.2378484549276,0.5527739182153806,1.2772995884208869,0.9829628247599492,0.2833540280169417,0.7547989102729807
0.07200000000000001,1.6722490004282742,1.0,2674.5467699859123,0.5552825041115346,1.2765533883110347,0.9830794604680115,0.2832874580179875,0.7561167838446622
0.0725,1.6706640004531739,1.0,2677.9962387081587,0.5577770177683455,1.2758059172326954,0.983193736006163,0.2832208880190333,0.7574333418986976
0.073,1.6690790004780736,1.0,2681.5734977920583,0.5602575382463413,1.2750572946269114,0.9833057147294909,0.28315431802007907,0.7587483567363662
0.0735,1.667494000502973,1.0,2685.265765107941,0.5627241446060495,1.2743076399347246,0.9834154580308544,0.28308774802112485,0.7600616029127598
0.074,1.6659090005278727,1.0,2689.0618880697225,0.5651769144110254,1.2735570574161186,0.9835230246607655,0.28302117802217064,0.7613728837303393
