Time [s],Phi [rad],STIM [ ],Fsee [N],Gamma [ ],Lcerel [ ],q [ ],Lmtc [m],fisomrel [ ]
0.0,1.8,1.0,17.96755754621954,1.000135030990541e-05,1.3793397014762057,0.005000026658939306,0.288653,0.5411396392982883
0.0005,1.79999375,1.0,18.27685298838386,0.005619154559438366,1.3793023756992595,0.012940517457774171,0.2886527375,0.5412299355513324
0.001,1.799975,1.0,21.61845140777206,0.011196844853986166,1.3789382949795577,0.03560858272671933,0.28865195,0.542110231498679
0.0015,1.79994375,1.0,31.06921387514615,0.0167432487168877,1.378046205614301,0.07060171321274773,0.2886506375,0.5442636046576201
0.002,1.7999,1.0,53.582108035593315,0.022258541639427816,1.3763681498392188,0.1147178460839185,0.2886488,0.5483004329929952
0.0025,1.79984375,1.0,97.11828509583277,0.02774289812880212,1.3739351987044726,0.1645746844717759,0.28864643749999996,0.5541213876589497
0.003,1.7997750000000001,1.0,160.95736434215883,0.0331964917158373,1.371214373793851,0.2172802386383838,0.28864354999999997,0.5605863797475737
0.0035,1.79969375,1.0,237.6824459123948,0.03861949495458029,1.368584761512944,0.2706126738963838,0.2886401375,0.5667897754478513
0.004,1.7996,1.0,321.4658601542327,0.04401207943308107,1.3661561165299843,0.3229155936712647,0.2886362,0.5724799053816346
0.0045000000000000005,1.7994937500000001,1.0,409.266850034853,0.04937441577857703,1.3639228353107296,0.3730343102664301,0.2886317375,0.5776791133271671
0.005,1.799375,1.0,499.41260906701245,0.05470667364858123,1.3618583613676385,0.4202472766477106,0.28862675,0.5824570354219629
0.0055,1.79924375,1.0,590.7895404490667,0.060009021778364126,1.3599388521663767,0.46417352845039883,0.2886212375,0.5868750723888752
0.006,1.7991000000000001,1.0,682.5172485892692,0.06528162792407177,1.3581464303751656,0.5046798069146952,0.2886152,0.5909793826834397
0.006500000000000001,1.79894375,1.0,773.880499930667,0.07052465891836263,1.356467266555648,0.5418006186100781,0.2886086375,0.5948057649054355
0.007,1.798775,1.0,864.2850185141958,0.07573828065399754,1.3548904078008468,0.5756766536572024,0.28860155,0.5983826481216475
0.0075,1.79859375,1.0,953.2425289726284,0.0809226580935754,1.3534067897492728,0.6065098006039487,0.2885939375,0.6017335489767645
0.008,1.7984,1.0,1040.3439925420616,0.0860779548649937,1.3520088592698793,0.6345320749189938,0.2885858,0.6048780707765251
0.0085,1.79819375,1.0,1125.3140794175952,0.09120433508081355,1.350689243594994,0.6599843396280918,0.2885771375,0.6078349949833258
0.009000000000000001,1.797975,1.0,1207.8998522631023,0.09630196067713748,1.349442039536656,0.6831041101638039,0.28856795,0.6106194547336166
0.0095,1.79774375,1.0,1287.8918824602204,0.10137099217394695,1.348262128081019,0.7041174034014164,0.2885582375,0.6132445476545917
0.01,1.7975,1.0,1365.1666653014531,0.10641159009122349,1.3471443902142357,0.7232341606001458,0.288548,0.6157231260930691
0.0105,1.79724375,1.0,1439.659016199126,0.11142391438488612,1.3460839524324808,0.7406466000010437,0.2885372375,0.6180672763670675
0.011,1.796975,1.0,1511.3219003708432,0.11640812382294406,1.345076557476427,0.7565290727913231,0.28852595000000003,0.6202875302302877
0.0115,1.79669375,1.0,1580.1206454942676,0.12136437558304355,1.3441184874426884,0.7710385597195999,0.2885141375,0.6223930695158046
0.012,1.7964,1.0,1646.0567142966922,0.1262928263059989,1.3432061684277614,0.7843155436993499,0.28850180000000003,0.6243926210240276
0.0125,1.79609375,1.0,1709.1736800733313,0.13119363284005015,1.3423360381778453,0.7964852846944247,0.2884889375,0.6262947607292629
0.013000000000000001,1.7957750000000001,1.0,1769.5064899669958,0.13606695005056618,1.3415050734800527,0.8076594541038232,0.28847555,0.6281067754699741
0.0135,1.79544375,1.0,1827.0914766210706,0.1409129313938868,1.3407105956532555,0.8179374311349112,0.2884616375,0.6298351084489919
0.014,1.7951000000000001,1.0,1881.9926159813085,0.1457317303263519,1.339949926016327,0.8274074982594685,0.2884472,0.631486121815988
0.0145,1.79474375,1.0,1934.2788278951527,0.15052349926334108,1.339220604827631,0.8361481668523277,0.2884322375,0.6330656290190569
0.015,1.794375,1.0,1984.0509219162607,0.15528839122996566,1.3385200660519354,0.8442291892407447,0.28841675,0.6345796073985756
0.0155,1.79399375,1.0,2031.371223776394,0.16002655593898668,1.337846364521366,0.8517128209165937,0.2884007375,0.6360326338638274
0.016,1.7936,1.0,2076.3114223534308,0.16473814274883286,1.3371976238012278,0.8586545208253862,0.2883842,0.6374290896135386
0.0165,1.7931937500000001,1.0,2118.957536295675,0.16942330101793288,1.3365719674568253,0.8651037351774166,0.2883671375,0.6387733122520465
0.017,1.792775,1.0,2159.390789007827,0.17408217883616947,1.335967701884128,0.8711046623633216,0.28834955,0.6400692069218676
0.0175,1.7923437500000001,1.0,2197.7183932041767,0.17871492528155292,1.335382984747547,0.8766967789069576,0.2883314375,0.6413209615491924
0.018000000000000002,1.7919,1.0,2234.011180378164,0.18332168579336022,1.334816447814651,0.8819155618492723,0.2883128,0.642531716431056
0.0185,1.79144375,1.0,2268.3434142185242,0.18790260545118223,1.334266772058935,0.8867928402727396,0.2882936375,0.6437044805398597
0.019,1.790975,1.0,2300.7968828320068,0.19245782933460984,1.333732638453894,0.8913572049989554,0.28827395,0.6448422386179928
0.0195,1.79049375,1.0,2331.4517654072306,0.1969875014151008,1.333212811515626,0.8956343995613574,0.2882537375,0.6459477750059051
0.02,1.79,1.0,2360.397143288838,0.20149176676124286,1.3327060281245946,0.8996476181757369,0.288233,0.6470239121478204
0.0205,1.78949375,1.0,2387.704669758542,0.20597076749639717,1.332211249059926,0.9034178463788836,0.2882117375,0.6480729783100887
0.021,1.788975,1.0,2413.4394562399675,0.21042464419585488,1.3317275428868844,0.9069640792585104,0.28818995000000003,0.6490970576856832
0.021500000000000002,1.78844375,1.0,2437.670604605853,0.2148535374349072,1.3312539781707335,0.9103035167592279,0.2881676375,0.650098220491273
0.022,1.7879,1.0,2460.4708715458846,0.21925758778884524,1.3307896234767373,0.9134517580898801,0.2881448,0.6510785235973162
0.0225,1.78734375,1.0,2481.9042094954048,0.2236369335263707,1.3303336631168827,0.9164229945782243,0.28812143749999997,0.6520397672569574
0.023,1.786775,1.0,2502.0498864420533,0.22799171672964097,1.3298851630052897,0.919230115645942,0.28809755,0.6529839898883083
0.0235,1.78619375,1.0,2520.9638390827677,0.23232207426510101,1.3294434360774938,0.9218849086911275,0.28807313749999996,0.6539126990607598
0.024,1.7856,1.0,2538.6978001503076,0.23662814166834437,1.3290078552185174,0.9243981386016121,0.2880482,0.6548272678715278
0.0245,1.78499375,1.0,2555.3053920270067,0.2409100544749646,1.3285777933133827,0.9267796411099097,0.2880227375,0.6557290616750893
0.025,1.784375,1.0,2570.8419671578204,0.24516794822055532,1.3281526232471115,0.9290384157410975,0.28799675,0.6566194383164519
0.025500000000000002,1.78374375,1.0,2585.3644571837553,0.24940195844071003,1.327731717904726,0.9311827083320279,0.2879702375,0.6574997483393401
0.026000000000000002,1.7831000000000001,1.0,2598.9196744023598,0.25361221712170134,1.3273145578209211,0.9332201003278486,0.2879432,0.6583711104543842
0.0265,1.78244375,1.0,2611.5704980532214,0.25779886252255774,1.3269004852963697,0.9351575374543747,0.2879156375,0.6592349257429782
0.027,1.781775,1.0,2623.3581171813066,0.2619620259837103,1.3264890550492825,0.9370014390302706,0.28788755,0.6600921458323552
0.0275,1.7810937500000001,1.0,2634.3203358685805,0.26610183745296007,1.326079861496805,0.9387577225519944,0.2878589375,0.660943634968828
0.028,1.7804,1.0,2644.495751156388,0.27021842687810793,1.325672499056083,0.9404318445554336,0.2878298,0.6617902530566504
0.0285,1.77969375,1.0,2653.9236839925497,0.2743119242069549,1.3252665621442619,0.9420288425731703,0.2878001375,0.6626328557106284
0.029,1.778975,1.0,2662.644113825167,0.27838245938730183,1.3248616451784871,0.9435533727666652,0.28776995,0.6634722942982357
0.029500000000000002,1.7782437500000001,1.0,2670.697616843969,0.28243016236694973,1.3244573425759045,0.9450097437262956,0.2877392375,0.664309415971244
0.03,1.7775,1.0,2678.1146274635826,0.2864551559269581,1.3240533467613342,0.9464019574633227,0.287708,0.6651448611376864
0.0305,1.77674375,1.0,2684.9448450543223,0.2904575779608683,1.3236491775396593,0.9477337079139447,0.2876762375,0.6659796233351472
0.031,1.775975,1.0,2691.21449050571,0.2944375527605743,1.323244574014592,0.9490084480227453,0.28764395,0.6668142390628986
0.0315,1.7751937500000001,1.0,2696.9490555392626,0.2983952039401989,1.3228392848806358,0.9502293875376848,0.2876111375,0.6676492223780601
0.032,1.7744,1.0,2702.174318083736,0.3023306551138648,1.3224330588322946,0.9513995122356268,0.2875778,0.6684850847323025
0.0325,1.77359375,1.0,2706.916315341754,0.30624402989569477,1.3220256445640717,0.952521602293685,0.2875439375,0.6693223349588462
0.033,1.772775,1.0,2711.201318256119,0.3101354518998116,1.3216167907704708,0.9535982489422693,0.28750955,0.6701614792554311
0.0335,1.7719437500000002,1.0,2715.0558073769344,0.314005044740338,1.3212062461459957,0.9546318695788913,0.2874746375,0.671003021163259
0.034,1.7711000000000001,1.0,2718.506450128273,0.31785293203139675,1.3207937593851498,0.9556247215013858,0.2874392,0.671847461541909
0.0345,1.7702437500000001,1.0,2721.5742035347935,0.32167923288101874,1.3203791326702061,0.9565789191199278,0.2874032375,0.6726951892521891
0.035,1.7693750000000001,1.0,2724.282070172768,0.3254840702806308,1.3199621507905144,0.9574964393892264,0.28736675,0.6735466264716459
0.035500000000000004,1.76849375,1.0,2726.658886797028,0.32926757203706863,1.3195425465892885,0.9583791288176466,0.2873297375,0.6744022988495931
0.036000000000000004,1.7676,1.0,2728.7198925291254,0.3330298547691022,1.3191201775768049,0.9592287278574214,0.2872922,0.6752624753295553
0.0365,1.76669375,1.0,2730.4804072203992,0.33677103509550116,1.3186949012633402,0.9600468686032675,0.2872541375,0.6761274231784115
0.037,1.765775,1.0,2731.955822577026,0.3404912296350356,1.3182665751591711,0.9608350827584086,0.28721555,0.676997407960624
0.0375,1.76484375,1.0,2733.161593736008,0.3441905550064753,1.3178350567745738,0.9615948089294656,0.2871764375,0.6778726935111717
0.038,1.7639,1.0,2734.113231290597,0.34786912782859014,1.3174002036198251,0.9623273993135535,0.28713679999999997,0.6787535419071862
0.0385,1.76294375,1.0,2734.826293766463,0.35152706472014994,1.316961873205201,0.9630341258343418,0.28709663750000003,0.6796402134382973
0.039,1.761975,1.0,2735.316380547363,0.3551644822999246,1.3165199230409785,0.9637161857779952,0.28705595,0.6805329665756793
0.0395,1.7609937500000001,1.0,2735.599125251948,0.358781497186684,1.316074210637434,0.9643747069747244,0.2870147375,0.6814320579398057
0.04,1.76,1.0,2735.6843868033197,0.3623782204067343,1.315624646190025,0.9650107562504149,0.286973,0.6823376362162678
0.0405,1.7589937500000001,1.0,2735.586945458122,0.36595476990607967,1.3151710954173437,0.9656253372619743,0.2869307375,0.6832499381805857
0.041,1.757975,1.0,2735.322929535289,0.3695112635171588,1.3147134119636092,0.9662193962891117,0.28688795,0.6841692229917844
0.0415,1.75694375,1.0,2734.9008498547073,0.37304781093509154,1.3142515187640376,0.9667938316269873,0.2868446375,0.6850956089110196
0.042,1.7559,1.0,2734.329228825433,0.3765645218549979,1.3137853387538443,0.967349492288766,0.28680079999999997,0.686029212956426
0.0425,1.75484375,1.0,2733.616598058916,0.38006150597199756,1.3133147948682453,0.9678871812101831,0.2867564375,0.6869701508822366
0.043000000000000003,1.753775,1.0,2732.7714961134147,0.3835388729812106,1.3128398100424563,0.9684076582142945,0.28671155,0.687918537157525
0.043500000000000004,1.75269375,1.0,2731.8024663713545,0.38699673257775674,1.312360307211693,0.9689116427565914,0.28666613750000003,0.6888744849445689
0.044,1.7516,1.0,2730.7180550467688,0.3904351944567559,1.311876209311171,0.9693998164688008,0.2866202,0.6898381060768323
0.0445,1.75049375,1.0,2729.5268093258824,0.3938543683133281,1.3113874392761065,0.9698728255179909,0.2865737375,0.6908095110365724
0.045,1.7493750000000001,1.0,2728.2372756384248,0.39725436384259305,1.3108939200417147,0.9703312827960796,0.28652675,0.6917888089320661
0.0455,1.74824375,1.0,2726.853782039735,0.4006352786485368,1.3103956128838257,0.9707757711449516,0.2864792375,0.6927760315767674
0.046,1.7471,1.0,2725.3866482852122,0.4039972316190674,1.3098924245813983,0.9712068429212438,0.2864312,0.6937713175607856
0.0465,1.7459437500000001,1.0,2723.843848542263,0.4073403357494204,1.3093842831940166,0.9716250236103606,0.28638263750000004,0.6947747618384075
0.047,1.744775,1.0,2722.229772159598,0.4106646933202396,1.3088711493589864,0.9720308136326713,0.28633355,0.6957863937935547
0.0475,1.74359375,1.0,2720.5488063095795,0.4139704066121689,1.3083529837136132,0.9724246889204943,0.28628393750000003,0.6968062418205109
0.048,1.7424,1.0,2718.805335435101,0.41725757790585233,1.3078297468952025,0.9728071023419392,0.2862338,0.6978343333113379
0.0485,1.74119375,1.0,2717.0037407323925,0.4205263094819337,1.3073013995410598,0.9731784850291798,0.2861831375,0.6988706946431948
0.049,1.739975,1.0,2715.148399666306,0.423776703621057,1.3067679022884906,0.9735392476183921,0.28613195,0.6999153511655583
0.0495,1.73874375,1.0,2713.2436855213714,0.4270088626038661,1.3062292157748008,0.9738897814079922,0.2860802375,0.7009683271873421
0.05,1.7375,1.0,2711.2939669869993,0.43022288871100495,1.3056853006372953,0.9742304594412491,0.286028,0.7020296459639235
0.0505,1.73624375,1.0,2709.3036077761303,0.4334188842231174,1.3051361175132803,0.9745616375188478,0.2859752375,0.7030993296840613
0.051000000000000004,1.734975,1.0,2707.276966279535,0.4365969514208475,1.3045816270400608,0.9748836551465249,0.28592195,0.7041773994567262
0.051500000000000004,1.73369375,1.0,2705.218395253431,0.43975719258483903,1.3040217898549424,0.975196836422475,0.2858681375,0.7052638752978229
0.052000000000000005,1.7324,1.0,2703.1319283258654,0.44289970632536063,1.3034565694560973,0.9755014906572935,0.2858138,0.7063587705801555
0.0525,1.73109375,1.0,2701.0196055843794,0.44602456986626665,1.3028859475057335,0.9757979122788759,0.28575893750000003,0.707462062511333
0.053,1.729775,1.0,2698.8873758411164,0.44913192188449313,1.3023098699113966,0.9760863869112608,0.28570355000000003,0.7085737964099312
0.0535,1.72844375,1.0,2696.7369020225915,0.4522218561878053,1.301728321690802,0.9763671854151343,0.2856476375,0.7096939409746553
0.054,1.7271,1.0,2694.5698446578367,0.45529446658396855,1.3011412878616648,0.976640566917315,0.2855912,0.7108224641103889
0.0545,1.7257437500000001,1.0,2692.3878618225226,0.45834984688074826,1.3005487534417002,0.976906779415738,0.2855342375,0.7119593329229595
0.055,1.724375,1.0,2690.192609088511,0.4613880908859098,1.2999507034486233,0.9771660603483343,0.28547675,0.7131045137138905
0.0555,1.72299375,1.0,2687.9857394784485,0.4644092924072187,1.2993471229001496,0.9774186371282392,0.2854187375,0.7142579719751362
0.056,1.7216,1.0,2685.7689034251475,0.46741354525244005,1.2987379968139943,0.9776647276475899,0.2853602,0.7154196723838073
0.0565,1.72019375,1.0,2683.543748735969,0.47040094322933945,1.2981233102078722,0.977904540751995,0.28530113749999997,0.7165895787968777
0.057,1.718775,1.0,2681.31192056238,0.47337158014568226,1.297503048099499,0.9781382766876061,0.28524155,0.7177676542458777
0.0575,1.71734375,1.0,2679.075061374069,0.47632554980923375,1.2968771955065892,0.9783661275225913,0.2851814375,0.7189538609315766
0.058,1.7159,1.0,2676.834810938356,0.4792629460277594,1.2962457374468588,0.9785882775446568,0.2851208,0.7201481602186441
0.0585,1.71444375,1.0,2674.5928063047504,0.48218386260902446,1.2956086589380227,0.9788049036361708,0.2850596375,0.7213505126303055
0.059000000000000004,1.7129750000000001,1.0,2672.3506817939574,0.48508839336079446,1.294965944997796,0.9790161756283104,0.28499795,0.7225608778429758
0.059500000000000004,1.71149375,1.0,2670.1100689924842,0.4879766320908347,1.294317580643894,0.9792222566355648,0.2849357375,0.7237792146808831
0.06,1.71,1.0,2667.8725967514415,0.49084867260691056,1.2936635508940317,0.9794233033718245,0.284873,0.7250054811106774
0.0605,1.7084937500000001,1.0,2665.637535576667,0.49370457892834,1.2930038624325346,0.9796194652149882,0.2848097375,0.7262395937487767
0.061,1.7069750000000001,1.0,2663.4054981524678,0.4965444504147234,1.2923385096046105,0.979810887972205,0.28474595,0.7274814917160557
0.0615,1.7054437500000001,1.0,2661.179898489951,0.49936841541256927,1.2916674609582135,0.9799977127545164,0.2846816375,0.7287311614100416
0.062,1.7039,1.0,2658.961131831653,0.5021765581375403,1.290990712789837,0.9801800732985599,0.2846168,0.7299885365754547
0.0625,1.70234375,1.0,2656.7495927675145,0.504968962805299,1.2903082613959742,0.9803580983076876,0.2845514375,0.7312535502718327
0.063,1.7007750000000001,1.0,2654.545675239986,0.5077457136315083,1.2896201030731187,0.9805319116772533,0.28448555,0.7325261348721814
0.0635,1.69919375,1.0,2652.3497725491097,0.5105068948318309,1.2889262341177636,0.9807016327081931,0.28441913750000003,0.7338062220616303
0.064,1.6976,1.0,2650.1622773570916,0.5132525906219293,1.2882266508264022,0.9808673763095824,0.2843522,0.7350937428360818
0.0645,1.69599375,1.0,2647.983581694484,0.5159828852174663,1.287521349495528,0.9810292531908211,0.2842847375,0.7363886275008624
0.065,1.694375,1.0,2645.8140769657207,0.5186978628341046,1.2868103264216342,0.9811873700440441,0.28421675,0.737690805669374
0.0655,1.69274375,1.0,2643.6541539551563,0.5213976076875069,1.2860935779012144,0.9813418297173235,0.2841482375,0.7390002062617405
0.066,1.6911,1.0,2641.50420283377,0.5240822039933357,1.2853711002307613,0.9814927313791905,0.2840792,0.7403167575034592
0.0665,1.6894437500000001,1.0,2639.36461316584,0.526751735967254,1.2846428897067688,0.9816401706749677,0.2840096375,0.7416403869240442
0.067,1.687775,1.0,2637.235773915641,0.5294062878249243,1.2839089426257302,0.9817842398753786,0.28393955,0.7429710213556755
0.0675,1.68609375,1.0,2635.1180734554055,0.5320459437820092,1.2831692552841383,0.9819250280178609,0.2838689375,0.7443085869318449
0.068,1.6844000000000001,1.0,2633.011899572471,0.5346707880541717,1.282423823978487,0.9820626210409986,0.2837978,0.7456530090859967
0.0685,1.68269375,1.0,2630.917639477557,0.5372809048570741,1.2816726450052693,0.9821971019124455,0.2837261375,0.747004212550177
0.069,1.680975,1.0,2628.835679812742,0.5398763784063795,1.2809157146609786,0.982328550750701,0.28365395,0.7483621213536723
0.0695,1.67924375,1.0,2626.7664066603247,0.5424572929177502,1.2801530292421084,0.9824570449410742,0.28358123749999997,0.7497266588216529
0.07,1.6775,1.0,2624.710205551534,0.5450237326068492,1.2793845850451517,0.9825826592461512,0.283508,0.751097747573815
0.07050000000000001,1.67574375,1.0,2622.6674614757694,0.5475757816893391,1.278610378366602,0.9827054659110581,0.2834342375,0.7524753095230192
0.07100000000000001,1.673975,1.0,2620.635012162479,0.5501134882333205,1.2778304384041557,0.9828255340652723,0.28335995,0.7538592075770238
0.07150000000000001,1.67219375,1.0,2618.6130185671345,0.5526369516496508,1.2770447635615974,0.9829429322762184,0.2832851375,0.7552493590022278
0.07200000000000001,1.6704,1.0,2616.604175539225,0.5551462823191561,1.2762533287169686,0.9830577264242573,0.2832098,0.7566457218520233
0.0725,1.66859375,1.0,2614.6082369954165,0.557641554898925,1.2754561360234145,0.983169979318964,0.2831339375,0.7580482051245223
0.073,1.6667750000000001,1.0,2612.624957292144,0.560122844046046,1.2746531876340796,0.983279751729209,0.28305755,0.7594567172271653
0.0735,1.66494375,1.0,2610.654091219736,0.5625902244176073,1.2738444857021087,0.9833871024613634,0.2829806375,0.7608711659775114
0.074,1.6631,1.0,2608.695393997414,0.5650437706706977,1.273030032380647,0.9834920884340083,0.2829032,0.762291458604027
0.0745,1.6612437500000001,1.0,2606.7486212682347,0.5674835574624052,1.2722098298228393,0.983594764749322,0.2828252375,0.7637175017468778
0.075,1.659375,1.0,2604.813529094005,0.5699096594498185,1.2713838801818302,0.983695184761319,0.28274675,0.7651492014587182
0.0755,1.65749375,1.0,2602.88987395043,0.5723221512900262,1.2705521856107647,0.9837934001410905,0.2826677375,0.7665864632054795
