Time [s],Phi [rad],STIM [ ],Fsee [N],Gamma [ ],Lcerel [ ],q [ ],Lmtc [m],fisomrel [ ]
0.0,1.8,1.0,18.23557473896405,0.00052618270178606,1.3793097860681152,0.005071507746504282,0.288653,0.5412120095438799
0.0005,1.79999375,1.0,18.706465135953344,0.006132440541788903,1.3792549314785087,0.014435465187426475,0.2886527375,0.5413446969044376
0.001,1.799975,1.0,22.43111674464966,0.011707251707855373,1.3788560590201009,0.03834896529694169,0.28865195,0.5423089494380033
0.0015,1.79994375,1.0,32.72628624934517,0.01725079259186854,1.377906862515106,0.07431969067550706,0.2886506375,0.5445995002040457
0.002,1.7999,1.0,56.913181369509104,0.022763238594319907,1.3761553045503279,0.11909972593205388,0.2886488,0.5488111825849813
0.0025,1.79984375,1.0,102.52397087693176,0.02824476413233794,1.3736782379783543,0.16932809938038695,0.28864643749999996,0.5547339746855625
0.003,1.7997750000000001,1.0,167.85593574672453,0.033695542648304454,1.3709588621175772,0.2221753712468188,0.28864354999999997,0.5611910797717868
0.0035,1.79969375,1.0,245.40394072348226,0.039115746606394185,1.3683488195269915,0.2754752820347238,0.2886401375,0.5673442192381117
0.004,1.7996,1.0,329.64042297365006,0.04450554750567412,1.3659409624798302,0.32761952028049884,0.2886362,0.5729821810565545
0.0045000000000000005,1.7994937500000001,1.0,417.7044313960155,0.049865115880173144,1.3637257833379637,0.3774965138978381,0.2886317375,0.5781363346147471
0.005,1.799375,1.0,508.00356877471404,0.05519462131924188,1.3616765824364296,0.42441991135156143,0.28862675,0.5828764340468895
0.0055,1.79924375,1.0,599.4447476767183,0.06049423244955754,1.3597703651310897,0.4680353405900601,0.2886212375,0.5872617486398035
0.006,1.7991000000000001,1.0,691.1676997281926,0.06576411694333754,1.3579896832023841,0.5082279553355953,0.2886152,0.5913373301041348
0.006500000000000001,1.79894375,1.0,782.4689382913671,0.07100444154002024,1.356321060730731,0.5450443140133432,0.2886086375,0.5951380793358633
0.007,1.798775,1.0,872.7675468454552,0.0762153721136614,1.3547537222810004,0.5786323380901408,0.28860155,0.5986919532135677
0.0075,1.79859375,1.0,961.5692064442893,0.08139707332046944,1.3532789952663506,0.6091979405608249,0.2885939375,0.6020215290293298
0.008,1.7984,1.0,1048.51053592027,0.086549709520587,1.351888857574741,0.6369743752560306,0.2885858,0.6051474231975245
0.0085,1.79819375,1.0,1133.2715576829178,0.0916734434530352,1.3505767933956054,0.6622030773588068,0.2885771375,0.6080864538662467
0.009000000000000001,1.797975,1.0,1215.6098973784572,0.09676843708052785,1.3493368584970462,0.6851206846529203,0.28856795,0.6108538242838479
0.0095,1.79774375,1.0,1295.367067318269,0.10183485197024329,1.3481633545007188,0.70595154910284,0.2885582375,0.6134638985421137
0.01,1.7975,1.0,1372.4145569880075,0.1068728484774181,1.3470513585169555,0.7249041465103927,0.288548,0.6159290642587234
0.0105,1.79724375,1.0,1446.657944610427,0.11188258553485884,1.3459964616630857,0.7421692661809333,0.2885372375,0.6182603587902579
0.011,1.796975,1.0,1518.0511342751042,0.1168642215221025,1.3449944482632437,0.7579196173103824,0.28852595000000003,0.6204682100367989
0.0115,1.79669375,1.0,1586.6031334122356,0.12181791520666718,1.3440411233871923,0.7723103879298003,0.2885141375,0.6225628361558633
0.012,1.7964,1.0,1652.307617087133,0.12674382279117968,1.3431330720252619,0.7854806923539669,0.28850180000000003,0.6245525984773803
0.0125,1.79609375,1.0,1715.1732703711334,0.13164209946541883,1.3422671832136999,0.7975546587682032,0.2884889375,0.6264450742823967
0.013000000000000001,1.7957750000000001,1.0,1775.2447356353496,0.13651290041916345,1.3414403459887543,0.8086427137641871,0.28847555,0.6282477363873717
0.0135,1.79544375,1.0,1832.5805554921687,0.14135637984069868,1.3406496586790757,0.8188430734733646,0.2884616375,0.629967506510935
0.014,1.7951000000000001,1.0,1887.2607813648563,0.1461726920736177,1.3398922979277832,0.8282430197679505,0.2884472,0.6316110516880455
0.0145,1.79474375,1.0,1939.3376628446042,0.1509619884917807,1.3391660171437014,0.8369203038248122,0.2884322375,0.6331837143331582
0.015,1.794375,1.0,1988.8804106930338,0.1557244202584123,1.33846860862242,0.8449440520818847,0.28841675,0.6346906918915914
0.0155,1.79399375,1.0,2035.972980530085,0.16046013818610128,1.3377979059461957,0.8523757769127329,0.2884007375,0.6361370367932561
0.016,1.7936,1.0,2080.7059198560837,0.16516929265312308,1.3371518496035906,0.8592702961807565,0.2883842,0.6375275201175952
0.0165,1.7931937500000001,1.0,2123.169185258592,0.1698520335364211,1.3365285401620586,0.8656765407653697,0.2883671375,0.6388665231390107
0.017,1.792775,1.0,2163.430883303179,0.17450850773924334,1.3359264341841148,0.8716383033038204,0.28834955,0.6401576237766122
0.0175,1.7923437500000001,1.0,2201.5697573867355,0.17913886216483796,1.3353439882322746,0.8771947423156113,0.2883314375,0.641404367208138
0.018000000000000002,1.7919,1.0,2237.6742953766493,0.183743243716453,1.3347796588690535,0.8823809268925201,0.2883128,0.6426102678811231
0.0185,1.79144375,1.0,2271.824525239409,0.18832179749481526,1.3342320756663455,0.8872283574148582,0.2882936375,0.6437784425885404
0.019,1.790975,1.0,2304.121554348702,0.19287467098737945,1.3336997350994568,0.8917653028953553,0.28827395,0.6449122665642613
0.0195,1.79049375,1.0,2334.6333707585595,0.19740200693960616,1.3331815311096973,0.8960172958088078,0.2882537375,0.6460142453042023
0.02,1.79,1.0,2363.429047357217,0.20190394756002983,1.3326764022691664,0.9000073582542637,0.288233,0.6470867709605987
0.0205,1.78949375,1.0,2390.582734581893,0.2063806350571849,1.332183287149963,0.9037562733591941,0.2882117375,0.6481322185530778
0.021,1.788975,1.0,2416.173232355049,0.2108322116396059,1.3317011243241859,0.907282833531019,0.28818995000000003,0.6491529468178285
0.021500000000000002,1.78844375,1.0,2440.268403242195,0.2152588173031601,1.3312289983283985,0.910604088029187,0.2881676375,0.6501509906452991
0.022,1.7879,1.0,2462.953583166377,0.21966059527425177,1.3307658608181956,0.913735476366002,0.2881448,0.6511286521594326
0.0225,1.78734375,1.0,2484.2872939879353,0.22403768367205795,1.3303109524389902,0.9166910801640538,0.28812143749999997,0.6520876106468341
0.023,1.786775,1.0,2504.3250742540627,0.2283902196720136,1.329863567769374,0.9194837210056606,0.28809755,0.6530294217425371
0.0235,1.78619375,1.0,2523.124850271533,0.23271834044955358,1.3294230013879378,0.9221250815143823,0.28807313749999996,0.6539556318767945
0.024,1.7856,1.0,2540.746735659104,0.23702218318011298,1.3289885478732735,0.9246258222604806,0.2880482,0.6548677785976877
0.0245,1.78499375,1.0,2557.2523413850477,0.24130188489563753,1.3285595065044862,0.9269956860147369,0.2880227375,0.6557673810125272
0.025,1.784375,1.0,2572.701213868611,0.2455575813142817,1.3281352128687316,0.9292435942541866,0.28799675,0.6566558739655364
0.025500000000000002,1.78374375,1.0,2587.1442009809075,0.24978940711840414,1.3277150987375252,0.9313777381476374,0.2879702375,0.6575344836079531
0.026000000000000002,1.7831000000000001,1.0,2600.6248962773134,0.25399749544911215,1.3272986759879482,0.9334056461108652,0.2879432,0.658404262425179
0.0265,1.782444054034871,1.0,2613.202818474391,0.25818197944751325,1.3268854564970813,0.9353342349360966,0.2879156502694646,0.6592662574320624
0.027,1.7817843110027292,1.0,2625.327948681407,0.26234298790962457,1.3264749997916463,0.9371698731328613,0.2878879410621146,0.660121411068382
0.0275,1.7811245679705874,1.0,2637.1845324312453,0.26648065975125346,1.3260672858772475,0.9389184946305061,0.28786023185476467,0.6609697866092007
0.028,1.7804648249384456,1.0,2648.774297245357,0.2705951255318562,1.325662280336518,0.940585564483858,0.2878325226474147,0.6618114769324592
0.0285,1.7798050819063038,1.0,2660.101404696981,0.27468651319715426,1.3252599270946694,0.9421761232884607,0.28780481344006476,0.6626466193442931
0.029,1.779145338874162,1.0,2671.1701157379166,0.27875495069286893,1.3248601700769138,0.9436948295734294,0.2877771042327148,0.6634753504387711
0.029500000000000002,1.7784855958420203,1.0,2681.98478743549,0.2828005659647216,1.324462953208463,0.9451459936854014,0.28774939502536484,0.6642978061072791
0.03,1.7778258528098785,1.0,2692.5498697800426,0.2868234869584337,1.324068220414529,0.9465336082654143,0.2877216858180149,0.6651141215477047
0.0305,1.7771661097777365,1.0,2702.86990256146,0.2908238416197265,1.3236759156203235,0.9478613756981785,0.2876939766106649,0.6659244312734223
0.031,1.7765063667455947,1.0,2712.9495123156694,0.29480175789432156,1.3232859827510586,0.9491327328672682,0.28766626740331497,0.6667288691220736
0.0315,1.775846623713453,1.0,2722.7925288205556,0.29875734935893505,1.322898373745396,0.9503508699887235,0.287638558195965,0.6675275517620488
0.032,1.7751868806813111,1.0,2732.407820911466,0.30269076138723594,1.3225129954412886,0.9515187590447707,0.28761084898861505,0.6683206880468346
0.0325,1.7745271376491694,1.0,2741.8013336461872,0.30660211749244076,1.3221297821568578,0.9526391638726556,0.2875831397812651,0.6691084293608907
0.033,1.7738673946170276,1.0,2750.9787161729373,0.3104915379730116,1.321748671627178,0.9537146600185913,0.28755543057391514,0.669890919343579
0.0335,1.7732076515848858,1.0,2759.9456935616827,0.31435914312741053,1.321369601587323,0.9547476503599271,0.2875277213665652,0.6706683009426188
0.034,1.772547908552744,1.0,2768.708063943655,0.3182050532540996,1.3209925097723676,0.9557403787444052,0.2875000121592153,0.6714407164223103
0.0345,1.7718881655206022,1.0,2777.271695737748,0.32202938865154085,1.3206173339173852,0.9566949423989746,0.2874723029518653,0.6722083073715176
0.035,1.7712284224884605,1.0,2785.6425249625427,0.3258322696181963,1.3202440117574508,0.9576133032321006,0.28744459374451536,0.6729712147113959
0.035500000000000004,1.7705686794563187,1.0,2793.8265526341575,0.329613816452528,1.3198724810276379,0.9584972981398145,0.2874168845371654,0.673729578702881
0.036000000000000004,1.769908936424177,1.0,2801.829842250319,0.3333741494529981,1.3195026794630211,0.9593486484136814,0.28738917532981545,0.6744835389539221
0.0365,1.7692491933920351,1.0,2809.658517360091,0.33711338891806847,1.3191345447986744,0.9601689683382367,0.2873614661224655,0.675233234426476
0.037,1.7685894503598933,1.0,2817.318759219897,0.34083165514620134,1.3187680147696723,0.960959773056059,0.28733375691511553,0.6759788034432461
0.0375,1.7679297073277516,1.0,2824.808324332684,0.34452902965350524,1.3184031028813505,0.9617224849060515,0.2873060477077656,0.6767202298326789
0.038,1.7672699642956098,1.0,2832.1378405862156,0.3482056503716262,1.3180397078654253,0.962458441974495,0.2872783385004156,0.6774577302961573
0.0385,1.766610221263468,1.0,2839.3219219688185,0.3518616761056733,1.3176776935955765,0.9631689038024803,0.28725062929306566,0.6781915911728158
0.039,1.7659504782313262,1.0,2846.364146128479,0.35549721608075924,1.3173170229897053,0.9638550552962354,0.2872229200857157,0.6789218970693585
0.0395,1.7652907351991844,1.0,2853.2681235730656,0.3591123795219964,1.3169576589657135,0.9645180128565236,0.28719521087836575,0.6796487322161175
0.04,1.7646309921670427,1.0,2860.0374965809247,0.3627072756544976,1.3165995644415025,0.9651588290735338,0.2871675016710158,0.6803721804701879
0.0405,1.7639712491349009,1.0,2866.675938142065,0.36628201370337526,1.3162427023349736,0.9657784970521163,0.28713979246366583,0.6810923253184734
0.041,1.763311506102759,1.0,2873.187150929293,0.369836702893742,1.3158870355640286,0.966377954400067,0.2871120832563159,0.6818092498806445
0.0415,1.7626517630706173,1.0,2879.5748663004724,0.3733714524507104,1.3155325270465688,0.9669580869089591,0.2870843740489659,0.6825230369120101
0.042,1.7619920200384755,1.0,2885.8428433309373,0.37688637159939303,1.3151791397004957,0.9675197319541718,0.28705666484161596,0.6832337688062992
0.0425,1.7613322770063338,1.0,2891.9948678764927,0.3803815695649025,1.314826836443711,0.9680636816382103,0.287028955634266,0.6839415275983574
0.043000000000000003,1.760672533974192,1.0,2898.034751666836,0.38385715557235134,1.314475580194116,0.9685906856991295,0.28700124642691605,0.6846463949667544
0.043500000000000004,1.7600127909420502,1.0,2903.966331429362,0.38731323884685215,1.3141253338696122,0.9691014542038124,0.2869735372195661,0.6853484522363033
0.044,1.7593530479099084,1.0,2909.793468044002,0.3907499286135175,1.313776060388101,0.9695966600440294,0.28694582801221613,0.6860477803804936
0.0445,1.7586933048777664,1.0,2915.520045727565,0.39416733409746,1.313427722667484,0.9700769412515425,0.2869181188048662,0.6867444600238353
0.045,1.7580335618456246,1.0,2921.1499712496493,0.39756556452379227,1.313080283625663,0.9705429031470347,0.2868904095975162,0.6874385714441149
0.0455,1.7573738188134829,1.0,2926.687173178266,0.40094472911762674,1.3127337061805389,0.9709951203363077,0.28686270039016626,0.6881301945745676
0.046,1.756714075781341,1.0,2932.1356011562875,0.40430493710407617,1.3123879532500138,0.9714341385659899,0.2868349911828163,0.6888194090059541
0.0465,1.7560543327491993,1.0,2937.499225208349,0.407646297708253,1.3120429877519888,0.9718604764498984,0.28680728197546634,0.6895062939885592
0.047,1.7553945897170575,1.0,2942.7820350781035,0.41096892015526987,1.3116987726043654,0.9722746270762318,0.2867795727681164,0.6901909284340948
0.0475,1.7547348466849158,1.0,2947.9877326522765,0.4142729114638965,1.31135527340967,0.9726770594128439,0.28675186356076643,0.6908733855867015
0.048,1.754075103652774,1.0,2953.113942715845,0.4175583418148237,1.3110125090286255,0.973068218919714,0.28672415435341647,0.6915536327414513
0.0485,1.7534153606206322,1.0,2958.169205884659,0.4208253627522288,1.3106704029785161,0.9734485333242471,0.28669644514606657,0.6922318262537195
0.049,1.7527556175884904,1.0,2963.155325975524,0.4240740726474695,1.3103289378361902,0.9738184075758958,0.2866687359387166,0.6929080049153763
0.0495,1.7520958745563486,1.0,2968.0741163118278,0.42730456987190346,1.3099880961784964,0.9741782276871368,0.28664102673136665,0.693582207358518
0.05,1.7514361315242069,1.0,2972.927399479323,0.43051695279688856,1.3096478605822828,0.9745283617902688,0.2866133175240167,0.6942544720561707
0.0505,1.750776388492065,1.0,2977.7170070884363,0.4337113197937824,1.3093082136243979,0.9748691611260484,0.28658560831666674,0.6949248373229715
0.051000000000000004,1.7501166454599233,1.0,2982.4447795437213,0.4368877692339428,1.3089691378816901,0.9752009609691416,0.2865578991093168,0.6955933413158328
0.051500000000000004,1.7494569024277815,1.0,2987.1125658198653,0.4400463994887274,1.3086306159310077,0.9755240814949491,0.2865301899019668,0.696260022034588
0.052000000000000005,1.7487971593956397,1.0,2991.7222232440217,0.443187308929494,1.3082926303491993,0.9758388285920077,0.28650248069461687,0.6969249173226147
0.0525,1.748137416363498,1.0,2996.2756172858262,0.44631059592760025,1.307955163713113,0.9761454946238325,0.2864747714872669,0.6975880648674417
0.053,1.7474776733313562,1.0,3000.7746213531223,0.44941635885440395,1.3076181985995972,0.9764443591437546,0.28644706227991695,0.6982495022013355
0.0535,1.7468179302992144,1.0,3005.2211165948543,0.4525046960812628,1.3072817175855005,0.976735689566041,0.286419353072567,0.6989092667018646
0.054,1.7461581872670726,1.0,3009.6169917111124,0.4555757059795346,1.306945703247671,0.9770197417963176,0.28639164386521704,0.6995673955924512
0.0545,1.7454984442349308,1.0,3013.9641427690417,0.458629486920577,1.3066101381629573,0.9772967608240907,0.2863639346578671,0.7002239259428962
0.055,1.744838701202789,1.0,3018.264473026104,0.4616661372757477,1.3062750049082077,0.9775669812799473,0.2863362254505171,0.7008788946698896
0.0555,1.7441789581706473,1.0,3022.5198927599677,0.4646857554164045,1.3059402860602705,0.9778306279598136,0.28630851624316717,0.7015323385374996
0.056,1.7435192151385055,1.0,3026.732319104919,0.46768843971390506,1.305605964195994,0.978087916318483,0.2862808070358172,0.7021842941576428
0.0565,1.7428594721063637,1.0,3030.900684036232,0.4706742480026753,1.3052720476995263,0.9783390507604576,0.2862530978284673,0.7028347477466139
0.057,1.7421997290742217,1.0,3035.028728320302,0.4736433129706339,1.3049385034895786,0.9785842317140844,0.2862253886211173,0.7034837662293886
0.0575,1.74153998604208,1.0,3039.118749473944,0.4765957439128269,1.304605311015657,0.978823650072741,0.28619767941376734,0.7041313919038739
0.058,1.7408802430099382,1.0,3043.1716064061025,0.4795316293097246,1.3042724621740889,0.9790574879467057,0.2861699702064174,0.7047776427376201
0.0585,1.7402204999777964,1.0,3047.1881613318,0.4824510576417973,1.303939948861202,0.9792859202148855,0.2861422609990675,0.7054225366270724
0.059000000000000004,1.7395607569456546,1.0,3051.169279711126,0.48535411738951517,1.303607762973324,0.9795091148690493,0.2861145517917175,0.7060660913977483
0.059500000000000004,1.7389010139135128,1.0,3055.115830189885,0.48824089703334855,1.303275896406783,0.9797272333390624,0.28608684258436756,0.7067083248044077
0.06,1.738241270881371,1.0,3059.0286845412916,0.4911114850537676,1.3029443410579065,0.9799404308003121,0.2860591333770176,0.7073492545312208
0.0605,1.7375815278492293,1.0,3062.9087176094617,0.49396596993124275,1.3026130888230218,0.9801488564644273,0.28603142416966765,0.707988898191932
0.061,1.7369217848170875,1.0,3066.756807254017,0.49680444014624414,1.3022821315984572,0.9803526538543301,0.2860037149623177,0.7086272733300161
0.0615,1.7362620417849457,1.0,3070.57383429663,0.49962698417924206,1.3019514612805403,0.9805519610645655,0.28597600575496773,0.7092643974188342
0.062,1.735602298752804,1.0,3074.3606824685385,0.5024336905107067,1.3016210697655983,0.9807469110078125,0.2859482965476178,0.7099002878617859
0.0625,1.7349425557206621,1.0,3078.1182383598293,0.5052246476211084,1.3012909489499596,0.9809376316484035,0.2859205873402678,0.7105349619924517
0.063,1.7342828126885204,1.0,3081.847391370038,0.5079999439909174,1.3009610907299514,0.9811242462236324,0.28589287813291786,0.7111684370747384
0.0635,1.7336230696563786,1.0,3085.549033660138,0.510759668100604,1.3006314870019016,0.9813068734535735,0.2858651689255679,0.7118007303030149
0.064,1.7329633266242368,1.0,3089.224060106328,0.5135039084306384,1.300302129662138,0.9814856277400898,0.28583745971821795,0.7124318588022465
0.0645,1.732303583592095,1.0,3092.8733682549005,0.516232753461491,1.299973010606988,0.9816606193556618,0.285809750510868,0.7130618396281245
0.065,1.7316438405599532,1.0,3096.497858278557,0.5189462916736318,1.2996441217327797,0.981831954622631,0.28578204130351803,0.7136906897671911
0.0655,1.7309840975278115,1.0,3100.098432934606,0.5216446115475312,1.2993154549358406,0.9819997360834034,0.2857543320961681,0.7143184261369605
0.066,1.7303243544956697,1.0,3103.675997524121,0.5243278015636594,1.2989870021124985,0.9821640626621428,0.2857266228888181,0.7149450655860358
0.0665,1.729664611463528,1.0,3107.2298293145054,0.5269959065091737,1.298658769050021,0.982325027598296,0.28569891368146816,0.715570598435989
0.067,1.7290048684313861,1.0,3110.7619324931775,0.5296490579396036,1.298330738307041,0.9824827254910601,0.2856712044741182,0.7161950592511983
0.0675,1.7283451253992443,1.0,3114.2730324750783,0.5322873446043711,1.2980029033660798,0.9826372453854765,0.28564349526676824,0.7168184616880959
0.068,1.7276853823671026,1.0,3117.763533489783,0.5349108456328899,1.2976752604581974,0.982788672794952,0.2856157860594183,0.7174408141299247
0.0685,1.7270256393349608,1.0,3121.233841007936,0.5375196401545735,1.2973478058144534,0.9829370903363762,0.28558807685206833,0.7180621249277108
0.069,1.726365896302819,1.0,3124.6843617253244,0.5401138072988355,1.297020535665908,0.983082577848297,0.28556036764471837,0.7186824024003098
0.0695,1.7257061532706772,1.0,3128.115503547339,0.5426934261950895,1.2966934462436206,0.9832252125034964,0.2855326584373684,0.719301654834451
0.07,1.7250464102385354,1.0,3131.527675573787,0.5452585759727492,1.2963665337786512,0.9833650689162643,0.28550494923001846,0.7199198904847819
0.07050000000000001,1.7243866672063934,1.0,3134.921288083735,0.5478093357612279,1.2960397945020599,0.9835022192446546,0.2854772400226685,0.7205371175739099
