Time [s],Phi [rad],STIM [ ],Fsee [N],Gamma [ ],Lcerel [ ],q [ ],Lmtc [m],fisomrel [ ]
0.0,1.8,1.0,17.966258492895637,1.0009449567223169e-05,1.3793398470146352,0.005000026701973793,0.288653,0.5411392872031671
0.0005,1.79999375,1.0,18.275676787245843,0.005619162613265735,1.379302506354024,0.012940542566212389,0.2886527375,0.5412296194947561
0.001,1.799975,1.0,21.617352031802447,0.011196852862637548,1.3789384072658777,0.03560863347169528,0.28865195,0.5421099601364789
0.0015,1.79994375,1.0,31.068135536546503,0.01674325668061735,1.378046297485877,0.07060178560178254,0.2886506375,0.5442633831544
0.002,1.7999,1.0,53.5810340214699,0.022258549558486797,1.3763682195162519,0.11471793260281724,0.2886488,0.5483002657467042
0.0025,1.79984375,1.0,97.1172636176884,0.027742906003441686,1.3739352479273612,0.16457477706466264,0.28864643749999996,0.5541212702726497
0.003,1.7997750000000001,1.0,160.95645030467983,0.03319649954630625,1.3712144080072775,0.21728033171763714,0.28864354999999997,0.5605862987493831
0.0035,1.79969375,1.0,237.68165230902662,0.03861950274112612,1.368584785958093,0.2706127642944575,0.2886401375,0.5667897179854169
0.004,1.7996,1.0,321.46517582708304,0.044012087175950336,1.366156134655232,0.3229156795512905,0.2886362,0.57247986305593
0.0045000000000000005,1.7994937500000001,1.0,409.26625891274193,0.04937442347801568,1.3639228491866389,0.37303439057692944,0.2886317375,0.5776790811220629
0.005,1.799375,1.0,499.4121026183876,0.054706681304841756,1.361858372129642,0.42024735080405895,0.28862675,0.5824570105857318
0.0055,1.79924375,1.0,590.7890982764854,0.06000902939166382,1.3599388608053649,0.4641735964503781,0.2886212375,0.5868750525578322
0.006,1.7991000000000001,1.0,682.5168724623467,0.0652816354946608,1.3581464372121572,0.5046798687678304,0.2886152,0.5909793670670865
0.006500000000000001,1.79894375,1.0,773.879882147014,0.07052466644716812,1.3564672771016277,0.5418006779142119,0.2886086375,0.5948057409303296
0.007,1.798775,1.0,864.2846386575559,0.07573828813934703,1.3548904139367521,0.5756767054336295,0.28860155,0.5983826342340585
0.0075,1.79859375,1.0,953.2418387155101,0.08092266553497614,1.3534068003661464,0.6065098507171275,0.2885939375,0.6017335250477129
0.008,1.7984,1.0,1040.3585130837284,0.08607796267161719,1.3520086454834184,0.6345319886243629,0.2885858,0.6048785507172484
0.0085,1.79819375,1.0,1125.3181989015563,0.09120434268323345,1.3506891852782965,0.6599843429485616,0.2885771375,0.6078351254108566
0.009000000000000001,1.797975,1.0,1207.873384368932,0.09630196738981446,1.3494424011909971,0.6831043428568062,0.28856795,0.6106186487559637
0.0095,1.79774375,1.0,1287.8683852164127,0.10137099887411231,1.3482624390138485,0.7041175986697631,0.2885582375,0.6132438570539716
0.01,1.7975,1.0,1365.170933379406,0.10641159753188126,1.3471443353579315,0.7232341599425827,0.288548,0.6157232475411352
0.0105,1.79724375,1.0,1439.6701197363127,0.11142392200661624,1.3460838134634363,0.7406465568167427,0.2885372375,0.6180675830950428
0.011,1.796975,1.0,1511.3186999847403,0.11640813094181225,1.345076596570552,0.7565291139072884,0.28852595000000003,0.620287444194147
0.0115,1.79669375,1.0,1580.108973813595,0.12136438241167809,1.344118626879182,0.7710386434957459,0.2885141375,0.6223927635037828
0.012,1.7964,1.0,1646.0569066270884,0.12629283376753506,1.3432061661765677,0.7843155625907667,0.28850180000000003,0.6243926259514738
0.0125,1.79609375,1.0,1709.171594225866,0.13119364026633148,1.3423360621373013,0.7964853130642523,0.2884889375,0.6262947084194063
0.013000000000000001,1.7957750000000001,1.0,1769.4898361602109,0.13606695683486306,1.3415052614878415,0.8076595456273382,0.28847555,0.6281063659952837
0.0135,1.79544375,1.0,1827.0630763067702,0.140912937648103,1.3407109111770137,0.8179375668095765,0.2884616375,0.6298344228473505
0.014,1.7951000000000001,1.0,1881.9753917289086,0.14573173719062057,1.3399501145634,0.827407581896867,0.2884472,0.6314857130367704
0.0145,1.79474375,1.0,1934.280567845034,0.15052350703739759,1.3392205860403261,0.8361481742148166,0.2884322375,0.6330656696634493
0.015,1.794375,1.0,1984.0450349945459,0.1552883983692438,1.338520128814337,0.8442292228318096,0.28841675,0.6345794718989948
0.0155,1.79399375,1.0,2031.351807496485,0.16002656214566138,1.337846569099773,0.8517128981876038,0.2884007375,0.6360321930724246
0.016,1.7936,1.0,2076.2906688971984,0.16473814865267958,1.33719784008934,0.8586545981148103,0.2883842,0.6374286244868745
0.0165,1.7931937500000001,1.0,2118.9498846492834,0.16942330780758713,1.3365720463939919,0.8651037685825881,0.2883671375,0.6387731428130121
0.017,1.792775,1.0,2159.399132003603,0.17408218669314968,1.3359676166245142,0.8711046473994536,0.28834955,0.6400693896034548
0.0175,1.7923437500000001,1.0,2197.7189219261445,0.17871493239213276,1.3353829793916936,0.8766967859531929,0.2883314375,0.6413209730049453
0.018000000000000002,1.7919,1.0,2233.997754058911,0.1833216917463129,1.3348165827116627,0.8819156053752105,0.2883128,0.6425314283841975
0.0185,1.79144375,1.0,2268.318509737492,0.187902610220579,1.3342670203789146,0.886792910663613,0.2882936375,0.6437039511702878
0.019,1.790975,1.0,2300.7806208515453,0.19245783531020683,1.3337327994526202,0.8913572518515633,0.28827395,0.6448418959487154
0.0195,1.79049375,1.0,2331.448505763826,0.1969875094172867,1.333212843574215,0.8956344149788205,0.2882537375,0.6459477068787811
0.02,1.79,1.0,2360.392205902475,0.20149177494390902,1.3327060763851348,0.8996476369043807,0.288233,0.6470238097462017
0.0205,1.78949375,1.0,2387.686923457284,0.20597077429216415,1.3322114215268153,0.9034178915980475,0.2882117375,0.6480726129053975
0.021,1.788975,1.0,2413.4125847628584,0.21042464986414247,1.3317278026406922,0.906964141317335,0.28818995000000003,0.6490965081478889
0.021500000000000002,1.78844375,1.0,2437.635933603342,0.21485354152285221,1.3312543116492122,0.910303591350004,0.2881676375,0.6500975159879039
0.022,1.7879,1.0,2460.4453823401936,0.21925759291806668,1.330789867502507,0.9134518124462242,0.2881448,0.651078008793603
0.0225,1.78734375,1.0,2481.897550176496,0.22363694189742606,1.330333726595137,0.9164230130615996,0.28812143749999997,0.6520396335260501
0.023,1.786775,1.0,2502.0482417892686,0.22799172573792323,1.3298851786192727,0.9192301245343247,0.28809755,0.6529839570386816
0.0235,1.78619375,1.0,2520.955677877238,0.23232208171655105,1.3294435132670843,0.9218849279049712,0.28807313749999996,0.6539125368821443
0.024,1.7856,1.0,2538.6802922729794,0.23662814711030242,1.329008020230742,0.9243981721309023,0.2880482,0.6548269216321675
0.0245,1.78499375,1.0,2555.2811013851174,0.2409100585333699,1.3285780215083152,0.9267796841236292,0.2880227375,0.6557285834875037
0.025,1.784375,1.0,2570.8105702888465,0.2451679511260017,1.3281529173080604,0.9290384683122516,0.28799675,0.656618822902453
0.025500000000000002,1.78374375,1.0,2585.340214466764,0.24940196309535048,1.3277319443216056,0.9311827489058596,0.2879702375,0.6574992750994262
0.026000000000000002,1.7831000000000001,1.0,2598.911248326893,0.25361222635441677,1.3273146363113397,0.9332201177255481,0.2879432,0.6583709466083401
0.0265,1.78244375,1.0,2611.5660059481957,0.2577988728162011,1.3269005270396514,0.9351575489427634,0.2879156375,0.6592348387155552
0.027,1.781775,1.0,2623.347847249568,0.26196203439370414,1.3264891502689298,0.9370014576124828,0.28788755,0.660091947565919
0.0275,1.7810937500000001,1.0,2634.3010689787097,0.26610184299992623,1.3260800397615635,0.9387577519470726,0.2878589375,0.6609432642509476
0.028,1.7804,1.0,2644.4708205200645,0.27021843054786804,1.3256727292799417,0.9404318800677055,0.2878298,0.6617897748831435
0.0285,1.77969375,1.0,2653.8954126682056,0.27431192540189847,1.3252668227538997,0.942028880573487,0.2878001375,0.6626323151007116
0.029,1.778975,1.0,2662.624266278168,0.27838246190286753,1.324861827836389,0.9435533993838937,0.28776995,0.6634719158635214
0.029500000000000002,1.7782437500000001,1.0,2670.689919192265,0.2824301675816653,1.3244574133107794,0.9450097553348428,0.2877392375,0.6643092696035653
0.03,1.7775,1.0,2678.1228468669424,0.2864551688280295,1.324053271336779,0.9464019519165462,0.287708,0.665145017015089
0.0305,1.77674375,1.0,2684.9539523199774,0.29045759203169835,1.323649094074096,0.9477337017793599,0.2876762375,0.6659797956154879
0.031,1.775975,1.0,2691.2145267906008,0.2944375635824097,1.3232445736824383,0.9490084515224942,0.28764395,0.6668142397476362
0.0315,1.7751937500000001,1.0,2696.936212501239,0.2983952098699015,1.3228394023215144,0.9502294040788039,0.2876111375,0.6676489805761714
0.032,1.7744,1.0,2702.150612781675,0.3023306569616686,1.322433275391746,0.9513995392524945,0.2875778,0.6684846394137451
0.0325,1.77359375,1.0,2706.881220071648,0.30624402245088395,1.3220259648958024,0.9525216383867536,0.2875439375,0.6693216770820392
0.033,1.772775,1.0,2711.1700233729894,0.3101354442544493,1.321617076188289,0.9535982801533337,0.28750955,0.6701608938268376
0.0335,1.7719437500000002,1.0,2715.0364830790745,0.31400504224515524,1.321206422263488,0.9546318890613928,0.2874746375,0.6710026603848527
0.034,1.7711000000000001,1.0,2718.5002214713895,0.3178529362957924,1.320793816115681,0.9556247289971491,0.2874392,0.6718473454781209
0.0345,1.7702437500000001,1.0,2721.581007020456,0.3216792462791516,1.3203790707391496,0.9565789157602057,0.2874032375,0.6726953157918334
0.035,1.7693750000000001,1.0,2724.2987394615943,0.3254840920680234,1.3199619991281757,0.9574964284814947,0.28736675,0.6735469359499404
0.035500000000000004,1.76849375,1.0,2726.6734356465395,0.3292675935351985,1.319542414277041,0.9583791200343048,0.2873297375,0.67440256848852
0.036000000000000004,1.7676,1.0,2728.725216170027,0.33302987055346767,1.3191201291800279,0.9592287265376535,0.2872922,0.6752625738269207
0.0365,1.76669375,1.0,2730.4742927720413,0.3367710429956214,1.3186949568314175,0.9600468760405232,0.2872541375,0.676127310236674
0.037,1.765775,1.0,2731.9409565151227,0.34049123073445053,1.3182667102254917,0.9608350964659775,0.28721555,0.6769971338081726
0.0375,1.76484375,1.0,2733.1364697882245,0.3441905436799491,1.3178352849892678,0.9615948288437912,0.2871764375,0.6778722309177005
0.038,1.7639,1.0,2734.082719116537,0.3478691073679863,1.317400480730652,0.9623274216974629,0.28713679999999997,0.6787529809692314
0.0385,1.76294375,1.0,2734.8007512520594,0.3515270461226359,1.3169621051513498,0.9630341439779464,0.28709663750000003,0.6796397445727828
0.039,1.761975,1.0,2735.301252314933,0.3551644720728474,1.3165200604048064,0.9637161965126569,0.28705595,0.6805326892899799
0.0395,1.7609937500000001,1.0,2735.5949392189405,0.3587814973475704,1.3160742486444665,0.9643747104698795,0.2870147375,0.6814319813260075
0.04,1.76,1.0,2735.692555490413,0.3623782340757546,1.3156245720237751,0.9650107521409761,0.286973,0.6823377855064057
0.0405,1.7589937500000001,1.0,2735.604867300033,0.3659547943863494,1.3151709326961776,0.9656253273454198,0.2869307375,0.6832502652532574
0.041,1.757975,1.0,2735.3426597068733,0.3695112904083046,1.3147132328151183,0.9662193854920736,0.28688795,0.684169582560769
0.0415,1.75694375,1.0,2734.916733114273,0.37304783427056964,1.314251374534043,0.9667938233268425,0.2868446375,0.6850958979702317
0.042,1.7559,1.0,2734.33789993868,0.3765645381020942,1.3137852600063962,0.9673494883939311,0.28680079999999997,0.6860293705443825
0.0425,1.75484375,1.0,2733.6169814904615,0.38006151403182786,1.3133147913856227,0.967887182235311,0.2867564375,0.6869701578411471
0.043000000000000003,1.753775,1.0,2732.7648050662924,0.38353887418872024,1.312839870825168,0.9684076633506656,0.28671155,0.6879184158867735
0.043500000000000004,1.75269375,1.0,2731.792201255329,0.3869967307017209,1.312360400478477,0.9689116499379963,0.28666613750000003,0.6888742991483592
0.044,1.7516,1.0,2730.7019482077617,0.3904351828884278,1.311876355683811,0.9693998262704839,0.2866202,0.6898378149406412
0.0445,1.75049375,1.0,2729.508993922803,0.39385435331192964,1.3113876012108574,0.9698728358944456,0.2865737375,0.6908091894520028
0.045,1.7493750000000001,1.0,2728.221944638725,0.3972543524528313,1.3108940594271496,0.9703312918352329,0.28652675,0.6917885325666707
0.0455,1.74824375,1.0,2726.8458642360592,0.4006352846527239,1.3103956848886336,0.9707757774322254,0.2864792375,0.6927758890386355
0.046,1.7471,1.0,2725.3858161108683,0.40399725425319855,1.309892432151255,0.971206846605771,0.2864312,0.6937713026000631
0.0465,1.7459437500000001,1.0,2723.8468623788895,0.40734036559584613,1.30938425577096,0.9716250256191159,0.28638263750000004,0.6947748159472231
0.047,1.744775,1.0,2722.2340631255024,0.41066472302225787,1.308871110303695,0.9720308147186186,0.28633355,0.6957864707262842
0.0475,1.74359375,1.0,2720.552475702372,0.41397043087402474,1.3083529503054057,0.9724246896617224,0.28628393750000003,0.6968063075189797
0.048,1.7424,1.0,2718.8071540680676,0.41725759349273783,1.3078297303320383,0.9728071031413493,0.2862338,0.6978343658281396
0.0485,1.74119375,1.0,2717.0031481768056,0.4205263152199882,1.3073014049395386,0.9731784861146427,0.2861831375,0.6988706840630923
0.049,1.739975,1.0,2715.1455034104874,0.42377670039736676,1.3067679286838527,0.9735392490433008,0.28613195,0.6999152995249319
0.0495,1.73874375,1.0,2713.2392600586177,0.42700885336646477,1.306229256120927,0.9738897830521439,0.2860802375,0.7009682483916573
0.05,1.7375,1.0,2711.289452842999,0.4302228784688732,1.3056853418067071,0.9742304610119998,0.286028,0.7020295657031781
0.0505,1.73624375,1.0,2709.2998027428976,0.4334188761868832,1.3051361522282783,0.9745616389032818,0.2859752375,0.7030992621279368
0.051000000000000004,1.734975,1.0,2707.277576033583,0.4365969487811833,1.304581621474926,0.9748836544873521,0.28592195,0.7041774102669163
0.051500000000000004,1.73369375,1.0,2705.2248838207934,0.4397571955186245,1.3040217306122526,0.9751968329115136,0.2858681375,0.7052639901643205
0.052000000000000005,1.7324,1.0,2703.14360497591,0.4428997154344692,1.3034564628034717,0.9755014848170981,0.2858138,0.7063589769859859
0.0525,1.73109375,1.0,2701.0356160314595,0.44602460756397977,1.3028858012117974,0.9757979070077708,0.28575893750000003,0.7074623451029577
0.053,1.729775,1.0,2698.9027910840664,0.44913197094241875,1.3023097290004442,0.9760863831832182,0.28570355000000003,0.708574068085708
0.0535,1.72844375,1.0,2696.7471136721756,0.45222190460192124,1.301728228308714,0.9763671845642361,0.2856476375,0.7096941206686371
0.054,1.7271,1.0,2694.5773604851274,0.45529450659891985,1.3011412191043126,0.9766405667080035,0.2855912,0.710822596161889
0.0545,1.7257437500000001,1.0,2692.392380498135,0.4583498737290813,1.300548712086555,0.9769067795470653,0.2855342375,0.7119594121910492
0.055,1.724375,1.0,2690.1923722476104,0.4613881026339903,1.299950705617088,0.9771660616097303,0.28547675,0.7131045095657238
0.0555,1.72299375,1.0,2687.980643790899,0.46440928953556215,1.299347169574351,0.9774186396199872,0.2854187375,0.7142578828693391
0.056,1.7216058267488654,1.0,2686.034022306101,0.4674135299045992,1.2987381989386277,0.9776647380645298,0.28536044472345234,0.7154192872924263
0.0565,1.7202178960786576,1.0,2684.64958030131,0.4704009189120672,1.2981240786391812,0.9779045831049128,0.2853021516353036,0.7165881177791431
0.057,1.71882996540845,1.0,2683.7814740208305,0.4733715510048704,1.2975052282805446,0.9781383992834793,0.2852438585471549,0.7177635176841233
0.0575,1.7174420347382422,1.0,2683.3982117973433,0.47632551762629605,1.2968819342627038,0.9783663941781543,0.2851855654590062,0.718944888738634
0.058,1.7160541040680344,1.0,2683.4421343325266,0.4792629170003767,1.29625472421072,0.9785887811869276,0.28512727237085744,0.7201311810676982
0.0585,1.7146661733978266,1.0,2683.8797331706583,0.4821838418242247,1.2956239053766672,0.9788057524400392,0.2850689792827087,0.7213217683987478
0.059000000000000004,1.713278242727619,1.0,2684.684865724337,0.4850883830051481,1.294989718243829,0.9790174886388011,0.28501068619456,0.7225161547526351
0.059500000000000004,1.7118903120574112,1.0,2685.831452850756,0.4879766314504552,1.2943524032954898,0.9792241634101693,0.2849523931064113,0.7237138478130398
0.06,1.7105023813872033,1.0,2687.293461533495,0.4908486780674542,1.293712201014933,0.9794259436455118,0.28489410001826254,0.7249143589762872
0.0605,1.7091144507169957,1.0,2689.0448888464734,0.49370461376345326,1.2930693518854424,0.9796229898206943,0.2848358069301138,0.7261172033974705
0.061,1.707726520046788,1.0,2691.059747200195,0.4965445294457606,1.2924240963903022,0.9798154562986408,0.2847775138419651,0.727321900032893
0.0615,1.7063385893765801,1.0,2693.3135581272636,0.49936851532871435,1.291776661220666,0.9800034908326223,0.2847192207538164,0.728527997343497
0.062,1.7049506587063723,1.0,2695.789901104789,0.5021766590264397,1.291127199298249,0.9801872315837271,0.28466092766566764,0.7297351844029262
0.0625,1.7035627280361647,1.0,2698.4601104632015,0.504969054766169,1.2904759754686577,0.9803668178968081,0.2846026345775189,0.7309429453939151
0.063,1.702174797365957,1.0,2701.3116397875724,0.5077457889897297,1.289823106981857,0.9805423758119318,0.2845443414893702,0.7321510416434408
0.0635,1.700786866695749,1.0,2704.3319344405245,0.5105069481389486,1.2891687110878118,0.9807140267647246,0.2844860484012215,0.7333592363769568
0.064,1.6993989360255415,1.0,2707.5084274391074,0.5132526186556531,1.2885129050364867,0.9808818877915908,0.28442775531307274,0.7345672947302525
0.0645,1.6980110053553337,1.0,2710.828535636961,0.5159828869816703,1.2878558060778467,0.9810460717243695,0.284369462224924,0.7357749837604373
0.065,1.6966230746851259,1.0,2714.2796562104377,0.5186978395588273,1.287197531461856,0.9812066873750421,0.2843111691367753,0.7369820724560467
0.0655,1.6952351440149183,1.0,2717.849163449947,0.5213975628289513,1.2865381984384798,0.981363839711068,0.2842528760486266,0.7381883317462703
0.066,1.6938472133447104,1.0,2721.5244058562776,0.5240821432338696,1.285877924257683,0.9815176300218864,0.28419458296047784,0.7393935345093063
0.0665,1.6924592826745026,1.0,2725.3023613964215,0.5267516584046426,1.2852167383155222,0.9816681511969874,0.2841362898723291,0.7405976153847416
0.067,1.6910713520042948,1.0,2729.162746182762,0.5294062053927281,1.2845548268911253,0.9818155018063318,0.2840779967841804,0.7418002247862299
0.0675,1.6896834213340872,1.0,2733.0993519078406,0.5320458665928378,1.2838922479171768,0.98195976992041,0.2840197036960317,0.7430012486369012
0.068,1.6882954906638794,1.0,2737.106941048379,0.5346707233968729,1.2832290503762747,0.9821010401224692,0.28396141060788294,0.7442005899966635
0.0685,1.6869075599936716,1.0,2741.180262957711,0.5372808571967344,1.2825652832510166,0.9822393941403976,0.2839031175197342,0.7453981527464055
0.069,1.685519629323464,1.0,2745.314053220605,0.5398763493843235,1.2819009955240004,0.9823749109641519,0.2838448244315855,0.7465938415898518
0.0695,1.6841316986532562,1.0,2749.503033061021,0.5424572813515414,1.2812362361778238,0.9825076669575894,0.2837865313434368,0.7477875620552658
0.07,1.6827437679830484,1.0,2753.741908803588,0.5450237344902893,1.280571054195085,0.9826377359650136,0.28372823825528803,0.7489792204969984
0.07050000000000001,1.6813558373128406,1.0,2758.025371388016,0.5475757901924682,1.2799054985583815,0.9827651894127124,0.2836699451671393,0.7501687240968874
0.07100000000000001,1.679967906642633,1.0,2762.3480959366684,0.5501135298499794,1.2792396182503116,0.9828900964057585,0.2836116520789906,0.7513559808654982
0.07150000000000001,1.6785799759724251,1.0,2766.704741375269,0.552637034854724,1.2785734622534726,0.983012523820322,0.2835533589908419,0.7525408996432178
0.07200000000000001,1.6771920453022173,1.0,2771.091503341446,0.5551463824073885,1.2779070655384965,0.9831325355102628,0.28349506590269313,0.7537234149355287
0.0725,1.6758041146320097,1.0,2775.50725467806,0.5576416458980206,1.277240438836919,0.9832501919895787,0.2834367728145444,0.7549035046987009
0.073,1.674416183961802,1.0,2779.9427394019344,0.5601229223824807,1.2765736660638878,0.9833655564953612,0.2833784797263957,0.7560810179846336
0.0735,1.673028253291594,1.0,2784.3962340526773,0.5625902873244563,1.2759067630792575,0.9834786860285545,0.28332018663824693,0.7572559250227247
