Time [s],Phi [rad],STIM [ ],Fsee [N],Gamma [ ],Lcerel [ ],q [ ],Lmtc [m],fisomrel [ ]
0.0,1.8,1.0,19.04637655412748,0.0010602245312882105,1.3792206007324255,0.00528859008054152,0.288653,0.5414277295285024
0.0005,1.79999375,1.0,19.662997163639066,0.006663486818910991,1.3791512161895805,0.016111213241167783,0.2886527375,0.5415955206057463
0.001,1.799975,1.0,23.785707462053857,0.01223531923667328,1.3787222279128382,0.041288936925937374,0.28865195,0.5426322515457151
0.0015,1.79994375,1.0,35.02462171852567,0.017775898077854378,1.3777193109316541,0.07824000039418447,0.2886506375,0.545051409914912
0.002,1.7999,1.0,61.02745751665418,0.023285398653824035,1.3759008383129148,0.12367588621220998,0.2886488,0.5494214277922447
0.0025,1.79984375,1.0,108.73215113822974,0.02876399528788444,1.3733913522527215,0.17426429867427715,0.28864643749999996,0.555417404537258
0.003,1.7997750000000001,1.0,175.5083264141489,0.03421186132672414,1.3706814988581102,0.22723982586815913,0.28864354999999997,0.5618470229729109
0.0035,1.79969375,1.0,253.82152876147384,0.03962916914409136,1.3680957982101303,0.2804926605035033,0.2886401375,0.5679384035078032
0.004,1.7996,1.0,338.4607326366796,0.04501609014689534,1.3657117836173405,0.3324636861402687,0.2886362,0.5735168728425496
0.0045000000000000005,1.7994937500000001,1.0,426.74722585375724,0.050372794774269966,1.3635167941278163,0.3820851731270556,0.2886317375,0.5786209833770243
0.005,1.799375,1.0,517.1650289823768,0.05569945255090885,1.361484417669408,0.4287063642809473,0.28862675,0.5833195656320438
0.0055,1.79924375,1.0,608.6387879822032,0.06099623198212009,1.3595927158555756,0.47199960415744097,0.2886212375,0.587669256070189
0.006,1.7991000000000001,1.0,700.3221875317026,0.06626330063236381,1.357824867438076,0.5118684881197827,0.2886152,0.5917135339378934
0.006500000000000001,1.79894375,1.0,791.5360074765381,0.07150082523916355,1.3561675749807696,0.548371378891729,0.2886086375,0.595486793789279
0.007,1.798775,1.0,881.6902993314295,0.07670897138897291,1.35461065801962,0.5816635487352783,0.28860155,0.5990155651112632
0.0075,1.79859375,1.0,970.3316323465812,0.08188790411435105,1.3531451091834414,0.6119543481676576,0.2885939375,0.6023231245529823
0.008,1.7984,1.0,1057.063689650905,0.08703778699650727,1.3517636748870359,0.6394789020177454,0.2885858,0.6054283068557644
0.0085,1.79819375,1.0,1141.5944015947211,0.09215878304556333,1.3504596016707384,0.6644784482359123,0.2885771375,0.6083484298366943
0.009000000000000001,1.797975,1.0,1223.7035373010112,0.09725105461241615,1.349226802668198,0.6871886215820664,0.28856795,0.6110989805425624
0.0095,1.79774375,1.0,1303.2039333370778,0.1023147623602816,1.348060107368424,0.7078326484906917,0.2885582375,0.6136931175340599
0.01,1.7975,1.0,1379.974360714918,0.10735006642032427,1.3469545845808943,0.7266173299377364,0.288548,0.6161432278006985
0.0105,1.79724375,1.0,1453.9590012479232,0.11235712698947832,1.345905419357507,0.7437315205776791,0.2885372375,0.6184612272292959
0.011,1.796975,1.0,1525.1002865236123,0.11733610192207324,1.3449086303842677,0.759346357599794,0.28852595000000003,0.620657004739951
0.0115,1.79669375,1.0,1593.3732092123714,0.12228714835396776,1.3439604956988094,0.7736156352539423,0.2885141375,0.6227397238476701
0.012,1.7964,1.0,1658.7917943922544,0.12721042304694583,1.3430573937273311,0.7866768688879476,0.28850180000000003,0.6247181907175093
0.0125,1.79609375,1.0,1721.3992488681859,0.13210608258876186,1.3421958572884611,0.7986526765714792,0.2884889375,0.6266007501741555
0.013000000000000001,1.7957750000000001,1.0,1781.2310656995264,0.1369742816310332,1.3413729314978438,0.8096523359253178,0.28847555,0.628394520537527
0.0135,1.79544375,1.0,1838.3259303274938,0.14181517352637474,1.340585974109762,0.8197730726152485,0.2884616375,0.6301058489786495
0.014,1.7951000000000001,1.0,1892.7494847739852,0.14662891162740138,1.3398323428785004,0.8291012544028518,0.2884472,0.6317410036151446
0.0145,1.79474375,1.0,1944.5753739696036,0.1514156481309436,1.3391095742503651,0.8377136814320145,0.2884322375,0.6333057928945667
0.015,1.794375,1.0,1993.9003584473132,0.1561755358993041,1.3384151880596842,0.8456786253041167,0.28841675,0.6348059964621448
0.0155,1.79399375,1.0,2040.7847474272278,0.16090872436127357,1.3377472944029476,0.8530570224794487,0.2884007375,0.6362460622560224
0.016,1.7936,1.0,2085.3026136236117,0.16561536283350298,1.3371040209741212,0.8599031526650252,0.2883842,0.6376303540914519
0.0165,1.7931937500000001,1.0,2127.5421101770844,0.1702956006326434,1.3364834954671712,0.8662654226708653,0.2883671375,0.6389631928513846
0.017,1.792775,1.0,2167.5872101263612,0.17494958538121277,1.3358840194140649,0.8721871109779319,0.28834955,0.6402484869332019
0.0175,1.7923437500000001,1.0,2205.5440065186162,0.17957746651827344,1.3353037832034902,0.8777068945956868,0.2883314375,0.6414903474790398
0.018000000000000002,1.7919,1.0,2241.4791102156187,0.1841793889695367,1.33474147868889,0.8828595499665837,0.2883128,0.6426917807562991
0.0185,1.79144375,1.0,2275.4668854369816,0.1887554976332499,1.3341958005420738,0.8876762748262891,0.2882936375,0.6438557617986047
0.019,1.790975,1.0,2307.589060055636,0.19330593740766053,1.3336654434348514,0.8921851013041829,0.28827395,0.6449852418922959
0.0195,1.79049375,1.0,2337.9262633470967,0.19783085214488896,1.3331491790048742,0.8964112762150196,0.2882537375,0.6460829863787574
0.02,1.79,1.0,2366.5664634947643,0.2023303865061422,1.3326457654155472,0.9003775561629273,0.288233,0.647151768976737
0.0205,1.78949375,1.0,2393.5873508677732,0.20680468340146885,1.3321541136786292,0.9041045223264449,0.2882117375,0.6481940203009064
0.021,1.788975,1.0,2419.0505154490106,0.21125388291485103,1.3316733350821588,0.9076108293588294,0.28818995000000003,0.6492117308529274
0.021500000000000002,1.78844375,1.0,2443.0213718028967,0.21567812513027096,1.3312025409141748,0.9109133737020477,0.2881676375,0.6502068778443699
0.022,1.7879,1.0,2465.5688423530437,0.2200775501317108,1.3307408424627163,0.914027483552072,0.2881448,0.6511814257877956
0.0225,1.78734375,1.0,2486.762486493014,0.22445229757230226,1.330287375505707,0.9169670907322294,0.28812143749999997,0.6521372754513779
0.023,1.786775,1.0,2506.6635112953077,0.2288025054000403,1.3298413824153856,0.919744892605627,0.28809755,0.6530760919843984
0.0235,1.78619375,1.0,2525.3530687362418,0.2331283145105825,1.3294019403425177,0.9223724312020545,0.28807313749999996,0.653999877865384
0.024,1.7856,1.0,2542.879377821324,0.23742985982486364,1.3289684600177842,0.924860298712152,0.2880482,0.6549099244691565
0.0245,1.78499375,1.0,2559.292448781512,0.2417072762638185,1.3285403521718666,0.9272181754917282,0.2880227375,0.6558075159272508
0.025,1.784375,1.0,2574.6439352786197,0.24596069874838186,1.3281170275354455,0.9294549210527161,0.28799675,0.656693929340892
0.025500000000000002,1.78374375,1.0,2588.986994309417,0.2501902621994884,1.327697896839202,0.9315786548678011,0.2879702375,0.6575704349718232
0.026000000000000002,1.7831000000000001,1.0,2602.372730598344,0.2543961007752798,1.3272824026804397,0.9335968330665916,0.2879432,0.6584382298970615
0.0265,1.78244375,1.0,2614.847091569999,0.2585783473320072,1.3268700468198698,0.9355163159164618,0.2879156375,0.6592983816708424
0.027,1.781775,1.0,2626.472096349778,0.26273713760153905,1.3264601917834704,0.9373433950256472,0.28788755,0.6601522422853945
0.0275,1.7810937500000001,1.0,2637.2839681160794,0.2668726011211527,1.3260524485765421,0.9390839015660143,0.2878589375,0.6610006402335502
0.028,1.7804,1.0,2647.3196892532915,0.27098486742812533,1.3256464282043865,0.94074321364278,0.2878298,0.6618443998651957
0.0285,1.77969375,1.0,2656.6169361286397,0.2750740660597342,1.3252417416723044,0.9423262974324106,0.2878001375,0.6626843414348407
0.029,1.778975,1.0,2665.214017223602,0.27914032655325666,1.3248379999855968,0.9438377440896649,0.28776995,0.6635212811395326
0.029500000000000002,1.7782437500000001,1.0,2673.1498146200515,0.28318377844597,1.3244348141495648,0.9452818029049673,0.2877392375,0.6643560311471217
0.03,1.7775,1.0,2680.459589544531,0.2872045484646469,1.3240318331367622,0.9466624152090276,0.287708,0.6651893211544309
0.0305,1.77674375,1.0,2687.1803875953715,0.291202767438789,1.3236286936579196,0.9479832366338711,0.2876762375,0.6660219025550652
0.031,1.775975,1.0,2693.3412354533707,0.29517856107813634,1.323225109532339,0.9492476696819597,0.28764395,0.6668543640555084
0.0315,1.7751937500000001,1.0,2698.9695662167865,0.2991320536119965,1.3228208121610507,0.9504588785948028,0.2876111375,0.6676872552158151
0.032,1.7744,1.0,2704.0931034243877,0.303063369269677,1.3224155329450844,0.951619807391586,0.2875778,0.6685211228180395
0.0325,1.77359375,1.0,2708.739832484767,0.30697263228048527,1.3220090032854703,0.9527331978891216,0.2875439375,0.6693565108517154
0.033,1.772775,1.0,2712.9379737045815,0.31085996687372885,1.3216009545832383,0.9538016060400402,0.28750955,0.6701939604947382
0.0335,1.7719437500000002,1.0,2716.7093438943934,0.31472549226662083,1.3211911784905968,0.9548274222674703,0.2874746375,0.6710338866703496
0.034,1.7711000000000001,1.0,2720.077380178891,0.3185693309572429,1.320779453447947,0.9558128784458341,0.2874392,0.6718767290996062
0.0345,1.7702437500000001,1.0,2723.0800091898,0.32239161753191886,1.3203654274457595,0.9567600496258243,0.2874032375,0.672723191637423
0.035,1.7693750000000001,1.0,2725.7331840007782,0.3261924693053892,1.3199489498461279,0.957670894497278,0.28736675,0.6735735634322703
0.035500000000000004,1.76849375,1.0,2728.052959954744,0.32997200359239415,1.3195298700111453,0.9585472470665468,0.2873297375,0.6744281319217493
0.036000000000000004,1.7676,1.0,2730.055484248782,0.3337303377076741,1.3191080373029054,0.9593908260210977,0.2872922,0.6752871828083149
0.0365,1.76669375,1.0,2731.7569860232175,0.33746758896596923,1.3186833010835013,0.9602032432888281,0.2872541375,0.6761510000335538
0.037,1.765775,1.0,2733.173766953043,0.34118387468202005,1.3182555107150262,0.9609860118696074,0.28721555,0.6770198657510136
0.0375,1.76484375,1.0,2734.3221923428528,0.3448793121705667,1.3178245155595738,0.9617405530083242,0.2871764375,0.6778940602975836
0.038,1.7639,1.0,2735.2186827245546,0.3485540187463497,1.3173901649792372,0.9624682027714851,0.28713679999999997,0.6787738621634329
0.0385,1.76294375,1.0,2735.8797059586927,0.3522081117241092,1.3169523083361099,0.9631702180829462,0.28709663750000003,0.679659547960496
0.039,1.761975,1.0,2736.3217698381527,0.35584170841858564,1.3165107949922852,0.9638477822686692,0.28705595,0.6805513923895141
0.0395,1.7609937500000001,1.0,2736.5590543843523,0.3594549222996104,1.316065495741043,0.9645020113726984,0.2870147375,0.681449625006278
0.04,1.76,1.0,2736.6030700604815,0.36304786564584984,1.3156163058505566,0.9651339595455118,0.286973,0.6823544243662243
0.0405,1.7589937500000001,1.0,2736.471326807104,0.36662066306049906,1.3151630663223612,0.9657446187309106,0.2869307375,0.6832660766144354
0.041,1.757975,1.0,2736.172637290305,0.37017342432981193,1.3147056972655473,0.9663349295360879,0.28688795,0.6841847069789723
0.0415,1.75694375,1.0,2735.7158280853323,0.3737062592400424,1.3142441187892044,0.9669057805064726,0.2868446375,0.6851104394336619
0.042,1.7559,1.0,2735.109737062876,0.3772192775774443,1.313778251002423,0.9674580115403302,0.28680079999999997,0.686043396676851
0.0425,1.75484375,1.0,2734.3632109165574,0.3807125891282715,1.3133080140142928,0.9679924170456851,0.2867564375,0.6869837001097568
0.043000000000000003,1.753775,1.0,2733.4851028318017,0.384186303678778,1.312833327933904,0.9685097488614401,0.28671155,0.6879314698144086
0.043500000000000004,1.75269375,1.0,2732.4842702972383,0.38764053101521756,1.3123541128703466,0.969010718962504,0.28666613750000003,0.6888868245311823
0.044,1.7516,1.0,2731.3695730558047,0.3910753809238441,1.3118702889327107,0.9694960019669085,0.2866202,0.6898498816359296
0.0445,1.75049375,1.0,2730.149871199369,0.3944909631909116,1.3113817762300866,0.9699662374612319,0.2865737375,0.6908207571166974
0.045,1.7493750000000001,1.0,2728.834023403378,0.39788738760267384,1.310888494871564,0.9704220321591552,0.28652675,0.6917995655500431
0.0455,1.74824375,1.0,2727.42298639681,0.40126474555004066,1.3103904367915926,0.9708639647346999,0.2864792375,0.6927862778964424
0.046,1.7471,1.0,2725.929558290791,0.40462316221784095,1.3098874862579144,0.9712925814289431,0.2864312,0.6937810773620884
0.0465,1.7459437500000001,1.0,2724.363303330254,0.40796275304490237,1.3093795568718243,0.9717084020141586,0.28638263750000004,0.6947840873399033
0.047,1.744775,1.0,2722.728294912016,0.4112836196232983,1.3088666121363433,0.9721119223603497,0.28633355,0.695795331337429
0.0475,1.74359375,1.0,2721.0286043608035,0.4145858635451022,1.308348615554493,0.9725036141189234,0.28628393750000003,0.6968148319056999
0.048,1.7424,1.0,2719.26830043379,0.4178695864023874,1.3078255306292945,0.9728839261282266,0.2862338,0.6978426106275295
0.0485,1.74119375,1.0,2717.4514488559425,0.4211348897872273,1.307297320863769,0.9732532857249195,0.2861831375,0.6988786881057072
0.049,1.739975,1.0,2715.582111883562,0.4243818752916953,1.306763949760938,0.9736120999682981,0.28613195,0.6999230839511119
0.0495,1.73874375,1.0,2713.664347898367,0.42761064450786473,1.3062253808238224,0.9739607567840997,0.2860802375,0.7009758167707427
0.05,1.7375,1.0,2711.702211030821,0.430821299027809,1.3056815775554438,0.9742996260337589,0.286028,0.7020369041556607
0.0505,1.73624375,1.0,2709.6997508125987,0.4340139404436016,1.3051325034588233,0.9746290605146086,0.2859752375,0.7031063626688496
0.051000000000000004,1.734975,1.0,2707.661011859333,0.43718867034731573,1.3045781220369823,0.9749493968960563,0.28592195,0.7041842078329883
0.051500000000000004,1.73369375,1.0,2705.590033582086,0.44034559033102494,1.3040183967929417,0.9752609565963726,0.2858681375,0.7052704541181424
0.052000000000000005,1.7324,1.0,2703.4908499289013,0.4434848019868025,1.303453291229723,0.9755640466043434,0.2858138,0.7063651149293653
0.0525,1.73109375,1.0,2701.3674891557957,0.4466064069067219,1.3028827688503477,0.9758589602497068,0.28575893750000003,0.7074682025942183
0.053,1.729775,1.0,2699.221150327374,0.449710494217425,1.3023068189640934,0.9761459782492578,0.28570355000000003,0.7085796785963356
0.0535,1.72844375,1.0,2697.0528590675717,0.45279716242721957,1.3017254324521763,0.9764253701313317,0.2856476375,0.7096995006745765
0.054,1.7271,1.0,2694.869199352982,0.4558665308253185,1.3011385493369292,0.976697392716171,0.2855912,0.7108277235435264
0.0545,1.7257437500000001,1.0,2692.671757527701,0.4589186923808501,1.300546155281411,0.9769622919223341,0.2855342375,0.7119643129641644
0.055,1.724375,1.0,2690.462117508167,0.4619537400629427,1.299948235948681,0.977220303216311,0.28547675,0.7131092339007477
0.0555,1.72299375,1.0,2688.2418607428353,0.46497176684072467,1.299344777001798,0.9774716521412691,0.2854187375,0.7142624505157646
0.056,1.7216,1.0,2686.0125661763204,0.4679728656833244,1.2987357641038217,0.9777165548148218,0.2853602,0.7154239261648782
0.0565,1.72019375,1.0,2683.775810218056,0.4709571295598701,1.298121182917811,0.9779552183978728,0.28530113749999997,0.7165936233918531
0.057,1.718775,1.0,2681.5331667159085,0.47392465143949025,1.2975010191068248,0.9781878415364426,0.28524155,0.7177715039234716
0.0575,1.71734375,1.0,2679.2862069333996,0.47687552429131314,1.2968752583339225,0.9784146147782358,0.2851814375,0.718957528664435
0.058,1.7159,1.0,2677.036499532661,0.4798098410844671,1.2962438862621632,0.9786357209655834,0.2851208,0.7201516576922529
0.0585,1.71444375,1.0,2674.7856105612273,0.4827276947880805,1.295606888554606,0.9788513356062835,0.2850596375,0.72135385025212
0.059000000000000004,1.7129750000000001,1.0,2672.535103443359,0.48562917837128156,1.29496425087431,0.979061627223739,0.28499795,0.7225640647517766
0.059500000000000004,1.71149375,1.0,2670.286538976468,0.48851438480319875,1.2943159588843345,0.979266757687712,0.2849357375,0.7237822587563608
0.06,1.71,1.0,2668.0414753313926,0.49138340705296035,1.2936619982477384,0.9794668825268998,0.284873,0.7250083889832439
0.0605,1.7084937500000001,1.0,2665.8014680578426,0.4942363380896948,1.2930023546275813,0.9796621512244742,0.2848097375,0.7262424112968531
0.061,1.7069750000000001,1.0,2663.5677892500826,0.4970732582169769,1.2923370162710892,0.9798527066331555,0.28474595,0.727484275885577
0.0615,1.7054437500000001,1.0,2661.3401376871034,0.4998942441485609,1.2916659858887114,0.9800386866411689,0.2846816375,0.7287339052154529
0.062,1.7039,1.0,2659.1192679424485,0.5026994254502356,1.2909892564726329,0.9802202274783414,0.2846168,0.7299912392139806
0.0625,1.70234375,1.0,2656.905582929473,0.5054888862637953,1.2903068242433209,0.9803974569110533,0.2845514375,0.7312562110897882
0.063,1.7007750000000001,1.0,2654.699484899624,0.5082627107310342,1.2896186854212421,0.9805704979394916,0.28448555,0.7325287533637488
0.0635,1.69919375,1.0,2652.501375447045,0.5110209829937468,1.2889248362268635,0.98073946900906,0.28441913750000003,0.7338087978676024
0.064,1.6976,1.0,2650.3116555135566,0.5137637871937271,1.2882252728806518,0.9809044842109007,0.2843522,0.7350962757425823
0.0645,1.69599375,1.0,2648.1307253949913,0.5164912074727693,1.2875199916030742,0.9810656534721557,0.2842847375,0.7363911174380362
0.065,1.694375,1.0,2645.958984746616,0.519203327972668,1.2868089886145972,0.9812230827365687,0.28421675,0.7376932527100505
0.0655,1.69274375,1.0,2643.796832589323,0.5219002328352172,1.2860922601356881,0.9813768741359824,0.2841482375,0.7390026106200693
0.066,1.6911,1.0,2641.6446673166556,0.5245820062022113,1.2853698023868134,0.9815271261532518,0.2840792,0.7403191195335175
0.0665,1.6894437500000001,1.0,2639.5028867014094,0.5272487322154445,1.28464161158844,0.9816739337770602,0.2840096375,0.7416427071184173
0.067,1.687775,1.0,2637.371887902609,0.5299004950167111,1.2839076839610353,0.9818173886490958,0.28393955,0.742973300344008
0.0675,1.68609375,1.0,2635.252067473648,0.5325373787478053,1.2831680157250656,0.9819575792040158,0.2838689375,0.7443108254793656
0.068,1.6844000000000001,1.0,2633.143821369577,0.5351594675505214,1.282422603100998,0.9820945908025993,0.2837978,0.7456552080920158
0.0685,1.68269375,1.0,2631.0475449554565,0.5377668455666537,1.2816714423092992,0.9822285058584667,0.2837261375,0.7470063730465535
0.069,1.680975,1.0,2628.9636330148937,0.5403595969379963,1.2809145295704365,0.982359403958714,0.28365395,0.7483642445032537
0.0695,1.67924375,1.0,2626.892479758672,0.5429378058063438,1.2801518611048763,0.9824873619788015,0.28358123749999997,0.7497287459166904
0.07,1.6775,1.0,2624.83447883405,0.5455015563134902,1.279383433133086,0.9826124541919973,0.283508,0.7510998000343446
0.07050000000000001,1.67574375,1.0,2622.7872965915435,0.548050902815468,1.27860926715977,0.9827347517033178,0.2834342375,0.7524772839690559
0.07100000000000001,1.673975,1.0,2620.7493050410926,0.5505859283421058,1.2778293781779253,0.9828543247231155,0.28335995,0.7538610861647557
0.07150000000000001,1.67219375,1.0,2618.7240891231786,0.5531067582074408,1.2770437328288893,0.9829712414838749,0.2832851375,0.7552511801665658
0.07200000000000001,1.6704,1.0,2616.711476841443,0.555613467225871,1.2762523325803543,0.9830855664929299,0.2832098,0.7566474768619685
0.0725,1.66859375,1.0,2614.7112965234323,0.5581061302117941,1.2754551789000121,0.9831973621509663,0.2831339375,0.7580498865343186
0.073,1.6667750000000001,1.0,2612.7233768171823,0.5605848219796082,1.2746522732555554,0.9833066888331952,0.28305755,0.7594583188633792
0.0735,1.66494375,1.0,2610.7475466875862,0.5630496173437112,1.2738436171146763,0.983413604966876,0.2829806375,0.7608726829258627
0.074,1.6631,1.0,2608.783635413011,0.565500591118501,1.2730292119450668,0.983518167105376,0.2829032,0.7622928871959688
0.0745,1.6612437500000001,1.0,2606.831472581889,0.5679378181183757,1.2722090592144195,0.9836204299989448,0.2828252375,0.7637188395459205
0.075,1.659375,1.0,2604.890888089497,0.570361373157733,1.2713831603904262,0.9837204466623649,0.28274675,0.7651504472465058
0.0755,1.65749375,1.0,2602.9617121343194,0.572771331050971,1.2705515169407795,0.9838182684396382,0.2826677375,0.766587616967612
