Time [s],Phi [rad],STIM [ ],Fsee [N],Gamma [ ],Lcerel [ ],q [ ],Lmtc [m],fisomrel [ ]
0.0,1.8,1.0,17.96593933853199,1.00023961363086e-05,1.3793398827716514,0.00500002666450526,0.288653,0.5411392006976714
0.0005,1.79999375,1.0,18.27538476871897,0.005619155599399106,1.3793025387926747,0.012940523628944878,0.2886527375,0.5412295410249729
0.001,1.799975,1.0,21.617072147769495,0.011196845888113071,1.3789384358526853,0.0356085988154911,0.28865195,0.5421098910507663
0.0015,1.79994375,1.0,31.067846514951174,0.016743249745214548,1.3780463221100179,0.0706017388783797,0.2886506375,0.5442633237853591
0.002,1.7999,1.0,53.58071750041408,0.02225854266198602,1.3763682400507966,0.1147178774572982,0.2886488,0.5483002164574807
0.0025,1.79984375,1.0,97.11692359855672,0.027742899145624885,1.3739352643122271,0.1645747166903309,0.28864643749999996,0.554121231198166
0.003,1.7997750000000001,1.0,160.95610952107222,0.03319649272695635,1.371214420763207,0.2172802688274963,0.28864354999999997,0.5605862685504995
0.0035,1.79969375,1.0,237.68132583090338,0.03861949596002731,1.3685847960145219,0.27061270120368397,0.2886401375,0.5667896943460884
0.004,1.7996,1.0,321.46486768495237,0.044012080432888095,1.3661561428167623,0.32291561805362495,0.2886362,0.572479843997292
0.0045000000000000005,1.7994937500000001,1.0,409.26596862739996,0.04937441677277685,1.3639228560007561,0.37303433189939694,0.2886317375,0.577679065306929
0.005,1.799375,1.0,499.411830136204,0.05470667463721629,1.3618583779198747,0.42024729566446983,0.28862675,0.5824569972232052
0.0055,1.79924375,1.0,590.788840209211,0.06000902276143486,1.3599388658473797,0.46417354523753895,0.2886212375,0.5868750409837438
0.006,1.7991000000000001,1.0,682.516630375702,0.06528162890162076,1.3581464416126523,0.5046798215466974,0.2886152,0.5909793570159281
0.006500000000000001,1.79894375,1.0,773.8800629968665,0.07052465989137423,1.3564672740143993,0.5418006301666132,0.2886086375,0.5948057479487985
0.007,1.798775,1.0,864.2846537448113,0.07573828161941606,1.3548904136930444,0.5756766635448756,0.28860155,0.5983826347856499
0.0075,1.79859375,1.0,953.2416174749851,0.08092265905129957,1.353406803769057,0.6065098148442939,0.2885939375,0.6017335173779952
0.008,1.7984,1.0,1040.3578615711226,0.08607795623064152,1.35200865507563,0.6345319599026082,0.2885858,0.6048785291831827
0.0085,1.79819375,1.0,1125.3208868440604,0.09120433627203024,1.350689147227003,0.6599842895207402,0.2885771375,0.6078352105140222
0.009000000000000001,1.797975,1.0,1207.8840925054594,0.09630196129785568,1.3494422548757417,0.6831042336324585,0.28856795,0.610618974832134
0.0095,1.79774375,1.0,1287.8457301967794,0.10137099169273148,1.3482627388044337,0.7041177312084216,0.2885582375,0.6132431912003661
0.01,1.7975,1.0,1365.1546151221835,0.10641159069364926,1.3471445450919772,0.7232342432791568,0.288548,0.6157227832043501
0.0105,1.79724375,1.0,1439.6765449159852,0.11142391604285078,1.3460837330477684,0.7406464962625638,0.2885372375,0.6180677605858449
0.011,1.796975,1.0,1511.337904365978,0.11640812548257773,1.3450763619812034,0.7565289844387123,0.28852595000000003,0.6202879604649792
0.0115,1.79669375,1.0,1580.1203308434424,0.12136437675507193,1.3441184912016781,0.7710385648365989,0.2885141375,0.6223930612662008
0.012,1.7964,1.0,1646.0535517130756,0.12629282747636056,1.343206205445272,0.7843155631153907,0.28850180000000003,0.6243925399995464
0.0125,1.79609375,1.0,1709.1683600936333,0.13119363394208353,1.3423360992867628,0.7964853132008606,0.2884889375,0.6262946273122567
0.013000000000000001,1.7957750000000001,1.0,1769.4902394494825,0.13606695081900694,1.3415052569350268,0.8076595301183478,0.28847555,0.6281063759111651
0.0135,1.79544375,1.0,1827.0692953025173,0.140912932033355,1.3407108420845788,0.8179375281727275,0.2884616375,0.6298345729783712
0.014,1.7951000000000001,1.0,1881.9590851324067,0.1457317302900131,1.3399502930660523,0.8274076349496013,0.2884472,0.6314853260341364
0.0145,1.79474375,1.0,1934.265863102339,0.15052350038507165,1.3392207448167073,0.8361482189527507,0.2884322375,0.6330653261670867
0.015,1.794375,1.0,1984.044614328932,0.15528839267970165,1.3385201332991945,0.8442292147828272,0.28841675,0.6345794622165037
0.0155,1.79399375,1.0,2031.360531668582,0.16002655709030844,1.337846477177964,0.8517128599075239,0.2884007375,0.6360323911302281
0.016,1.7936,1.0,2076.2949840672363,0.16473814353329738,1.3371977951174654,0.8586545763372895,0.2883842,0.637428721198724
0.0165,1.7931937500000001,1.0,2118.940148044255,0.16942330148865928,1.3365721468405567,0.8651037905804796,0.2883671375,0.6387729272038863
0.017,1.792775,1.0,2159.3872997885373,0.17408217990331734,1.335967737541571,0.8711046742106505,0.28834955,0.6400691305204019
0.0175,1.7923437500000001,1.0,2197.718459193522,0.17871492647724102,1.3353829840790872,0.8766967801575285,0.2883314375,0.6413209629789757
0.018000000000000002,1.7919,1.0,2234.006098391557,0.18332168670428878,1.334816498874376,0.8819155768061966,0.2883128,0.6425316074027582
0.0185,1.79144375,1.0,2268.331149528477,0.18790260607831902,1.3342668943487082,0.8867928731068169,0.2882936375,0.6437042198420586
0.019,1.790975,1.0,2300.7796584224848,0.19245782972570752,1.333732808980989,0.8913572486758279,0.28827395,0.6448418756685546
0.0195,1.79049375,1.0,2331.431051257059,0.19698750157684353,1.3332130152396497,0.895634449646852,0.2882537375,0.645947342075577
0.02,1.79,1.0,2360.379685903482,0.20149176767939972,1.3327061987622362,0.8996476594046805,0.288233,0.6470235500803043
0.0205,1.78949375,1.0,2387.6875518437373,0.20597076873638948,1.3322114154198497,0.9034178855138042,0.2882117375,0.6480726258441967
0.021,1.788975,1.0,2413.421021811793,0.210424645450826,1.3317277210835912,0.906964119729482,0.28818995000000003,0.6490966806909667
0.021500000000000002,1.78844375,1.0,2437.650491619208,0.21485353852572267,1.331254171624562,0.9103035590609654,0.2881676375,0.6500978118026952
0.022,1.7879,1.0,2460.450039744616,0.2192575886640927,1.3307898229138635,0.9134518001329075,0.2881448,0.6510781028591035
0.0225,1.78734375,1.0,2481.8863398535536,0.2236369344437637,1.3303338334548656,0.9164230294836222,0.28812143749999997,0.6520394084024654
0.023,1.786775,1.0,2502.0325174404256,0.2279917173774461,1.3298853279031446,0.9192301482447844,0.28809755,0.6529836429663098
0.0235,1.78619375,1.0,2520.9465628358744,0.2323220748756101,1.3294435994783078,0.9218849400051707,0.28807313749999996,0.6539123557486489
0.024,1.7856,1.0,2538.6804269403415,0.23662814237699348,1.3290080189614963,0.9243981691139059,0.2880482,0.6548269242953816
0.0245,1.78499375,1.0,2555.287953835258,0.240910055320334,1.3285779571338507,0.9267796708292882,0.2880227375,0.6557287183856676
0.025,1.784375,1.0,2570.8247206501906,0.24516794914436948,1.3281527847765122,0.9290384442588184,0.28799675,0.6566191002660078
0.025500000000000002,1.78374375,1.0,2585.347886208157,0.24940195928783773,1.3277318726706215,0.9311827348715397,0.2879702375,0.6574994248590801
0.026000000000000002,1.7831000000000001,1.0,2598.9042806533253,0.2536122179343024,1.3273147012165771,0.9332201242556671,0.2879432,0.6583708111208637
0.0265,1.78244375,1.0,2611.5542480516674,0.25779886276629166,1.326900636301111,0.9351575616852796,0.2879156375,0.6592346109245175
0.027,1.781775,1.0,2623.342643141775,0.26196202617277176,1.3264891985198874,0.9370014614272326,0.28788755,0.660091847097709
0.0275,1.7810937500000001,1.0,2634.3068626307163,0.26610183790982894,1.326079986156373,0.9387577416354346,0.2878589375,0.6609433757278687
0.028,1.7804,1.0,2644.485091426736,0.27021842773354954,1.325672597494035,0.9404318594449554,0.2878298,0.6617900486016843
0.0285,1.77969375,1.0,2653.9162343279104,0.27431192540001986,1.32526663081634,0.9420288529346426,0.2878001375,0.6626327132569729
0.029,1.778975,1.0,2662.639851288329,0.27838246066532624,1.3248616844067553,0.9435533787641823,0.28776995,0.663472213024253
0.029500000000000002,1.7782437500000001,1.0,2670.696096262493,0.2824301632855549,1.3244573565487476,0.9450097459785703,0.2877392375,0.6643093870580321
0.03,1.7775,1.0,2678.1167456107537,0.28645515912859704,1.3240533273243518,0.9464019559905428,0.287708,0.6651449013074506
0.0305,1.77674375,1.0,2684.943419390414,0.2904575802344902,1.3236491906054866,0.9477337103945863,0.2876762375,0.6659795963661143
0.031,1.775975,1.0,2691.2093800597345,0.2944375541110185,1.3232446207958861,0.9490084544421733,0.28764395,0.6668141426228438
0.0315,1.7751937500000001,1.0,2696.9403906031207,0.29839520444935,1.3228393641155738,0.95022939759554,0.2876111375,0.6676490592393238
0.032,1.7744,1.0,2702.162501263122,0.30233065494065264,1.3224331667845735,0.9513995253698875,0.2875778,0.6684848627464013
0.0325,1.77359375,1.0,2706.902022355828,0.3062440292760943,1.3220257750229085,0.9525216177025154,0.2875439375,0.6693220670309155
0.033,1.772775,1.0,2711.1854985138452,0.31013545114684304,1.3216169350506033,0.9535982656038546,0.28750955,0.6701611833184185
0.0335,1.7719437500000002,1.0,2715.039684357632,0.31400504424406683,1.3212063930876807,0.9546318862694552,0.2874746375,0.6710027201517932
0.034,1.7711000000000001,1.0,2718.4915215942256,0.31785293225893363,1.3207938953541651,0.9556247368115501,0.2874392,0.6718471833657556
0.0345,1.7702437500000001,1.0,2721.554492654969,0.3216792305360617,1.3203793120956728,0.9565789382329394,0.2874032375,0.6726948226438249
0.035,1.7693750000000001,1.0,2724.2646377516853,0.3254840713118803,1.319962309396563,0.9574964567272503,0.28736675,0.6735463028240376
0.035500000000000004,1.76849375,1.0,2726.642200864084,0.32926757484441727,1.319542698337343,0.9583791455175177,0.2873297375,0.6744019896023271
0.036000000000000004,1.7676,1.0,2728.702722288331,0.33302985809239294,1.319120333670359,0.9592287447985252,0.2872922,0.6752621576470623
0.0365,1.76669375,1.0,2730.4618239772667,0.33677103801452735,1.3186950701479572,0.9600468864223785,0.2872541375,0.67612707992152
0.037,1.765775,1.0,2731.9352004624398,0.34049123156954086,1.318266762522484,0.9608351018635956,0.28721555,0.6769970276577066
0.0375,1.76484375,1.0,2733.138610243923,0.3441905557161536,1.3178352655462855,0.9615948295131155,0.2871764375,0.6778722703288336
0.038,1.7639,1.0,2734.0878676477114,0.34786912741308573,1.317400433971708,0.9623274213645587,0.28713679999999997,0.6787530756204445
0.0385,1.76294375,1.0,2734.7988351513027,0.35152706361905744,1.3169621225510977,0.9630341491494976,0.28709663750000003,0.6796397094002007
0.039,1.761975,1.0,2735.287416176136,0.35516448129278894,1.3165201860368008,0.9637162099726528,0.28705595,0.6805324356863172
0.0395,1.7609937500000001,1.0,2735.5693693691783,0.35878149667187254,1.3160744808062192,0.9643747315033316,0.2870147375,0.6814315133388997
0.04,1.76,1.0,2735.6579602000616,0.36237821798995645,1.315624886126777,0.9650107773030817,0.286973,0.6823371532444485
0.0405,1.7589937500000001,1.0,2735.5674711556467,0.365954771378627,1.3151712722346625,0.965625353109244,0.2869307375,0.6832495827741846
0.041,1.757975,1.0,2735.3070986704156,0.369511266955299,1.3147135557071523,0.9662194093533171,0.28688795,0.6841689344839322
0.0415,1.75694375,1.0,2734.8860538420613,0.3730478148373873,1.3142516531215225,0.966793843753917,0.2868446375,0.6850953396377242
0.042,1.7559,1.0,2734.3135596558977,0.37656452514230665,1.313785481055049,0.9673495047809316,0.28680079999999997,0.6860289281857508
0.0425,1.75484375,1.0,2733.598848363075,0.3800615079874719,1.3133149560850086,0.9678871948577461,0.2867564375,0.686969828741866
0.043000000000000003,1.753775,1.0,2732.751159012836,0.38353887349029786,1.312839994788677,0.9684076733238157,0.28671155,0.6879181685606521
0.043500000000000004,1.75269375,1.0,2731.779735140414,0.3869967317681993,1.312360513743331,0.9689116591777623,0.28666613750000003,0.6888740735140382
0.044,1.7516,1.0,2730.693822607359,0.39043519293859097,1.3118764295262462,0.9693998336192989,0.2866202,0.6898376680674758
0.0445,1.75049375,1.0,2729.5026675978397,0.3938543671188878,1.311387658714699,0.9698728424065867,0.2865737375,0.6908090752556699
0.045,1.7493750000000001,1.0,2728.2082641737816,0.397254345537043,1.3108941838066852,0.970331300370044,0.28652675,0.6917882859540021
0.0455,1.74824375,1.0,2726.816872545217,0.40063523478066904,1.310395948541066,0.9707757903185482,0.2864792375,0.6927753671214667
0.046,1.7471,1.0,2725.3492161186336,0.4039971809593498,1.3098927650834806,0.9712068613040196,0.2864312,0.6937706446075086
0.0465,1.7459437500000001,1.0,2723.8090797085633,0.4073402851021785,1.309384599558545,0.9716250400270637,0.28638263750000004,0.6947741376147922
0.047,1.744775,1.0,2722.2002469467343,0.4106646482382486,1.3088714180908745,0.9720308271651611,0.28633355,0.6957858644340951
0.0475,1.74359375,1.0,2720.52649979689,0.41397037139665355,1.3083531868050848,0.972424698900191,0.28628393750000003,0.6968058424335091
0.048,1.7424,1.0,2718.791618094669,0.41725755560648653,1.3078298718257912,0.9728071083424966,0.2862338,0.6978340880475669
0.0485,1.74119375,1.0,2716.999379113438,0.42052630189684104,1.3073014392776097,0.9731784868593851,0.2861831375,0.6988706167662933
0.049,1.739975,1.0,2715.1535571550544,0.4237767112968104,1.3067678552851554,0.9735392453153098,0.28613195,0.69991544312419
0.0495,1.73874375,1.0,2713.2579231664604,0.42700888483548805,1.306229085973044,0.9738897752303518,0.2860802375,0.7009685806891389
0.05,1.7375,1.0,2711.3162443817196,0.43022292354196723,1.3056850974658911,0.9742304498630833,0.286028,0.7020300420512393
0.0505,1.73624375,1.0,2709.3322839890716,0.4334189284453414,1.3051358558883124,0.9745616252233836,0.2859752375,0.7030998388115659
0.051000000000000004,1.734975,1.0,2707.3098008240822,0.43659700057470396,1.3045813273649232,0.9748836410203249,0.28592195,0.7041779815708594
0.051500000000000004,1.73369375,1.0,2705.252549087552,0.4397572409591482,1.304021478020339,0.9751968215498311,0.2858681375,0.7052644799181396
0.052000000000000005,1.7324,1.0,2703.164278089226,0.44289975062776754,1.3034562739791757,0.9755014765264344,0.2858138,0.7063593424192456
0.0525,1.73109375,1.0,2701.0487320172406,0.4460246306096553,1.3028856813660485,0.9757979018631054,0.28575893750000003,0.7074625766053078
0.053,1.729775,1.0,2698.909649732324,0.4491319819339049,1.302309666305573,0.9760863804028247,0.28570355000000003,0.7085741889611386
0.0535,1.72844375,1.0,2696.75076458787,0.45222190562960973,1.3017281949223651,0.9763671826052694,0.2856476375,0.7096941849135563
0.054,1.7271,1.0,2694.5758042756147,0.45529450272586314,1.3011412333410401,0.9766405671917303,0.2855912,0.7108225688196339
0.0545,1.7257437500000001,1.0,2692.3859514149885,0.45834984600720813,1.3005487709258559,0.9769067803874183,0.2855342375,0.7119592994099408
0.055,1.724375,1.0,2690.185735391164,0.46138806311298264,1.2999507663827736,0.9771660614386406,0.28547675,0.7131043933239374
0.0555,1.72299375,1.0,2687.9765903529687,0.4644092494281445,1.2993472067020468,0.9774186380215354,0.2854187375,0.7142578119887821
0.056,1.7216,1.0,2685.7596554271345,0.46741349679795785,1.2987380815564722,0.9776647281048019,0.2853602,0.7154195109309904
0.0565,1.72019375,1.0,2683.5360679263445,0.47040089706768673,1.298123380618846,0.9779045406131041,0.28530113749999997,0.7165894449247154
0.057,1.718775,1.0,2681.3069633323307,0.47337154208259524,1.2975030935619645,0.978138275873814,0.28524155,0.7177675679880773
0.0575,1.71734375,1.0,2679.073475280752,0.4763255236879474,1.2968772100586243,0.978366126038188,0.2851814375,0.718953833379488
0.058,1.7159,1.0,2676.8367355492437,0.4792629337290073,1.2962457197816222,0.97858827547863,0.2851208,0.7201481935939688
0.0585,1.71444375,1.0,2674.5978740473856,0.48218386405103897,1.2956086124037542,0.9788049011635834,0.2850596375,0.7213506003594611
0.059000000000000004,1.7129750000000001,1.0,2672.3580188089268,0.48508840649930657,1.294965877597817,0.9790161730114724,0.28499795,0.7225610046331302
0.059500000000000004,1.71149375,1.0,2670.118295986711,0.48797665291907405,1.2943175050366071,0.9792222542250244,0.2849357375,0.7237793565976618
0.06,1.71,1.0,2667.879829849567,0.4908486951556056,1.293663484392921,0.9794233016072035,0.284873,0.7250056056575533
0.0605,1.7084937500000001,1.0,2665.6437427822834,0.4937046250541652,1.293003805339555,0.9796194658598995,0.2848097375,0.726239700435396
0.061,1.7069750000000001,1.0,2663.411155286811,0.49654453446001695,1.2923384575493055,0.9798108918664407,0.28474595,0.7274815887681534
0.0615,1.7054437500000001,1.0,2661.183185986869,0.49936851521842496,1.2916674306949694,0.979997718958924,0.2846816375,0.7287312177034287
0.062,1.7039,1.0,2658.9609516347173,0.5021766591746533,1.2909907144493427,0.9801800811712837,0.2846168,0.7299885334957306
0.0625,1.70234375,1.0,2656.745541335638,0.5049689978015269,1.290308298722775,0.9803581029055501,0.2845514375,0.7312534811629083
0.063,1.7007750000000001,1.0,2654.539898696761,0.5077456975595299,1.2896201563158762,0.9805319132175649,0.28448555,0.7325260365292328
0.0635,1.69919375,1.0,2652.3441535918646,0.5105068423559644,1.2889262859294752,0.980701631481593,0.28441913750000003,0.7338061265911962
0.064,1.6976,1.0,2650.1584119247213,0.5132525147434174,1.2882266864837781,0.9808673725913881,0.2843522,0.7350936772913963
0.0645,1.69599375,1.0,2647.9827794529983,0.5159827972744762,1.2875213568989905,0.9810292472449682,0.2842847375,0.7363886139252658
0.065,1.694375,1.0,2645.8173617894354,0.5186977725017278,1.2868102960953187,0.981187362126739,0.28421675,0.7376908611406747
0.0655,1.69274375,1.0,2643.6622644042823,0.5213975229777597,1.2860935029929683,0.9813418200804338,0.2841482375,0.7390003429375396
0.066,1.6911,1.0,2641.517592627241,0.5240821312551588,1.2853709765121455,0.9814927202733943,0.2840792,0.7403169826674251
0.0665,1.6894437500000001,1.0,2639.3834516498873,0.5267516798865125,1.284642715573056,0.981640158352679,0.2840096375,0.7416407030331517
0.067,1.687775,1.0,2637.2599465272174,0.5294062514244079,1.2839087190959058,0.9817842265934659,0.28393955,0.7429714260883995
0.0675,1.68609375,1.0,2635.147182180247,0.5320459284214323,1.2831689860009008,0.9819250140401785,0.2838689375,0.7443090732373139
0.068,1.6844000000000001,1.0,2633.045263398223,0.5346707934301728,1.282423515208247,0.9820626066407413,0.2837978,0.7456535652341105
0.0685,1.68269375,1.0,2630.9542948403723,0.5372809290032167,1.2816723056381503,0.9821970873743425,0.2837261375,0.74700482218268
0.069,1.680975,1.0,2628.8743810386477,0.539876417693151,1.2809153562108164,0.9823285363730625,0.28365395,0.748362763536193
0.0695,1.67924375,1.0,2626.8056263995936,0.542457342052563,1.2801526658464515,0.9824570310377013,0.28358123749999997,0.7497273080967044
0.07,1.6775,1.0,2624.7481352069494,0.54502378463404,1.2793842334652614,0.982582646148119,0.283508,0.7510983740147587
0.07050000000000001,1.67574375,1.0,2622.702011623698,0.5475758279901691,1.2786100579874522,0.9827054539683852,0.2834342375,0.752475878788994
0.07100000000000001,1.673975,1.0,2620.6673596943965,0.5501135546735376,1.2778301383332296,0.9828255243470132,0.28335995,0.7538597392657479
0.07150000000000001,1.67219375,1.0,2618.644283347856,0.5526370472367325,1.2770444734227995,0.9829429248125422,0.2832851375,0.75524987163866
0.07200000000000001,1.6704,1.0,2616.632886399139,0.5551463882323411,1.276253062176368,0.9830577206647101,0.2832098,0.7566461914482774
0.0725,1.66859375,1.0,2614.6332725521293,0.5576416602129506,1.2754559035141408,0.9831699750614497,0.2831339375,0.7580486135816593
0.073,1.6667750000000001,1.0,2612.648839338817,0.5601228816191346,1.2746529657534482,0.9832797439819366,0.28305755,0.7594571058763878
0.0735,1.66494375,1.0,2610.6769870156904,0.5625902061616247,1.2738442729041266,0.9833870919236344,0.2829806375,0.7608715376199306
0.074,1.6631,1.0,2608.7172723736285,0.5650437119798186,1.2730298289624187,0.9834920760626675,0.2829032,0.7622918128085217
0.0745,1.6612437500000001,1.0,2606.7694659286494,0.5674834720747419,1.2722096359433988,0.9835947513714162,0.2828252375,0.7637178383276859
0.075,1.659375,1.0,2604.833338593269,0.5699095594474205,1.2713836958621405,0.9836951710794644,0.28274675,0.7651495204725932
0.0755,1.65749375,1.0,2602.9086616718746,0.57232204709888,1.2705520107337183,0.9837933867385433,0.2826677375,0.7665867649487947
