Time [s],Phi [rad],STIM [ ],Fsee [N],Gamma [ ],Lcerel [ ],q [ ],Lmtc [m],fisomrel [ ]
0.0,1.8,1.0,18.26738121403017,0.0005581742542833176,1.379306250542881,0.005080428410261976,0.288653,0.5412205621782563
0.0005,1.79999375,1.0,18.747719756069767,0.006164252646975804,1.3792504043287723,0.014532177787002405,0.2886527375,0.5413556467361693
0.001,1.799975,1.0,22.496221223172228,0.011738885372287237,1.3788495358603983,0.0385221229282754,0.28865195,0.5423247103901812
0.0015,1.79994375,1.0,32.845822097481935,0.017282248816442913,1.3778969486923591,0.07455247451657483,0.2886506375,0.5446233933960603
0.002,1.7999,1.0,57.13925365484021,0.02279451837435548,1.3761410878885059,0.11937268278880075,0.2886488,0.5488452869963372
0.0025,1.79984375,1.0,102.87678537449506,0.028275868457598847,1.3736617051202094,0.16962331987450693,0.28864643749999996,0.5547733741283729
0.003,1.7997750000000001,1.0,168.29865016153832,0.033726472502842164,1.3709426456367577,0.22247878727100878,0.28864354999999997,0.5612294440306211
0.0035,1.79969375,1.0,245.89487221971828,0.03914650296879335,1.3683339447498293,0.27577625884060825,0.2886401375,0.5673791618145081
0.004,1.7996,1.0,330.15648031851987,0.04453613134928199,1.3659274698925445,0.32791038821520907,0.2886362,0.5730136695728345
0.0045000000000000005,1.7994937500000001,1.0,418.2369884655883,0.049895528175904674,1.3637134130266335,0.3777722022450716,0.2886317375,0.5781650292873646
0.005,1.799375,1.0,508.53819414862636,0.05522486300237685,1.3616653211152465,0.42467764987947626,0.28862675,0.5829024091282068
0.0055,1.79924375,1.0,599.9872363080156,0.06052430452998236,1.3597598453860185,0.46827372861471434,0.2886212375,0.5872858853565948
0.006,1.7991000000000001,1.0,691.7055837785639,0.06579402033299506,1.3579799691630547,0.5084469631050677,0.2886152,0.5913595079018443
0.006500000000000001,1.79894375,1.0,783.0039776933678,0.07103417720883613,1.3563119790680047,0.5452444773619449,0.2886086375,0.5951587167494954
0.007,1.798775,1.0,873.2947053245124,0.07624494096436979,1.3547452497392931,0.5788147173975204,0.28860155,0.5987111217710669
0.0075,1.79859375,1.0,962.0862610321914,0.08142647631790381,1.3532710780022854,0.6093638027989037,0.2885939375,0.6020393668593852
0.008,1.7984,1.0,1049.0182737850675,0.0865789476328699,1.3518814121759553,0.6371250587041309,0.2885858,0.605164131903876
0.0085,1.79819375,1.0,1133.765250498468,0.09170251751003937,1.3505698298584063,0.6623399761292944,0.2885771375,0.6081020229370154
0.009000000000000001,1.797975,1.0,1216.0898564934303,0.09679734801952664,1.349330321901007,0.6852451006655443,0.28856795,0.610868387119065
0.0095,1.79774375,1.0,1295.833367846381,0.10186360086526597,1.348157202480119,0.7060647086424671,0.2885582375,0.6134775585498007
0.01,1.7975,1.0,1372.8614530667094,0.10690143603062777,1.3470456303467524,0.7250072183431412,0.288548,0.6159417425294174
0.0105,1.79724375,1.0,1447.0867908405455,0.11191101270740697,1.3459911077185893,0.7422632682705811,0.2885372375,0.6182721727667843
0.011,1.796975,1.0,1518.4695133165683,0.11689248942854034,1.3449893492730323,0.7580054343645565,0.28852595000000003,0.6204794288525821
0.0115,1.79669375,1.0,1587.0072915576231,0.12184602465860221,1.3440363052750317,0.7723888788990623,0.2885141375,0.6225734076935753
0.012,1.7964,1.0,1652.6863590241078,0.12677177426620945,1.3431286475635986,0.7855526609227906,0.28850180000000003,0.6245622806797695
0.0125,1.79609375,1.0,1715.5306196170627,0.13166989397033368,1.342263085858364,0.7976207457454619,0.2884889375,0.6264540180443565
0.013000000000000001,1.7957750000000001,1.0,1775.5819526297653,0.13654053869581537,1.341436545433141,0.8087035028939189,0.28847555,0.6282560122534524
0.0135,1.79544375,1.0,1832.9182421927796,0.14138386390214064,1.3406459128341635,0.8188990041368069,0.2884616375,0.6299756443538889
0.014,1.7951000000000001,1.0,1887.5882576050535,0.1462000220497811,1.3398887183452708,0.828294610437648,0.2884472,0.6316188110382945
0.0145,1.79474375,1.0,1939.6487897275379,0.15098916484963049,1.3391626622344068,0.8369679968640704,0.2884322375,0.6331909711290487
0.015,1.794375,1.0,1989.1775427164946,0.1557514440125825,1.3384654447695157,0.8449882102201941,0.28841675,0.6346975213551465
0.0155,1.79399375,1.0,2036.2531190532568,0.16048701024043394,1.337794957730395,0.8524167419988896,0.2884007375,0.6361433881757677
0.016,1.7936,1.0,2080.979589528862,0.1651960147405354,1.3371490005906628,0.8593083294081945,0.2883842,0.6375336460482056
0.0165,1.7931937500000001,1.0,2123.42819164921,0.16987860556703246,1.336525870893245,0.8657119326932757,0.2883671375,0.6388722519755834
0.017,1.792775,1.0,2163.6733046465574,0.1745349302328347,1.3359239591878183,0.8716712950145427,0.28834955,0.6401629261593782
0.0175,1.7923437500000001,1.0,2201.8001972094135,0.1791651362508518,1.3353416560240585,0.8772255316543979,0.2883314375,0.6414093550224554
0.018000000000000002,1.7919,1.0,2237.8914160968707,0.18376936998667903,1.3347774792546059,0.8824097072504729,0.2883128,0.6426149215048851
0.0185,1.79144375,1.0,2272.0455292473725,0.1883477788354144,1.3342298738069924,0.8872552564316987,0.2882936375,0.643783136017098
0.019,1.790975,1.0,2304.335429833329,0.19290050676930914,1.3336976192458623,0.8917905034647927,0.28827395,0.6449167694822817
0.0195,1.79049375,1.0,2334.8325769399053,0.1974276969799612,1.3331795732950196,0.8960409542772348,0.2882537375,0.6460184054175659
0.02,1.79,1.0,2363.6142012098007,0.20192949265896867,1.3326745936782671,0.9000295974582543,0.288233,0.6470906081664537
0.0205,1.78949375,1.0,2390.7582369766546,0.20640603628156362,1.332181582596745,0.9037771961938246,0.2882117375,0.6481358296668429
0.021,1.788975,1.0,2416.343189796001,0.21085747029862545,1.3316994823894528,0.9073025341347599,0.28818995000000003,0.6491564202250291
0.021500000000000002,1.78844375,1.0,2440.4466925631245,0.21528393690964492,1.3312272844264275,0.9106226334674812,0.2881676375,0.6501546111335923
0.022,1.7879,1.0,2463.1266767056477,0.21968557458843932,1.3307642045430212,0.9137529787580568,0.2881448,0.6511321460236684
0.0225,1.78734375,1.0,2484.444088754359,0.2240625218088262,1.330309458574586,0.9167076367901236,0.28812143749999997,0.652090757577053
0.023,1.786775,1.0,2504.4626404844635,0.2284149170446228,1.3298622623564738,0.919499406002146,0.28809755,0.6530321679625921
0.0235,1.78619375,1.0,2523.2485726905943,0.23274289876964663,1.329421831724037,0.9221399484076234,0.28807313749999996,0.6539580892333555
0.024,1.7856,1.0,2540.857279626116,0.2370466021568833,1.3289875064266607,0.9246399269922436,0.2880482,0.654869963696326
0.0245,1.78499375,1.0,2557.3637588476386,0.2413261681395713,1.3285584602216067,0.9270090596034004,0.2880227375,0.6557695733954301
0.025,1.784375,1.0,2572.813462371598,0.24558173016344007,1.3281341619514762,0.9292562868628564,0.28799675,0.6566580732155689
0.025500000000000002,1.78374375,1.0,2587.2524196765985,0.24981342145804192,1.3277140883806202,0.9313898026023086,0.2879702375,0.6575365952705965
0.026000000000000002,1.7831000000000001,1.0,2600.7279581111775,0.25402137525292917,1.3272977162733888,0.9334171252493206,0.2879432,0.6584062656958684
0.0265,1.78244375,1.0,2613.2885914285753,0.2582057247776542,1.3268845223941326,0.9353451626150852,0.2879156375,0.6592682047804843
0.027,1.781775,1.0,2624.9839143928702,0.26236660326176925,1.3264739835072021,0.9371802696772579,0.28788755,0.6601235270820762
0.0275,1.7810937500000001,1.0,2635.8539368359275,0.2665041400801109,1.3260656741146877,0.9389283133083626,0.2878589375,0.6609731382784896
0.028,1.7804,1.0,2645.9536270228114,0.2706184714828623,1.3256590380771316,0.9405946876793726,0.2878298,0.6618182108376192
0.0285,1.77969375,1.0,2655.32084189129,0.2747097271780058,1.325253684645819,0.9421843947830743,0.2878001375,0.6626595683173411
0.029,1.778975,1.0,2663.9882157906527,0.2787780346078887,1.3248492769290539,0.9437020650969479,0.28776995,0.6634979186182108
0.029500000000000002,1.7782437500000001,1.0,2671.988920560326,0.2828235212148584,1.32444547803514,0.945151983781092,0.2877392375,0.6643339661433338
0.03,1.7775,1.0,2679.3566175581254,0.28684631444126196,1.3240419510723813,0.9465381208479913,0.287708,0.6651684118150651
0.0305,1.77674375,1.0,2686.1254122052787,0.2908465417294468,1.323638359149082,0.9478641583380998,0.2876762375,0.6660019530844703
0.031,1.775975,1.0,2692.329811047276,0.2948243305217602,1.3232343653735452,0.9491335148309198,0.28764395,0.6668352839335507
0.0315,1.7751937500000001,1.0,2697.997464311997,0.2987798043905503,1.3228296988358799,0.9503493745874573,0.2876111375,0.6676689590227523
0.032,1.7744,1.0,2703.160512852914,0.3027130910839366,1.32242405030556,0.9515146966059675,0.2875778,0.6685036090068806
0.0325,1.77359375,1.0,2707.8555160433457,0.30662432053475014,1.322017072790204,0.9526322325652239,0.2875439375,0.6693399388763661
0.033,1.772775,1.0,2712.103527252479,0.31051361363852764,1.3216085630880083,0.9537045616649013,0.28750955,0.6701783550652634
0.0335,1.7719437500000002,1.0,2715.9257860018856,0.31438109129080594,1.3211983179971682,0.9547340902530078,0.2874746375,0.6710192618488201
0.034,1.7711000000000001,1.0,2719.343699892693,0.31822687438712177,1.3207861343158798,0.9557230654668332,0.2874392,0.6718630613223034
0.0345,1.7702437500000001,1.0,2722.378827449225,0.322051083823012,1.3203718088423386,0.9566735876440172,0.2874032375,0.672710153377194
0.035,1.7693750000000001,1.0,2725.0528618770354,0.32585384049401345,1.3199551383747408,0.957587621627554,0.28736675,0.6735609356747465
0.035500000000000004,1.76849375,1.0,2727.3876157373825,0.3296352652956628,1.3195359197112817,0.9584670070748668,0.2873297375,0.6744158036169176
0.036000000000000004,1.7676,1.0,2729.405006536366,0.33339547912349693,1.3191139496501572,0.9593134678690446,0.2872922,0.6752751503146588
0.0365,1.76669375,1.0,2731.123229988539,0.33713459944327306,1.318689059640176,0.9601286234573071,0.2872541375,0.6761392961277437
0.037,1.765775,1.0,2732.559109437056,0.34085274484855366,1.318261094277396,0.9609139953679825,0.28721555,0.677008532746666
0.0375,1.76484375,1.0,2733.7362316936237,0.3445500404064596,1.317829837306953,0.9616710081838996,0.2871764375,0.67788327333366
0.038,1.7639,1.0,2734.666923412863,0.3482266001709584,1.3173951752699498,0.9624010085873602,0.28713679999999997,0.6787637203933605
0.0385,1.76294375,1.0,2735.3635542874176,0.3518825381960177,1.3169569947074886,0.9631052634016045,0.28709663750000003,0.6796500749553478
0.039,1.761975,1.0,2735.838531554818,0.35551796853560497,1.3165151821606718,0.9637849651916762,0.28705595,0.6805425365490969
0.0395,1.7609937500000001,1.0,2736.1042947911806,0.35913300524368774,1.316069624170602,0.9644412374143237,0.2870147375,0.6814413031781071
0.04,1.76,1.0,2736.173310989291,0.36272776237423354,1.3156202072783818,0.9650751391576823,0.286973,0.6823465712932122
0.0405,1.7589937500000001,1.0,2736.058069922632,0.3663023539812099,1.3151668180251135,0.9656876695074327,0.2869307375,0.683258535765067
0.041,1.757975,1.0,2735.7710797945556,0.3698568941185844,1.3147093429518997,0.9662797715724948,0.28688795,0.6841773898558151
0.0415,1.75694375,1.0,2735.324863173004,0.3733914968403246,1.3142476685998425,0.9668523362000865,0.2868446375,0.6851033251899348
0.042,1.7559,1.0,2734.7235646274203,0.3769062622778047,1.3137817576861806,0.967406209469756,0.28680079999999997,0.6860363792837088
0.0425,1.75484375,1.0,2733.9869744016446,0.38040131880902217,1.3133114309370384,0.9679421845139529,0.2867564375,0.686976872589877
0.043000000000000003,1.753775,1.0,2733.125056679821,0.383876778882521,1.3128365983386006,0.9684610165756906,0.28671155,0.6879249449615215
0.043500000000000004,1.75269375,1.0,2732.144313856017,0.38733274908219884,1.312357201354132,0.9689634224151058,0.28666613750000003,0.6888806720733872
0.044,1.7516,1.0,2731.0512517562497,0.39076933599195346,1.3118731814468974,0.9694500811598369,0.2866202,0.6898441284891283
0.0445,1.75049375,1.0,2729.8523782745115,0.39418664619568256,1.311384480080161,0.9699216366493756,0.2865737375,0.6908153876441575
0.045,1.7493750000000001,1.0,2728.554202083423,0.3975847862772839,1.3108910387171882,0.9703786996111302,0.28652675,0.6917945218282775
0.0455,1.74824375,1.0,2727.1632314217427,0.4009638628206551,1.310392798821243,0.9708218496818181,0.2864792375,0.6927816021680977
0.046,1.7471,1.0,2725.685972957552,0.4043239824096939,1.3098897018555904,0.9712516372865647,0.2864312,0.6937766986092261
0.0465,1.7459437500000001,1.0,2724.1289307275497,0.40766525162829803,1.309381689283495,0.971668585387007,0.28638263750000004,0.6947798798982492
0.047,1.744775,1.0,2722.498605151849,0.4109877770603652,1.3088687025682217,0.9720731911086905,0.28633355,0.6957912135644878
0.0475,1.74359375,1.0,2720.8014921257704,0.4142916652897931,1.308350683173035,0.9724659272571643,0.28628393750000003,0.696810765901539
0.048,1.7424,1.0,2719.044082186096,0.41757702290047943,1.3078275725611994,0.972847243731355,0.2862338,0.6978386019485954
0.0485,1.74119375,1.0,2717.2279398391984,0.4208439395576308,1.307299357017009,0.9732175698726357,0.2861831375,0.6988746976305256
0.049,1.739975,1.0,2715.362255577139,0.42409253649437034,1.306765953326815,0.9735773137199594,0.28613195,0.6999191641565382
0.0495,1.73874375,1.0,2713.452416814525,0.4273229214512083,1.306227312847535,0.9739268647907737,0.2860802375,0.7009720435783735
0.05,1.7375,1.0,2711.501289273117,0.43053519299425247,1.3056834098757482,0.9742665948997367,0.286028,0.7020333320367838
0.0505,1.73624375,1.0,2709.5117356381484,0.43372944968961075,1.3051342187080337,0.9745968587041741,0.2859752375,0.7031030247877483
0.051000000000000004,1.734975,1.0,2707.4866153478597,0.43690579010339103,1.304579713640971,0.974917994645717,0.28592195,0.7041811161938271
0.051500000000000004,1.73369375,1.0,2705.428784397268,0.4400643128017013,1.3040198689711389,0.9752303258321975,0.2858681375,0.7052675997154706
0.052000000000000005,1.7324,1.0,2703.341095156641,0.4432051163506493,1.303454658995117,0.9755341608640903,0.2858138,0.7063624679022871
0.0525,1.73109375,1.0,2701.2263962049874,0.44632829931634305,1.3028840580094845,0.9758297946094363,0.28575893750000003,0.7074657123842706
0.053,1.729775,1.0,2699.0875321774665,0.44943396026489046,1.3023080403108203,0.9761175089308805,0.28570355000000003,0.708577323862983
0.0535,1.72844375,1.0,2696.927343628269,0.4525221977623993,1.3017265801957039,0.9763975733681688,0.2856476375,0.709697292102696
0.054,1.7271,1.0,2694.7486669076225,0.45559311037497763,1.3011396519607146,0.9766702457791904,0.2855912,0.7108256059214915
0.0545,1.7257437500000001,1.0,2692.554334053377,0.45864679666873326,1.3005472299024314,0.9769357729424116,0.2855342375,0.7119622531823184
0.055,1.724375,1.0,2690.347172697729,0.4616833552097741,1.2999492883174335,0.9771943911233318,0.28547675,0.7131072207840088
0.0555,1.72299375,1.0,2688.1296353764355,0.4647028750275395,1.2993458048968443,0.9774463259070023,0.2854187375,0.7142604881717489
0.056,1.7216,1.0,2685.903592821367,0.4677054383151411,1.2987367626268485,0.9776917931279631,0.2853602,0.7154220237730549
0.0565,1.72019375,1.0,2683.671908795564,0.47069117687664935,1.298122135362924,0.9779310036956177,0.28530113749999997,0.7165918125212067
0.057,1.718775,1.0,2681.4356499535656,0.47366018063675985,1.2975019133981414,0.9781641569339388,0.28524155,0.7177698071570306
0.0575,1.71734375,1.0,2679.1958812038565,0.4766125395201681,1.2968760870255711,0.9783914440435147,0.2851814375,0.7189559596695967
0.058,1.7159,1.0,2676.953665699539,0.4795483434515696,1.296244646538284,0.9786130484956211,0.2851208,0.7201502212927526
0.0585,1.71444375,1.0,2674.710064830313,0.48246768235566007,1.2956075822293502,0.9788291464041352,0.2850596375,0.7213525425016516
0.059000000000000004,1.7129750000000001,1.0,2672.4661382169043,0.48537064615713493,1.2949648843918409,0.9790399068767023,0.28499795,0.7225628730092728
0.059500000000000004,1.71149375,1.0,2670.2229437075484,0.4882573247806897,1.294316543318826,0.9792454923464645,0.2849357375,0.723781161762939
0.06,1.71,1.0,2667.9815373764036,0.4911278081510201,1.2936625493033764,0.9794460588855717,0.284873,0.7250073569408227
0.0605,1.7084937500000001,1.0,2665.742973524438,0.4939821861928215,1.2930028926385626,0.9796417565016071,0.2848097375,0.7262414059484533
0.061,1.7069750000000001,1.0,2663.508304681892,0.49682054883078963,1.292337563617455,0.9798327294179835,0.28474595,0.727483255415212
0.0615,1.7054437500000001,1.0,2661.278581613018,0.49964298598962,1.2916665525331243,0.9800191163392931,0.2846816375,0.7287328511908234
0.062,1.7039,1.0,2659.0548533235983,0.502449587594008,1.290989849678641,0.9802010507025228,0.2846168,0.729990138341843
0.0625,1.70234375,1.0,2656.838167068923,0.5052404435686494,1.2903074453470758,0.9803786609149935,0.2845514375,0.7312550611481334
0.063,1.7007750000000001,1.0,2654.6295683658077,0.5080156438382397,1.2896193298314989,0.9805520705798136,0.28448555,0.7325275630993415
0.0635,1.69919375,1.0,2652.4301010053027,0.5107752783274744,1.2889254934249812,0.980721398709594,0.28441913750000003,0.733807586891362
0.064,1.6976,1.0,2650.2408070677548,0.5135194369610491,1.288225926420593,0.9808867599291144,0.2843522,0.7350950744228025
0.0645,1.69599375,1.0,2648.0589848589893,0.5162481637092944,1.2875206536445933,0.9810482631066626,0.2842847375,0.7363899034687047
0.065,1.694375,1.0,2645.886870778891,0.5189615845526406,1.286809654375327,0.9812060167529371,0.28421675,0.7376920349397498
0.0655,1.69274375,1.0,2643.7264285408637,0.5216598081773995,1.28609291037596,0.981360124330948,0.2841482375,0.7390014242111382
0.066,1.6911,1.0,2641.577644810581,0.5243429149154333,1.2853704216476223,0.9815106845140354,0.2840792,0.7403179925020991
0.0665,1.6894437500000001,1.0,2639.4405063197287,0.5270109850986039,1.2846421881914445,0.9816577924786773,0.2840096375,0.7416416604004665
0.067,1.687775,1.0,2637.314999866065,0.5296640990587733,1.2839082100085564,0.9818015400516173,0.28393955,0.7429723478626833
0.0675,1.68609375,1.0,2635.201112313549,0.5323023371278036,1.2831684871000884,0.9819420158497949,0.2838689375,0.7443099742137982
0.068,1.6844000000000001,1.0,2633.0988305923674,0.5349257796375567,1.2824230194671706,0.982079305413474,0.2837978,0.7456544581474687
0.0685,1.68269375,1.0,2631.008141698645,0.5375345069198948,1.2816718071109334,0.9822134913329477,0.2837261375,0.7470057177259601
0.069,1.680975,1.0,2628.9290326947626,0.5401285993066797,1.280914850032507,0.982344653369171,0.28365395,0.7483636703801472
0.0695,1.67924375,1.0,2626.8614907092256,0.5427081371297735,1.2801521482330214,0.9824728685686489,0.28358123749999997,0.7497282329095128
0.07,1.6775,1.0,2624.805502936567,0.5452732007210384,1.279383701713607,0.9825982113728948,0.283508,0.7510993214821502
0.07050000000000001,1.67574375,1.0,2622.7610566375993,0.547823870412336,1.2786095104753938,0.9827207537227473,0.2834342375,0.7524768516347622
0.07100000000000001,1.673975,1.0,2620.728139139061,0.5503602265355286,1.2778295745195123,0.9828405651578199,0.28335995,0.7538607382726619
0.07150000000000001,1.67219375,1.0,2618.706737833933,0.5528823494224783,1.2770438938470925,0.9829577129113446,0.2832851375,0.7552508956697734
0.07200000000000001,1.6704,1.0,2616.696840181278,0.5553903194050469,1.2762524684592644,0.9830722620006457,0.2832098,0.7566472374686324
0.0725,1.66859375,1.0,2614.6984337062995,0.5578842168150964,1.2754552983571588,0.9831842753134797,0.2831339375,0.7580496766803848
0.073,1.6667750000000001,1.0,2612.711506000246,0.560364121984489,1.2746523835419055,0.9832938136904494,0.28305755,0.7594581256847898
0.0735,1.66494375,1.0,2610.736044720535,0.5628301152450867,1.2738437240146345,0.9834009360036992,0.2829806375,0.760872496230219
0.074,1.6631,1.0,2608.772037590623,0.5652822769287514,1.2730293197764766,0.9835056992320798,0.2829032,0.7622926994336559
0.0745,1.6612437500000001,1.0,2606.8194724000646,0.5677206873673452,1.2722091708285617,0.9836081585329642,0.2828252375,0.7637186457806981
0.075,1.659375,1.0,2604.8783370046744,0.57014542689273,1.2713832771720197,0.9837083673108823,0.28274675,0.7651502451255572
0.0755,1.65749375,1.0,2602.9512215267346,0.5725565185207061,1.2705516145868043,0.9838063730516712,0.2826677375,0.7665874484836521
