Time [s],Phi [rad],STIM [ ],Fsee [N],Gamma [ ],Lcerel [ ],q [ ],Lmtc [m],fisomrel [ ]
0.0,1.8,1.0,17.968623565314864,3.069113115920633e-05,1.379339582049515,0.005000248833294674,0.288653,0.5411399282222557
0.0005,1.79999375,1.0,18.284808341157365,0.005639728286986098,1.3793014921131892,0.012998055132298951,0.2886527375,0.5412320729614422
0.001,1.799975,1.0,21.641785253387695,0.011217303179188827,1.3789359124172533,0.035716472465598996,0.28865195,0.5421159894148715
0.0015,1.79994375,1.0,31.125312445059116,0.01676359228707071,1.3780414283625533,0.07074935050453038,0.2886506375,0.5442751225816342
0.002,1.7999,1.0,53.70363305806906,0.02227877109824988,1.3763602703665607,0.11489266841141643,0.2886488,0.5483193459490093
0.0025,1.79984375,1.0,97.3230835901495,0.027763014116367994,1.373925335117899,0.16476486413837638,0.28864643749999996,0.5541449099393078
0.003,1.7997750000000001,1.0,161.22417776822394,0.03321649486861572,1.3712043908238816,0.21747643419352994,0.28864354999999997,0.5606100134983132
0.0035,1.79969375,1.0,237.98409330537714,0.03863938590547486,1.3685754729041342,0.27080781216215444,0.2886401375,0.5668116096093554
0.004,1.7996,1.0,321.7868763398668,0.04403185881146128,1.3661476161469022,0.3231045414785593,0.2886362,0.5724997550699642
0.0045000000000000005,1.7994937500000001,1.0,409.5993221662309,0.04939408421032072,1.3639150324982998,0.3732136719270459,0.2886317375,0.5776972229648003
0.005,1.799375,1.0,499.75186829045333,0.054726231756161835,1.361851153354774,0.42041508350354917,0.28862675,0.5824736696933033
0.0055,1.79924375,1.0,591.1318801163095,0.06002847018011044,1.3599321646431592,0.4643288912173323,0.2886212375,0.5868904236456942
0.006,1.7991000000000001,1.0,682.8600572392679,0.06530096723553985,1.3581401998047145,0.5048225836529675,0.2886152,0.5909936137877526
0.006500000000000001,1.79894375,1.0,774.2110230367759,0.07054388959977768,1.3564616249089232,0.541931275335045,0.2886086375,0.5948185904569201
0.007,1.798775,1.0,864.632568186414,0.07575740370387274,1.354884794321678,0.5757955119993386,0.28860155,0.5983953531864169
0.0075,1.79859375,1.0,953.5858056033109,0.08094167388389045,1.3534015102732946,0.6066178870969874,0.2885939375,0.6017454481395232
0.008,1.7984,1.0,1040.6856464127422,0.08609686428447043,1.3520038294829284,0.6346302364711146,0.2885858,0.6048893623384995
0.0085,1.79819375,1.0,1125.6403752444985,0.09122313830325661,1.3506846247802582,0.6600735694335341,0.2885771375,0.6078453250724793
0.009000000000000001,1.797975,1.0,1208.1965555818128,0.09632065792040606,1.34943798568688,0.6831853549200677,0.28856795,0.6106284890277294
0.0095,1.79774375,1.0,1288.1749318332795,0.10138958438029304,1.3482583827861778,0.7041913273171748,0.2885582375,0.613252866132513
0.01,1.7975,1.0,1365.4587102725916,0.10643007849645317,1.3471406368470922,0.7233013484108249,0.288548,0.6157314357442452
0.0105,1.79724375,1.0,1439.9448277187541,0.11144229918967632,1.3460803754588948,0.7407078337773578,0.2885372375,0.6180751713081327
0.011,1.796975,1.0,1511.5828298497668,0.11642640490663528,1.3450733702472446,0.7565850692694301,0.28852595000000003,0.6202945444713267
0.0115,1.79669375,1.0,1580.375204591864,0.1213825542612652,1.3441154464639282,0.7710897541734792,0.2885141375,0.6223997433192965
0.012,1.7964,1.0,1646.3207695829924,0.12631090387196542,1.3432030778303885,0.7843623466564152,0.28850180000000003,0.6243993857389933
0.0125,1.79609375,1.0,1709.4254784305706,0.13121160892346356,1.3423331459588248,0.7965282460046211,0.2884889375,0.6263010751847384
0.013000000000000001,1.7957750000000001,1.0,1769.731582122123,0.13608482460048718,1.341502532461436,0.8076990241894504,0.28847555,0.628112309701613
0.0135,1.79544375,1.0,1827.2933726461692,0.14093070513143247,1.3407083526856365,0.8179739312035791,0.2884616375,0.6298399821755101
0.014,1.7951000000000001,1.0,1882.1972723533754,0.14574940505883777,1.339947685790059,0.8274411254217311,0.2884472,0.6314909787180591
0.0145,1.79474375,1.0,1934.4944238509624,0.1505410758528772,1.3392182769703647,0.8361791683678518,0.2884322375,0.6330706650805389
0.015,1.794375,1.0,1984.2498744862119,0.1553058686521998,1.3385179450081326,0.8442579143138396,0.28841675,0.6345841865671904
0.0155,1.79399375,1.0,2031.5468552697066,0.1600439345468812,1.3378445140356503,0.8517395060701138,0.2884007375,0.6360366209694366
0.016,1.7936,1.0,2076.4724443616915,0.16475542338361557,1.337195945700791,0.8586793259456882,0.2883842,0.6374326983512413
0.0165,1.7931937500000001,1.0,2119.1236352918745,0.16944048562286637,1.3365702539543007,0.8651267709977722,0.2883671375,0.6387769902842395
0.017,1.792775,1.0,2159.5676510305193,0.17409926823271946,1.335965894512539,0.8711260703996724,0.28834955,0.640073079478283
0.0175,1.7923437500000001,1.0,2197.8824324575626,0.17873191818126066,1.3353813230918654,0.8767167677381595,0.2883314375,0.641324515692442
0.018000000000000002,1.7919,1.0,2234.15574111615,0.18333858243657583,1.3348149954086386,0.8819342720540218,0.2883128,0.6425348177599277
0.0185,1.79144375,1.0,2268.4657317492884,0.1879194059890063,1.3342655524633982,0.8868103873329084,0.2882936375,0.6437070804730205
0.019,1.790975,1.0,2300.917571355441,0.19247453669340692,1.3337314436172958,0.8913736366747637,0.28827395,0.6448447816999865
0.0195,1.79049375,1.0,2331.5772222257056,0.19700411710733473,1.3332115776649933,0.8956497928390881,0.2882537375,0.6459503970344583
0.02,1.79,1.0,2360.5142180098032,0.20150828954898148,1.332704883791168,0.8996620855868434,0.288233,0.6470263402471474
0.0205,1.78949375,1.0,2387.8032337437958,0.20598719633653884,1.3322102911804963,0.9034314825696715,0.2882117375,0.6480750077607458
0.021,1.788975,1.0,2413.523651810299,0.21044097978819862,1.3317267290176547,0.9069769404097243,0.28818995000000003,0.6490987795129066
0.021500000000000002,1.78844375,1.0,2437.743330680367,0.21486977996662926,1.331253278672253,0.91031565611821,0.2881676375,0.6500996982426106
0.022,1.7879,1.0,2460.5476034958942,0.21927374017099016,1.3307888888764174,0.9134632010692219,0.2881448,0.6510800733287793
0.0225,1.78734375,1.0,2481.994731284519,0.22365299850857204,1.3303328002495263,0.9164337754368833,0.28812143749999997,0.6520415850743195
0.023,1.786775,1.0,2502.140640982854,0.2280076922508697,1.3298843014089976,0.9192403058740136,0.28809755,0.6529858025634491
0.0235,1.78619375,1.0,2521.0436765690465,0.2323379586693779,1.3294426809722502,0.9218945692241631,0.28807313749999996,0.6539142855670159
0.024,1.7856,1.0,2538.7643959260413,0.23664393503559145,1.329007227556702,0.9244073106795555,0.2880482,0.6548285848707032
0.0245,1.78499375,1.0,2555.361142737661,0.24092575779215755,1.328577269575472,0.926788355012264,0.2880227375,0.6557301591783404
0.025,1.784375,1.0,2570.888374978371,0.24518356247130504,1.3281521885978955,0.9290467006716523,0.28799675,0.6566203479541174
0.025500000000000002,1.78374375,1.0,2585.415346972976,0.24941748693639487,1.3277312426187435,0.9311905728598857,0.2879702375,0.6575007417460914
0.026000000000000002,1.7831000000000001,1.0,2598.983373485726,0.2536276631230933,1.3273139644565417,0.9332275607916232,0.2879432,0.6583723490808092
0.0265,1.78244375,1.0,2611.634890286328,0.25781422296706646,1.3268998869298152,0.9351646362806082,0.2879156375,0.6592361732311035
0.027,1.781775,1.0,2623.41336010467,0.26197729840398065,1.3264885428570898,0.9370082122462643,0.28788755,0.6600932123184127
0.0275,1.7810937500000001,1.0,2634.363183424452,0.26611702136950205,1.3260794650568908,0.9387641949640764,0.2878589375,0.6609444594011861
0.028,1.7804,1.0,2644.5296141159865,0.2702335237992969,1.3256721863477436,0.94043803079625,0.2878298,0.661790902549364
0.0285,1.77969375,1.0,2653.951060173802,0.27432693391711355,1.3252663097875208,0.9420347566873343,0.2878001375,0.6626333792002823
0.029,1.778975,1.0,2662.6772712372167,0.2783973863052086,1.324861340030794,0.9435590169024545,0.28776995,0.6634729265095562
0.029500000000000002,1.7782437500000001,1.0,2670.7403308156972,0.28244500831030583,1.3244569500726717,0.945015129596924,0.2877392375,0.6643102281554203
0.03,1.7775,1.0,2678.1707346266203,0.28646992632704976,1.3240528319017133,0.9464070971195736,0.287708,0.665145925180102
0.0305,1.77674375,1.0,2684.999405930583,0.29047226675008525,1.3236486775064784,0.9477386310772665,0.2876762375,0.6659806554474093
0.031,1.775975,1.0,2691.2576561758838,0.29445215597405683,1.3232441788755267,0.9490131771140706,0.28764395,0.6668150536450463
0.0315,1.7751937500000001,1.0,2696.977147746108,0.2984097203936092,1.3228390279974178,0.950233937287542,0.2876111375,0.6676497512808752
0.032,1.7744,1.0,2702.1895527491415,0.3023450861181923,1.3224329196567257,0.9514038905557799,0.2875778,0.6684853709235952
0.0325,1.77359375,1.0,2706.9182349312478,0.30625837044703347,1.3220256270430977,0.952525817600693,0.2875439375,0.6693223709422824
0.033,1.772775,1.0,2711.2051313144393,0.31014971167995725,1.321616755994458,0.9536022966009667,0.28750955,0.6701615505854632
0.0335,1.7719437500000002,1.0,2715.0697080886175,0.31401922965578083,1.321206119458288,0.9546357514291013,0.2874746375,0.6710032806841455
0.034,1.7711000000000001,1.0,2718.5315933041875,0.31786704421332157,1.3207935303820695,0.955628445385219,0.2874392,0.6718479300542356
0.0345,1.7702437500000001,1.0,2721.6105611703356,0.3216932751913968,1.3203788017132838,0.9565824937288084,0.2874032375,0.6726958654743634
0.035,1.7693750000000001,1.0,2724.3265171284356,0.32549804242882385,1.319961746399413,0.9574998750925504,0.28736675,0.6735474516614721
0.035500000000000004,1.76849375,1.0,2726.6994837018633,0.32928146576441997,1.3195421773879388,0.9583824418896391,0.2873297375,0.6744030512441808
0.036000000000000004,1.7676,1.0,2728.749587120839,0.3330436650370025,1.3191199076263422,0.9592319298138149,0.2872922,0.675263024733912
0.0365,1.76669375,1.0,2730.497044723677,0.33678476008538877,1.3186947500621053,0.9600499665205864,0.2872541375,0.6761277304937889
0.037,1.765775,1.0,2731.9621531331964,0.34050487074839614,1.3182665176427097,0.9608380795686237,0.28721555,0.6769975247053021
0.0375,1.76484375,1.0,2733.1579548565774,0.3442041080346603,1.3178350898284605,0.9615977083140937,0.2871764375,0.6778726265106327
0.038,1.7639,1.0,2734.1031689699566,0.34788259453544995,1.3174002950054067,0.9623302031974844,0.28713679999999997,0.6787533569211761
0.0385,1.76294375,1.0,2734.8197807971733,0.35154045698897646,1.316961932347989,0.963036832536263,0.28709663750000003,0.6796400938846582
0.039,1.761975,1.0,2735.3185685920794,0.3551778074412337,1.3165199031736396,0.9637187967709755,0.28705595,0.6805330066803246
0.0395,1.7609937500000001,1.0,2735.6103415008324,0.3587947579382155,1.31607410879979,0.9643772267104564,0.2870147375,0.6814322632219978
0.04,1.76,1.0,2735.7059353400987,0.36239142052591594,1.3156244505438721,0.9650131883118005,0.286973,0.6823380300346902
0.0405,1.7589937500000001,1.0,2735.616208592029,0.36596790725032885,1.3151708297233173,0.965627687083364,0.2869307375,0.6832504722305985
0.041,1.757975,1.0,2735.3520386148784,0.3695243301574482,1.3147131476555578,0.9662216721441874,0.28688795,0.6841697534844742
0.0415,1.75694375,1.0,2734.9243180692756,0.3730608012932678,1.3142513056580247,0.9667960399699602,0.2868446375,0.685096036008376
0.042,1.7559,1.0,2734.3439515609966,0.37657743270378174,1.3137852050481504,0.9673516378527315,0.28680079999999997,0.6860294805257978
0.0425,1.75484375,1.0,2733.6218524992896,0.38007433643498384,1.3133147471433664,0.9678892670989678,0.2867564375,0.6869702462451799
0.043000000000000003,1.753775,1.0,2732.768940170713,0.38355162453286806,1.3128398332611044,0.9684096859882092,0.28671155,0.6879184908327947
0.043500000000000004,1.75269375,1.0,2731.7961370301723,0.3870094090434283,1.312360364718796,0.9689136125124913,0.28666613750000003,0.6888743703850151
0.044,1.7516,1.0,2730.709167349029,0.3904477916253591,1.311876290079031,0.9694017290716178,0.2866202,0.6898379454290181
0.0445,1.75049375,1.0,2729.5175477922235,0.3938668895270913,1.3113875234596057,0.9698746822247407,0.2865737375,0.690809343857441
0.045,1.7493750000000001,1.0,2728.2308307671356,0.3972668172678302,1.310893978636749,0.9703330847735973,0.28652675,0.6917886927532291
0.0455,1.74824375,1.0,2726.854298268602,0.4006476790609519,1.310395608189224,0.9707775197384919,0.2864792375,0.692776040870031
0.046,1.7471,1.0,2725.3932316721925,0.4040095791198326,1.3098923646957936,0.9712085407398504,0.2864312,0.6937714359159735
0.0465,1.7459437500000001,1.0,2723.8529108973758,0.40735262165784847,1.3093842007352208,0.9716266737587631,0.28638263750000004,0.6947749245389944
0.047,1.744775,1.0,2722.2386136205832,0.41067691088837566,1.3088710688862684,0.9720324187759171,0.28633355,0.6957865523120347
0.0475,1.74359375,1.0,2720.5556145387163,0.41398255102479037,1.3083529217276992,0.9724262512983857,0.28628393750000003,0.6968063637180848
0.048,1.7424,1.0,2718.809184681109,0.4172696462804687,1.3078297118382765,0.9728086237829333,0.2862338,0.6978344021350883
0.0485,1.74119375,1.0,2717.004590773246,0.4205383008687868,1.3073013917967624,0.9731799669637475,0.2861831375,0.6988707098207039
0.049,1.739975,1.0,2715.1470946483732,0.4237886190031209,1.3067679141819206,0.9735406910918385,0.28613195,0.699915327896919
0.0495,1.73874375,1.0,2713.241952710509,0.4270207048968472,1.3062292315725135,0.9738911870927432,0.2860802375,0.7009682963345278
0.05,1.7375,1.0,2711.29441544659,0.43023466276334177,1.305685296547304,0.974231827648611,0.286028,0.702029653937458
0.0505,1.73624375,1.0,2709.3034263680047,0.433430576945647,1.305136119168346,0.9745629697548769,0.2859752375,0.7030993264632686
0.051000000000000004,1.734975,1.0,2707.2779891367495,0.4366085690630329,1.3045816177045946,0.9748849522723,0.28592195,0.7041774175907277
0.051500000000000004,1.73369375,1.0,2705.2236784583533,0.4397687471052862,1.3040217416175908,0.9751980991438017,0.2858681375,0.7052639688259148
0.052000000000000005,1.7324,1.0,2703.1425642042814,0.44291120713610976,1.303456472309701,0.9755027204863543,0.2858138,0.7063589585884937
0.0525,1.73109375,1.0,2701.0367135554266,0.44603604521920653,1.3028857911832923,0.9757991126140907,0.28575893750000003,0.7074623644747164
0.053,1.729775,1.0,2698.9081909016354,0.44914335741827954,1.3023096796407307,0.9760875587693251,0.28570355000000003,0.7085741632510165
0.0535,1.72844375,1.0,2696.7590577494875,0.4522332397970316,1.3017281190843832,0.9763683298087819,0.2856476375,0.7096943308475774
0.054,1.7271,1.0,2694.591372637715,0.45530578841916575,1.3011410909166161,0.9766416848481415,0.2855912,0.7108228423518825
0.0545,1.7257437500000001,1.0,2692.4071910599614,0.4583610993483848,1.300548576539796,0.9769078718677632,0.2855342375,0.7119596720022399
0.055,1.724375,1.0,2690.2085653953704,0.4613992686483918,1.2999505573562895,0.9771671282822304,0.28547675,0.713104793181286
0.0555,1.72299375,1.0,2687.997544847144,0.46442039238288957,1.2993470147684634,0.9774196814761639,0.2854187375,0.7142581784094687
0.056,1.7216,1.0,2685.7761753881405,0.4674245666155812,1.2987379301786839,0.977665749308563,0.2853602,0.715419799338507
0.0565,1.72019375,1.0,2683.5464997148956,0.4704118874101694,1.2981232849893176,0.9779055405877666,0.28530113749999997,0.7165896267448282
0.057,1.718775,1.0,2681.310557208693,0.4733824508303573,1.2975030606027314,0.978139255518971,0.28524155,0.7177676305229833
0.0575,1.71734375,1.0,2679.0703839044,0.4763363529398477,1.2968772384212917,0.9783670861261,0.2851814375,0.718953779679042
0.058,1.7159,1.0,2676.8281064571584,0.4792736849412802,1.2962457989846694,0.9785892161778048,0.2851208,0.7201480439538739
0.0585,1.71444375,1.0,2674.586575141383,0.48219451691926546,1.295608716155398,0.978805819881333,0.2850596375,0.7213504047607059
0.059000000000000004,1.7129750000000001,1.0,2672.3463015578104,0.48509898239939353,1.2949659852359785,0.9790170710808137,0.28499795,0.7225608021484966
0.059500000000000004,1.71149375,1.0,2670.1079951778383,0.4879871688364597,1.294317599702574,0.9792231327440252,0.2849357375,0.7237791789072558
0.06,1.71,1.0,2667.8723642830587,0.4908591636852594,1.2936635530313476,0.9794241614581773,0.284873,0.7250054771077963
0.0605,1.7084937500000001,1.0,2665.640115967807,0.49371505440058805,1.2930038386984617,0.9796203077272045,0.2848097375,0.726239638099381
0.061,1.7069750000000001,1.0,2663.411956141332,0.49655492843724097,1.2923384501800796,0.9798117162529879,0.28474595,0.7274816025073632
0.0615,1.7054437500000001,1.0,2661.188589531649,0.49937887325001357,1.2916673809523642,0.979998526201491,0.2846816375,0.7287313102308306
0.062,1.7039,1.0,2658.970719690665,0.5021869762937011,1.2909906244914782,0.9801808714547259,0.2846168,0.7299887004402409
0.0625,1.70234375,1.0,2656.759048999048,0.5049793250230992,1.2903081742735847,0.9803588808494073,0.2845514375,0.7312537115750574
0.063,1.7007750000000001,1.0,2654.5542786733317,0.507756006893003,1.2896200237748467,0.9805326784030858,0.28448555,0.7325262813413814
0.0635,1.69919375,1.0,2652.3571087734535,0.510517109358208,1.2889261664714269,0.9807023835285148,0.28441913750000003,0.7338063467095832
0.064,1.6976,1.0,2650.1682382105787,0.5132627198735096,1.2882265958394883,0.9808681112369347,0.2843522,0.7350938439119269
0.0645,1.69599375,1.0,2647.9883647572365,0.515992925893703,1.287521305355194,0.9810299723309323,0.2842847375,0.7363887084401955
0.065,1.694375,1.0,2645.8181850572946,0.5187078148735839,1.2868102884947066,0.9811880735874778,0.28421675,0.7376908750433138
0.0655,1.69274375,1.0,2643.6583946371716,0.5214074742679473,1.286093538734189,0.9813425179317073,0.2841482375,0.7390002777249653
0.066,1.6911,1.0,2641.5096879180846,0.5240919915315888,1.2853710495498045,0.9814934046019835,0.2840792,0.7403168497412086
0.0665,1.6894437500000001,1.0,2639.372758229603,0.5267614541193038,1.2846428144177158,0.981640829306727,0.2840096375,0.7416405235980925
0.067,1.687775,1.0,2637.2449519190354,0.5294159032595135,1.2839088577544535,0.9817848827624659,0.28393955,0.7429711750273007
0.0675,1.68609375,1.0,2635.1280839762185,0.5320554624175075,1.2831691626771846,0.9819256560366315,0.2838689375,0.7443087541731574
0.068,1.6844000000000001,1.0,2633.0238628564152,0.5346802387727642,1.2824237132623606,0.9820632359608035,0.2837978,0.7456532085047829
0.0685,1.68269375,1.0,2630.932191885447,0.5372903103903185,1.281672510274121,0.9821977052441414,0.2837261375,0.7470044545786836
0.069,1.680975,1.0,2628.8529745990522,0.5398857553352053,1.2809155544766064,0.9823291437636124,0.28365395,0.7483624083325917
0.0695,1.67924375,1.0,2626.786114740699,0.5424666516724594,1.2801528466339565,0.9824576286789036,0.28358123749999997,0.749726985085749
0.07,1.6775,1.0,2624.731516260091,0.5450330774671158,1.279384387510311,0.9825832345419071,0.283508,0.7510980995391848
0.07050000000000001,1.67574375,1.0,2622.689083311301,0.5475851107842094,1.27861017786981,0.982706033401067,0.2834342375,0.7524756657759976
0.07100000000000001,1.673975,1.0,2620.658720250654,0.5501228296887747,1.2778302184765937,0.9828260949008624,0.28335995,0.7538595972616333
0.07150000000000001,1.67219375,1.0,2618.640331635401,0.5526463122458468,1.2770445100948016,0.9829434863766823,0.2832851375,0.755249806844169
0.07200000000000001,1.6704,1.0,2616.6338222218246,0.5551556365204606,1.2762530534885739,0.9830582729453393,0.2832098,0.7566462067545892
0.0725,1.66859375,1.0,2614.63909696323,0.5576508805776508,1.2754558494220507,0.9831705175914442,0.2831339375,0.758048708607068
0.073,1.6667750000000001,1.0,2612.6560610085894,0.5601321224824524,1.2746528986593715,0.9832802812498586,0.28305755,0.7594572233992507
0.0735,1.66494375,1.0,2610.6846197004315,0.5625994402999003,1.2738442019646767,0.983387622884431,0.2829806375,0.7608716615125298
0.074,1.6631,1.0,2608.724678573512,0.5650529120950292,1.273029760102106,0.9834925995632007,0.2829032,0.7622919327123294
0.0745,1.6612437500000001,1.0,2606.776143352663,0.5674926159328739,1.2722095738357992,0.9835952665302543,0.2828252375,0.7637179461483818
0.075,1.659375,1.0,2604.8389199516846,0.5699186298784695,1.2713836439298967,0.983695677274402,0.28274675,0.7651496103550097
0.0755,1.65749375,1.0,2602.9129144711546,0.5723310319968508,1.270551971148538,0.9837938835948338,0.2826677375,0.7665868332514052
