Time [s],Phi [rad],STIM [ ],Fsee [N],Gamma [ ],Lcerel [ ],q [ ],Lmtc [m],fisomrel [ ]
0.0,1.8,1.0,18.292135140375763,0.0005802489470437669,1.3793035010900447,0.005086888004826772,0.288653,0.5412272132041915
0.0005,1.79999375,1.0,18.77880297343033,0.006186203518166291,1.3792469966455454,0.014599181541824408,0.2886527375,0.5413638888244059
0.001,1.799975,1.0,22.5436831359003,0.011760713116448083,1.3788447863489068,0.038641815268343295,0.28865195,0.542336185766107
0.0015,1.79994375,1.0,32.930985163274734,0.017303954124209018,1.3778898966102635,0.07471323603264252,0.2886506375,0.5446403891577946
0.002,1.7999,1.0,57.298132013526796,0.022816101932514175,1.3761311135693333,0.11956109427782083,0.2886488,0.5488692136642006
0.0025,1.79984375,1.0,103.1230329571773,0.02829733094910002,1.3736501827716006,0.1698270411205843,0.28864643749999996,0.5548008319985636
0.003,1.7997750000000001,1.0,168.60654453432537,0.03374781460670125,1.3709313801407197,0.2226881280318411,0.28864354999999997,0.5612560944735361
0.0035,1.79969375,1.0,246.23578994304395,0.03916772536031668,1.368323623987687,0.2759838897635654,0.2886401375,0.56740340565235
0.004,1.7996,1.0,330.5151729352683,0.04455723469996455,1.3659180978987462,0.32811101702202455,0.2886362,0.5730355409125115
0.0045000000000000005,1.7994937500000001,1.0,418.6058472106839,0.0499165131536011,1.363704849739241,0.37796236217485574,0.2886317375,0.5781848924622326
0.005,1.799375,1.0,508.9121649517533,0.05524573026997817,1.3616574473318113,0.42485536966787224,0.28862675,0.5829205701193819
0.0055,1.79924375,1.0,600.3632638821049,0.060545054749870764,1.3597525563845918,0.4684381391022861,0.2886212375,0.5873026089756095
0.006,1.7991000000000001,1.0,692.0806538988917,0.06581465416032525,1.3579731977338207,0.5085979769852269,0.2886152,0.5913749671690781
0.006500000000000001,1.79894375,1.0,783.3756939645131,0.07105469529633747,1.3563056714493096,0.5453825086419902,0.2886086375,0.5951730500416348
0.007,1.798775,1.0,873.6611951737992,0.076265343962,1.3547393609860319,0.5789404807213522,0.28860155,0.5987244444107838
0.0075,1.79859375,1.0,962.4458935110558,0.08144676487066668,1.353265572477799,0.609478173919683,0.2885939375,0.6020517707332043
0.008,1.7984,1.0,1049.3697684985411,0.08659912238260344,1.3518762589608209,0.6372289771075328,0.2885858,0.6051756963639583
0.0085,1.79819375,1.0,1134.107727127785,0.09172257909602426,1.3505650001161542,0.6624343824475544,0.2885771375,0.6081128210891608
0.009000000000000001,1.797975,1.0,1216.4225936164557,0.09681729707632386,1.3493257910884213,0.6853309007792638,0.28856795,0.6108784811238795
0.0095,1.79774375,1.0,1296.1557786871638,0.10188343802250009,1.3481529494797193,0.7061427521502808,0.2885582375,0.6134870018130485
0.01,1.7975,1.0,1373.1731807561719,0.10692116191732812,1.3470416352734529,0.7250782871656204,0.288548,0.6159505847791062
0.0105,1.79724375,1.0,1447.3876350505766,0.11193062794770783,1.3459873522928745,0.7423280736670163,0.2885372375,0.6182804593538469
0.011,1.796975,1.0,1518.7593393859408,0.11691199464063798,1.3449858174326743,0.7580646183107091,0.28852595000000003,0.6204871995226706
0.0115,1.79669375,1.0,1587.2861078227324,0.12186542046319489,1.3440329817653476,0.7724430169783983,0.2885141375,0.6225806998011608
0.012,1.7964,1.0,1652.9542608336822,0.12679106127823722,1.3431255182419464,0.7856022673180666,0.28850180000000003,0.6245691286071293
0.0125,1.79609375,1.0,1715.7877339631361,0.1316890727972547,1.3422601380572476,0.7976662788491843,0.2884889375,0.6264604524777864
0.013000000000000001,1.7957750000000001,1.0,1775.8286730112286,0.13655960994350053,1.341433765035194,0.8087453696466288,0.28847555,0.6282620666259311
0.0135,1.79544375,1.0,1833.154636117243,0.14140282816960387,1.3406432908012458,0.8189375680542422,0.2884616375,0.6299813406635775
0.014,1.7951000000000001,1.0,1887.814660047877,0.14621887994592578,1.3398862437633767,0.8283301937594674,0.2884472,0.6316241750651226
0.0145,1.79474375,1.0,1939.865501708226,0.1510079169727508,1.3391603255685134,0.8370008864189535,0.2884322375,0.6331960253834822
0.015,1.794375,1.0,1989.384816574457,0.1557700909503634,1.3384632378635828,0.8450186615377764,0.28841675,0.6347022851240427
0.0155,1.79399375,1.0,2036.4514675896255,0.16050555257798674,1.3377928704061324,0.8524449818676842,0.2884007375,0.6361478848940876
0.016,1.7936,1.0,2081.1691244637764,0.1652144530642355,1.3371470275644748,0.8593345615004788,0.2883842,0.6375378884070131
0.0165,1.7931937500000001,1.0,2123.609277284909,0.16989694047387416,1.3365240047570701,0.8657363381121778,0.2883671375,0.6388762570862994
0.017,1.792775,1.0,2163.846257829444,0.17455316230423373,1.3359221935101877,0.8716940358537475,0.28834955,0.6401667088880868
0.0175,1.7923437500000001,1.0,2201.9652798545326,0.17918326605264515,1.3353399853500976,0.8772467532338817,0.2883314375,0.6414129280146568
0.018000000000000002,1.7919,1.0,2238.0493271371597,0.18378739808485245,1.33477589409606,0.8824295387275976,0.2883128,0.6426183059061981
0.0185,1.79144375,1.0,2272.1961563654954,0.18836570579072878,1.3342283731728188,0.8872738159885196,0.2882936375,0.6437863347138104
0.019,1.790975,1.0,2304.4789756065734,0.1929183331820388,1.3336961992137184,0.8918078966617277,0.28827395,0.6449197915507601
0.0195,1.79049375,1.0,2334.9691750917223,0.19744542342317958,1.333178230845458,0.8960572763750577,0.2882537375,0.6460212579422534
0.02,1.79,1.0,2363.7439125195356,0.20194711967854823,1.332673326694738,0.9000449345779373,0.288233,0.6470932962559189
0.0205,1.78949375,1.0,2390.8817991231294,0.20642356447642393,1.3321803825466365,0.9037916247296245,0.2882117375,0.648138371974395
0.021,1.788975,1.0,2416.4598827140517,0.2108749000390567,1.331698355069155,0.9073161262045969,0.28818995000000003,0.6491588049885739
0.021500000000000002,1.78844375,1.0,2440.556695429648,0.21530126886945358,1.3312262269959494,0.9106354528291695,0.2881676375,0.6501568448661601
0.022,1.7879,1.0,2463.230372523166,0.21970280938445536,1.3307632123397073,0.9137650828636796,0.2881448,0.6511342390392785
0.0225,1.78734375,1.0,2484.5420666063696,0.22407966000090299,1.3303085251131157,0.9167190774659953,0.28812143749999997,0.6520927239719332
0.023,1.786775,1.0,2504.555697306916,0.22843195913563732,1.329861379328862,0.9195102300480101,0.28809755,0.653034025597132
0.0235,1.78619375,1.0,2523.3377146233606,0.23275984520549925,1.3294209889996333,0.9221501981253482,0.28807313749999996,0.6539598597146157
0.024,1.7856,1.0,2540.9447101339583,0.23706345345116453,1.3289866827504793,0.92464963901917,0.2880482,0.6548716918776643
0.0245,1.78499375,1.0,2557.4471002911387,0.24134292470063026,1.3285576776058186,0.9270182750951924,0.2880227375,0.655771213285303
0.025,1.784375,1.0,2572.892135206756,0.24559839277778933,1.3281334253972774,0.9292650407744368,0.28799675,0.6566596145951831
0.025500000000000002,1.78374375,1.0,2587.3261135899925,0.24982999079036344,1.327713400367842,0.9313981264952397,0.2879702375,0.6575380332249572
0.026000000000000002,1.7831000000000001,1.0,2600.796635259611,0.2540378518460743,1.327297076760499,0.9334250476292184,0.2879432,0.6584076005868368
0.0265,1.78244375,1.0,2613.3524891278053,0.25822210905264353,1.326883928818235,0.9353527092318268,0.2879156375,0.65926944222052
0.027,1.781775,1.0,2625.0435473132884,0.262382895517793,1.3264734307840367,0.9371874637924329,0.28788755,0.6601246779084848
0.0275,1.7810937500000001,1.0,2635.91018937888,0.26652034108313766,1.3260651537994428,0.9389351760579401,0.2878589375,0.6609742202734239
0.028,1.7804,1.0,2646.0020868484917,0.27063458048112465,1.325658590697587,0.9406012451522549,0.2878298,0.661819140002747
0.0285,1.77969375,1.0,2655.3636546082043,0.2747257455637821,1.3252532900977572,0.9421906632541155,0.2878001375,0.6626603867365568
0.029,1.778975,1.0,2664.0268929947906,0.2787939634832631,1.3248489210727,0.9437080603220728,0.28776995,0.6634986558606595
0.029500000000000002,1.7782437500000001,1.0,2672.0243340577545,0.28283936139172083,1.3244451526951624,0.9451577210457444,0.2877392375,0.6643346393259336
0.03,1.7775,1.0,2679.38899451859,0.28686206644130857,1.324041654037891,0.9465436150099737,0.287708,0.6651690256645019
0.0305,1.77674375,1.0,2686.1543311586047,0.29086220578417943,1.323638094173633,0.9478694238655786,0.2876762375,0.6660024999989116
0.031,1.775975,1.0,2692.354198634273,0.2948399065724866,1.3232341421751352,0.9491385658362493,0.28764395,0.6668357440443382
0.0315,1.7751937500000001,1.0,2698.022809721285,0.29879529595838333,1.3228294671151444,0.9503542178516707,0.2876111375,0.6676694361038008
0.032,1.7744,1.0,2703.1871430835345,0.30272849605613933,1.3224238070709793,0.9515193424432076,0.2875778,0.6685041091640814
0.0325,1.77359375,1.0,2707.8815606136964,0.30663963775880937,1.3220168351112176,0.9526366932894078,0.2875439375,0.6693404269928409
0.033,1.772775,1.0,2712.1288411421715,0.31052884339714487,1.3216083322580805,0.9537088473516986,0.28750955,0.6701788285145922
0.0335,1.7719437500000002,1.0,2715.9503803792,0.314396234076475,1.3211980938861148,0.9547382102063408,0.2874746375,0.6710197209308885
0.034,1.7711000000000001,1.0,2719.36774256147,0.31824193090212893,1.3207859153698671,0.9557270282767824,0.2874392,0.6718635092484582
0.0345,1.7702437500000001,1.0,2722.402643179209,0.32206605497943575,1.3203715920838839,0.9566774012397711,0.2874032375,0.6727105962552217
0.035,1.7693750000000001,1.0,2725.0769326307427,0.3258687274137247,1.3199549194027116,0.9575912933258668,0.28736675,0.6735613824936363
0.035500000000000004,1.76849375,1.0,2727.41258080643,0.32965006931032487,1.3195356927008972,0.9584705436244426,0.2873297375,0.6744162662313705
0.036000000000000004,1.7676,1.0,2729.428227543879,0.3334101984637985,1.3191137385767497,0.9593168779459608,0.2872922,0.6752755798838324
0.0365,1.76669375,1.0,2731.138725557641,0.3371492293764102,1.3186889188333704,0.960131917638082,0.2872541375,0.6761395823112802
0.037,1.765775,1.0,2732.5778373655107,0.3408672965005169,1.318260924143208,0.9609171718106663,0.28721555,0.677008878072421
0.0375,1.76484375,1.0,2733.7577195307913,0.3445645138265502,1.3178296421424074,0.9616740728272688,0.2871764375,0.6778836689273893
0.038,1.7639,1.0,2734.6905774781267,0.34824099534494174,1.317394960467114,0.9624039671150533,0.28713679999999997,0.6787641551979564
0.0385,1.76294375,1.0,2735.388659759574,0.35189685504612317,1.316956766753473,0.9631081212603161,0.28709663750000003,0.6796505357435731
0.039,1.761975,1.0,2735.864252600075,0.355532206920526,1.3165149486376295,0.9637877276078878,0.28705595,0.6805430079366032
0.0395,1.7609937500000001,1.0,2736.129674723622,0.35914716495858195,1.316069393755729,0.9644439094097064,0.2870147375,0.6814417676367535
0.04,1.76,1.0,2736.1972724587863,0.3627418431507226,1.3156199897439165,0.9650777255632959,0.286973,0.6823470091647005
0.0405,1.7589937500000001,1.0,2736.079415124342,0.3663163554873796,1.315166624238337,0.9656901749768312,0.2869307375,0.6832589252749071
0.041,1.757975,1.0,2735.788490694759,0.3698708159589845,1.3147091848751362,0.9662822005938339,0.28688795,0.6841777071276383
0.0415,1.75694375,1.0,2735.336901745747,0.373405338555969,1.314247559290459,0.9668546931073277,0.2868446375,0.6851035442601705
0.042,1.7559,1.0,2734.7370616797075,0.37692003726876466,1.3137816351204505,0.9674084943903846,0.28680079999999997,0.6860366245571954
0.0425,1.75484375,1.0,2733.994600486497,0.3804150111748371,1.3133113616757626,0.9679444033313109,0.2867564375,0.6869770109849473
0.043000000000000003,1.753775,1.0,2733.1276671252763,0.38389039025192995,1.3128365746263844,0.9684631716976033,0.28671155,0.687924992270506
0.043500000000000004,1.75269375,1.0,2732.1427354059665,0.3873462810257458,1.3123572156947036,0.9689655161251629,0.28666613750000003,0.6888806435059068
0.044,1.7516,1.0,2731.046242565461,0.3907827899350791,1.3118732269656366,0.9694521156412819,0.2866202,0.6898440379529354
0.0445,1.75049375,1.0,2729.844627849488,0.39420002341872434,1.3113845505240989,0.969923613992457,0.2865737375,0.6908152477516101
0.045,1.7493750000000001,1.0,2728.5443312452785,0.3975980879154759,1.3108911284550069,0.9703806218198708,0.28652675,0.6917943439029732
0.0455,1.74824375,1.0,2727.1517922897156,0.4009770898641283,1.3103929028432764,0.9708237186802481,0.2864792375,0.6927813962516722
0.046,1.7471,1.0,2725.6734489514265,0.40433713570347585,1.3098898157738232,0.9712534549244719,0.2864312,0.6937764734683224
0.0465,1.7459437500000001,1.0,2724.11573658711,0.40767833187231317,1.3093818093315637,0.9716703534452441,0.28638263750000004,0.6947796430316582
0.047,1.744775,1.0,2722.485086972423,0.4110007848094346,1.3088688256014136,0.9720749113040785,0.28633355,0.6957909712104705
0.0475,1.74359375,1.0,2720.787927407536,0.4143046009536345,1.308350806668289,0.9724676012470277,0.28628393750000003,0.69681052304533
0.048,1.7424,1.0,2719.0306798961324,0.4175898867437075,1.3078276946171057,0.972848873117721,0.2862338,0.6978383623300954
0.0485,1.74119375,1.0,2717.2125112317863,0.4208567208923703,1.3072994975737529,0.9732191563489568,0.2861831375,0.6988744221649206
0.049,1.739975,1.0,2715.345967504598,0.4241052407103683,1.3067661017643846,0.9735788587765769,0.28613195,0.6999188737509032
0.0495,1.73874375,1.0,2713.4358270987054,0.42733555226575526,1.3062274640872615,0.9739283700109028,0.2860802375,0.7009717482100923
0.05,1.7375,1.0,2711.484867338484,0.4305477535484406,1.3056835596397538,0.9742680617716669,0.286028,0.7020330400700545
0.0505,1.73624375,1.0,2709.495862615101,0.43374194254833365,1.3051343635192305,0.974598288628751,0.2859752375,0.7031027429837822
0.051000000000000004,1.734975,1.0,2707.4715841844727,0.43691821725534374,1.3045798508230615,0.974919388943234,0.28592195,0.7041808497213062
0.051500000000000004,1.73369375,1.0,2705.414799978934,0.4400766756593802,1.3040199966486161,0.9752316857487557,0.2858681375,0.7052673521612738
0.052000000000000005,1.7324,1.0,2703.328274432594,0.4432174157503524,1.303454776093264,0.975535487577462,0.2858138,0.7063622412824841
0.0525,1.73109375,1.0,2701.214768320736,0.44634053551816966,1.3028841642543747,0.9758310892344806,0.28575893750000003,0.7074655071553857
0.053,1.729775,1.0,2699.077038612635,0.4494461329527414,1.3023081362293176,0.9761187725245452,0.28570355000000003,0.7085771389335342
0.0535,1.72844375,1.0,2696.9178383382314,0.4525343060439769,1.3017266671154624,0.9763988069341143,0.2856476375,0.7096971248450095
0.054,1.7271,1.0,2694.7399164688386,0.4556051527817855,1.3011397320101785,0.976671450272065,0.2855912,0.7108254521837942
0.0545,1.7257437500000001,1.0,2692.5460178109884,0.45865877115607656,1.3005473060108355,0.9769369492718079,0.2855342375,0.7119621073011136
0.055,1.724375,1.0,2690.338882914508,0.4616952591567595,1.299949364214803,0.977195540157451,0.28547675,0.713107075596733
0.0555,1.72299375,1.0,2688.1212479943847,0.46471471477374354,1.2993458817194505,0.9774474491764401,0.2854187375,0.7142603415102191
0.056,1.7216,1.0,2685.8958448659855,0.46771723599693815,1.2987368336221476,0.9776928931009234,0.2853602,0.7154218885121597
0.0565,1.72019375,1.0,2683.663326019912,0.47070290274360355,1.2981222140404647,0.9779320791514887,0.28530113749999997,0.7165916629324343
0.057,1.718775,1.0,2681.424705329796,0.4736718115138937,1.2975020137683828,0.9781652073545856,0.28524155,0.7177696167211638
0.0575,1.71734375,1.0,2679.1841348886596,0.47662408443486115,1.296876194792938,0.9783924701958986,0.2851814375,0.7189557556290357
0.058,1.7159,1.0,2676.9424450338042,0.4795598103636528,1.2962447495261433,0.9786140511267658,0.2851208,0.7201500267161753
0.0585,1.71444375,1.0,2674.7004647212843,0.48247907815741564,1.2956076703800123,0.9788301262450787,0.2850596375,0.7213523763153762
0.059000000000000004,1.7129750000000001,1.0,2672.459021523339,0.4853819766732966,1.2949649497665585,0.9790408646461392,0.28499795,0.7225627500293739
0.059500000000000004,1.71149375,1.0,2670.2189416275205,0.48826859476844264,1.2943165800977947,0.9792464287541028,0.2849357375,0.7237810927281199
0.06,1.71,1.0,2667.9810498360316,0.49113902130000064,1.293662553785735,0.979446974635229,0.284873,0.7250073485460471
0.0605,1.7084937500000001,1.0,2665.7461695677302,0.4939933451251177,1.2930028632423918,0.9796426522940685,0.2848097375,0.7262414608793375
0.061,1.7069750000000001,1.0,2663.5151228601835,0.4968316551009407,1.292337500879779,0.9798336059536409,0.28474595,0.7274833723831797
0.0615,1.7054437500000001,1.0,2661.2887303737375,0.4996540400846165,1.2916664591099098,0.9800199743205834,0.2846816375,0.7287330249690284
0.062,1.7039,1.0,2659.0678113967424,0.5024605889332922,1.2909897303447977,0.980201890836185,0.2846168,0.7299903598018557
0.0625,1.70234375,1.0,2656.8531838516233,0.5052513905041146,1.290307306996456,0.9803794839141562,0.2845514375,0.7312553172974028
0.063,1.7007750000000001,1.0,2654.645664302852,0.5080265336542309,1.2896191814768976,0.9805528771659299,0.28448555,0.7325278371194256
0.0635,1.69919375,1.0,2652.4460679659296,0.5107861072407877,1.2889253461981363,0.9807221896142357,0.28441913750000003,0.733807858176936
0.064,1.6976,1.0,2650.2552087171644,0.5135302001209322,1.2882257935721853,0.9808875358956395,0.2843522,0.7350953186214415
0.0645,1.69599375,1.0,2648.0738991058247,0.5162589011518113,1.2875205160110577,0.9810490264526904,0.2842847375,0.736390155844181
0.065,1.694375,1.0,2645.9029503664997,0.5189722991905719,1.286809505926767,0.9812067677162887,0.28421675,0.737692306473354
0.0655,1.69274375,1.0,2643.7427959231,0.5216704824890991,1.2860927592087235,0.9813608624086753,0.2841482375,0.7390017000265925
0.066,1.6911,1.0,2641.593648579831,0.5243535329297352,1.2853702737785626,0.9815114092358518,0.2840792,0.7403182616184574
0.0665,1.6894437500000001,1.0,2639.4557326108065,0.527021533694975,1.2846420474490483,0.9816585034860256,0.2840096375,0.741641915892901
0.067,1.687775,1.0,2637.3282808194735,0.5296745688849964,1.2839080871981743,0.9818022375949024,0.28393955,0.7429725702279142
0.0675,1.68609375,1.0,2635.2105807106414,0.5323127223601486,1.2831683995096765,0.9819427007254001,0.2838689375,0.7443101323951793
0.068,1.6844000000000001,1.0,2633.1044428892114,0.5349360777725413,1.2824229675280971,0.9820799778155914,0.2837978,0.7456545516984164
0.0685,1.68269375,1.0,2631.0108059144427,0.5375447191541427,1.2816717824451125,0.9822141512717574,0.2837261375,0.747005762035055
0.069,1.680975,1.0,2628.92929954762,0.5401387281443045,1.280914847560955,0.9823453010879326,0.28365395,0.7483636748080529
0.0695,1.67924375,1.0,2626.8595541882023,0.5427181863823787,1.2801521661758573,0.9824735045358254,0.28358123749999997,0.7497282008513229
0.07,1.6775,1.0,2624.801200866965,0.5452831755077169,1.279383741590051,0.9825988362747518,0.283508,0.7510992504309425
0.07050000000000001,1.67574375,1.0,2622.7470246371395,0.5478337762477374,1.2786096405906395,0.9827213713312702,0.2834342375,0.7524766204399065
0.07100000000000001,1.673975,1.0,2620.691238298874,0.5503700677097687,1.2778299168252474,0.982841181551025,0.28335995,0.7538601317502428
0.07150000000000001,1.67219375,1.0,2618.6723021288026,0.5528921363392589,1.2770442134085203,0.9829583181444301,0.2832851375,0.7552503310486425
0.07200000000000001,1.670405158020762,1.0,2616.9021865482405,0.5554000600437308,1.2762528915970877,0.9830728625255776,0.283210016636872,0.7566464919778308
0.0725,1.6686165136589675,1.0,2615.6962727889672,0.5578939167307069,1.2754563126475793,0.9831848935848913,0.2831348935736766,0.7580478948424715
0.073,1.666827869297173,1.0,2615.0178169775286,0.56037378430771,1.2746548378166245,0.9832944877941003,0.28305977051048126,0.7594538267344506
0.0735,1.6650392249353783,1.0,2614.8277137754285,0.5628397406822628,1.2738488283608531,0.9834017193062778,0.2829846474472859,0.7608635816498343
0.074,1.6632505805735835,1.0,2615.0870078264225,0.5652918637618881,1.2730386455368947,0.9835066600511972,0.2829095243840905,0.7622764605975063
0.0745,1.661461936211789,1.0,2615.756858882949,0.5677302314541085,1.2722246506013788,0.9836093798262524,0.28283440132089516,0.763691771699481
0.075,1.6596732918499943,1.0,2616.798509825256,0.5701549216664467,1.271407204810935,0.983709946383158,0.28275927825769975,0.7651088302828928
