Time [s],Phi [rad],STIM [ ],Fsee [N],Gamma [ ],Lcerel [ ],q [ ],Lmtc [m],fisomrel [ ]
0.0,1.8,1.0,17.96702846716278,1.0010250680159316e-05,1.3793397607505316,0.0050000267062254595,0.288653,0.5411394958983722
0.0005,1.79999375,1.0,18.27637583217682,0.005619163409884779,1.3793024287022142,0.012940543235402138,0.2886527375,0.5412298073361024
0.001,1.799975,1.0,21.618009716255283,0.011196853654788418,1.3789383400920026,0.0356086325838864,0.28865195,0.5421101224755032
0.0015,1.79994375,1.0,31.068789613974353,0.016743257468324602,1.3780462417600325,0.07060178265379762,0.2886506375,0.5442635175099331
0.002,1.7999,1.0,53.581703227808674,0.02225855034177589,1.3763681761011801,0.11471792864705722,0.2886488,0.5483003699562217
0.0025,1.79984375,1.0,97.1179242350331,0.02774290678233701,1.3739352160935678,0.16457477367200302,0.28864643749999996,0.5541213461895942
0.003,1.7997750000000001,1.0,160.95706406419268,0.03319650032083265,1.3712143850335743,0.21728032966909053,0.28864354999999997,0.5605863531382184
0.0035,1.79969375,1.0,237.6822041519969,0.038619503511308266,1.3685847689598198,0.2706127635513425,0.2886401375,0.5667897579427176
0.004,1.7996,1.0,321.4656681720413,0.04401208794181248,1.3661561216148672,0.3229156798117155,0.2886362,0.572479893507521
0.0045000000000000005,1.7994937500000001,1.0,409.26669913617656,0.0493744242395815,1.3639228388529008,0.37303439154405166,0.2886317375,0.5776791051060128
0.005,1.799375,1.0,499.4124945125281,0.05470668206213014,1.3618583638019142,0.42024735229078425,0.28862675,0.5824570298042142
0.0055,1.79924375,1.0,590.7894529259305,0.060009030144713364,1.359938853876368,0.46417359821684423,0.2886212375,0.5868750684635418
0.006,1.7991000000000001,1.0,682.5171881194825,0.0652816362434899,1.358146431474346,0.5046798707695852,0.2886152,0.5909793801728046
0.006500000000000001,1.79894375,1.0,773.8807094469007,0.070524667190771,1.3564672629790668,0.5418006740892644,0.2886086375,0.5948057730363929
0.007,1.798775,1.0,864.2850437143592,0.07573828888009929,1.354890407393783,0.5756767060579854,0.28860155,0.5983826490429678
0.0075,1.79859375,1.0,953.2416762538012,0.08092266627403345,1.3534068028649773,0.6065098565835284,0.2885939375,0.6017335194156732
0.008,1.7984,1.0,1040.3562358205597,0.08607796338783359,1.3520086790115478,0.6345320125424454,0.2885858,0.6048784754481669
0.0085,1.79819375,1.0,1125.318108717213,0.0912043434256621,1.350689186554973,0.6599843473191338,0.2885771375,0.6078351225555207
0.009000000000000001,1.797975,1.0,1207.877958669086,0.09630196828471552,1.3494423386879888,0.6831043118224596,0.28856795,0.610618788049327
0.0095,1.79774375,1.0,1287.8724174880874,0.10137099979007286,1.3482623856556595,0.704117573600043,0.2885582375,0.6132439755657804
0.01,1.7975,1.0,1365.1655895321908,0.1064115981851219,1.3471444040407834,0.7232341980518182,0.288548,0.6157230954820451
0.0105,1.79724375,1.0,1439.6585406539982,0.11142392248102975,1.3460839583842945,0.740646630725244,0.2885372375,0.6180672632304143
0.011,1.796975,1.0,1511.3064816644628,0.11640813129716941,1.3450767458230926,0.7565291864666143,0.28852595000000003,0.6202871157275025
0.0115,1.79669375,1.0,1580.1100751061372,0.12136438319668513,1.344118613722497,0.7710386397266101,0.2885141375,0.622392792377892
0.012,1.7964,1.0,1646.0646288037005,0.12629283465385133,1.3432060757899416,0.7843155251586841,0.28850180000000003,0.6243928237910361
0.0125,1.79609375,1.0,1709.1777328287685,0.1311936409863512,1.342335991625194,0.7964852850671702,0.2884889375,0.6262948623660558
0.013000000000000001,1.7957750000000001,1.0,1769.4928970671303,0.1360669574617351,1.3415052269326522,0.8076595330622353,0.28847555,0.62810644125535
0.0135,1.79544375,1.0,1827.0728189465106,0.14091293837091598,1.3407108029372907,0.8179375262984349,0.2884616375,0.629834658041539
0.014,1.7951000000000001,1.0,1881.9860328141067,0.14573173800260003,1.3399499980795508,0.8274075400789288,0.2884472,0.6314859655794431
0.0145,1.79474375,1.0,1934.2854811721722,0.15052350774390405,1.3392205329881688,0.8361481565199385,0.2884322375,0.6330657844362969
0.015,1.794375,1.0,1984.045083999319,0.15528839898194496,1.3385201282918806,0.8442292236850337,0.28841675,0.634579473026941
0.0155,1.79399375,1.0,2031.3472371238568,0.1600265622596447,1.3378466172553578,0.8517129142604215,0.2884007375,0.6360320893147697
0.016,1.7936,1.0,2076.2879985915147,0.16473814886961663,1.3371978679187773,0.8586546072636805,0.2883842,0.6374285646397668
0.0165,1.7931937500000001,1.0,2118.9533361969643,0.16942330839438322,1.336572010786553,0.8651037585178176,0.2883671375,0.6387732192445676
0.017,1.792775,1.0,2159.409769831952,0.1740821876699985,1.335967507913547,0.8711046167112524,0.28834955,0.6400696225330382
0.0175,1.7923437500000001,1.0,2197.734523141903,0.1787149335325165,1.3353828213546208,0.8766967426008356,0.2883314375,0.6413213110338473
0.018000000000000002,1.7919,1.0,2234.014629105629,0.18332169281799118,1.334816413164637,0.8819155603425368,0.2883128,0.642531790419538
0.0185,1.79144375,1.0,2268.3371854791244,0.18790261134236474,1.334266834164917,0.8867928628751988,0.2882936375,0.6437043481421041
0.019,1.790975,1.0,2300.794261447379,0.1924578354921364,1.3337326644063887,0.891357217754877,0.28827395,0.6448421833807805
0.0195,1.79049375,1.0,2331.464422696624,0.19698750950006444,1.3332126870314118,0.8956343766884204,0.2882537375,0.6459480395449821
0.02,1.79,1.0,2360.414038090085,0.2014917753635596,1.3327058629865465,0.8996475867423644,0.288233,0.6470242625458462
0.0205,1.78949375,1.0,2387.7145315839416,0.20597077508003267,1.3322111532183527,0.9034178308318259,0.2882117375,0.6480731813690439
0.021,1.788975,1.0,2413.441961128432,0.21042465064689442,1.3317275186733908,0.9069640790460978,0.28818995000000003,0.6490971089119744
0.021500000000000002,1.78844375,1.0,2437.66878306691,0.21485354262705542,1.3312539956909073,0.9103035244443767,0.2881676375,0.650098183478343
0.022,1.7879,1.0,2460.473017806464,0.21925759314290708,1.3307896029291604,0.9134517576669772,0.2881448,0.6510785669450523
0.0225,1.78734375,1.0,2481.92139706343,0.22363694196545916,1.33033349928118,0.9164229673620305,0.28812143749999997,0.6520401124127893
0.023,1.786775,1.0,2502.0692605774702,0.22799172606998194,1.3298849790717682,0.9192300858091978,0.28809755,0.6529843768584792
0.0235,1.78619375,1.0,2520.974354073224,0.2323220824317458,1.3294433366257277,0.9218848949023136,0.28807313749999996,0.6539129080130979
0.024,1.7856,1.0,2538.6966278078094,0.23662814802602095,1.3290078662678602,0.924398144371475,0.2880482,0.654827244687085
0.0245,1.78499375,1.0,2555.298046158715,0.24091005982807784,1.3285778623229685,0.9267796564321101,0.2880227375,0.6557289170639935
0.025,1.784375,1.0,2570.8335712238395,0.24516795380560966,1.3281527018826849,0.9290384323739057,0.28799675,0.6566192737471102
0.025500000000000002,1.78374375,1.0,2585.360727211767,0.24940196507278153,1.3277317527410417,0.9311827176016418,0.2879702375,0.6574996755270558
0.026000000000000002,1.7831000000000001,1.0,2598.9248393054063,0.25361222681583434,1.3273145097089771,0.9332200971768208,0.2879432,0.6583712108863901
0.0265,1.78244375,1.0,2611.569643094846,0.25779887193378265,1.326900493241143,0.9351575431315221,0.2879156375,0.6592349091795198
0.027,1.7817790554517363,1.0,2623.5369426118305,0.2619620327048882,1.3264892285591148,0.9370014690300908,0.2878877203289729,0.6600917845499813
0.0275,1.7811141245278315,1.0,2635.2421194069216,0.26610184176572343,1.326080534958211,0.9387578264420117,0.2878597932301689,0.6609422344431344
0.028,1.7804491936039264,1.0,2646.6943413983477,0.27021843099493853,1.3256744167394507,0.9404321294388793,0.2878318661313649,0.6617862700300337
0.0285,1.7797842626800213,1.0,2657.896399432888,0.2743119293220013,1.3252708314973378,0.9420294593641113,0.2878039390325609,0.6626239992890003
0.029,1.7791193317561165,1.0,2668.8511663596987,0.2783824656763796,1.3248697368263758,0.9435545118185166,0.2877760119337569,0.6634555296376319
0.029500000000000002,1.7784544008322114,1.0,2679.561594668495,0.28243016898754103,1.3244710903210686,0.945011630917916,0.28774808483495284,0.6642809679395949
0.03,1.7777894699083066,1.0,2690.030958818358,0.28645516285037026,1.3240748473358905,0.9464048379207866,0.2877201577361489,0.6651004251410053
0.0305,1.7771245389844015,1.0,2700.2634268159995,0.29045757468465966,1.323680955762182,0.9477378617827226,0.28769223063734484,0.6659140270308685
0.031,1.7764596080604966,1.0,2710.263454964524,0.2944375456788685,1.3232893615965522,0.9490141679757091,0.2876643035385409,0.6667219026737683
0.0315,1.7757946771365916,1.0,2720.0363048496183,0.29839519790721936,1.3229000042260617,0.9502369693148024,0.28763637643973683,0.6675241941033462
0.032,1.7751297462126865,1.0,2729.587319823308,0.30233065344393484,1.3225128230377716,0.9514092542225203,0.2876084493409328,0.6683210426537214
0.0325,1.7744648152887816,1.0,2738.9219220378536,0.3062440343632376,1.3221277574187429,0.952533805155573,0.2875805222421288,0.6691125889680215
0.033,1.7737998843648766,1.0,2748.04560956247,0.31013546273935017,1.3217447467560364,0.9536132153071486,0.2875525951433248,0.6698989730066773
0.0335,1.7731349534409717,1.0,2756.9639535807555,0.3140050606464952,1.3213637304367132,0.9546499037645351,0.2875246680445208,0.6706803340554832
0.034,1.7724700225170666,1.0,2765.682595669937,0.31785295015889525,1.3209846478478338,0.955646129281339,0.2874967409457168,0.6714568107334253
0.0345,1.7718050915931618,1.0,2774.207245161339,0.3216792533507729,1.3206074383764597,0.9566040028055764,0.2874688138469128,0.6722285410002699
0.035,1.7711401606692567,1.0,2782.543676582378,0.32548409229635084,1.3202320414096513,0.9575254988891221,0.28744088674810875,0.6729956621639266
0.035500000000000004,1.7704752297453519,1.0,2790.6977271803416,0.32926758906985154,1.3198583963344697,0.9584124660901084,0.2874129596493048,0.673758310887568
0.036000000000000004,1.7698102988214468,1.0,2798.6742428313983,0.33302986076215113,1.3194864519786083,0.9592666362796146,0.28738503255050074,0.6745166039608432
0.0365,1.7691453678975417,1.0,2806.467638951833,0.33677097150730034,1.319116251136973,0.9600896311045318,0.28735710545169674,0.675270466391213
0.037,1.7684804369736369,1.0,2814.1023814992436,0.34049112768311496,1.3187475675334954,0.9608829775814065,0.28732917835289273,0.6760203705085452
0.0375,1.7678155060497318,1.0,2821.5822669878394,0.3441904402981592,1.3183803610565836,0.9616481069193702,0.28730125125408873,0.6767664084613503
0.038,1.767150575125827,1.0,2828.911130514914,0.3478690203609975,1.318014591594645,0.9623863645132055,0.2872733241552847,0.6775086719798824
0.0385,1.766485644201922,1.0,2836.0928444649544,0.3515269788801942,1.3176502190360875,0.9630990160343006,0.2872453970564807,0.678247252379865
0.039,1.765820713278017,1.0,2843.1313172495566,0.35516442686431365,1.3172872032693184,0.9637872530255728,0.2872174699576767,0.6789822405661169
0.0395,1.765155782354112,1.0,2850.030492083015,0.35878147532192023,1.3169255041827455,0.964452198045672,0.2871895428588727,0.6797137270360734
0.04,1.764490851430207,1.0,2856.794345793416,0.36237823526157836,1.3165650816647765,0.9650949094032305,0.2871616157600687,0.680441801883206
0.0405,1.763825920506302,1.0,2863.4268876694723,0.36595481769185234,1.316205895603819,0.9657163855178417,0.28713368866126465,0.6811665548003405
0.041,1.763160989582397,1.0,2869.932158343364,0.3695113336213066,1.3158479058882808,0.9663175689408317,0.2871057615624607,0.681888075082869
0.0415,1.7624960586584921,1.0,2876.3142287083815,0.37304789405850547,1.3154910724065692,0.9668993500656586,0.28707783446365664,0.6826064516318653
0.042,1.761831127734587,1.0,2882.577198873346,0.37656461001201336,1.3151353550470921,0.9674625705548665,0.28704990736485264,0.6833217729570893
0.0425,1.7611661968106822,1.0,2888.725197152001,0.38006159249039456,1.3147807136982572,0.9680080265079611,0.28702198026604864,0.6840341271798974
0.043000000000000003,1.7605012658867771,1.0,2894.762379088072,0.3835389525022135,1.3144271082484722,0.9685364713922341,0.28699405316724463,0.6847436020360445
0.043500000000000004,1.759836334962872,1.0,2900.692926516375,0.3869968010560345,1.3140744985861446,0.9690486187565119,0.28696612606844063,0.6854502848783861
0.044,1.7591714040389672,1.0,2906.521046659355,0.39043524916042194,1.3137228445996818,0.9695451447459266,0.2869381989696366,0.6861542626794768
0.0445,1.7585064731150621,1.0,2912.250971259268,0.3938544078239402,1.313372106177492,0.970026690434143,0.2869102718708326,0.6868556220340649
0.045,1.7578415421911573,1.0,2917.8869557460694,0.3972543880551538,1.3130222432079823,0.9704938639879731,0.2868823447720286,0.6875544491614884
0.0455,1.7571766112672522,1.0,2923.4332784412063,0.40063530086262683,1.3126732155795608,0.9709472426779543,0.2868544176732246,0.6882508299079639
0.046,1.7565116803433474,1.0,2928.8942397966175,0.40399725725492386,1.312324983180635,0.9713873747472453,0.28682649057442056,0.6889448497487758
0.0465,1.7558467494194423,1.0,2934.267608009509,0.4073403301676943,1.3119775633537376,0.971814780237598,0.2867985634756166,0.6896364794766092
0.047,1.7551818184955374,1.0,2939.5620912180398,0.410664668147369,1.311630877594671,0.972229956754015,0.28677063637681255,0.690325880515227
0.0475,1.7545168875716324,1.0,2944.7798504620005,0.4139703723483774,1.3112849050096869,0.9726333754570171,0.28674270927800855,0.6910130992127239
0.048,1.7538519566477273,1.0,2949.9229352878633,0.417257543110836,1.310939625784045,0.9730254847609516,0.28671478217920454,0.6916981795831569
0.0485,1.7531870257238225,1.0,2954.9934064073664,0.42052628077486115,1.3105950201030045,0.9734067116715505,0.28668685508040054,0.692381165456678
0.049,1.7525220947999174,1.0,2959.993335396985,0.4237766856805693,1.3102510681518251,0.9737774630049867,0.28665892798159653,0.6930621004803941
0.0495,1.7518571638760125,1.0,2964.9248044067263,0.427008858168077,1.309907750115766,0.974138126526746,0.28663100088279253,0.6937410281192088
0.05,1.7511922329521075,1.0,2969.7899058769026,0.43022289857750057,1.3095650461800867,0.9744890720162687,0.2866030737839885,0.6944179916566351
0.0505,1.7505273020282026,1.0,2974.5907422642335,0.4334189072489566,1.3092229365300465,0.9748306522628305,0.2865751466851845,0.695093034195583
0.051000000000000004,1.7498623711042975,1.0,2979.32942577634,0.43659698452256146,1.308881401350905,0.9751632039976807,0.2865472195863805,0.6957661986591237
0.051500000000000004,1.7491974401803927,1.0,2984.0080781149454,0.4397572307384316,1.3085404208279212,0.9754870487670485,0.28651929248757646,0.6964375277912286
0.052000000000000005,1.7485325092564876,1.0,2988.628830228126,0.4428997462366835,1.3081999751463549,0.9758024937502607,0.28649136538877246,0.6971070641574817
0.0525,1.7478675783325825,1.0,2993.193822070507,0.4460246313574336,1.3078600444914654,0.9761098325268717,0.28646343828996845,0.6977748501457683
0.053,1.7472026474086777,1.0,2997.70520237313,0.4491319864407983,1.307520609048512,0.9764093457964007,0.28643551119116445,0.6984409279669395
0.0535,1.7465377164847726,1.0,3002.1651284212676,0.45222191182689425,1.3071816490027541,0.9767013020539889,0.28640758409236045,0.699105339655449
0.054,1.7458727855608678,1.0,3006.575765841217,0.4552945078558377,1.3068431445394515,0.976985958225032,0.28637965699355644,0.6997681270699658
0.0545,1.7452078546369627,1.0,3010.937053419104,0.4583498477360049,1.306505095186225,0.9772635587893138,0.28635172989475244,0.700429294084449
0.055,1.7445429237130579,1.0,3015.2512183649606,0.46138803906927045,1.3061674806932377,0.977534340052665,0.28632380279594843,0.7010888831822573
0.0555,1.7438779927891528,1.0,3019.522169908023,0.46440920940907027,1.3058302663436496,0.9777985293998604,0.28629587569714443,0.7017469648857536
0.056,1.7432130618652477,1.0,3023.7509042132206,0.4674134492848893,1.3054934426858666,0.9780563427450025,0.28626794859834037,0.702403560191126
0.0565,1.7425481309413429,1.0,3027.938421539766,0.4704008492262122,1.3051570002682944,0.9783079871211745,0.2862400214995364,0.7030586900103832
0.057,1.7418832000174378,1.0,3032.085726159649,0.4733714997625239,1.3048209296393385,0.9785536611179272,0.28621209440073236,0.7037123751715864
0.0575,1.741218269093533,1.0,3036.1938262795684,0.4763254914233091,1.3044852213474047,0.9787935552938,0.28618416730192836,0.7043646364190751
0.058,1.7405533381696279,1.0,3040.2637339634566,0.4792629147380526,1.3041498659408988,0.9790278525654814,0.28615624020312436,0.7050154944136904
0.0585,1.739888407245723,1.0,3044.296465057541,0.4821838602362392,1.3038148539682264,0.9792567285751156,0.28612831310432035,0.7056649697329889
0.059000000000000004,1.739223476321818,1.0,3048.293039117659,0.4850884184473537,1.3034801759777934,0.9794803520371419,0.28610038600551635,0.7063130828714527
0.059500000000000004,1.738558545397913,1.0,3052.254479338146,0.48797667990088084,1.3031458225180055,0.9796988850659611,0.28607245890671235,0.706959854240695
0.06,1.737893614474008,1.0,3056.1818124827996,0.49084873512630545,1.3028117841372682,0.9799124834856318,0.28604453180790834,0.7076053041696573
0.0605,1.737228683550103,1.0,3060.076068817898,0.49370467465311235,1.3024780513839873,0.9801212971227097,0.28601660470910434,0.708249452904802
0.061,1.736563752626198,1.0,3063.9382820471637,0.4965445890107863,1.3021446148065685,0.9803254700832778,0.28598867761030033,0.7088923206103008
0.0615,1.735898821702293,1.0,3067.7694892486375,0.499368568728812,1.3018114649534178,0.9805251410151281,0.2859607505114963,0.7095339273682137
0.062,1.7352338907783882,1.0,3071.5707308140236,0.5021767043366745,1.3014785923729404,0.9807204433560031,0.2859328234126923,0.7101742931786685
0.0625,1.7345689598544831,1.0,3075.343050388615,0.5049690863638583,1.3011459876135425,0.9809115055687345,0.28590489631388827,0.7108134379600259
0.063,1.7339040289305783,1.0,3079.087494815371,0.5077458053398483,1.3008136412236297,0.9810984513640677,0.28587696921508426,0.7114513815490477
0.0635,1.7332390980066732,1.0,3082.80511407901,0.5105069517941293,1.3004815437516075,0.9812813999118987,0.28584904211628026,0.7120881437010548
0.064,1.7325741670827681,1.0,3086.4969612530026,0.5132526162561861,1.3001496857458819,0.9814604660416135,0.28582111501747626,0.7127237440900778
0.0645,1.7319092361588633,1.0,3090.1619863849733,0.5159828413958409,1.2998180757463917,0.9816357579713361,0.28579318791867225,0.7133581679073052
0.065,1.7312443052349582,1.0,3093.8029556042165,0.5186977709387804,1.2994866896956543,0.9818073854791483,0.28576526081986825,0.7139914626758255
0.0655,1.7305793743110534,1.0,3097.4204309392153,0.5213974883188232,1.2991555224028213,0.9819754511747445,0.28573733372106425,0.7146236397190533
0.066,1.7299144433871483,1.0,3101.014884997942,0.524082074657903,1.2988245694544795,0.9821400539352481,0.28570940662226024,0.7152547088340081
0.0665,1.7292495124632434,1.0,3104.5867918985273,0.5267516110779541,1.2984938264372148,0.9823012891832877,0.28568147952345624,0.7158846797795596
0.067,1.7285845815393384,1.0,3108.136627248083,0.52940617870091,1.2981632889376136,0.9824592490322306,0.2856535524246522,0.7165135622764833
0.0675,1.7279196506154335,1.0,3111.664868122969,0.5320458586487047,1.2978329525422623,0.9826140224243253,0.28562562532584823,0.7171413660075209
0.068,1.7272547196915284,1.0,3115.171993047988,0.534670732043272,1.2975028128377473,0.9827656952621444,0.28559769822704417,0.7177681006174372
0.0685,1.7265897887676234,1.0,3118.658481977907,0.5372808800065458,1.2971728654106545,0.9829143505336978,0.28556977112824017,0.7183937757130774
0.069,1.7259248578437185,1.0,3122.1248162776865,0.5398763836604601,1.2968431058475707,0.983060068431563,0.28554184402943616,0.7190184008634182
0.0695,1.7252599269198134,1.0,3125.5714787043066,0.5424573241269486,1.2965135297350816,0.9832029264663561,0.28551391693063216,0.7196419855996266
0.07,1.7245949959959086,1.0,3128.998953388386,0.5450237825279451,1.2961841326597743,0.9833429995748518,0.28548598983182816,0.7202645394151059
0.07050000000000001,1.7239300650720035,1.0,3132.4077258165544,0.5475758399853836,1.2958549102082344,0.9834803602230361,0.28545806273302415,0.7208860717655534
