Time [s],Phi [rad],STIM [ ],Fsee [N],Gamma [ ],Lcerel [ ],q [ ],Lmtc [m],fisomrel [ ]
0.0,1.8,1.0,17.969316755448997,5.214994603195626e-05,1.3793395043929533,0.005000715440063943,0.288653,0.5411401160934586
0.0005,1.79999375,1.0,18.292726126858202,0.005661066734884258,1.3793006128904584,0.013057945286600349,0.2886527375,0.5412341998116157
0.001,1.799975,1.0,21.66571522428236,0.011238521935266015,1.3789334703197285,0.03582855445859916,0.28865195,0.5421218911717075
0.0015,1.79994375,1.0,31.183330048362212,0.01678469202271237,1.3780364922158057,0.07090261376723968,0.2886506375,0.5442870234476055
0.002,1.7999,1.0,53.829633977415206,0.022299752481039634,1.3763521100925118,0.11507407967371348,0.2886488,0.5483389324901591
0.0025,1.79984375,1.0,97.53544611371657,0.027783877810203434,1.373915118183443,0.16496216254391474,0.28864643749999996,0.5541692742151207
0.003,1.7997750000000001,1.0,161.5007711689135,0.03323724153362221,1.3711940506472051,0.2176799400748012,0.28864354999999997,0.5606344922325259
0.0035,1.79969375,1.0,238.2967662513947,0.038660016198081334,1.3685658509974534,0.2710101971343613,0.2886401375,0.5668342266534534
0.004,1.7996,1.0,322.11962785470064,0.04405237338443081,1.3661388094910418,0.3233004887152977,0.2886362,0.5725203194658246
0.0045000000000000005,1.7994937500000001,1.0,409.9439606082219,0.049414483712794215,1.3639069474958418,0.37339966573188227,0.2886317375,0.5777159871309268
0.005,1.799375,1.0,500.1035973620447,0.054746516833867796,1.3618436829860932,0.4205890863780992,0.28862675,0.5824909090658792
0.0055,1.79924375,1.0,591.486713424561,0.06004864147409828,1.3599252351031004,0.464489986219456,0.2886212375,0.5869063301529909
0.006,1.7991000000000001,1.0,683.215366616308,0.06532102538439015,1.3581337436829963,0.5049706249045238,0.2886152,0.5910083598074041
0.006500000000000001,1.79894375,1.0,774.5770121458555,0.07056383539195728,1.3564553793034273,0.5420664945394085,0.2886086375,0.5948327887935261
0.007,1.798775,1.0,864.9754653691855,0.07577723737953342,1.3548792570931452,0.5759189247466672,0.28860155,0.5984078854751831
0.0075,1.79859375,1.0,953.9188791852977,0.08096139623169482,1.3533963886249227,0.6067301691076507,0.2885939375,0.6017569914121894
0.008,1.7984,1.0,1041.0268017621356,0.08611647625325194,1.3519988078589056,0.6347321267008667,0.2885858,0.6049006354142515
0.0085,1.79819375,1.0,1125.9684640818646,0.09124264017251545,1.3506799812598445,0.6601661679586691,0.2885771375,0.6078557102793213
0.009000000000000001,1.797975,1.0,1208.5084745998902,0.096340050215427,1.3494337244820678,0.6832695592685276,0.28856795,0.6106379853143825
0.0095,1.79774375,1.0,1288.488519707946,0.10140886826450574,1.3482542338878736,0.7042678327634099,0.2885582375,0.6132620809284766
0.01,1.7975,1.0,1365.757552655571,0.10644925407169688,1.347136796534976,0.7233710374338417,0.288548,0.6157399377915644
0.0105,1.79724375,1.0,1440.2271045519894,0.11146136710766624,1.346076843070851,0.7407714104065451,0.2885372375,0.6180829677618419
0.011,1.796975,1.0,1511.8602437142117,0.11644536606411884,1.345069981964527,0.7566430906569599,0.28852595000000003,0.6203020011065081
0.0115,1.79669375,1.0,1580.648235456057,0.12140140927194135,1.3441121850925022,0.7711427872733042,0.2885141375,0.6224069007361719
0.012,1.7964,1.0,1646.573867702556,0.12632965272106086,1.3432001157122382,0.7844109795846378,0.28850180000000003,0.6244058691808237
0.0125,1.79609375,1.0,1709.6612423003912,0.13123025239700345,1.342330438109035,0.7965729119314182,0.2884889375,0.6263069870665692
0.013000000000000001,1.7957750000000001,1.0,1769.9517506035693,0.13610336316163762,1.3415000471814775,0.8077401128276395,0.28847555,0.6281177224969663
0.0135,1.79544375,1.0,1827.526289815095,0.14094914076266526,1.340705765241974,0.8180116782557026,0.2884616375,0.6298456043714313
0.014,1.7951000000000001,1.0,1882.423197531273,0.1457677373028212,1.3399452128908858,0.8274759380269148,0.2884472,0.631496340027329
0.0145,1.79474375,1.0,1934.701931963504,0.15055930475782756,1.3392160365625896,0.836211373690486,0.2884322375,0.6330755119220914
0.015,1.794375,1.0,1984.4433280522867,0.1553239951034067,1.3385158826914632,0.8442877452542316,0.28841675,0.6345886389209807
0.0155,1.79399375,1.0,2031.7273788457298,0.16006195891505842,1.3378426120894114,0.8517671811919597,0.2884007375,0.636040718930496
0.016,1.7936,1.0,2076.6582922119037,0.16477334776368563,1.3371940089572485,0.8587049862537125,0.2883842,0.6374368632759535
0.0165,1.7931937500000001,1.0,2119.301607180996,0.169458309449949,1.3365684180437292,0.8651506397573611,0.2883671375,0.6387809310444565
0.017,1.792775,1.0,2159.732762330158,0.17411699161277588,1.3359642072896194,0.8711483221492702,0.28834955,0.6400766945799032
0.0175,1.7923437500000001,1.0,2198.0382638955766,0.17874954189109363,1.3353797446356854,0.8767375345919769,0.2883314375,0.6413278918625716
0.018000000000000002,1.7919,1.0,2234.3019152230454,0.1833561066127635,1.3348135268408388,0.8819536828779877,0.2883128,0.6425379535854558
0.0185,1.79144375,1.0,2268.6214151619697,0.18793683351727658,1.3342640002330923,0.8868285095473765,0.2882936375,0.6437103895030971
0.019,1.790975,1.0,2301.0695401085036,0.19249186668423005,1.3337299391457547,0.8913906095955346,0.28827395,0.6448479837939123
0.0195,1.79049375,1.0,2331.7171580694535,0.19702134922225129,1.3332102014542917,0.8956657300068107,0.2882537375,0.6459533215777753
0.02,1.79,1.0,2360.6409563113816,0.2015254242399677,1.3327036450341692,0.8996770732284607,0.288233,0.6470289686893418
0.0205,1.78949375,1.0,2387.9229501650407,0.2060042348460067,1.3322091277608528,0.9034455829019354,0.2882117375,0.6480774726797622
0.021,1.788975,1.0,2413.6314458989004,0.2104579216751749,1.3317256870561018,0.9069902323292849,0.28818995000000003,0.6491009838876186
0.021500000000000002,1.78844375,1.0,2437.8583772382417,0.21488662915162532,1.33125217214556,0.9103281646876843,0.2881676375,0.6501020358700522
0.022,1.7879,1.0,2460.6610686263907,0.21929049568238454,1.3307878026286357,0.9134750016700308,0.2881448,0.6510823648983378
0.0225,1.78734375,1.0,2482.0984027536333,0.2236696594504562,1.3303318120567647,0.916444935290691,0.28812143749999997,0.652043666911015
0.023,1.786775,1.0,2502.232011417284,0.22802425863884396,1.3298834339813812,0.9192508760704844,0.28809755,0.6529876275020782
0.0235,1.78619375,1.0,2521.1260437173587,0.2323544314305514,1.329441901953921,0.9219045864879143,0.28807313749999996,0.6539159223118085
0.024,1.7856,1.0,2538.8398740896346,0.23666031446095417,1.329006516188783,0.9244168102786087,0.2880482,0.6548300775042095
0.0245,1.78499375,1.0,2555.4371598522434,0.24094204575130318,1.328576555458449,0.9267973612235442,0.2880227375,0.6557316556220051
0.025,1.784375,1.0,2570.977310936013,0.24519976202486055,1.328151355647003,0.9290552283991195,0.28799675,0.6566220911576344
0.025500000000000002,1.78374375,1.0,2585.504854631509,0.24943359617226044,1.3277304066719147,0.9311986722802772,0.2879702375,0.6575024889753235
0.026000000000000002,1.7831000000000001,1.0,2599.065607201704,0.25364368108413715,1.327313198450654,0.9332352714919102,0.2879432,0.6583739480867434
0.0265,1.78244375,1.0,2611.706564849201,0.25783014965112483,1.3268992209006913,0.9351719882963235,0.2879156375,0.6592375617809981
0.027,1.781775,1.0,2623.475800452958,0.2619931347638578,1.3264879639394966,0.9370152269926202,0.28788755,0.6600944177380164
0.0275,1.7810937500000001,1.0,2634.4191800669387,0.266132768240101,1.32607894696209,0.9387708900749315,0.2878589375,0.6609455368242811
0.028,1.7804,1.0,2644.5774230185725,0.2702491807488957,1.3256717448586568,0.9404444282151542,0.2878298,0.6617918195175956
0.0285,1.77969375,1.0,2654.0027727893826,0.27434250689863326,1.325265833098321,0.9420408608657218,0.2878001375,0.662634368044819
0.029,1.778975,1.0,2662.727339063428,0.27841287392474345,1.324860879260145,0.9435648519196258,0.28776995,0.6634738811426195
0.029500000000000002,1.7782437500000001,1.0,2670.783768412309,0.28246040906265607,1.324456550923192,0.9450207170160307,0.2877392375,0.6643110540912822
0.03,1.7775,1.0,2678.205196853873,0.2864852395478009,1.3240525156665253,0.9464124540026404,0.287708,0.6651465787314936
0.0305,1.77674375,1.0,2685.0252048609605,0.29048749261560775,1.323648441069207,0.9477437703715957,0.2876762375,0.6659811434740817
0.031,1.775975,1.0,2691.2777748197627,0.2944672955015064,1.3232439947103007,0.9490181080024619,0.28764395,0.6668154333027012
0.0315,1.7751937500000001,1.0,2696.9960292675523,0.2984247744428108,1.3228388553401078,0.9502386665860081,0.2876111375,0.6676501067687786
0.032,1.7744,1.0,2702.206465171878,0.30236005116495207,1.322432765154543,0.951408429043061,0.2875778,0.6684856886313624
0.0325,1.77359375,1.0,2706.946970784133,0.30627325990286774,1.3220253647585238,0.9525301645029105,0.2875439375,0.6693229096050373
0.033,1.772775,1.0,2711.2385777409977,0.3101645215498266,1.321616450956016,0.9536064684020418,0.28750955,0.6701621762578335
0.0335,1.7719437500000002,1.0,2715.102505604582,0.3140339569990975,1.3212058205509847,0.9546397620358745,0.2874746375,0.6710038929979867
0.034,1.7711000000000001,1.0,2718.560143705459,0.31788168714394915,1.3207932703473957,0.9556323063166697,0.2874392,0.6718484620530061
0.0345,1.7702437500000001,1.0,2721.6330339018755,0.3217078328776505,1.3203785971492146,0.9565862142897167,0.2874032375,0.6726962834461139
0.035,1.7693750000000001,1.0,2724.3428542539095,0.3255125150934703,1.319961597760407,0.9575034625329267,0.28736675,0.6735477549700497
0.035500000000000004,1.76849375,1.0,2726.7114036135104,0.32929585468467737,1.3195420689849384,0.958385901551126,0.2873297375,0.6744032721582425
0.036000000000000004,1.7676,1.0,2728.76058712942,0.33305797254454056,1.3191198076267743,0.9592352652641628,0.2872922,0.6752632282533501
0.0365,1.76669375,1.0,2730.5091579451505,0.33679898905285727,1.3186946399777255,0.9600531825559567,0.2872541375,0.6761279542393748
0.037,1.765775,1.0,2731.979259312993,0.34051902234121273,1.3182663622243251,0.9608411786219113,0.28721555,0.6769978401673937
0.0375,1.76484375,1.0,2733.187869933262,0.3442181896478023,1.3178348180944839,0.9616006904843738,0.2871764375,0.6778731773177498
0.038,1.7639,1.0,2734.1397917208906,0.3478966072607253,1.317399962399898,0.962333079342977,0.28713679999999997,0.6787540301930592
0.0385,1.7629462156641909,1.0,2734.962493074031,0.35155439146808076,1.316961749952264,0.9630396254894213,0.287096741057896,0.67964046258673
0.039,1.761991566880961,1.0,2736.1159567683067,0.3551916581696135,1.3165201452742583,0.9637215348205982,0.28705664580900037,0.6805325179705435
0.0395,1.761036918097731,1.0,2737.6100986600177,0.3588085231521441,1.3160754506615358,0.964379973953665,0.28701655056010467,0.6814295583198569
0.04,1.760082269314501,1.0,2739.410514593215,0.3624051008068707,1.3156279807968585,0.9650160430499113,0.286976455311209,0.682330923909751
0.0405,1.7591276205312711,1.0,2741.4921850832243,0.365981504212642,1.3151779653347804,0.9656307717935488,0.2869363600623134,0.6832361293604209
0.041,1.7581729717480412,1.0,2743.830097995925,0.3695378464483068,1.3147256339298543,0.9662251318829932,0.28689626481341773,0.6841446917967199
0.0415,1.7572183229648113,1.0,2746.4002176044537,0.37307424019215724,1.314271207343257,0.9668000400797916,0.2868561695645221,0.6850561487085829
0.042,1.7562636741815814,1.0,2749.1796405059777,0.3765907980519476,1.313814895951608,0.9673563617861395,0.2868160743156264,0.6859700608382698
0.0425,1.7553090253983514,1.0,2752.149287200406,0.38008763119108163,1.3133568753224427,0.9678949121759259,0.28677597906673075,0.6868860608678415
0.043000000000000003,1.7543543766151215,1.0,2755.292794979019,0.38356484956772474,1.312897296254227,0.9684164603497858,0.2867358838178351,0.6878038328979419
0.043500000000000004,1.7533997278318916,1.0,2758.593780335787,0.3870225631400424,1.312436309545426,0.9689217344893076,0.28669578856893946,0.68872306274756
0.044,1.7524450790486616,1.0,2762.0409528798905,0.39046087778504857,1.3119740197407774,0.9694114201808655,0.2866556933200438,0.689643529996113
0.0445,1.7514904302654317,1.0,2765.6155290688725,0.3938799059261492,1.31151059889551,0.9698861735710641,0.2866155980711481,0.6905648813002573
0.045,1.7505357814822018,1.0,2769.2982651534135,0.3972797613710878,1.3110462228583448,0.9703466174553455,0.28657550282225247,0.6914867577983319
0.0455,1.7495811326989719,1.0,2773.0811766665815,0.4006605490269966,1.3105809655371816,0.9707933338816723,0.2865354075733568,0.6924090046109439
0.046,1.748626483915742,1.0,2776.956262240105,0.4040223738010081,1.3101149008399204,0.971226875585466,0.2864953123244611,0.6933314677201732
0.0465,1.747671835132512,1.0,2780.9155022213727,0.40736534060025453,1.3096481026744615,0.9716477677489059,0.2864552170755655,0.6942539939735528
0.047,1.746717186349282,1.0,2784.950857410455,0.4106895543318684,1.309180644948705,0.972056509638544,0.28641512182666984,0.6951764310877006
0.0475,1.7457625375660522,1.0,2789.0542679190225,0.41399511990298193,1.3087126015705501,0.972453576130719,0.2863750265777742,0.6960986276516032
0.048,1.7448078887828222,1.0,2793.217652149952,0.41728214222072757,1.3082440464478977,0.9728394191334421,0.28633493132887855,0.6970204331295481
0.0485,1.7438532399995923,1.0,2797.43290589836,0.42055072619223766,1.3077750534886476,0.9732144689126794,0.28629483607998285,0.6979416978637121
0.049,1.7428985912163624,1.0,2801.691901573628,0.42380097672464445,1.3073056966006997,0.9735791353302831,0.2862547408310872,0.6988622730763989
0.0495,1.7419439424331324,1.0,2805.9933293918457,0.42703298632591696,1.3068359883556158,0.9739338033752224,0.28621464558219156,0.6997821308987004
0.05,1.7409892936499025,1.0,2810.3253580123355,0.4302468726023161,1.3063660355455509,0.9742788494141099,0.2861745503332959,0.7007010595156322
0.0505,1.7400346448666724,1.0,2814.682882996972,0.43344273859475874,1.3058958844256867,0.9746146267589433,0.2861344550844002,0.7016189664905195
0.051000000000000004,1.7390799960834424,1.0,2819.063216933436,0.4366206823802233,1.3054255594927482,0.9749414706400865,0.2860943598355046,0.702535802323156
0.051500000000000004,1.7381253473002125,1.0,2823.463664115569,0.43978080203568826,1.30495508524346,0.975259701170068,0.28605426458660893,0.7034515178066139
0.052000000000000005,1.7371706985169826,1.0,2827.881520455891,0.442923195638132,1.3044844861745464,0.9755696241589045,0.2860141693377133,0.7043660640274951
0.0525,1.7362160497337527,1.0,2832.3140734109875,0.44604796126453305,1.3040137867827322,0.9758715318785941,0.2859740740888176,0.7052793923661462
0.053,1.7352614009505227,1.0,2836.7586019207033,0.44915519699186984,1.303543011564742,0.9761657037803567,0.28593397883992194,0.7061914544968334
0.0535,1.7343067521672928,1.0,2841.2123763598697,0.4522450008971209,1.3030721850173002,0.976452407167928,0.2858938835910263,0.7071022023878808
0.054,1.7333521033840629,1.0,2845.6726585040788,0.4553174710572645,1.3026013316371314,0.9767318978299544,0.28585378834213065,0.7080115883017692
0.0545,1.732397454600833,1.0,2850.136701508288,0.4583727055492793,1.3021304759209602,0.9770044206342968,0.285813693093235,0.708919564795198
0.055,1.731442805817603,1.0,2854.601749898896,0.4614108024501436,1.3016596423655116,0.9772702100868422,0.2857735978443393,0.709826084719106
0.0555,1.730488157034373,1.0,2859.0650395794664,0.4644318598368359,1.3011888554675095,0.9775294908572206,0.28573350259544367,0.7107311012186597
0.056,1.7295335082511432,1.0,2863.527997497321,0.4674359524816036,1.300718102454506,0.9777824739462516,0.285693407346548,0.7116346392096977
0.0565,1.7285788594679132,1.0,2867.985126854459,0.4704232053684977,1.3002474319898925,0.9780293698268507,0.2856533120976523,0.7125366058146521
0.057,1.7276242106846833,1.0,2872.4353243998785,0.4733937123173468,1.2997768536567567,0.9782703752866287,0.2856132168487567,0.7134369834555341
0.0575,1.7266695619014534,1.0,2876.8780032060185,0.4763475637747477,1.2993063724375777,0.9785056785951436,0.28557312159986104,0.7143357634510779
0.058,1.7257149131182234,1.0,2881.3125746671963,0.4792848501872971,1.2988359933148346,0.978735460476863,0.2855330263509654,0.7152329371796433
0.0585,1.7247602643349935,1.0,2885.7384485107114,0.4822056620015919,1.2983657212710058,0.9789598944739779,0.28549293110206975,0.7161284960791852
0.059000000000000004,1.7238056155517636,1.0,2890.1550328080302,0.4851100896642287,1.297895561288571,0.9791791472889931,0.28545283585317405,0.717022431647217
0.059500000000000004,1.7228509667685337,1.0,2894.561733987596,0.48799822362180445,1.2974255183500085,0.9793933791083752,0.2854127406042784,0.7179147354407804
0.06,1.7218963179853037,1.0,2898.95795684671,0.49087015432091585,1.2969555974377975,0.9796027439084445,0.28537264535538276,0.7188053990764054
0.0605,1.7209416692020738,1.0,2903.3431045651055,0.4937259722081597,1.2964858035344171,0.9798073897446165,0.2853325501064871,0.7196944142300734
0.061,1.7199870204188439,1.0,2907.716578718804,0.49656576773013283,1.2960161416223461,0.9800074590250182,0.28529245485759147,0.7205817726371784
0.0615,1.719032371635614,1.0,2912.077779294121,0.49938963133343195,1.2955466166840635,0.9802030887694417,0.28525235960869577,0.7214674660924849
0.062,1.718077722852384,1.0,2916.426104702888,0.5021976534646538,1.295077233702048,0.9803944108545215,0.2852122643598001,0.722351486450086
0.0625,1.717123074069154,1.0,2920.7609517975266,0.5049899245703953,1.294607997658779,0.9805815522459697,0.2851721691109045,0.7232338256233575
0.063,1.7161684252859242,1.0,2925.0817158870686,0.5077665350972531,1.2941389135367352,0.9807646352186439,0.2851320738620088,0.724114475584914
0.0635,1.7152137765026942,1.0,2929.38872714492,0.5105275444008264,1.2936699781024772,0.9809437748840283,0.28509197861311314,0.7249934437541153
0.064,1.7142591277194643,1.0,2933.681743697757,0.5132730510635063,1.293201193148855,0.9811190852843628,0.2850518833642175,0.7258707281125251
0.0645,1.7133044789362344,1.0,2937.9596352594062,0.5160031807351401,1.2927325682483604,0.9812906786352872,0.28501178811532185,0.7267463121387725
0.065,1.7123498301530045,1.0,2942.222446980788,0.5187180147256705,1.2922641026562554,0.981458659478019,0.2849716928664262,0.7276201986560391
0.0655,1.7113951813697745,1.0,2946.4702244285713,0.5214176343450406,1.2917957956278021,0.9816231286509338,0.2849315976175305,0.7284923904781184
0.066,1.7104405325865446,1.0,2950.7030135829227,0.5241021209031931,1.291327646418263,0.9817841834474673,0.28489150236863486,0.7293628904094245
0.0665,1.7094858838033147,1.0,2954.920860834519,0.5267715557100708,1.2908596542828998,0.981941917766199,0.2848514071197392,0.7302317012449999
0.067,1.7085312350200847,1.0,2959.1238129822223,0.5294260200756168,1.290391818476975,0.9820964222535553,0.2848113118708436,0.7310988257705218
0.0675,1.7075765862368548,1.0,2963.3119172303204,0.5320655953097737,1.2899241382557505,0.9822477844395442,0.28477121662194793,0.7319642667623103
0.068,1.706621937453625,1.0,2967.4852211860193,0.5346903627224844,1.2894566128744884,0.9823960888669092,0.28473112137305223,0.732828026987336
0.0685,1.705667288670395,1.0,2971.6437728569517,0.5373004036236918,1.2889892415884512,0.9825414172140646,0.2846910261241566,0.7336901092032264
0.069,1.7047126398871648,1.0,2975.787620648554,0.5398957993233388,1.2885220236529007,0.9826838484121524,0.28465093087526094,0.7345505161582749
0.0695,1.7037579911039349,1.0,2979.916813361428,0.542476631131368,1.288054958323099,0.9828234587565402,0.28461083562636524,0.7354092505914469
0.07,1.702803342320705,1.0,2984.031400188986,0.5450429803577226,1.2875880448543084,0.9829603220130618,0.2845707403774696,0.7362663152323861
0.07050000000000001,1.701848693537475,1.0,2988.131430714936,0.5475949283123451,1.287121282501791,0.9830945095192801,0.28453064512857396,0.7371217128014245
0.07100000000000001,1.700894044754245,1.0,2992.21695491061,0.5501325563051787,1.2866546705208088,0.9832260902810381,0.2844905498796783,0.7379754460095871
0.07150000000000001,1.6999393959710152,1.0,2996.2880231325425,0.5526559456461659,1.2861882081666243,0.9833551310645487,0.28445045463078267,0.7388275175585999
