Time [s],Phi [rad],STIM [ ],Fsee [N],Gamma [ ],Lcerel [ ],q [ ],Lmtc [m],fisomrel [ ]
0.0,1.8,1.0,17.967536404478892,1.000001657535298e-05,1.3793397038447621,0.00500002665185776,0.288653,0.5411396335681383
0.0005,1.79999375,1.0,18.276833352503516,0.005619153233185018,1.3793023778804177,0.012940513797750321,0.2886527375,0.5412299302750665
0.001,1.799975,1.0,21.618431930150944,0.011196843535172047,1.378938296968907,0.03560857591579199,0.28865195,0.5421102266910218
0.0015,1.79994375,1.0,31.06919242216765,0.01674324740547109,1.378046207442022,0.07060170393669327,0.2886506375,0.5442636002509682
0.002,1.7999,1.0,53.582082024181865,0.022258540335367213,1.3763681515267099,0.11471783511035744,0.2886488,0.5483004289424986
0.0025,1.79984375,1.0,97.11825403906295,0.02774289683205627,1.3739352002010292,0.1645746725078634,0.28864643749999996,0.5541213840899752
0.003,1.7997750000000001,1.0,160.95733063250682,0.03319649042636517,1.3712143750556385,0.21728022625530805,0.28864354999999997,0.5605863767603692
0.0035,1.79969375,1.0,237.68241168642973,0.03861949367234107,1.3685847625671963,0.2706126615439054,0.2886401375,0.5667897729696543
0.004,1.7996,1.0,321.4658263274106,0.04401207815803419,1.366156117425929,0.3229155816833212,0.2886362,0.5724799032894432
0.0045000000000000005,1.7994937500000001,1.0,409.2668169074214,0.04937441451068217,1.3639228360883575,0.37303429886663114,0.2886317375,0.5776791115223421
0.005,1.799375,1.0,499.41257683198,0.054706672387798395,1.361858362052631,0.42024726596613454,0.28862675,0.5824570338411577
0.0055,1.79924375,1.0,590.789509036985,0.06000902052465307,1.359938852780093,0.46417351855011457,0.2886212375,0.5868750709800716
0.006,1.7991000000000001,1.0,682.5172182148173,0.06528162667739294,1.3581464309272928,0.5046797978059739,0.2886152,0.5909793814223274
0.006500000000000001,1.79894375,1.0,773.8804707161112,0.07052465767867667,1.35646726705436,0.5418006102722864,0.2886086375,0.5948057637716695
0.007,1.798775,1.0,864.2849898938077,0.07573827942126546,1.3548904082631579,0.5756766460571578,0.28860155,0.5983826470752842
0.0075,1.79859375,1.0,953.2425010391926,0.08092265686775833,1.3534067901789182,0.6065097936901723,0.2885939375,0.6017335480083996
0.008,1.7984,1.0,1040.3440009631524,0.08607795364765447,1.352008859145895,0.6345320683302829,0.2885858,0.6048780710548645
0.0085,1.79819375,1.0,1125.3140992454646,0.09120433387071214,1.350689243314304,0.6599843335492099,0.2885771375,0.6078349956110997
0.009000000000000001,1.797975,1.0,1207.8998137784583,0.09630195947156178,1.349442040062503,0.6831041050725875,0.28856795,0.6106194535617224
0.0095,1.79774375,1.0,1287.891784202926,0.10137099097315246,1.3482621293812258,0.7041173991976387,0.2885582375,0.6132445447667549
0.01,1.7975,1.0,1365.1665838422325,0.10641158889843334,1.347144391261207,0.7232341566827065,0.288548,0.6157231237751466
0.0105,1.79724375,1.0,1439.6590430843207,0.11142391320031789,1.346083952095992,0.7406465957722149,0.2885372375,0.618067277109755
0.011,1.796975,1.0,1511.3219411073585,0.11640812264514873,1.3450765569788128,0.7565290688465894,0.28852595000000003,0.6202875313254088
0.0115,1.79669375,1.0,1580.1206334988956,0.12136437441070384,1.3441184875859915,0.7710385563933198,0.2885141375,0.6223930692013069
0.012,1.7964,1.0,1646.0566052641223,0.1262928251344734,1.3432061697039688,0.7843155411394868,0.28850180000000003,0.6243926182306461
0.0125,1.79609375,1.0,1709.1736121141996,0.13119363167800355,1.3423360389584695,0.7964852821674347,0.2884889375,0.626294759024953
0.013000000000000001,1.7957750000000001,1.0,1769.5064755540657,0.13606694890028095,1.3415050736427623,0.8076594515566595,0.28847555,0.628106775115598
0.0135,1.79544375,1.0,1827.0915088849126,0.1409129302532102,1.3407105952948097,0.817937428597001,0.2884616375,0.6298351092278583
0.014,1.7951000000000001,1.0,1881.9926674816127,0.14573172918869584,1.3399499254525749,0.8274074958309359,0.2884472,0.6314861230382296
0.0145,1.79474375,1.0,1934.2786081443103,0.15052349812860677,1.3392206072004158,0.8361481656455169,0.2884322375,0.6330656238857819
0.015,1.794375,1.0,1984.0503977462388,0.15528839009520634,1.33852007164028,0.844229189247685,0.28841675,0.6345795953337361
0.0155,1.79399375,1.0,2031.3707474933683,0.16002655481623404,1.3378463695396805,0.8517128208092035,0.2884007375,0.6360326230512043
0.016,1.7936,1.0,2076.311160373534,0.16473814163936068,1.33719762653152,0.8586545200647961,0.2883842,0.6374290837420586
0.0165,1.7931937500000001,1.0,2118.957459536319,0.16942329991225716,1.3365719682487018,0.8651037339031535,0.2883671375,0.6387733105522795
0.017,1.792775,1.0,2159.390637927184,0.17408217774714654,1.3359677034280684,0.8711046614187399,0.28834955,0.6400692036137421
0.0175,1.7923437500000001,1.0,2197.7179261536526,0.17871492418562468,1.3353829894786808,0.8766967789262725,0.2883314375,0.6413209514296654
0.018000000000000002,1.7919,1.0,2234.0106017302023,0.18332168469617302,1.3348164536284388,0.8819155621941913,0.2883128,0.6425317040168224
0.0185,1.79144375,1.0,2268.3428653044407,0.18790260435871425,1.3342667775320853,0.8867928405503933,0.2882936375,0.6437044688721791
0.019,1.790975,1.0,2300.7964393635825,0.1924578282531712,1.3337326428443632,0.8913572050300501,0.28827395,0.6448422292733313
0.0195,1.79049375,1.0,2331.4514793422245,0.19698750035703239,1.333212814329074,0.8956343992513427,0.2882537375,0.6459477690270984
0.02,1.79,1.0,2360.39687095436,0.2014917657309874,1.33270603078653,0.8996476178870396,0.288233,0.6470239064995937
0.0205,1.78949375,1.0,2387.7039636967916,0.205970766454248,1.3322112559217536,0.9034178470709371,0.2882117375,0.6480729637719743
0.021,1.788975,1.0,2413.4381127667925,0.21042464312819442,1.3317275558735673,0.9069640812825,0.28818995000000003,0.6490970302109353
0.021500000000000002,1.78844375,1.0,2437.6686697536384,0.2148535363542069,1.3312539967807926,0.9103035199314558,0.2881676375,0.650098181175863
0.022,1.7879,1.0,2460.4686461173314,0.21925758673366563,1.3307896447822514,0.9134517617565651,0.2881448,0.6510784786506121
0.0225,1.78734375,1.0,2481.9012287822684,0.2236369324396794,1.330333691529758,0.9164229995551233,0.28812143749999997,0.6520397073989884
0.023,1.786775,1.0,2502.047324739566,0.22799171575280766,1.3298851873255488,0.9192301197584614,0.28809755,0.6529839387218992
0.0235,1.78619375,1.0,2520.9617510057797,0.23232207331280796,1.3294434558267465,0.9218849118425327,0.28807313749999996,0.6539126575667428
0.024,1.7856,1.0,2538.6961721173548,0.2366281406898995,1.329007870562749,0.9243981408464074,0.2880482,0.6548272356752722
0.0245,1.78499375,1.0,2555.3041413187325,0.24091005345430164,1.3285778050629546,0.9267796426349402,0.2880227375,0.6557290370536064
0.025,1.784375,1.0,2570.840941133066,0.24516794717623364,1.3281526328567614,0.9290384168490261,0.28799675,0.6566194182052791
0.025500000000000002,1.78374375,1.0,2585.3634326345637,0.24940195742591478,1.3277317274735672,0.9311827094268769,0.2879702375,0.6574997283392587
0.026000000000000002,1.7831000000000001,1.0,2598.9188959647763,0.2536122161421591,1.327314565072203,0.9332201010383955,0.2879432,0.658371095317585
0.0265,1.78244375,1.0,2611.5699750950216,0.2577988616970345,1.326900490156003,0.935157537843817,0.2879156375,0.6592349156114954
0.027,1.781775,1.0,2623.357012954189,0.2619620251633718,1.3264890652873274,0.9370014402543388,0.28788755,0.6600921245146917
0.0275,1.7810937500000001,1.0,2634.318129073775,0.26610183654803377,1.3260798819148958,0.9387577252561397,0.2878589375,0.6609435925075497
0.028,1.7804,1.0,2644.4922392019416,0.2702184258578831,1.3256725314874283,0.9404318489233666,0.2878298,0.6617901856969708
0.0285,1.77969375,1.0,2653.91898571527,0.27431192309978253,1.325266605453645,0.9420288483705587,0.2878001375,0.6626327658694605
0.029,1.778975,1.0,2662.638671731023,0.2783824582805947,1.324861695262266,0.9435533793804788,0.28776995,0.663472190533567
0.029500000000000002,1.7782437500000001,1.0,2670.6915636415138,0.282430160977633,1.3244573981996801,0.9450097508431751,0.2877392375,0.6643093008721117
0.03,1.7775,1.0,2678.1091571700777,0.2864551544009257,1.3240533969590145,0.9464019636447107,0.287708,0.6651447573958016
0.0305,1.77674375,1.0,2684.940521688814,0.29045757682766443,1.3236492171621548,0.9477337127099279,0.2876762375,0.6659795415507792
0.031,1.775975,1.0,2691.210904997138,0.2944375518919504,1.3232446068365233,0.9490084519321963,0.28764395,0.666814171400196
0.0315,1.7751937500000001,1.0,2696.94587007282,0.2983952032278851,1.3228393140095416,0.9502293909512987,0.2876111375,0.6676491624038541
0.032,1.7744,1.0,2702.1712666433255,0.30233065446956975,1.322433086708632,0.9513995154446404,0.2875778,0.6684850274092595
0.0325,1.77359375,1.0,2706.9132041657235,0.3062440292511058,1.3220256729612163,0.952521605497833,0.2875439375,0.6693222766386344
0.033,1.772775,1.0,2711.198026213312,0.31013545120659447,1.3216168207947163,0.9535982522570372,0.28750955,0.6701614176718729
0.0335,1.7719437500000002,1.0,2715.0522862706057,0.3140050439701371,1.3212062782365543,0.9546318730421375,0.2874746375,0.6710029554254504
0.034,1.7711000000000001,1.0,2718.502724935539,0.3178529311758352,1.320793793314152,0.955624725079384,0.2874392,0.6718473921272867
0.0345,1.7702437500000001,1.0,2721.5709496649297,0.32167923211646626,1.3203791622896979,0.9565789221780311,0.2874032375,0.6726951287326257
0.035,1.7693750000000001,1.0,2724.279161500076,0.3254840691278089,1.3199621772545649,0.9574964419522101,0.28736675,0.6735465724697653
0.035500000000000004,1.76849375,1.0,2726.656199792112,0.3292675707181058,1.3195425710258752,0.9583791310795798,0.2873297375,0.6744022490502981
0.036000000000000004,1.7676,1.0,2728.7173079782788,0.3330298534561998,1.319120201072759,0.9592287299834016,0.2872922,0.6752624275104653
0.0365,1.76669375,1.0,2730.477810276591,0.3367710339109337,1.3186949248643456,0.9600468707321734,0.2872541375,0.6761273752095316
0.037,1.765775,1.0,2731.9531028047536,0.3404912286511505,1.3182665998697654,0.9608350850053797,0.28721555,0.6769973578040136
0.0375,1.76484375,1.0,2733.1586451507424,0.34419055424569295,1.317835083558148,0.9615948113881301,0.2871764375,0.6778726392206156
0.038,1.7639,1.0,2734.109952392587,0.3478691272634039,1.3174002333986234,0.9623274020580387,0.28713679999999997,0.678753481627868
0.0385,1.76294375,1.0,2734.8225875694807,0.35152706427312624,1.3169619068603218,0.9630341289210849,0.28709663750000003,0.6796401454064691
0.039,1.761975,1.0,2735.312154602598,0.35516448184370275,1.3165199614123728,0.9637161892473772,0.28705595,0.6805328891183355
0.0395,1.7609937500000001,1.0,2735.5942916672298,0.3587814965439763,1.3160742545239064,0.9643747108525456,0.2870147375,0.6814319694743523
0.04,1.76,1.0,2735.681245861503,0.36237822045883916,1.3156246747077183,0.9650107588156093,0.286973,0.68233757881265
0.0405,1.7589937500000001,1.0,2735.585281759682,0.36595476893799234,1.3151711105229025,0.9656253384181933,0.2869307375,0.6832499078181136
0.041,1.757975,1.0,2735.32215869862,0.3695112620138569,1.3147134189627618,0.9662193966312969,0.28688795,0.6841692089437792
0.0415,1.75694375,1.0,2734.900476555961,0.3730478092801776,1.31425152215383,0.9667938316324078,0.2868446375,0.6850956021173498
0.042,1.7559,1.0,2734.328846866377,0.3765645203306989,1.3137853422226407,0.9673494923252435,0.28680079999999997,0.686029206014733
0.0425,1.75484375,1.0,2733.6158904027457,0.38006150475916545,1.3133148012957276,0.9678871815436475,0.2867564375,0.6869701380389628
0.043000000000000003,1.753775,1.0,2732.77023489146,0.38353887215932175,1.3128398214996244,0.9684076590157237,0.28671155,0.6879185142987345
0.043500000000000004,1.75269375,1.0,2731.8005128629397,0.3869967321249124,1.3123603249608649,0.9689116441083956,0.28666613750000003,0.6888744495865526
0.044,1.7516,1.0,2730.71535963542,0.39043519424968204,1.3118762338059826,0.969399818370692,0.2866202,0.6898380573564926
0.0445,1.75049375,1.0,2729.523411434671,0.3938543681273753,1.3113874701615114,0.9698728278923813,0.2865737375,0.6908094497015749
0.045,1.7493750000000001,1.0,2728.233303646789,0.39725436335173664,1.310893956153985,0.970331285493051,0.28652675,0.6917887373307527
0.0455,1.74824375,1.0,2726.8494447808253,0.4006352809812539,1.3103956523270102,0.9707757744541483,0.2864792375,0.6927759534964599
0.046,1.7471,1.0,2725.3793964702786,0.4039972314161522,1.3098924905474234,0.9712068478077079,0.2864312,0.6937711871885048
0.0465,1.7459437500000001,1.0,2723.835301279989,0.4073403339157488,1.3093843609660842,0.9716250290773757,0.28638263750000004,0.6947746083852286
0.047,1.744775,1.0,2722.221307104369,0.41066469061863375,1.308871226405878,0.9720308188606305,0.28633355,0.6957862420233702
0.0475,1.74359375,1.0,2720.5415598299064,0.4139704036633971,1.3083530496896894,0.9724246932580392,0.28628393750000003,0.6968061120761095
0.048,1.7424,1.0,2718.800202822282,0.41725757518862877,1.3078297936404037,0.9728071052976732,0.2862338,0.6978342415411558
0.0485,1.74119375,1.0,2717.0013764451055,0.4205263073329188,1.3073014210809062,0.9731784862639163,0.2861831375,0.6988706524287487
0.049,1.739975,1.0,2715.1492176085812,0.4237767022348572,1.3067678948340817,0.9735392469379045,0.28613195,0.699915365749572
0.0495,1.73874375,1.0,2713.2478593490123,0.4270088620330339,1.3062291777228154,0.9738897787562324,0.2860802375,0.7009684015025776
0.05,1.7375,1.0,2711.3014304393723,0.43022288886603893,1.3056852325699926,0.9742304548940044,0.286028,0.7020297786627218
0.0505,1.73624375,1.0,2709.314055029739,0.43341888487246233,1.3051360221984982,0.9745616312778074,0.2859752375,0.7030995151686148
0.051000000000000004,1.734975,1.0,2707.289852319121,0.43659695219089406,1.3045815094312176,0.974883647533731,0.28592195,0.70417762791008
0.051500000000000004,1.73369375,1.0,2705.2329362574765,0.43975719295992416,1.3040216570910355,0.9751968278751345,0.2858681375,0.7052641327156277
0.052000000000000005,1.7324,1.0,2703.1474152784,0.4428997093181426,1.3034564280008372,0.9755014819344914,0.2858138,0.7063590443398365
0.0525,1.73109375,1.0,2701.0366365041054,0.44602460121861254,1.3028857918873404,0.9757979057491699,0.28575893750000003,0.707462363114728
0.053,1.729775,1.0,2698.90349860858,0.44913196537231953,1.302309722532962,0.9760863822024125,0.28570355000000003,0.7085740805549856
0.0535,1.72844375,1.0,2696.7501332785555,0.45222189954657105,1.3017282006954667,0.9763671823438299,0.2856476375,0.7096941738044521
0.054,1.7271,1.0,2694.5785494644147,0.45529450146421746,1.3011412082271332,0.9766405655305987,0.2855912,0.7108226170519847
0.0545,1.7257437500000001,1.0,2692.3931594744877,0.4583498686105288,1.300548704957328,0.9769067786141172,0.2855342375,0.7119594258561
0.055,1.724375,1.0,2690.194758305444,0.46138809757283306,1.299950683770854,0.9771660598150713,0.28547675,0.7131045513564958
0.0555,1.72299375,1.0,2687.984683012395,0.4644092844643078,1.2993471325768988,0.977418636949282,0.2854187375,0.714257953501239
0.056,1.721601547339326,1.0,2685.8385774582052,0.46741352489851645,1.298738057170779,0.9776647292906406,0.2853602649882517,0.7154195573910345
0.0565,1.7202077669440685,1.0,2684.1935347570106,0.47040091390327926,1.2981236841331174,0.9779045597607813,0.28530172621165084,0.7165888678536264
0.057,1.7188139865488108,1.0,2683.08595845919,0.47337154603746107,1.297504388028487,0.9781383505770211,0.28524318743505006,0.717765111938123
0.0575,1.7174202061535533,1.0,2682.4817837678825,0.4763255130511006,1.296880478145502,0.9783663109608626,0.2851846486584492,0.7189476457145988
0.058,1.7160264257582956,1.0,2682.3255789906725,0.4792629120802531,1.296252461187348,0.9785886532974121,0.2851261098818484,0.7201354567616034
0.0585,1.714632645363038,1.0,2682.5785879739938,0.4821838367550807,1.2956206921403224,0.978805572745528,0.2850675711052476,0.7213278264619793
0.059000000000000004,1.7132388649677803,1.0,2683.2138265725735,0.48508837793137044,1.294985418916744,0.979017250605914,0.28500903232864677,0.722524243069238
0.059500000000000004,1.7118450845725228,1.0,2684.204383499924,0.4879766264649093,1.2943468894289312,0.9792238610806994,0.28495049355204594,0.7237241986081395
0.06,1.710451304177265,1.0,2685.5234017482003,0.4908486732114843,1.293705351589203,0.9794255716136075,0.28489195477544516,0.7249271889281335
0.0605,1.7090575237820076,1.0,2687.1440613711525,0.49370460902688246,1.2930610533098779,0.9796225432113538,0.2848334159988443,0.7261327137528857
0.061,1.7076637433867499,1.0,2689.039563630146,0.49654452476689087,1.2924142425032747,0.9798149307474393,0.2847748772222435,0.7273402767258802
0.0615,1.7062699629914924,1.0,2691.183549420911,0.4993685110982344,1.2917651631187315,0.9800028830252696,0.2847163384456427,0.7285493928262119
0.062,1.7048761825962346,1.0,2693.5595816193727,0.5021766552847609,1.2911139682670365,0.9801865382618168,0.28465779966904187,0.7297597496167694
0.0625,1.7034824022009771,1.0,2696.1388065560986,0.5049690510337358,1.2904609246324603,0.9803660359286445,0.28459926089244103,0.7309708267272201
0.063,1.7020886218057194,1.0,2698.907854201652,0.5077457849400318,1.2898061570823753,0.9805415025359445,0.2845407221158402,0.7321823702715102
0.0635,1.7006948414104617,1.0,2701.853347245668,0.5105069435985212,1.289149790484154,0.9807130599727422,0.28448218333923936,0.7333941283895722
0.064,1.6993010610152042,1.0,2704.961896496819,0.5132526136040769,1.2884919497051688,0.9808808257130394,0.2844236445626386,0.734605851260556
0.0645,1.6979072806199464,1.0,2708.2200966287614,0.5159828815515712,1.2878327596127923,0.9810449130113393,0.28436510578603774,0.7358172911150654
0.065,1.696513500224689,1.0,2711.6145222718155,0.5186978340358769,1.2871723450743968,0.9812054310881736,0.2843065670094369,0.7370282022464016
0.0655,1.6951197198294312,1.0,2715.1317244502784,0.5213975576518662,1.2865108309573552,0.9813624853062098,0.2842480282328361,0.7382383410208095
0.066,1.6937259394341737,1.0,2718.7638215098555,0.5240821340003262,1.285848291180051,0.9815161744915543,0.2841894894562353,0.7394475587673621
0.0665,1.692332159038916,1.0,2722.49615505568,0.5267516527713914,1.2851848612074483,0.9816665975816891,0.28413095067963445,0.7406555961035983
0.067,1.6909383786436585,1.0,2726.315652937833,0.529406202560971,1.2845206617596037,0.9818138493173285,0.2840724119030337,0.7418622226781799
0.0675,1.6895445982484008,1.0,2730.216547018822,0.5320458650860383,1.283855746876229,0.9819580175413755,0.28401387312643284,0.7430673308843692
0.068,1.6881508178531432,1.0,2734.1930557467012,0.5346707220635663,1.283190170597036,0.9820991871089397,0.283955334349832,0.7442708140217525
0.0685,1.6867570374578855,1.0,2738.2393833299852,0.5372808552105277,1.2825239869617366,0.9822374400111604,0.2838967955732312,0.7454725662986112
0.069,1.685363257062628,1.0,2742.3497189772847,0.5398763462438958,1.2818572500100425,0.9823728554930871,0.2838382567966304,0.7466724828341085
0.0695,1.6839694766673703,1.0,2746.5182362025366,0.5424572768806436,1.2811900137816654,0.9825055101659457,0.28377971802002955,0.7478704596602896
0.07,1.6825756962721128,1.0,2750.739092194165,0.5450237288377442,1.2805223323163175,0.9826354781140886,0.28372117924342877,0.7490663937238952
0.07050000000000001,1.681181915876855,1.0,2755.0064272489876,0.5475757838321703,1.2798542596537101,0.9827628309969197,0.2836626404668279,0.7502601828879905
0.07100000000000001,1.6797881354815976,1.0,2759.3143642719215,0.5501135235808953,1.2791858498335553,0.9828876381460591,0.2836041016902271,0.751451725933404
0.07150000000000001,1.6783943550863398,1.0,2763.6570083384927,0.5526370298008919,1.2785171568955649,0.9830099666580007,0.28354556291362626,0.752640922559985
0.07200000000000001,1.6770005746910823,1.0,2768.036134317446,0.5551463677442302,1.2778481654865899,0.9831298773717109,0.2834870241370254,0.7538277963512008
0.0725,1.6756067942958246,1.0,2772.4394655760548,0.5576416397877935,1.2771789870369403,0.9832474370564624,0.28342848536042464,0.755012146508851
0.073,1.674213013900567,1.0,2776.8650168420577,0.560122921913237,1.276509639882847,0.9833627046936393,0.2833699465838238,0.7561939383031194
0.0735,1.6728192335053094,1.0,2781.3108319063144,0.5625902900156966,1.2758401420422556,0.9834757373950863,0.28331140780722297,0.7573731378766208
