Time [s],Phi [rad],STIM [ ],Fsee [N],Gamma [ ],Lcerel [ ],q [ ],Lmtc [m],fisomrel [ ]
0.0,1.8,1.0,18.291010470271544,0.0005793378238849024,1.3793036259683524,0.0050866164763446265,0.288653,0.54122691112009
0.0005,1.79999375,1.0,18.77742508391112,0.006185297505687859,1.3792471476451427,0.014596411764296428,0.2886527375,0.5413635236065797
0.001,1.799975,1.0,22.541633421193865,0.011759812185983213,1.3788449913604108,0.03863687203077589,0.28865195,0.5423356904372776
0.0015,1.79994375,1.0,32.92737720185981,0.017303058247252086,1.3778901951889455,0.07470659914204376,0.2886506375,0.5446396695792751
0.002,1.7999,1.0,57.29147744267836,0.022815211080718295,1.376131531062921,0.11955331741642193,0.2886488,0.5488682121819609
0.0025,1.79984375,1.0,103.11277554782951,0.02829644509427672,1.3736506624586866,0.1698186331825248,0.28864643749999996,0.5547996889164051
0.003,1.7997750000000001,1.0,168.59375202923025,0.03374693372082462,1.3709318479986559,0.22267948865007972,0.28864354999999997,0.5612549876922898
0.0035,1.79969375,1.0,246.2216441371282,0.03916684941551356,1.3683240520881743,0.27597532127052266,0.2886401375,0.5674024000425634
0.004,1.7996,1.0,330.50030262246383,0.044556363668519214,1.3659184863322358,0.3281027377077786,0.2886362,0.5730346344398132
0.0045000000000000005,1.7994937500000001,1.0,418.59056649806377,0.049915647007950724,1.3637052044156512,0.3779545150021387,0.2886317375,0.5781840697734992
0.005,1.799375,1.0,508.8966739534937,0.05524486898273826,1.3616577734302144,0.424848036019886,0.28862675,0.582919817976721
0.0055,1.79924375,1.0,600.3476979951982,0.06054419829375,1.3597528580718783,0.4684313546652047,0.2886212375,0.5873019168020248
0.006,1.7991000000000001,1.0,692.0651317303096,0.06581380250824974,1.3579734779310617,0.5085917453957947,0.2886152,0.5913743274806751
0.006500000000000001,1.79894375,1.0,783.3603138445359,0.07105384842136728,1.3563059324034468,0.5453768127945345,0.2886086375,0.5951724570603012
0.007,1.798775,1.0,873.6460346729547,0.07626450183731534,1.3547396045602336,0.5789352911049792,0.28860155,0.598723893356024
0.0075,1.79859375,1.0,962.4310198837755,0.0814459274696506,1.35326580015408,0.6094734543865901,0.2885939375,0.6020512577853877
0.008,1.7984,1.0,1049.3552335711959,0.0865982896787515,1.3518764720382623,0.6372246888932421,0.2885858,0.6051752181948533
0.0085,1.79819375,1.0,1134.0935667410097,0.09172175106294887,1.3505651997971322,0.662430486737538,0.2885771375,0.608112374653051
0.009000000000000001,1.797975,1.0,1216.4088370876782,0.09681647368784019,1.3493259783959475,0.6853273601942047,0.28856795,0.6108780638319964
0.0095,1.79774375,1.0,1296.1424507944873,0.10188261925263875,1.3481531252807353,0.7061395316268896,0.2885582375,0.6134866114708439
0.01,1.7975,1.0,1373.1602961480012,0.10692034774009627,1.3470418003924174,0.7250753544390862,0.288548,0.6159502193252218
0.0105,1.79724375,1.0,1447.3752015464431,0.11192981833735634,1.3459875074920553,0.7423253993911678,0.2885372375,0.6182801168987084
0.011,1.796975,1.0,1518.747363677036,0.11691118957170828,1.3449859633628094,0.7580621759889874,0.28852595000000003,0.6204868784522779
0.0115,1.79669375,1.0,1587.2745893651206,0.12186461990998765,1.3440331190603996,0.7724407828620738,0.2885141375,0.6225803985636893
0.012,1.7964,1.0,1652.9431948760366,0.12679026521532571,1.3431256474967495,0.7856002201951195,0.28850180000000003,0.624568845758726
0.0125,1.79609375,1.0,1715.7771155341038,0.13168828119963577,1.3422602597925501,0.797664399803988,0.2884889375,0.6264601867561738
0.013000000000000001,1.7957750000000001,1.0,1775.8184804964899,0.13655882278616852,1.3414338798951957,0.808743641912298,0.28847555,0.6282618165169422
0.0135,1.79544375,1.0,1833.1448710857846,0.14140204542798523,1.340643399109624,0.8189359766101931,0.2884616375,0.6299811053668412
0.014,1.7951000000000001,1.0,1887.805306972704,0.14621810159468226,1.339886345989682,0.8283287253154389,0.2884472,0.6316239534750709
0.0145,1.79474375,1.0,1939.856547755349,0.15100714298713813,1.339160422110643,0.8369995291401663,0.2884322375,0.6331958165616405
0.015,1.794375,1.0,1989.3762522890208,0.15576932130623145,1.33846332904778,0.8450174048760727,0.28841675,0.6347020882968564
0.0155,1.79399375,1.0,2036.4432680913815,0.16050478725129777,1.3377929566916802,0.8524438164776145,0.2884007375,0.6361476990098618
0.016,1.7936,1.0,2081.1612889043986,0.16521369203079211,1.3371471091295248,0.8593334789637925,0.2883842,0.6375377130280748
0.0165,1.7931937500000001,1.0,2123.601789759924,0.16989618370876147,1.336524081916452,0.8657353309579721,0.2883671375,0.6388760914868916
0.017,1.792775,1.0,2163.839105426138,0.17455240978342657,1.3359222665276158,0.8716930973924538,0.28834955,0.6401665524583848
0.0175,1.7923437500000001,1.0,2201.9584530007896,0.17918251775300817,1.3353400544381708,0.8772458774654144,0.2883314375,0.641412780259581
0.018000000000000002,1.7919,1.0,2238.0427893714404,0.18378665398316285,1.33477595972301,0.8824287203433026,0.2883128,0.6426181657893418
0.0185,1.79144375,1.0,2272.189920505608,0.18836496586409407,1.3342284352970626,0.8872730500887958,0.2882936375,0.6437862022923382
0.019,1.790975,1.0,2304.4730354380977,0.19291759740499653,1.3336962579761888,0.8918071788847638,0.28827395,0.6449196664945435
0.0195,1.79049375,1.0,2334.9635285741483,0.19744469177187315,1.3331782863371222,0.8960566027820566,0.2882537375,0.6460211400301614
0.02,1.79,1.0,2363.7385619818433,0.201946392130727,1.3326733789565954,0.9000443016055006,0.288233,0.6470931853750046
0.0205,1.78949375,1.0,2390.8767057841173,0.2064228410062988,1.3321804320131316,0.9037910292449101,0.2882117375,0.6481382671797489
0.021,1.788975,1.0,2416.4550951668743,0.21087418063558036,1.3316984013190623,0.9073155651952688,0.28818995000000003,0.6491587071504411
0.021500000000000002,1.78844375,1.0,2440.552209427904,0.2153005535022335,1.3312262701183137,0.9106349236589015,0.2881676375,0.6501567537739473
0.022,1.7879,1.0,2463.226171733547,0.2197020980265446,1.330763252534147,0.9137645831651255,0.2881448,0.6511341542507401
0.0225,1.78734375,1.0,2484.538122447905,0.22407895262880007,1.3303085626898234,0.9167186051115899,0.28812143749999997,0.652092644814359
0.023,1.786775,1.0,2504.5519688213735,0.22843125572928624,1.3298614147086036,0.9195097831242468,0.28809755,0.6530339511684905
0.0235,1.78619375,1.0,2523.334148372189,0.2327591457482895,1.3294210227137488,0.922149774910097,0.28807313749999996,0.6539597888846549
0.024,1.7856,1.0,2540.9411683952776,0.23706275792197698,1.3289867161166553,0.9246492380809052,0.2880482,0.6548716218711074
0.0245,1.78499375,1.0,2557.4437303586974,0.24134223308703423,1.3285577092508396,0.9270178946503177,0.2880227375,0.655771146976533
0.025,1.784375,1.0,2572.888982891953,0.24559770504151432,1.3281334549097978,0.9292646793417165,0.28799675,0.6566595528346928
0.025500000000000002,1.78374375,1.0,2587.323209541706,0.24982930690062108,1.3277134274801037,0.9313977827447404,0.2879702375,0.6575379765600855
0.026000000000000002,1.7831000000000001,1.0,2600.793994760944,0.2540371717795584,1.3272971013483312,0.9334247203671246,0.2879432,0.6584075492633297
0.0265,1.78244375,1.0,2613.3501119260927,0.2582214327935302,1.3268839509010544,0.9353523973869441,0.2879156375,0.6592693961840468
0.027,1.781775,1.0,2625.0414174792477,0.2623822230577404,1.3264734505248468,0.9371871664041638,0.28788755,0.6601246368061238
0.0275,1.7810937500000001,1.0,2635.9113681336985,0.2665196750841488,1.3260651428964554,0.9389348890837392,0.2878589375,0.6609742429461547
0.028,1.7804,1.0,2646.0106667123296,0.27063391994920516,1.3256585114889885,0.9406009619238225,0.2878298,0.6618193045114042
0.0285,1.77969375,1.0,2655.3744623942534,0.2747250872332243,1.325253190497222,0.9421903890161306,0.2878001375,0.6626605933398528
0.029,1.778975574539333,1.0,2664.0557111566413,0.2787933059569022,1.3248489153972376,0.9437078100111173,0.287769974130652,0.6634986676187449
0.029500000000000002,1.7782543644579767,1.0,2672.516710336505,0.28283870499099917,1.3244454231369818,0.945157518457183,0.287739683307235,0.664334079736814
0.03,1.7775331543766202,1.0,2680.9089407288893,0.28686141274531407,1.3240426846272364,0.9465435229913183,0.28770939248381805,0.6651668958532315
0.0305,1.776811944295264,1.0,2689.2193820661746,0.2908615566749624,1.3236408155636619,0.947869559215338,0.2876791016604011,0.6659968829760453
0.031,1.7760907342139074,1.0,2697.4425346998587,0.2948392626854424,1.3232398622049202,0.9491390849794723,0.2876488108369841,0.6668239524290314
0.0315,1.7753695241325511,1.0,2705.5728735063467,0.2987946566822526,1.322839870809673,0.9503553132293366,0.28761852001356714,0.6676480159936025
0.032,1.7746483140511946,1.0,2713.6095208908137,0.3027278577013289,1.3224408450453153,0.9515212251020442,0.28758822919015015,0.6684690734899967
0.0325,1.773927103969838,1.0,2721.5415985984214,0.30663900170131225,1.3220428796488002,0.9526396121971071,0.2875579383667332,0.6692869377152691
0.033,1.7732058938884818,1.0,2729.36749831563,0.31052821136118486,1.321645984606967,0.9537130621531043,0.2875276475433162,0.6701015962570622
0.0335,1.7724846838071253,1.0,2737.0870591339967,0.31439560717898735,1.3212501567800499,0.954743986800404,0.2874973567198993,0.6709130636759993
0.034,1.771763473725769,1.0,2744.700129687768,0.31824130965276043,1.320855393028282,0.9557346381953244,0.2874670658964823,0.6717213544791667
0.0345,1.7710422636444125,1.0,2752.2065680803266,0.3220654392805447,1.3204616902118975,0.9566871210953529,0.2874367750730653,0.6725264831203247
0.035,1.7703210535630562,1.0,2759.606241809927,0.3258681165603809,1.32006904519113,0.9576034043216122,0.2874064842496484,0.6733284640001223
0.035500000000000004,1.7695998434816997,1.0,2766.8990276957197,0.3296494619903097,1.3196774548262136,0.9584853311194355,0.2873761934262314,0.674127311466308
0.036000000000000004,1.7688786334003435,1.0,2774.0848118049507,0.3334095960683717,1.3192869159773812,0.9593346286157951,0.28734590260281445,0.6749230398139436
0.0365,1.768157423318987,1.0,2781.163489378726,0.33714863929260763,1.3188974255048673,0.9601529164616336,0.28731561177939746,0.675715663285611
0.037,1.7674362132376307,1.0,2788.1364981156803,0.3408666970092603,1.318508966478614,0.9609417100438032,0.28728532095598047,0.6765052240839449
0.0375,1.7667150031562742,1.0,2795.0045257161473,0.3445639046834152,1.3181215288543027,0.9617024399923566,0.2872550301325635,0.6772917502531922
0.038,1.7659937930749177,1.0,2801.7689190405863,0.34824038353602776,1.3177350967858743,0.9624364473933259,0.28722473930914655,0.6780752814747165
0.0385,1.7652725829935614,1.0,2808.4316303777277,0.3518962461039986,1.3173496491394143,0.9631449915492389,0.28719444848572956,0.6788558679562839
0.039,1.7645513729122049,1.0,2814.994629752587,0.3555316049242282,1.3169651647810086,0.9638292580393594,0.2871641576623126,0.6796335596790437
0.0395,1.7638301628308486,1.0,2821.459904469749,0.35914657253361715,1.3165816225767422,0.9644903638336232,0.28713386683889563,0.680408406398843
0.04,1.763108952749492,1.0,2827.8294586671796,0.36274126146906593,1.3161990013927005,0.9651293619992402,0.28710357601547865,0.6811804576475096
0.0405,1.7623877426681358,1.0,2834.1053128795497,0.36631578426747513,1.3158172800949692,0.9657472460363854,0.2870732851920617,0.6819497627341065
0.041,1.7616665325867793,1.0,2840.2895036116183,0.3698702534657452,1.3154364375496335,0.9663449538758223,0.2870429943686447,0.6827163707461614
0.0415,1.760945322505423,1.0,2846.3840829217943,0.3734047816007767,1.3150564526227788,0.9669233715680836,0.2870127035452278,0.6834803305508633
0.042,1.7602241124240665,1.0,2852.3911180148925,0.37691948120947016,1.3146773041804904,0.9674833366909618,0.2869824127218108,0.6842416907962343
0.0425,1.7595029023427102,1.0,2858.312690845535,0.38041446482872615,1.3142989710888542,0.9680256414995084,0.2869521218983938,0.6850004999122692
0.043000000000000003,1.7587816922613537,1.0,2864.1508977313474,0.38388984499544515,1.3139214322139552,0.9685510358404272,0.2869218310749769,0.6857568061120509
0.043500000000000004,1.7580604821799972,1.0,2869.906715530299,0.38734571823479425,1.3135446764692817,0.9690602281827209,0.2868915402515599,0.6865106373015735
0.044,1.757339272098641,1.0,2875.57974384426,0.3907821545337646,1.3131687050458585,0.9695538869464632,0.28686124942814295,0.6872619967471305
0.0445,1.7566180620172844,1.0,2881.1782702587575,0.3941993464965312,1.3127934423024108,0.970032658225878,0.28683095860472596,0.6880110409840829
0.045,1.7558968519359281,1.0,2886.7038574932294,0.3975973956694076,1.312418872361976,0.9704971459750229,0.28680066778130897,0.6887578067349213
0.0455,1.7551756418545716,1.0,2892.1580783890286,0.4009764035987073,1.3120449793475923,0.970947923547072,0.286770376957892,0.689502330561099
0.046,1.7544544317732154,1.0,2897.5425156685756,0.40433647183074384,1.3116717473822967,0.9713855355403043,0.28674008613447505,0.6902446488637303
0.0465,1.7537332216918589,1.0,2902.858761699423,0.4076777019118308,1.3112991605891269,0.9718104995156582,0.28670979531105806,0.6909847978842634
0.047,1.7530120116105026,1.0,2908.1084182647246,0.41100019538828164,1.3109272030911208,0.9722233075959307,0.2866795044876411,0.6917228137051433
0.0475,1.752290801529146,1.0,2913.2930963388803,0.41430405380641,1.3105558590113153,0.9726244279558187,0.28664921366422413,0.6924587322504594
0.048,1.7515695914477896,1.0,2918.4144158686795,0.41758937871252927,1.3101851124727488,0.9730143062112191,0.28661892284080714,0.6931925892865693
0.0485,1.7508483813664333,1.0,2923.474005560326,0.42085627165295314,1.3098149475984582,0.973393366715466,0.2865886320173902,0.6939244204227188
0.049,1.7501271712850768,1.0,2928.4735026715866,0.424104834173995,1.3094453485114814,0.9737620137695523,0.2865583411939732,0.694654261111632
0.0495,1.7494059612037205,1.0,2933.4145528102363,0.42733516782196856,1.3090762993348561,0.9741206327527765,0.2865280503705563,0.695382146650097
0.05,1.748684751122364,1.0,2938.2988097373127,0.4305473741431872,1.3087077841916197,0.9744695911797256,0.2864977595471393,0.6961081121795292
0.0505,1.7479635410410077,1.0,2943.127935176707,0.4337415546839646,1.3083397872048095,0.9748092396890228,0.2864674687237223,0.6968321926865204
0.051000000000000004,1.7472423309596512,1.0,2947.903598629564,0.43691781099061416,1.3079722924974637,0.9751399129688082,0.2864371779003053,0.6975544230033695
0.051500000000000004,1.746521120878295,1.0,2952.6274771950816,0.4400762446094495,1.3076052841926193,0.9754619306235397,0.2864068870768884,0.698274837808603
0.052000000000000005,1.7457999107969384,1.0,2957.3012553960557,0.4432169570867841,1.3072387464133142,0.9757755979863121,0.2863765962534714,0.698993471627472
0.0525,1.745078700715582,1.0,2961.926625010928,0.44634004996893156,1.306872663282586,0.9760812068805736,0.28634630543005446,0.6997103588324382
0.053,1.7443574906342256,1.0,2966.5052849105055,0.44944562480220535,1.306507018923472,0.9763790363347999,0.28631601460663747,0.7004255336436429
0.0535,1.7436362805528691,1.0,2971.0389409009836,0.4525337831329191,1.30614179745901,0.9766693532534184,0.2862857237832205,0.7011390301293576
0.054,1.7429150704715128,1.0,2975.5293055723546,0.45560462650738626,1.3057769830122377,0.9769524130470082,0.28625543295980355,0.7018508822064213
0.0545,1.7421938603901563,1.0,2979.9751297727953,0.4586582054463133,1.3054125855288137,0.9772284568288485,0.28622514213638656,0.7025610733437662
0.055,1.7414726503088,1.0,2984.379640621868,0.46169465722977765,1.3050485760232233,0.9774977215986211,0.2861948513129696,0.7032696628386599
0.0555,1.7407514402274435,1.0,2988.745295436534,0.4647141018907438,1.3046849322914822,0.9777604331010751,0.28616456048955263,0.7039766965386955
0.056,1.7400302301460873,1.0,2993.072895590291,0.4677166294003934,1.3043216465763834,0.978016805723311,0.28613426966613564,0.7046821920441289
0.0565,1.7393090200647308,1.0,2997.3632459068394,0.470702329729908,1.3039587111207198,0.9782670450449232,0.2861039788427187,0.7053861668808381
0.057,1.7385878099833745,1.0,3001.6171545990687,0.47367129285046916,1.3035961181672837,0.9785113482714044,0.2860736880193017,0.7060886385004996
0.0575,1.737866599902018,1.0,3005.8354332096565,0.47662360873325854,1.3032338599588684,0.9787499046428338,0.2860433971958848,0.706789624280757
0.058,1.7371453898206615,1.0,3010.018896552761,0.47955936734945764,1.3028719287382662,0.9789828958194547,0.2860131063724678,0.707489141525391
0.0585,1.7364241797393052,1.0,3014.1683626570107,0.48247865867024803,1.3025103167482703,0.9792104962456163,0.2859828155490508,0.7081872074644807
0.059000000000000004,1.7357029696579487,1.0,3018.28465271021,0.48538157266681137,1.3021490162316731,0.9794328734934588,0.2859525247256338,0.7088838392545668
0.059500000000000004,1.7349817595765924,1.0,3022.3685910049307,0.48826819931032917,1.3017880194312674,0.9796501885876179,0.2859222339022169,0.709579053978804
0.06,1.734260549495236,1.0,3026.4210048853292,0.49113862857198304,1.3014273185898464,0.9798625963121407,0.2858919430787999,0.7102728686471149
0.0605,1.7335393394138796,1.0,3030.442724696273,0.49399295042295455,1.3010669059502022,0.9800702455007141,0.28586165225538296,0.7109653001963395
0.061,1.732818129332523,1.0,3034.4345837322408,0.4968312548344253,1.3007067737551279,0.9802732793112373,0.28583136143196597,0.7116563654903774
0.0615,1.7320969192511668,1.0,3038.3974181891786,0.4996536317775768,1.3003469142474164,0.9804718354856944,0.285801070608549,0.7123460813203287
0.062,1.7313757091698103,1.0,3042.3320671166985,0.5024601712235908,1.2999873196698601,0.9806660465962244,0.28577077978513205,0.7130344644046338
0.0625,1.730654499088454,1.0,3046.2393723713553,0.5052509631436487,1.2996279822652523,0.9808560402782133,0.28574048896171506,0.7137215313892016
0.063,1.7299332890070975,1.0,3050.1201785726544,0.5080260975089321,1.2992688942763853,0.9810419394511927,0.2857101981382981,0.7144072988475438
0.0635,1.729212078925741,1.0,3053.9753330586173,0.5107856642906228,1.2989100479460518,0.9812238625282621,0.28567990731488113,0.7150917832808961
0.064,1.7284908688443847,1.0,3057.8056858441428,0.513529753459902,1.2985514355170449,0.9814019236147172,0.28564961649146414,0.7157750011183412
0.0645,1.7277696587630282,1.0,3061.6120895799054,0.5162584549879515,1.2981930492321572,0.9815762326965122,0.28561932566804715,0.7164569687169269
0.065,1.727048448681672,1.0,3065.3950811982863,0.5189718481949148,1.2978348840644198,0.9817468952179499,0.2855890348446302,0.7171376971758088
0.0655,1.7263272386003155,1.0,3069.153952090258,0.5216699789042789,1.297476945678775,0.9819140111281044,0.28555874402121323,0.7178171772628419
0.066,1.7256060285189592,1.0,3072.891143439904,0.524353000375964,1.2971192127458233,0.9820776828174395,0.2855284531977963,0.7184954509480299
0.0665,1.7248848184376027,1.0,3076.607034012168,0.5270209922868442,1.2967616816480685,0.9822380049802618,0.2854981623743793,0.7191725264840895
0.067,1.7241636083562462,1.0,3080.302003867109,0.5296740343137933,1.296404348768014,0.9823950690327345,0.2854678715509623,0.719848412089954
0.0675,1.7234423982748899,1.0,3083.9764343442175,0.5323122061336854,1.296047210488163,0.9825489632494881,0.2854375807275454,0.7205231159508204
0.068,1.7227211881935334,1.0,3087.6307080459555,0.5349355874233943,1.2956902631910194,0.9826997728936175,0.2854072899041284,0.7211966462181941
0.0685,1.721999978112177,1.0,3091.2652088231357,0.5375442578597942,1.2953335032590867,0.9828475803404324,0.28537699908071146,0.7218690110099332
0.069,1.7212787680308206,1.0,3094.880321758981,0.5401382971197589,1.2949769270748681,0.9829924651952943,0.28534670825729447,0.7225402184102931
0.0695,1.7205575579494643,1.0,3098.4764331547976,0.5427177848801624,1.2946205310208674,0.9831345044058715,0.2853164174338775,0.7232102764699686
0.07,1.7198363478681078,1.0,3102.0539305151765,0.5452828008178788,1.2942643114795878,0.983273772369103,0.28528612661046054,0.7238791932061357
0.07050000000000001,1.7191151377867515,1.0,3105.6132025335482,0.5478334246097819,1.293908264833533,0.9834103410331615,0.28525583578704355,0.7245469766024932
