Time [s],Phi [rad],STIM [ ],Fsee [N],Gamma [ ],Lcerel [ ],q [ ],Lmtc [m],fisomrel [ ]
0.0,1.8,1.0,17.967277983142417,1.0339505515007498e-05,1.3793397327963934,0.005000028484670599,0.288653,0.5411395635266609
0.0005,1.79999375,1.0,18.27671317026443,0.005619490817860419,1.3793023912303144,0.01294145683633333,0.2886527375,0.5412298979813952
0.001,1.799975,1.0,21.618578819049056,0.011197179226264238,1.3789382819664113,0.03561034667177899,0.28865195,0.5421102629475273
0.0015,1.79994375,1.0,31.06987790039862,0.016743581213601928,1.378046149041912,0.07060412853006705,0.2886506375,0.5442637410541469
0.002,1.7999,1.0,53.58383553166188,0.022258872271097987,1.3763680377687866,0.1147207068802054,0.2886488,0.548300701996407
0.0025,1.79984375,1.0,97.12137827251831,0.02774322690589031,1.3739350496523566,0.16457779659439783,0.28864643749999996,0.554121743116995
0.003,1.7997750000000001,1.0,160.9614909787537,0.03319681864874592,1.3712142193305208,0.21728344889593373,0.28864354999999997,0.560586745429949
0.0035,1.79969375,1.0,237.68716691897538,0.0386198200536535,1.3685846160939041,0.27061586653399694,0.2886401375,0.5667901172796852
0.004,1.7996,1.0,321.4709212897472,0.04401240270860536,1.3661559824801734,0.32291868477792346,0.2886362,0.5724802184119226
0.0045000000000000005,1.7994937500000001,1.0,409.2721188560487,0.04937473724078202,1.363922711631675,0.37303724435997115,0.2886317375,0.5776794003783441
0.005,1.799375,1.0,499.4180076180033,0.05470699330764254,1.3618582466490854,0.4202500215591025,0.28862675,0.5824573001659747
0.0055,1.79924375,1.0,590.7950040387184,0.06000933964438235,1.3599387454212521,0.4641760696945742,0.2886212375,0.586875317425303
0.006,1.7991000000000001,1.0,682.5227351026133,0.06528194400710956,1.3581463306450943,0.5046821421696248,0.2886152,0.5909796104765779
0.006500000000000001,1.79894375,1.0,773.8861320972685,0.07052497322819512,1.3564671704109967,0.5418027519127145,0.2886086375,0.5948059834795199
0.007,1.798775,1.0,864.290192917479,0.07573859320090162,1.35489032421774,0.5756786017308754,0.28860155,0.5983828372979192
0.0075,1.79859375,1.0,953.2471134741486,0.08092296888774522,1.353406719234961,0.6065115771747916,0.2885939375,0.6017337079068286
0.008,1.7984,1.0,1040.358902222083,0.08607826427149425,1.3520086397541407,0.6345335991610892,0.2885858,0.604878563579208
0.0085,1.79819375,1.0,1125.3236724983467,0.09120464267092018,1.3506891077925216,0.6599857645593808,0.2885771375,0.6078352987107307
0.009000000000000001,1.797975,1.0,1207.8876383011082,0.09630226601568134,1.3494422064263722,0.6831055678102113,0.28856795,0.6106190828057037
0.0095,1.79774375,1.0,1287.8753745279294,0.10137129564998801,1.3482623465258363,0.7041187612047718,0.2885582375,0.6132440624755049
0.01,1.7975,1.0,1365.1678809350128,0.10641189232335041,1.3471443745900595,0.7232352828526396,0.288548,0.6157231606839172
0.0105,1.79724375,1.0,1439.6640444884817,0.1114242150240968,1.346083889499625,0.7406475992763971,0.2885372375,0.6180674152704444
0.011,1.796975,1.0,1511.3119676581105,0.11640842219633885,1.34507667880902,0.7565300698528412,0.28852595000000003,0.6202872632083432
0.0115,1.79669375,1.0,1580.1157580850897,0.12136467249807711,1.3441185458303777,0.7710394456246673,0.2885141375,0.6223929413762317
0.012,1.7964,1.0,1646.0701885200476,0.12629312234383044,1.3432060107146377,0.7843162631056214,0.28850180000000003,0.6243929662287755
0.0125,1.79609375,1.0,1709.1828704722045,0.13119392705887847,1.342335932610875,0.7964859633736515,0.2884889375,0.6262949912099568
0.013000000000000001,1.7957750000000001,1.0,1769.4975739256147,0.13606724193947978,1.3415051741347208,0.8076601579171289,0.28847555,0.6281065562474937
0.0135,1.79544375,1.0,1827.076967409543,0.1409132212388559,1.3407107568483818,0.8179381032404716,0.2884616375,0.6298347581881469
0.014,1.7951000000000001,1.0,1881.9898057943055,0.14573201927397714,1.3399499567782727,0.8274080731810474,0.2884472,0.6314860551226102
0.0145,1.79474375,1.0,1934.2890446314586,0.15052378743312975,1.339220494511391,0.8361486493875524,0.2884322375,0.6330658676768092
0.015,1.794375,1.0,1984.0486161236415,0.15528867710460012,1.338520090634735,0.8442296795129294,0.28841675,0.6345795543260548
0.0155,1.79399375,1.0,2031.3504250731055,0.16002683879611856,1.337846583665627,0.8517133375732602,0.2884007375,0.6360321616883433
0.016,1.7936,1.0,2076.2912297183952,0.16473842386959123,1.3371978342445665,0.8586549998441279,0.2883842,0.6374286370560391
0.0165,1.7931937500000001,1.0,2118.9566322311916,0.1694235818685583,1.3365719767834758,0.8651041230965536,0.2883671375,0.638773292232345
0.017,1.792775,1.0,2159.4130862065035,0.17408245962399801,1.335967474022635,0.871104955923982,0.28834955,0.6400696951493943
0.0175,1.7923437500000001,1.0,2197.737746541369,0.1787152039668887,1.3353827887023242,0.8766970589943613,0.2883314375,0.6413213808745286
0.018000000000000002,1.7919,1.0,2234.0175753860603,0.18332196172820864,1.334816383562824,0.8819158563801917,0.2883128,0.6425318536285458
0.0185,1.79144375,1.0,2268.3399780009013,0.1879028787567257,1.334266806321021,0.886793139985158,0.2882936375,0.6437044074998247
0.019,1.790975,1.0,2300.7966158354657,0.1924581013701987,1.3337326410972392,0.8913574781840538,0.28827395,0.6448422329919048
0.0195,1.79049375,1.0,2331.4666406393003,0.19698777388057442,1.3332126652180205,0.8956346211100287,0.2882537375,0.6459480859002021
0.02,1.79,1.0,2360.4162836409246,0.20149203827147788,1.3327058410374788,0.8996478160836402,0.288233,0.6470243091184436
0.0205,1.78949375,1.0,2387.7168270809566,0.20597103652653398,1.3322111309097275,0.9034180462410089,0.2882117375,0.6480732286341833
0.021,1.788975,1.0,2413.4441837043933,0.21042491062936775,1.3317274971888806,0.9069642818632353,0.28818995000000003,0.6490971543647999
0.021500000000000002,1.78844375,1.0,2437.671015543431,0.21485380117124853,1.3312539742181986,0.910303715477721,0.2881676375,0.6500982288413554
0.022,1.7879,1.0,2460.474872630595,0.21925785019274896,1.3307895851717049,0.9134519385286907,0.2881448,0.6510786044066691
0.0225,1.78734375,1.0,2481.9228771808935,0.22363719756387895,1.3303334851723991,0.9164231388281053,0.28812143749999997,0.6520401421360216
0.023,1.786775,1.0,2502.070396029381,0.22799198024598186,1.3298849682920748,0.9192302485256112,0.28809755,0.652984399537426
0.0235,1.78619375,1.0,2520.975202363702,0.232322335200401,1.3294433286025256,0.9218850494002488,0.28807313749999996,0.6539129248701797
0.024,1.7856,1.0,2538.697274206448,0.23662839938847974,1.3290078601755446,0.9243982910806573,0.2880482,0.654827257470374
0.0245,1.78499375,1.0,2555.2986039455272,0.24091030977156142,1.3285778570829259,0.9267797956925006,0.2880227375,0.6557289280446186
0.025,1.784375,1.0,2570.8306904119227,0.24516820009796775,1.3281527288641435,0.9290385689381079,0.28799675,0.6566192172800254
0.025500000000000002,1.78374375,1.0,2585.359821308316,0.2494022097120093,1.3277317612017896,0.9311828442015617,0.2879702375,0.6574996578430268
0.026000000000000002,1.7831000000000001,1.0,2598.9315972114514,0.2536124716671928,1.3273144467580127,0.933220206664053,0.2879432,0.6583713422943115
0.0265,1.78244375,1.0,2611.5873575515943,0.25779911742210554,1.3269003286283156,0.9351576318302016,0.2879156375,0.6592352523683012
0.027,1.781775,1.0,2623.3694572142404,0.26196227843533504,1.3264889499082022,0.9370015359651146,0.28788755,0.6600923647571411
0.0275,1.7810937500000001,1.0,2634.321179288001,0.26610208616546865,1.3260798536931753,0.9387578283797715,0.2878589375,0.6609436511971856
0.028,1.7804,1.0,2644.486652440885,0.27021867207109385,1.3256725830787381,0.9404319581929517,0.2878298,0.6617900785421633
0.0285,1.77969375,1.0,2653.9099967045704,0.2743121672147194,1.3252666883157218,0.9420289570863853,0.2878001375,0.6626325939799844
0.029,1.778975,1.0,2662.6271795049556,0.2783826982547521,1.3248618010257844,0.9435534856717868,0.28776995,0.6634719714103433
0.029500000000000002,1.7782437500000001,1.0,2670.688876726091,0.2824304013436823,1.3244574228901647,0.945009842306643,0.2877392375,0.6643092497814824
0.03,1.7775,1.0,2678.1234339697817,0.28645540196591923,1.3240532659492912,0.9464020334139044,0.287708,0.6651450281492282
0.0305,1.77674375,1.0,2684.9596077638143,0.29045782560587197,1.3236490422435931,0.9477337743331321,0.2876762375,0.6659799025982298
0.031,1.775975,1.0,2691.2265290275277,0.29443779774794976,1.3232444638134997,0.9490085141308693,0.28764395,0.6668144662433773
0.0315,1.7751937500000001,1.0,2696.9536683759156,0.2983954438765616,1.3228392426994393,0.9502294580051597,0.2876111375,0.6676493092259328
0.032,1.7744,1.0,2702.1708032616907,0.3023308894761167,1.3224330909418416,0.9513995875435134,0.2875778,0.6684850187043689
0.0325,1.77359375,1.0,2706.9079869568036,0.3062442600310241,1.322025720581135,0.9525216790631043,0.2875439375,0.669322178839926
0.033,1.772775,1.0,2711.187641913789,0.3101356760409644,1.321616915502218,0.9535983272220996,0.28750955,0.6701612234146659
0.0335,1.7719437500000002,1.0,2715.039437147199,0.31400526397885997,1.3212063953407063,0.9546319468886435,0.2874746375,0.6710027155364474
0.034,1.7711000000000001,1.0,2718.4969469914313,0.31785315299643757,1.3207938459396307,0.9556247899223365,0.2874392,0.6718472844619277
0.0345,1.7702437500000001,1.0,2721.57784681715,0.3216794617364826,1.3203790995059723,0.9565789743293283,0.2874032375,0.6726952570144844
0.035,1.7693750000000001,1.0,2724.2999354510744,0.3254843088417805,1.3199619882467117,0.9574964812923915,0.28736675,0.6735469581543722
0.035500000000000004,1.76849375,1.0,2726.681122660771,0.32926781295511665,1.3195423443688297,0.9583791655941255,0.2873297375,0.6744027109543121
0.036000000000000004,1.7676,1.0,2728.7394172624968,0.3330300927192764,1.3191200000793073,0.9592287651315498,0.2872922,0.6752628365732873
0.0365,1.76669375,1.0,2730.492915854707,0.3367712667770452,1.3186947875851254,0.9600469096106724,0.2872541375,0.6761276542285454
0.037,1.765775,1.0,2731.9597921744826,0.34049145377120854,1.3182665390932646,0.9608351285001318,0.28721555,0.6769974811658018
0.0375,1.76484375,1.0,2733.1582870790076,0.34419077234455175,1.3178350868107058,0.9615948583146089,0.2871764375,0.6778726326276503
0.038,1.7639,1.0,2734.106699150873,0.34786934113986023,1.3174002629444301,0.9623274492912871,0.28713679999999997,0.6787534218201742
0.0385,1.76294375,1.0,2734.8149661876073,0.3515272724082296,1.3169619760684053,0.9630341774355575,0.28709663750000003,0.6796400055064149
0.039,1.761975,1.0,2735.302800752489,0.35516468763379105,1.3165200463450293,0.9637162374787279,0.28705595,0.6805327176713665
0.0395,1.7609937500000001,1.0,2735.5884866190877,0.3587817054004972,1.3160743072308208,0.9643747554909866,0.2870147375,0.6814318632288161
0.04,1.76,1.0,2735.6819966798807,0.3623784373249489,1.315624667890778,0.9650107984513892,0.286973,0.6823375925345541
0.0405,1.7589937500000001,1.0,2735.5933254849697,0.3659549950237469,1.3151710374898993,0.9656253728264484,0.2869307375,0.6832500546158817
0.041,1.757975,1.0,2735.3324858190435,0.369511490113492,1.3147133251931828,0.9662194286342712,0.28688795,0.6841693971487562
0.0415,1.75694375,1.0,2734.9095054615736,0.3730480342107851,1.314251440165627,0.966793863194872,0.2868446375,0.6850957664344051
0.042,1.7559,1.0,2734.334424130208,0.37656473893222686,1.3137852915722297,0.9673495245938964,0.28680079999999997,0.6860293073754171
0.0425,1.75484375,1.0,2733.617290606739,0.3800617158944183,1.3133147885779894,0.9678872148843821,0.2867564375,0.6869701634513067
0.043000000000000003,1.753775,1.0,2732.7681600457186,0.38353907671396004,1.3128398403479042,0.9684076930488421,0.28671155,0.6879184766935517
0.043500000000000004,1.75269375,1.0,2731.797091467088,0.38699693300745297,1.3123603560469728,0.9689116777418507,0.28666613750000003,0.6888743876601033
0.044,1.7516,1.0,2730.7050421298713,0.3904353889590614,1.3118763275674257,0.969399855235861,0.2866202,0.6898378708643361
0.0445,1.75049375,1.0,2729.508669105074,0.39385456161215926,1.311387604163323,0.9698728669042948,0.2865737375,0.6908091835887298
0.045,1.7493750000000001,1.0,2728.218067362863,0.3972545602210206,1.3108940946783885,0.9703313245269611,0.28652675,0.6917884626725295
0.0455,1.74824375,1.0,2726.8384758956445,0.4006354897921618,1.3103957520785767,0.970775811442863,0.2864792375,0.6927757560318072
0.046,1.7471,1.0,2725.3751330237146,0.4039974553320991,1.309892529329842,0.971206881568325,0.2864312,0.6937711105406665
0.0465,1.7459437500000001,1.0,2723.833275572607,0.40734056184734874,1.3093843793981392,0.9716250611593593,0.28638263750000004,0.6947745720166717
0.047,1.744775,1.0,2722.2181380999473,0.41066491434442703,1.3088712552494228,0.9720308504522612,0.28633355,0.6957861852061413
0.0475,1.74359375,1.0,2720.534952171784,0.41397061782985023,1.3083531098496475,0.972424725191925,0.28628393750000003,0.6968059937692961
0.048,1.7424,1.0,2718.788945686521,0.4172577773101346,1.3078298961647676,0.9728071380565412,0.2862338,0.6978340402652691
0.0485,1.74119375,1.0,2716.9853422498036,0.4205264977917964,1.3073015671607378,0.9731785199866062,0.2861831375,0.6988703661369726
0.049,1.739975,1.0,2715.1293605964834,0.42377688428135196,1.3067680758035127,0.9735392814254948,0.28613195,0.6999150116958236
0.0495,1.73874375,1.0,2713.221768611473,0.4270090276891602,1.3062294155875416,0.9738898145584539,0.2860802375,0.7009679369544413
0.05,1.7375,1.0,2711.2735846573205,0.4302230485915756,1.3056854865263043,0.974230490492206,0.286028,0.702029283568803
0.0505,1.73624375,1.0,2709.288592341727,0.43341904851530444,1.3051362545058596,0.9745616653133664,0.2859752375,0.7030990630935436
0.051000000000000004,1.734975,1.0,2707.269375736205,0.43659712551712654,1.3045816963178791,0.9748836791295122,0.28592195,0.7041772648855972
0.051500000000000004,1.73369375,1.0,2705.218515830483,0.4397573776538218,1.3040217887540348,0.9751968566270262,0.2858681375,0.7052638774323885
0.052000000000000005,1.7324,1.0,2703.1385903745318,0.44289990298216997,1.3034565086059982,0.9755015079029322,0.2858138,0.7063588883439342
0.0525,1.73109375,1.0,2701.0321737323657,0.446024799558951,1.3028858326654413,0.9757979292448381,0.28575893750000003,0.7074622843449052
0.053,1.729775,1.0,2698.90183674756,0.4491321654409448,1.3023097377240356,0.9760864038626496,0.28570355000000003,0.7085740512666608
0.0535,1.72844375,1.0,2696.750146621201,0.4522220986849312,1.301728200573453,0.9763672025754245,0.2856476375,0.7096941740392415
0.054,1.7271,1.0,2694.5796668012217,0.45529469734768996,1.3011411980053653,0.9766405844564775,0.2855912,0.7108226366833335
0.0545,1.7257437500000001,1.0,2692.3929568841677,0.4583500594860011,1.3005487068114439,0.976906797439605,0.2855342375,0.7119594223021963
0.055,1.724375,1.0,2690.1925725282886,0.4613882831566444,1.2999507037833609,0.9771660788890807,0.28547675,0.7131045130735539
0.0555,1.72299375,1.0,2687.981065379484,0.4644094664163997,1.299347165712788,0.9774186561358742,0.2854187375,0.7142578902414563
0.056,1.7216,1.0,2685.757461599405,0.46741368117213306,1.2987381016592658,0.9776647464399527,0.2853602,0.7154194726307976
0.0565,1.72019375,1.0,2683.5274837597717,0.47040105262935533,1.2981234593111284,0.9779045594111929,0.28530113749999997,0.7165892953072895
0.057,1.718775,1.0,2681.293386214496,0.4733716803999548,1.297503218077129,0.9781382954711332,0.28524155,0.7177673317402812
0.0575,1.71734375,1.0,2679.056152095992,0.4763256544743892,1.2968773689950732,0.9783661466533533,0.2851814375,0.7189535324571529
0.058,1.7159,1.0,2676.8167629167297,0.47926306484311604,1.2962459031027658,0.9785882972222049,0.2851208,0.7201478472411567
0.0585,1.71444375,1.0,2674.5761985624245,0.4821840014965931,1.2956088114380122,0.9788049240469747,0.2850596375,0.7213502251282071
0.059000000000000004,1.7129750000000001,1.0,2672.3354372872213,0.4850885544252779,1.2949660850386175,0.9790161969551558,0.28499795,0.7225606144036705
0.059500000000000004,1.71149375,1.0,2670.0954557109985,0.4879768136196282,1.294317714942387,0.9792222790661499,0.2849357375,0.7237789625991449
0.06,1.71,1.0,2667.857228817826,0.49084886907010156,1.2936636921871258,0.9794233271066278,0.284873,0.725005216489238
0.0605,1.7084937500000001,1.0,2665.6217299569885,0.4937048107671558,1.293004007810639,0.979619491708692,0.2848097375,0.7262393220883385
0.061,1.7069750000000001,1.0,2663.389930844974,0.49654472870124844,1.2923386528507317,0.9798109176919019,0.28474595,0.7274812246473833
0.0615,1.7054437500000001,1.0,2661.1628015696383,0.4993687128628371,1.2916676183452094,0.9799977443301523,0.2846816375,0.7287308686506164
0.062,1.7039,1.0,2658.941310596824,0.5021768532423796,1.290990895331877,0.9801801056043273,0.2846168,0.729988197812349
0.0625,1.70234375,1.0,2656.72642477705,0.5049692398303334,1.2903084748485398,0.9803581304415911,0.2845514375,0.7312531550737076
0.063,1.7007750000000001,1.0,2654.5191093557237,0.5077459626171563,1.2896203479330028,0.9805319429421117,0.28448555,0.7325256825993827
0.0635,1.69919375,1.0,2652.320327984397,0.5105071115933059,1.2889265056230714,0.980701662593971,0.28441913750000003,0.7338057217743663
0.064,1.6976,1.0,2650.131046043436,0.5132527757506291,1.2882269389260155,0.980867404402678,0.2843522,0.7350932132568206
0.0645,1.69599375,1.0,2647.9522814870825,0.5159829927543791,1.2875216383494261,0.9810292754500239,0.2842847375,0.7363880978343809
0.065,1.694375,1.0,2645.7840755039374,0.5186979182072895,1.2868106034035172,0.981187387797465,0.28421675,0.7376902990284133
0.0655,1.69274375,1.0,2643.626541678446,0.5213976330319576,1.286093832929534,0.9813418441257403,0.2841482375,0.7389997409428823
0.066,1.6911,1.0,2641.4797934440376,0.5240822181509809,1.2853713257687225,0.9814927434475937,0.2840792,0.7403163470312553
0.0665,1.6894437500000001,1.0,2639.343944085919,0.5267517544869567,1.2846430807623277,0.9816401812633636,0.2840096375,0.741640040096081
0.067,1.687775,1.0,2637.219106742597,0.5294063229624822,1.2839090967515958,0.9817842497088954,0.28393955,0.7429707422885619
0.0675,1.68609375,1.0,2635.105394409341,0.5320460045001549,1.2831693725777717,0.9819250376962108,0.2838689375,0.744308375108135
0.068,1.6844000000000001,1.0,2633.002919939739,0.5346708800225721,1.2824239070821015,0.9820626310473344,0.2837978,0.7456528594020424
0.0685,1.68269375,1.0,2630.9117960485055,0.5372810304523313,1.2816726991058303,0.9821971126216548,0.2837261375,0.7470041153649121
0.069,1.680975,1.0,2628.8321353139695,0.5398765367120296,1.280915747490204,0.9823285624371753,0.28365395,0.7483620625383289
0.0695,1.67924375,1.0,2626.7640501805877,0.5424574797242646,1.2801530510764678,0.9824570577859887,0.28358123749999997,0.7497266198104147
0.07,1.6775,1.0,2624.7076529614574,0.5450239404116335,1.2793846087058676,0.9825826733442854,0.283508,0.7510977054153994
0.07050000000000001,1.67574375,1.0,2622.663055840861,0.5475759996967337,1.2786104192196488,0.9827054812771913,0.2834342375,0.7524752369332002
0.07100000000000001,1.673975,1.0,2620.6303708768673,0.5501137385021625,1.2778304814590569,0.9828255513387091,0.28335995,0.7538591312889944
0.07150000000000001,1.67219375,1.0,2618.6097100039683,0.5526372377505173,1.2770447942653376,0.9829429509670257,0.2832851375,0.755249304752796
0.07200000000000001,1.6704,1.0,2616.6011850360314,0.5551465783643955,1.276253356479736,0.9830577453754258,0.2832098,0.7566456729390303
0.0725,1.66859375,1.0,2614.6049076683835,0.5576418412663943,1.2754561669434983,0.9831699976390459,0.2831339375,0.7580481508061084
0.073,1.6667750000000001,1.0,2612.620989481143,0.5601231073791112,1.2746532244978697,0.9832797687776811,0.28305755,0.7594566526560038
0.0735,1.66494375,1.0,2610.649541941654,0.5625904576251436,1.2738445279840955,0.9833871178348509,0.2829806375,0.7608710921338263
0.074,1.6631,1.0,2608.6906764072037,0.5650439729270887,1.273030076243422,0.9834921019533158,0.2829032,0.7622913822273955
0.0745,1.6612437500000001,1.0,2606.74236318042,0.5674836864997128,1.272209888030442,0.9835947746223661,0.2828252375,0.7637174006966015
0.075,1.659375,1.0,2604.8050337765662,0.5699097163971553,1.2713839592276712,0.9836951914170592,0.28274675,0.7651490646489595
