Time [s],Phi [rad],STIM [ ],Fsee [N],Gamma [ ],Lcerel [ ],q [ ],Lmtc [m],fisomrel [ ]
0.0,1.8,1.0,17.985534678530183,0.00013920303448370074,1.379337687962084,0.0050050581797855265,0.288653,0.5411445104961117
0.0005,1.79999375,1.0,18.337451271715118,0.005747631524371519,1.3792956499998605,0.013303099096092796,0.2886527375,0.5412462050101509
0.001,1.799975,1.0,21.775099530997544,0.011324601164735278,1.378922324583586,0.03628502301979414,0.28865195,0.5421488263143224
0.0015,1.79994375,1.0,31.43200483647852,0.016870288415795322,1.3780153867649074,0.07152560485046554,0.2886506375,0.5443379061510761
0.002,1.7999,1.0,54.35568752611477,0.02238486874596904,1.3763181436984246,0.11581071766651965,0.2886488,0.5484204551127929
0.0025,1.79984375,1.0,98.41146612778637,0.02786851664024057,1.3738730892588933,0.16576282303703982,0.28864643749999996,0.5542694933928942
0.003,1.7997750000000001,1.0,162.63528191481927,0.033321405606730393,1.3711517304205496,0.21850547478254206,0.28864354999999997,0.5607346715747183
0.0035,1.79969375,1.0,239.57567280330818,0.038743708177237636,1.3685265606757115,0.271830962180107,0.2886401375,0.5669265754991426
0.004,1.7996,1.0,323.4785013996567,0.04413559591773135,1.3661028924518557,0.3240949871007783,0.2886362,0.5726041841147481
0.0045000000000000005,1.7994937500000001,1.0,411.3499073654789,0.04949723943362501,1.3638740000221972,0.37415369607603033,0.2886317375,0.5777924493234887
0.005,1.799375,1.0,501.5372955509026,0.054828808361526,1.3618132598345756,0.4212944314406229,0.28862675,0.5825611129077739
0.0055,1.79924375,1.0,592.9322198940587,0.06013047140974037,1.359897027263466,0.46514295899326213,0.2886212375,0.5869710770628825
0.006,1.7991000000000001,1.0,684.6611816906878,0.06540239631835144,1.3581074899095569,0.5055706672852979,0.2886152,0.5910683216539434
0.006500000000000001,1.79894375,1.0,776.0112529397159,0.0706447498871582,1.3564309181885736,0.5426151359639463,0.2886086375,0.5948883946404666
0.007,1.798775,1.0,866.3905307953562,0.07585769802769934,1.354856417703676,0.5764189098534828,0.28860155,0.5984595753013848
0.0075,1.79859375,1.0,955.3073187648907,0.08104140553114351,1.3533750483162208,0.607184924316269,0.2885939375,0.6018050868224127
0.008,1.7984,1.0,1042.3841254111585,0.08619603670914998,1.3519788369262993,0.6351453401858793,0.2885858,0.6049454666964593
0.0085,1.79819375,1.0,1127.2993272838955,0.09132175450610157,1.35066115216654,0.6605414892117851,0.2885771375,0.6078978200294476
0.009000000000000001,1.797975,1.0,1209.8041917541814,0.09641872089474185,1.349416029245434,0.6836106297760359,0.28856795,0.6106774187064861
0.0095,1.79774375,1.0,1289.7336162747613,0.1014870972504759,1.348237765721051,0.704578117650766,0.2885582375,0.6132986560127884
0.01,1.7975,1.0,1366.970377829722,0.10652704446344491,1.347121215281539,0.7236535037681342,0.288548,0.6157744320837609
0.0105,1.79724375,1.0,1441.406635777859,0.11153872129151653,1.3460620862624948,0.7410288954839598,0.2885372375,0.618115537154495
0.011,1.796975,1.0,1512.9941009872455,0.11652228628602412,1.3450561364678357,0.7568782241574155,0.28852595000000003,0.6203324702993952
0.0115,1.79669375,1.0,1581.7284526937392,0.12147789753196679,1.3440992845882695,0.7713579002922593,0.2885141375,0.6224352115619933
0.012,1.7964,1.0,1647.6207501959082,0.12640571236261872,1.3431878660054897,0.7846080119885349,0.28850180000000003,0.6244326805695092
0.0125,1.79609375,1.0,1710.674763663335,0.13130588573532673,1.3423187995047672,0.7967536968790944,0.2884889375,0.626332396382701
0.013000000000000001,1.7957750000000001,1.0,1770.93023209164,0.1361785726074377,1.3414890038713727,0.807906290297534,0.28847555,0.628141773708347
0.0135,1.79544375,1.0,1828.4437235393716,0.14102392712901204,1.3406955752048242,0.8181648082784271,0.2884616375,0.6298677456500447
0.014,1.7951000000000001,1.0,1883.2977582529509,0.14584210399602482,1.339935641649271,0.8276172274289468,0.2884472,0.6315170903587324
0.0145,1.79474375,1.0,1935.551184463769,0.15063325504849057,1.3392068686697538,0.836341901587192,0.2884322375,0.633095345176213
0.015,1.794375,1.0,1985.2652745144276,0.15539753104359397,1.3385071214309423,0.8444085445797743,0.28841675,0.6346075533818154
0.0155,1.79399375,1.0,2032.5197299491824,0.16013508273851984,1.3378342650975068,0.8518791731450954,0.2884007375,0.6360587032079958
0.016,1.7936,1.0,2077.4019505945694,0.16484606010952743,1.3371862600678859,0.8588090452819523,0.2883842,0.6374535268540562
0.0165,1.7931937500000001,1.0,2120.006309012586,0.16953061350208298,1.3365611492842802,0.8652474573158889,0.2883671375,0.6387965331391725
0.017,1.792775,1.0,2160.410946787244,0.174188890839469,1.3359572778021693,0.871238509627293,0.28834955,0.640091541746671
0.0175,1.7923437500000001,1.0,2198.6892677544106,0.17882103850857273,1.3353731510574522,0.8768216764715755,0.2883314375,0.6413419947378678
0.018000000000000002,1.7919,1.0,2234.9242977724684,0.18342720289628142,1.334807274486028,0.8820323054204416,0.2883128,0.6425513040536911
0.0185,1.79144375,1.0,2269.20426154155,0.18800752994657718,1.3342581894779413,0.8869021082218648,0.2882936375,0.6437227766802573
0.019,1.790975,1.0,2301.613208382786,0.1925621648297527,1.3337245573049565,0.8914596022815586,0.28827395,0.6448594383023303
0.0195,1.79049375,1.0,2332.243001233447,0.19709125355430515,1.333205030375049,0.8957304454133517,0.2882537375,0.6459643103723303
0.02,1.79,1.0,2361.157041181186,0.20159493778470516,1.3326986010954485,0.8997378383621673,0.288233,0.6470396710112617
0.0205,1.78949375,1.0,2388.4236847667976,0.20607335918542327,1.3322042618733856,0.9035027227898225,0.2882117375,0.648087781865941
0.021,1.788975,1.0,2414.115836527622,0.21052665942093002,1.3317210051160904,0.9070440319763385,0.28818995000000003,0.6491108889182741
0.021500000000000002,1.78844375,1.0,2438.310564049933,0.21495498015569597,1.3312478232307932,0.9103789109957018,0.2881676375,0.650111223229787
0.022,1.7879,1.0,2461.0715020154316,0.21935846021455235,1.3307838735922204,0.9135229424939602,0.2881448,0.6510906536075445
0.0225,1.78734375,1.0,2482.4872713626573,0.2237372427618407,1.3303281055588683,0.9164902422106628,0.28812143749999997,0.6520514753759221
0.023,1.786775,1.0,2502.610379121924,0.22809146444973932,1.3298798421062212,0.9192937216332394,0.28809755,0.6529951842218576
0.0235,1.78619375,1.0,2521.495194514819,0.2324212618494104,1.3294384107275221,0.9219451447688907,0.28807313749999996,0.653923257453203
0.024,1.7856,1.0,2539.1982276632375,0.23672677153201604,1.329003138916014,0.9244552452251363,0.2880482,0.6548371638501596
0.0245,1.78499375,1.0,2555.777948561269,0.24100813006871852,1.3285733541649403,0.9268338306550283,0.2880227375,0.6557383639438799
0.025,1.784375,1.0,2571.289317902056,0.24526547291073936,1.3281484335853773,0.9290898833527172,0.28799675,0.6566282064268598
0.025500000000000002,1.78374375,1.0,2585.786734055187,0.24949893537117682,1.3277277741849,0.9312316368931256,0.2879702375,0.657507991160112
0.026000000000000002,1.7831000000000001,1.0,2599.333657820889,0.25370865410719773,1.3273107016470962,0.9332666346393461,0.2879432,0.6583791600359872
0.0265,1.78244375,1.0,2611.969927925993,0.2578947603012388,1.3268967737025907,0.9352018415979584,0.2879156375,0.6592426637207818
0.027,1.781775,1.0,2623.736375754162,0.26205738513573673,1.3264855480820086,0.9370436645151118,0.28788755,0.6600994480025206
0.0275,1.7810937500000001,1.0,2634.674741323513,0.2661966597931282,1.3260765825159755,0.938798004056378,0.2878589375,0.6609504538734128
0.028,1.7804,1.0,2644.8275936017662,0.2703127154558498,1.3256694347351166,0.9404703014759316,0.2878298,0.6617966175998395
0.0285,1.77969375,1.0,2654.2382551576843,0.2744056833063383,1.325263662470057,0.9420655804167616,0.2878001375,0.6626388707798626
0.029,1.778975,1.0,2662.94625759581,0.2784756914038477,1.324858864619316,0.9435884889936212,0.28776995,0.663478055096457
0.029500000000000002,1.7782437500000001,1.0,2670.9921508226025,0.2825228725589034,1.3244546361356195,0.9450433297028413,0.2877392375,0.6643150162311949
0.03,1.7775,1.0,2678.40747917314,0.2865473536114865,1.3240506595075145,0.9464340979403925,0.287708,0.6651504147727834
0.0305,1.77674375,1.0,2685.2229599642924,0.2905492603667921,1.3236466287574906,0.9477645001133328,0.2876762375,0.6659848842280327
0.031,1.775975,1.0,2691.4696958246755,0.2945287186300154,1.3232422379080377,0.949037977118539,0.28764395,0.6668190549496287
0.0315,1.7751937500000001,1.0,2697.1791378025828,0.29848585420635165,1.3228371809816457,0.950257726674145,0.2876111375,0.6676535541320923
0.032,1.7744,1.0,2702.383050550221,0.30242079290099616,1.3224311520008047,0.9514267235120377,0.2875778,0.6684890058017665
0.0325,1.77359375,1.0,2707.106152134598,0.3063336552083131,1.3220239118666177,0.9525477440870999,0.2875439375,0.6693258934506404
0.033,1.772775,1.0,2711.3767455256243,0.31022456789389036,1.3216151908567122,0.9536233744526614,0.28750955,0.6701647608743642
0.0335,1.7719437500000002,1.0,2715.2297391856273,0.3140936630930487,1.3212046609971253,0.9546560220075698,0.2874746375,0.6710062683473272
0.034,1.7711000000000001,1.0,2718.683607038187,0.3179410598634057,1.320792145869376,0.9556479482658178,0.2874392,0.6718507625909469
0.0345,1.7702437500000001,1.0,2721.7569642665994,0.3217668772625787,1.3203774690549837,0.9566012668489365,0.2874032375,0.6726985883989891
0.035,1.7693750000000001,1.0,2724.4685533429024,0.32557123434818525,1.3199604541354668,0.9575179548857407,0.28736675,0.6735500886142406
0.035500000000000004,1.76849375,1.0,2726.8372307480067,0.3293542501778427,1.3195409246923446,0.9583998634071061,0.2873297375,0.6744056041031931
0.036000000000000004,1.7676,1.0,2728.881954380672,0.33311604380916854,1.319118704307136,0.959248726834828,0.2872922,0.675265473728746
0.0365,1.76669375,1.0,2730.621771657681,0.3368567342997802,1.31869361656136,0.9600661716528603,0.2872541375,0.6761300343209209
0.037,1.765775,1.0,2732.0758083031196,0.3405764407072952,1.3182654850365356,0.9608537243397858,0.28721555,0.6769996206455955
0.0375,1.76484375,1.0,2733.263257828496,0.34427528208933095,1.3178341333141816,0.9616128186330043,0.2871764375,0.6778745653712468
0.038,1.7639,1.0,2734.203371702195,0.3479533775035049,1.3173993849758174,0.9623448021877085,0.28713679999999997,0.6787551990337144
0.0385,1.76294375,1.0,2734.90530498066,0.3516108336279282,1.3169611557280025,0.9630509488843075,0.28709663750000003,0.6796416637741356
0.039,1.761975,1.0,2735.3935118152635,0.3552477822216218,1.3165192226976372,0.9637324499816148,0.28705595,0.6805343803025623
0.0395,1.7609937500000001,1.0,2735.6784834071564,0.3588643354425663,1.316073490111588,0.964390435419255,0.2870147375,0.6814335103593108
0.04,1.76,1.0,2735.770384868639,0.3624606049569281,1.3156238653903025,0.9650259705397831,0.286973,0.6823392078956767
0.0405,1.7589937500000001,1.0,2735.6794031764452,0.36603670243087366,1.315170255954228,0.9656400602827723,0.2869307375,0.683251625515773
0.041,1.757975,1.0,2735.4157436684072,0.36959273953056937,1.3147125692238113,0.9662336532404834,0.28688795,0.6841709144532774
0.0415,1.75694375,1.0,2734.9896267299655,0.3731288279221817,1.3142507126195002,0.9668076454004453,0.2868446375,0.6850972245476286
0.042,1.7559,1.0,2734.411284671232,0.37664507927187696,1.3137845935617416,0.9673628836021039,0.28680079999999997,0.6860307042196832
0.0425,1.75484375,1.0,2733.690958793721,0.38014160524582163,1.3133141194709832,0.9679001687321045,0.2867564375,0.6869715004468191
0.043000000000000003,1.753775,1.0,2732.8388966468224,0.38361851751018206,1.3128391977676717,0.9684202586804391,0.28671155,0.6879197587374988
0.043500000000000004,1.75269375,1.0,2731.8653494753144,0.38707592773112476,1.312359735872255,0.968923871077591,0.28666613750000003,0.6888756231052778
0.044,1.7516,1.0,2730.7729780347745,0.39051393256170364,1.3118757101958287,0.9694116890033048,0.2866202,0.6898390988196667
0.0445,1.75049375,1.0,2729.5756852473964,0.39393265449816445,1.3113869950166197,0.9698843559380513,0.2865737375,0.6908103932860958
0.045,1.7493750000000001,1.0,2728.2852165632917,0.3973322113371556,1.3108934841779065,0.970342482998262,0.28652675,0.691789673136868
0.0455,1.74824375,1.0,2726.906465818263,0.4007127067123991,1.3103951337782,0.9707866528282235,0.2864792375,0.6927769799962159
0.046,1.7471,1.0,2725.4443264449865,0.40407424425761673,1.3098918999160114,0.9712174186990209,0.2864312,0.6937723544848367
0.0465,1.7459437500000001,1.0,2723.903690709907,0.40741692760653025,1.3093837386898521,0.97163530626708,0.28638263750000004,0.6947758362062797
0.047,1.744775,1.0,2722.289448993491,0.4107408603928616,1.308870606198233,0.9720408152112726,0.28633355,0.6957874637332147
0.0475,1.74359375,1.0,2720.6064891129486,0.41404614625033265,1.308352458539665,0.9724344207580362,0.28628393750000003,0.6968072745935718
0.048,1.7424,1.0,2718.8596956872602,0.41733288881266517,1.3078292518126597,0.9728165751031526,0.2862338,0.6978353052565629
0.0485,1.74119375,1.0,2717.053949545856,0.420601191713581,1.307300942115728,0.9731877087380802,0.2861831375,0.6988715911185778
0.049,1.739975,1.0,2715.194127179076,0.4238511585868021,1.3067674855473812,0.9735482316880771,0.28613195,0.6999161664889582
0.0495,1.73874375,1.0,2713.285100231947,0.4270828930660503,1.3062288382061302,0.9738985346687282,0.2860802375,0.7009690645756497
0.05,1.7375,1.0,2711.3317350406023,0.43029649878504733,1.3056849561904864,0.9742389901669557,0.286028,0.7020303174707283
0.0505,1.73624375,1.0,2709.3388922112313,0.43349207937751516,1.3051357955989609,0.9745699534520746,0.2859752375,0.7030999561358073
0.051000000000000004,1.734975,1.0,2707.311410989846,0.4366697375693959,1.304581312669269,0.9748917634297638,0.28592195,0.7041780101169166
0.051500000000000004,1.73369375,1.0,2705.253777690098,0.43982955199203516,1.304021466802871,0.9752047411938572,0.2858681375,0.7052645016678281
0.052000000000000005,1.7324,1.0,2703.169618358671,0.44297165643491276,1.3034562252022848,0.9755091999048356,0.2858138,0.706359436817539
0.0525,1.73109375,1.0,2701.0610014382205,0.4460961461433449,1.302885569255948,0.9758054354946644,0.28575893750000003,0.7074627931648607
0.053,1.729775,1.0,2698.9299925659575,0.44920311636264765,1.3023094803522972,0.9760937308458912,0.28570355000000003,0.708574547478074
0.0535,1.72844375,1.0,2696.7786544822743,0.4522926623381371,1.3017279398797694,0.9763743564763698,0.2856476375,0.7096946756884894
0.054,1.7271,1.0,2694.6090469471533,0.4553648793151293,1.301140929226802,0.9766475711824122,0.2855912,0.7108231528839869
0.0545,1.7257437500000001,1.0,2692.423226663856,0.45841986253894046,1.3005484297818313,0.9769136226432166,0.2855342375,0.7119599533025371
0.055,1.724375,1.0,2690.223247210726,0.46145770725488655,1.2999504229332945,0.9771727479892178,0.28547675,0.7131050503256944
0.0555,1.72299375,1.0,2688.0111589804674,0.4644785087082837,1.299346890069629,0.9774251743367862,0.2854187375,0.7142584164720709
0.056,1.7216,1.0,2685.789009127108,0.46748236214444805,1.2987378125792715,0.9776711192915388,0.2853602,0.7154200233907911
0.0565,1.72019375,1.0,2683.5588415207403,0.4704693628086956,1.2981231718506587,0.9779107914223392,0.28530113749999997,0.716589841854919
0.057,1.718775,1.0,2681.3226967099395,0.4734396059463426,1.297502949272228,0.9781443907079256,0.28524155,0.7177678417548663
0.0575,1.71734375,1.0,2679.0826118915734,0.476393186802705,1.2968771262324164,0.9783721089579525,0.2851814375,0.7189539920917791
0.058,1.7159,1.0,2676.8406208885444,0.4793302006230989,1.2962456841196606,0.9785941302101044,0.2851208,0.7201482609709002
0.0585,1.71444375,1.0,2674.598754135581,0.48225074265284046,1.2956086043223976,0.9788106311048267,0.2850596375,0.7213506155949114
0.059000000000000004,1.7129750000000001,1.0,2672.3588105068093,0.4851549063452422,1.2949658703250528,0.9790217812038025,0.28499795,0.7225610183143627
0.059500000000000004,1.71149375,1.0,2670.118213014695,0.48804278026126463,1.2943175057991316,0.9792277451584538,0.2849357375,0.7237793551663843
0.06,1.71,1.0,2667.8785670639727,0.49091445543227247,1.2936634960029665,0.9794286792944599,0.284873,0.7250055839136342
0.0605,1.7084956414331958,1.0,2665.7334738387044,0.4937700228378831,1.2930038342093362,0.9796247342838654,0.28480981694019425,0.7262396464879715
0.061,1.7069900179024853,1.0,2664.1143279742873,0.4966095727274272,1.2923387698677449,0.9798160685803228,0.2847465807519044,0.7274810064802733
0.0615,1.705484394371775,1.0,2663.0383432673652,0.49943319499506406,1.2916687114399787,0.9800028429966089,0.28468334456361455,0.7287288353537704
0.062,1.7039787708410645,1.0,2662.4615008206843,0.5022409789892059,1.2909940610187254,0.9801852119518467,0.2846201083753247,0.7299823228693569
0.0625,1.7024731473103543,1.0,2662.351482344554,0.5050330115584821,1.2903151145533254,0.9803633184395617,0.28455687218703485,0.7312408618044948
0.063,1.7009675237796438,1.0,2662.6583527645216,0.5078093839687008,1.2896323313280897,0.9805373089366204,0.28449363599874505,0.7325035479893356
0.0635,1.6994619002489335,1.0,2663.3431896386887,0.5105701853448649,1.2889460701622844,0.9807073193146219,0.2844303998104552,0.7337696700821819
0.064,1.697956276718223,1.0,2664.3810646462052,0.5133155014986873,1.2882565617379205,0.9808734738132289,0.28436716362216535,0.7350387583387514
0.0645,1.6964506531875128,1.0,2665.747103506758,0.5160454182418811,1.2875640367370096,0.9810358922174278,0.28430392743387556,0.7363103468607008
0.065,1.6949450296568023,1.0,2667.4164699623234,0.5187600213861588,1.2868687258415634,0.981194690055925,0.2842406912455857,0.7375839736417026
0.0655,1.693439406126092,1.0,2669.3643509386056,0.5214593967432335,1.2861708597335932,0.9813499787893832,0.28417745505729586,0.7388591806101279
0.066,1.6919337825953815,1.0,2671.565942886303,0.524143630124818,1.2854706690951108,0.9815018659890883,0.284114218869006,0.7401355136683347
0.0665,1.6904281590646713,1.0,2673.9964393023847,0.526812807342625,1.284768384608127,0.9816504555065847,0.28405098268071616,0.7414125227285646
0.067,1.6889225355339608,1.0,2676.6401477903005,0.529467010750906,1.2840641531659458,0.9817958433447641,0.28398774649242636,0.7426899135399045
0.0675,1.6874169120032505,1.0,2679.4708035353683,0.5321063287786525,1.2833582186073513,0.9819381272939914,0.2839245103041365,0.7439672192208817
0.068,1.68591128847254,1.0,2682.474756283648,0.5347308438392606,1.2826507087886787,0.9820773959229996,0.28386127411584666,0.7452441862922754
0.0685,1.6844056649418295,1.0,2685.6398103003553,0.5373406376789462,1.2819417381112042,0.9822137341434705,0.28379803792755687,0.7465205877258712
0.069,1.6829000414111193,1.0,2688.9537553807268,0.5399357920439255,1.2812314209762043,0.9823472240345761,0.283734801739267,0.7477961985194672
0.0695,1.681394417880409,1.0,2692.4043632903267,0.5425163886804143,1.2805198717849555,0.9824779449598182,0.28367156555097717,0.7490707957071178
0.07,1.6798887943496985,1.0,2695.9793844946544,0.5450825093346287,1.279807204938734,0.9826059736783122,0.2836083293626873,0.7503441583685375
0.07050000000000001,1.678383170818988,1.0,2699.6665451790195,0.5476342357527846,1.2790935348388164,0.9827313844508131,0.28354509317439747,0.7516160676376734
0.07100000000000001,1.6768775472882778,1.0,2703.4562903729993,0.5501716470564835,1.2783789508081325,0.9828542478313452,0.28348185698610767,0.7528863512339393
0.07150000000000001,1.6753719237575673,1.0,2707.340419168916,0.5526948224957138,1.2776635296152556,0.9829746315460077,0.2834186207978178,0.7541548607193815
0.07200000000000001,1.673866300226857,1.0,2711.302306018811,0.5552038504388701,1.276947424687093,0.9830926051730323,0.28335538460952797,0.7554213136453665
0.0725,1.6723606766961467,1.0,2715.3367960594287,0.5576988079505751,1.2762306844995166,0.9832082307195132,0.2832921484212382,0.7566856152453079
0.073,1.6708550531654363,1.0,2719.438721440523,0.5601797720954518,1.2755133575283981,0.9833215682395396,0.2832289122329483,0.7579476716308325
0.0735,1.669349429634726,1.0,2723.602900668665,0.5626468199381229,1.2747954922496092,0.9834326759097233,0.2831656760446585,0.7592073897936702
0.074,1.6678438061040155,1.0,2727.8241380022055,0.5651000285432114,1.2740771371390218,0.9835416101013451,0.2831024398563686,0.760464677607391
