Time [s],Phi [rad],STIM [ ],Fsee [N],Gamma [ ],Lcerel [ ],q [ ],Lmtc [m],fisomrel [ ]
0.0,1.8,1.0,17.96740228633409,1.0040680662147248e-05,1.3793397188703496,0.005000026868193384,0.288653,0.5411395972173603
0.0005,1.79999375,1.0,18.27672533216205,0.005619193669178508,1.3793023898793635,0.012940626960648845,0.2886527375,0.5412299012493729
0.001,1.799975,1.0,21.618361521242125,0.011196883744351542,1.3789383041601384,0.035608788693308094,0.28865195,0.5421102093119848
0.0015,1.79994375,1.0,31.06918717846273,0.01674328738910895,1.378046207888768,0.07060199551401353,0.2886506375,0.5442635991738596
0.002,1.7999,1.0,53.582203019404005,0.0222585800947284,1.3763681436771453,0.11471818052745873,0.2886488,0.5483004477838639
0.0025,1.79984375,1.0,97.11854080239979,0.027742936368398922,1.3739351863825502,0.16457504815243246,0.28864643749999996,0.5541214170441564
0.003,1.7997750000000001,1.0,160.9577481041204,0.03319652974094018,1.3712143594292483,0.21728061355632713,0.28864354999999997,0.5605864137548879
0.0035,1.79969375,1.0,237.68290889265938,0.03861953276639234,1.3685847472519077,0.270613046550704,0.2886401375,0.5667898089708141
0.004,1.7996,1.0,321.46637229998436,0.04401211703279871,1.3661561029651859,0.32291595431872944,0.2886362,0.5724799370578706
0.0045000000000000005,1.7994937500000001,1.0,409.2673947159225,0.049374453167390135,1.3639228225249789,0.37303465248026235,0.2886317375,0.5776791430020815
0.005,1.799375,1.0,499.4131765844022,0.05470671082767416,1.3618583493079337,0.42024759670395406,0.28862675,0.5824570632529893
0.0055,1.79924375,1.0,590.7901214883638,0.060009058748909314,1.3599388408142723,0.46417382469701335,0.2886212375,0.5868750984479527
0.006,1.7991000000000001,1.0,682.5178385193005,0.06528166468724048,1.3581464196518034,0.504680079087727,0.2886152,0.5909794071766402
0.006500000000000001,1.79894375,1.0,773.8810943193873,0.07052469547531896,1.3564672564090394,0.5418008673936185,0.2886086375,0.5948057879726153
0.007,1.798775,1.0,864.2856065440361,0.07573831700590038,1.354890398302278,0.5756768803757749,0.28860155,0.598382669620059
0.0075,1.79859375,1.0,953.2431077836212,0.0809226942415767,1.3534067808465597,0.6065100068029365,0.2885939375,0.6017335690423204
0.008,1.7984,1.0,1040.344925825988,0.08607799082672213,1.3520088455290615,0.6345322591319636,0.2885858,0.6048781016240348
0.0085,1.79819375,1.0,1125.3151022260097,0.09120437084485021,1.3506892291157895,0.6599845060685054,0.2885771375,0.6078350273666241
0.009000000000000001,1.797975,1.0,1207.9002338086807,0.09630199621712648,1.349442034323289,0.6831042660178042,0.28856795,0.6106194663520452
0.0095,1.79774375,1.0,1287.8915941542723,0.10137102749446883,1.3482621318960784,0.7041175497635824,0.2885582375,0.6132445391811178
0.01,1.7975,1.0,1365.1664813370119,0.10641162522779518,1.3471443925786766,0.7232342932411194,0.288548,0.61572312085836
0.0105,1.79724375,1.0,1439.6599034213962,0.11142394933975187,1.346083941328213,0.740646714296628,0.2885372375,0.6180673008760522
0.011,1.796975,1.0,1511.322803693316,0.11640815858223998,1.345076546441953,0.7565291768977628,0.28852595000000003,0.6202875545143326
0.0115,1.79669375,1.0,1580.1209406718756,0.12136441013549662,1.3441184839163363,0.7710386580753689,0.2885141375,0.622393077254854
0.012,1.7964,1.0,1646.0558745605006,0.1262928605975348,1.3432061782567293,0.7843156394022818,0.28850180000000003,0.6243925995102365
0.0125,1.79609375,1.0,1709.1732652788362,0.13119366697004856,1.3423360429424542,0.796485370603906,0.2884889375,0.6262947503268563
0.013000000000000001,1.7957750000000001,1.0,1769.5066889226875,0.13606698405086462,1.3415050712340117,0.8076595304309613,0.28847555,0.6281067803617748
0.0135,1.79544375,1.0,1827.0921284107183,0.14091296524353283,1.3407105884119872,0.817937499505135,0.2884616375,0.6298351241835378
0.014,1.7951000000000001,1.0,1881.9931877911602,0.145731763951603,1.3399499197569658,0.8274075614980255,0.2884472,0.6314861353865834
0.0145,1.79474375,1.0,1934.2805056061025,0.1505235326646578,1.3392205867123579,0.8361482208764943,0.2884322375,0.6330656682095781
0.015,1.794375,1.0,1984.0513929021622,0.15528842435692716,1.3385200610306043,0.8442292433500289,0.28841675,0.6345796182392729
0.0155,1.79399375,1.0,2031.372386869064,0.1600265889413868,1.337846352266545,0.8517128687140426,0.2884007375,0.6360326602684618
0.016,1.7936,1.0,2076.313983431398,0.16473817565094578,1.3371975971102923,0.858654560604371,0.2883842,0.6374291470122608
0.0165,1.7931937500000001,1.0,2118.9609488269193,0.1694233337185132,1.3365719322519578,0.8651037692665758,0.2883671375,0.6387733878194628
0.017,1.792775,1.0,2159.3974220044965,0.17408221132527216,1.3359676340995021,0.871104684160162,0.28834955,0.6400693521606602
0.0175,1.7923437500000001,1.0,2197.724451517145,0.17871495745201124,1.3353829233780217,0.8766968002760068,0.2883314375,0.641321092813814
0.018000000000000002,1.7919,1.0,2234.0168637226507,0.1833217178438108,1.3348163907130335,0.8819155825206187,0.2883128,0.642531838360642
0.0185,1.79144375,1.0,2268.3484241542,0.18790263743728927,1.3342667221055542,0.8867928611549624,0.2882936375,0.6437045870306385
0.019,1.790975,1.0,2300.800407706697,0.19245786116906521,1.3337326035566,0.8913572280314427,0.28827395,0.6448423128932822
0.0195,1.79049375,1.0,2331.454482838416,0.19698753311124467,1.3332127847897106,0.8956344229551654,0.2882537375,0.6459478318006568
0.02,1.79,1.0,2360.3973485601264,0.20149179787963967,1.3327060261181691,0.8996476454612226,0.288233,0.6470239164051537
0.0205,1.78949375,1.0,2387.7065327647783,0.20597079848448582,1.3322112309543939,0.9034178683704355,0.2882117375,0.6480730166701734
0.021,1.788975,1.0,2413.4449257175766,0.21042467526162442,1.331727490016219,0.9069640923517641,0.28818995000000003,0.6490971695393473
0.021500000000000002,1.78844375,1.0,2437.6793534523354,0.21485356854689683,1.3312538940214786,0.9103035222597763,0.2881676375,0.6500983982640529
0.022,1.7879,1.0,2460.480250274787,0.21925761867614432,1.3307895336880065,0.9134517616201575,0.2881448,0.6510787130180844
0.0225,1.78734375,1.0,2481.915299482482,0.2236369647302261,1.3303335574046062,0.9164229945835827,0.28812143749999997,0.6520399899630667
0.023,1.786775,1.0,2502.054992109949,0.22799174674294517,1.329885114533201,0.9192301256490159,0.28809755,0.6529840918667632
0.0235,1.78619375,1.0,2520.965848005554,0.2323221038548721,1.3294434170768974,0.9218849233574669,0.28807313749999996,0.6539127389818158
0.024,1.7856,1.0,2538.6987002736946,0.23662817131026476,1.3290078467348454,0.9243981544750874,0.2880482,0.6548272856725144
0.0245,1.78499375,1.0,2555.3062550141326,0.2409100843533811,1.3285777852061944,0.926779656421747,0.2880227375,0.6557290786638774
0.025,1.784375,1.0,2570.8429341780393,0.24516797822847902,1.3281526141900941,0.9290384302383394,0.28799675,0.6566194572710691
0.025500000000000002,1.78374375,1.0,2585.364726900017,0.24940198817981643,1.3277317153856942,0.9311827231235252,0.2879702375,0.6574997536044334
0.026000000000000002,1.7831000000000001,1.0,2598.9207977176347,0.2536122473825311,1.3273145473570458,0.9332201134188337,0.2879432,0.6583711322973604
0.0265,1.78244375,1.0,2611.5646866431844,0.2577988912453096,1.3269005392994162,0.9351575595331044,0.2879156375,0.6592348131560932
0.027,1.781775,1.0,2623.3490044102027,0.2619620541016807,1.3264891395400833,0.9370014647878013,0.28788755,0.6600919699055359
0.0275,1.7810937500000001,1.0,2634.3107444905877,0.26610186559563304,1.326079950239883,0.9387577481058136,0.2878589375,0.6609434504195008
0.028,1.7804,1.0,2644.487683250931,0.27021845537115513,1.3256725735596515,0.9404318673209812,0.2878298,0.6617900983132442
0.0285,1.77969375,1.0,2653.918312415068,0.2743119530722356,1.3252666116602245,0.9420288611474491,0.2878001375,0.6626327529945049
0.029,1.778975,1.0,2662.641775035974,0.278382488342863,1.3248616667024378,0.9435533868228069,0.28776995,0.663472249704446
0.029500000000000002,1.7782437500000001,1.0,2670.6978049765203,0.282430190827026,1.3244573408471276,0.9450097539180495,0.2877392375,0.664309419548504
0.03,1.7775,1.0,2678.1202212316566,0.2864551877315771,1.3240532954306532,0.9464019618083421,0.287708,0.66514496722109
0.0305,1.77674375,1.0,2684.947608641546,0.2904576090734707,1.323649152212134,0.9477337151692912,0.2876762375,0.6659796756134148
0.031,1.775975,1.0,2691.2141065821456,0.2944375824164002,1.3232445775290473,0.9490084581787054,0.28764395,0.666814231817818
0.0315,1.7751937500000001,1.0,2696.945729683807,0.2983952317652495,1.3228393152933033,0.9502294001195218,0.2876111375,0.667649159760686
0.032,1.7744,1.0,2702.1687809284294,0.30233068112490225,1.3224331094168136,0.9513995263376634,0.2875778,0.6684849807136644
0.0325,1.77359375,1.0,2706.9098242283985,0.3062440545002422,1.3220257038114882,0.9525216166107141,0.2875439375,0.6693222132803434
0.033,1.772775,1.0,2711.1956584584364,0.3101354758961531,1.3216168423892383,0.9535982617984727,0.28750955,0.6701613733787497
0.0335,1.7719437500000002,1.0,2715.0532929425053,0.31400506931751865,1.3212062690619744,0.9546318789544574,0.2874746375,0.6710029742196637
0.034,1.7711000000000001,1.0,2718.4994870934847,0.3178529540494829,1.32079382280439,0.9556247344647238,0.2874392,0.6718473317938316
0.0345,1.7702437500000001,1.0,2721.567675728914,0.32167925760629923,1.3203791920918664,0.9565789320079228,0.2874032375,0.6726950678398054
0.035,1.7693750000000001,1.0,2724.2835792846104,0.32548410257144694,1.31996213706013,0.9574964459518502,0.28736675,0.6735466544895237
0.035500000000000004,1.76849375,1.0,2726.6634922327735,0.32926760689254536,1.319542504705832,0.9583791328051865,0.2873297375,0.6744023842038371
0.036000000000000004,1.7676,1.0,2728.723803155223,0.333029888517214,1.3191201420256233,0.9592287320694005,0.2872922,0.6752625476835012
0.0365,1.76669375,1.0,2730.4809845962013,0.33677106539307206,1.3186948960161549,0.9600468749430832,0.2872541375,0.6761274338432789
0.037,1.765775,1.0,2731.9515834333247,0.34049125546773906,1.3182666136740777,0.9608350922845443,0.28721555,0.6769973297845515
0.0375,1.76484375,1.0,2733.1522117686563,0.34419057668883435,1.3178351419960426,0.9615948219034556,0.2871764375,0.6778725207664397
0.038,1.7639,1.0,2734.099538337728,0.3478691470039773,1.3174003279787005,0.9623274152448713,0.28713679999999997,0.6787532901754252
0.0385,1.76294375,1.0,2734.8102801463115,0.3515270842319056,1.316962018621358,0.9630341434966297,0.28709663750000003,0.6796399194881184
0.039,1.761975,1.0,2735.3023475988457,0.35516449921000776,1.3165200504596535,0.9637162009116929,0.28705595,0.6805327093654925
0.0395,1.7609937500000001,1.0,2735.5895302699814,0.3587815165099991,1.316074297754992,0.9643747186012154,0.2870147375,0.6814318823300023
0.04,1.76,1.0,2735.6824463593125,0.3623782478942061,1.315624663807983,0.9650107629304043,0.286973,0.6823376007528628
0.0405,1.7589937500000001,1.0,2735.5917362624705,0.365954805124955,1.3151710519192361,0.9656253397914346,0.2869307375,0.6832500256126346
0.041,1.757975,1.0,2735.3280588929224,0.3695112999645722,1.314713365389361,0.9662193986645508,0.28688795,0.6841693164709903
0.0415,1.75694375,1.0,2734.9020882110985,0.3730478441753841,1.3142515075189671,0.9667938363655915,0.2868446375,0.6850956314478844
0.042,1.7559,1.0,2734.3245099608685,0.3765645495197171,1.3137853816086644,0.9673495005071413,0.28680079999999997,0.6860291271961252
0.0425,1.75484375,1.0,2733.606018613864,0.3800615277598974,1.313314890959062,0.9678871926979242,0.2867564375,0.6869699588753544
0.043000000000000003,1.753775,1.0,2732.7573145196775,0.3835388906582514,1.3128399388707699,0.9684076715027005,0.28671155,0.687918280125424
0.043500000000000004,1.75269375,1.0,2731.788095017141,0.38699674935242245,1.3123604377869822,0.9689116558184684,0.28666613750000003,0.6888742248262909
0.044,1.7516,1.0,2730.7052155003166,0.3904352130054836,1.3118763259919017,0.9693998284846642,0.2866202,0.6898378739980646
0.0445,1.75049375,1.0,2729.5163614877815,0.3938543898610695,1.311387534242631,0.969872836087344,0.2865737375,0.6908093224435403
0.045,1.7493750000000001,1.0,2728.228647283867,0.3972543875298001,1.310893998488407,0.9703312922277091,0.28652675,0.6917886533925077
0.0455,1.74824375,1.0,2726.8491862096266,0.40063531362229543,1.3103956546784667,0.9707757792356958,0.2864792375,0.6927759488416009
0.046,1.7471,1.0,2725.3839548801607,0.40399727448580697,1.3098924490819064,0.9712068506565735,0.2864312,0.6937712691390883
0.0465,1.7459437500000001,1.0,2723.841257537497,0.40734037863014944,1.3093843067697164,0.9716250311233615,0.28638263750000004,0.694774715320861
0.047,1.744775,1.0,2722.2267132734946,0.410664731460987,1.3088711772002164,0.9720308206798967,0.28633355,0.6957863389507415
0.0475,1.74359375,1.0,2720.5447527643532,0.4139704370986873,1.3083530206193856,0.9724246954930335,0.28628393750000003,0.6968061692439438
0.048,1.7424,1.0,2718.799803941823,0.4172575996636181,1.3078297972732036,0.9728071086447126,0.2862338,0.6978342344092423
0.0485,1.74119375,1.0,2716.996291466605,0.4205263232761469,1.30730146740765,0.9731784914620661,0.2861831375,0.6988705616361768
0.049,1.739975,1.0,2715.135755679212,0.4237767119046854,1.3067680175210326,0.9735392565460185,0.28613195,0.6999151257213503
0.0495,1.73874375,1.0,2713.209539989093,0.42700886790589215,1.306229527074163,0.9738898031767289,0.2860802375,0.7009677192217297
0.05,1.7375,1.0,2711.277341311276,0.43022289572202976,1.305685452265169,0.9742304704258198,0.286028,0.7020293503617316
0.0505,1.73624375,1.0,2709.3173077269084,0.4334188956978164,1.3051359925227823,0.9745616305450182,0.2859752375,0.7030995729181649
0.051000000000000004,1.7349752535997047,1.0,2707.320167897635,0.4365969681779702,1.3045813472757348,0.9748836387047257,0.2859219606511876,0.7041779428944459
0.051500000000000004,1.7337027715339006,1.0,2705.6727402740257,0.4397572135072096,1.3040217159527585,0.9751968339339908,0.2858685164044238,0.7052640185878196
0.052000000000000005,1.7324302894680965,1.0,2704.549982037993,0.4428997320302527,1.3034572979825851,0.9755015400009532,0.28581507215766006,0.7063573606540451
0.0525,1.7311578074022926,1.0,2703.930107017987,0.4460246230367291,1.3028882893463187,0.9757980659088265,0.2857616279108963,0.7074575388292752
0.053,1.7298853253364885,1.0,2703.7586643983427,0.4491319867697501,1.3023151857507,0.9760867258471605,0.28570818366413253,0.7085635473996165
0.0535,1.7286128432706847,1.0,2703.996464443749,0.452221921617108,1.3017383447008113,0.9763678115182117,0.28565473941736874,0.7096746534987703
0.054,1.7273403612048805,1.0,2704.614650274871,0.45529452428478545,1.3011580301910084,0.9766415961043233,0.28560129517060495,0.7107903088376011
0.0545,1.7260678791390764,1.0,2705.5844362655353,0.45834989147876515,1.3005745062156475,0.9769083410744944,0.2855478509238412,0.7119099687921546
0.055,1.7247953970732726,1.0,2706.8770884843107,0.4613881199050298,1.2999880367690844,0.9771682967922627,0.28549440667707743,0.7130330924599186
0.0555,1.7235229150074685,1.0,2708.4639066820378,0.4644093062695621,1.299398885845675,0.9774217030872493,0.2854409624303137,0.714159142711634
0.056,1.7222504329416644,1.0,2710.326862558562,0.4674135431975013,1.298807220250216,0.9776687837187757,0.2853875181835499,0.7152877714487846
0.0565,1.7209779508758605,1.0,2712.429130480485,0.470400932145699,1.298213378356466,0.9779097639709066,0.2853340739367861,0.716418306662064
0.057,1.7197054688100564,1.0,2714.754394338903,0.47337156605100605,1.2976175114032051,0.9781448483921369,0.2852806296900224,0.71755043656302
0.0575,1.7184329867442523,1.0,2717.287465632502,0.47632553737914957,1.2970197603589897,0.9783742326170621,0.2852271854432586,0.7186838710340827
0.058,1.7171605046784484,1.0,2720.0131518365156,0.47926293859585667,1.2964202661923765,0.9785981044237088,0.28517374119649486,0.719818322035844
0.0585,1.7158880226126443,1.0,2722.9162507340898,0.48218386216685444,1.2958191698719213,0.9788166441153769,0.28512029694973107,0.7209535036233654
0.059000000000000004,1.7146155405468404,1.0,2725.981545188771,0.48508840055787006,1.2952166123661808,0.9790300248810526,0.2850668527029673,0.7220891319612122
0.059500000000000004,1.7133430584810363,1.0,2729.1937983572343,0.48797664623463055,1.294612734643711,0.979238413135747,0.2850134084562035,0.7232249253372267
0.06,1.7120705764152322,1.0,2732.5378537523848,0.49084869157166644,1.2940076767245499,0.9794419687831648,0.28495996420943975,0.7243606059535479
0.0605,1.7107980943494283,1.0,2736.0095223372546,0.49370462049598873,1.2934014788058799,0.9796408395392298,0.284906519962676,0.7254960849315142
0.061,1.7095256122836242,1.0,2739.5845012883988,0.49654453610866545,1.2927943635527879,0.9798351787266923,0.28485307571591223,0.7266309332644065
0.0615,1.70825313021782,1.0,2743.2562274796387,0.4993685256787726,1.2921863922667869,0.9800251241169256,0.28479963146914844,0.7277650260654316
0.062,1.7069806481520162,1.0,2747.0181247949176,0.5021766764753862,1.2915776262493899,0.9802108083188568,0.28474618722238465,0.7288982393838365
0.0625,1.7057081660862121,1.0,2750.863603006715,0.5049690757675822,1.29096812680211,0.9803923590129118,0.2846927429756209,0.7300304502081353
0.063,1.704435684020408,1.0,2754.7860567371195,0.5077458108244365,1.2903579552264606,0.9805698991726868,0.2846392987288571,0.7311615364690967
0.0635,1.7031632019546041,1.0,2758.7788645034407,0.5105069689150252,1.2897471728239545,0.980743547275075,0.2845858544820934,0.7322913770424919
0.064,1.7018907198888,1.0,2762.835387845554,0.5132526373084243,1.2891358408961047,0.9809134174995361,0.2845324102353296,0.7334198517516022
0.0645,1.700618237822996,1.0,2766.9489705377887,0.5159829032737098,1.2885240207444244,0.9810796199171372,0.2844789659885658,0.7345468413694864
0.065,1.699345755757192,1.0,2771.112937883728,0.5186978540799575,1.2879117736704266,0.9812422606699663,0.2844255217418021,0.7356722276210109
0.0655,1.698073273691388,1.0,2775.3205960938426,0.5213975769962436,1.2872991609756246,0.9814014421414723,0.2843720774950383,0.736795893184637
0.066,1.6968007916255838,1.0,2779.571842076698,0.5240821459407506,1.2866861844197575,0.9815572592841542,0.2843186332482745,0.7379178305575281
0.0665,1.69552830955978,1.0,2783.8557360918603,0.5267516626069437,1.2860729432997102,0.9817098103707611,0.28426518900151077,0.7390378543107168
0.067,1.6942558274939759,1.0,2788.1681476379113,0.5294062124024708,1.2854594753735036,0.9818591862065942,0.284211744754747,0.7401558926003957
0.0675,1.692983345428172,1.0,2792.506783535716,0.532045876553536,1.2848458017747628,0.9820054734064865,0.2841583005079832,0.741271904372744
0.068,1.6917108633623679,1.0,2796.8693435973596,0.5346707362863435,1.284231943637114,0.982148755634698,0.28410485626121945,0.7423858489039175
0.0685,1.6904383812965638,1.0,2801.2535205345334,0.5372808728270977,1.2836179220941821,0.9822891137266234,0.28405141201445566,0.743497685800314
0.069,1.6891658992307599,1.0,2805.6569998774794,0.5398763674020024,1.2830037582795935,0.9824266258046759,0.28399796776769193,0.7446073749988056
0.0695,1.6878934171649558,1.0,2810.077459902779,0.542457301237262,1.2823894733269734,0.9825613673886601,0.28394452352092814,0.745714876766947
0.07,1.6866209350991517,1.0,2814.5125715723384,0.5450237555590806,1.2817750883699477,0.9826934115009369,0.28389107927416435,0.7468201517031511
0.07050000000000001,1.6853484530333478,1.0,2818.959998481014,0.5475758115936622,1.2811606245421416,0.9828228287666555,0.2838376350274006,0.7479231607368395
0.07100000000000001,1.6840759709675437,1.0,2823.417396814902,0.5501135505672111,1.2805461029771814,0.9829496875093189,0.2837841907806368,0.749023865128561
0.07150000000000001,1.6828034889017398,1.0,2827.882415319407,0.5526370537059314,1.2799315448086923,0.9830740538419265,0.2837307465338731,0.7501222264700864
0.07200000000000001,1.6815310068359357,1.0,2832.352695276931,0.5551464022360273,1.2793169711703,0.98319599175393,0.2836773022871093,0.7512182066844699
0.0725,1.6802585247701316,1.0,2836.82587049498,0.5576416773837028,1.2787024031956302,0.9833155631942189,0.2836238580403455,0.7523117680260853
0.073,1.6789860427043277,1.0,2841.303914606653,0.5601229338610968,1.2780878232882098,0.9834328248977359,0.2835704137935818,0.7534029417692136
