Time [s],Phi [rad],STIM [ ],Fsee [N],Gamma [ ],Lcerel [ ],q [ ],Lmtc [m],fisomrel [ ]
0.0,1.8,1.0,19.78825029970928,0.0013785041306869526,1.3791406462854479,0.005486661926712662,0.288653,0.54162107887198
0.0005,1.79999375,1.0,20.48269771244162,0.006979981121410565,1.379064328000102,0.01717148668832144,0.2886527375,0.5418055970594103
0.001,1.799975,1.0,24.848902998677804,0.0125500382556278,1.378619835271098,0.043090501676998474,0.28865195,0.5428795291431331
0.0015,1.79994375,1.0,36.68411918447681,0.0180888517727673,1.3775876908970304,0.08061073662383858,0.2886506375,0.5453684173566602
0.002,1.7999,1.0,63.80152889106783,0.023596596925680557,1.3757340793829234,0.1264228132458704,0.2886488,0.5498211147648823
0.0025,1.79984375,1.0,112.73096618264272,0.029073447983969485,1.373210884051238,0.1772141973463097,0.28864643749999996,0.5558470536533591
0.003,1.7997750000000001,1.0,180.31004969147367,0.0345195782376496,1.370510538584473,0.23025761726439173,0.28864354999999997,0.5622510867278183
0.0035,1.79969375,1.0,259.03456623995163,0.03993516000597127,1.3679412012066825,0.2834761270896169,0.2886401375,0.5683012514495651
0.004,1.7996,1.0,343.8835153036091,0.045320364638859446,1.365572363245563,0.33533967799001935,0.2886362,0.5738419873439227
0.0045000000000000005,1.7994937500000001,1.0,432.28290426447086,0.05067536254574591,1.3633899497319972,0.3848063280348275,0.2886317375,0.578915001383216
0.005,1.799375,1.0,522.7388198345684,0.05600032311073,1.3613683375059011,0.43124640552040366,0.28862675,0.5835871321690724
0.0055,1.79924375,1.0,614.2210432443607,0.0612954149360062,1.3594855084319728,0.4743473140869703,0.2886212375,0.5879150804445346
0.006,1.7991000000000001,1.0,705.8650823244184,0.06656080538590126,1.3577255973804645,0.5140236602246774,0.2886152,0.5919400413864471
0.006500000000000001,1.79894375,1.0,797.0139991881714,0.07179666124312764,1.3560752702527614,0.5503404966162583,0.2886086375,0.5956964346760936
0.007,1.798775,1.0,887.0790816596285,0.07700314801976857,1.3545246066246037,0.5834572358953477,0.28860155,0.5992101508216519
0.0075,1.79859375,1.0,975.6068206963054,0.08218043056332341,1.3530647979685884,0.6135854003704742,0.2885939375,0.6025039809802293
0.008,1.7984,1.0,1062.2165307969317,0.08732867268186657,1.3516885030335761,0.6409608152189612,0.2885858,0.6055969286798544
0.0085,1.79819375,1.0,1146.602338880707,0.09244803696325171,1.3503892920368976,0.6658248311694375,0.2885771375,0.6085055613070207
0.009000000000000001,1.797975,1.0,1228.5595326140801,0.0975386859568618,1.349160946369473,0.6884124209218356,0.28856795,0.6112456426351214
0.0095,1.79774375,1.0,1307.9147102102147,0.1026007806394035,1.347998194377585,0.7089458981516099,0.2885582375,0.613830537978127
0.01,1.7975,1.0,1384.5320086761271,0.10763448062842028,1.3468963696343965,0.727631215119259,0.288548,0.616272030403304
0.0105,1.79724375,1.0,1458.340389157683,0.11263994526197958,1.345850894292177,0.7446563070364978,0.2885372375,0.6185815016495582
0.011,1.796975,1.0,1529.3169516170187,0.11761733360713633,1.3448573905864925,0.7601911020006501,0.28852595000000003,0.6207697071360823
0.0115,1.79669375,1.0,1597.442982297697,0.1225668030421595,1.3439121094709856,0.7743884366152336,0.2885141375,0.6228458576505639
0.012,1.7964,1.0,1662.7091534168628,0.12748850949185384,1.3430117450038586,0.787385089745831,0.28850180000000003,0.6248180573641835
0.0125,1.79609375,1.0,1725.146233100552,0.13238260886519276,1.3421529933277085,0.7993029370688323,0.2884889375,0.6266942894033452
0.013000000000000001,1.7957750000000001,1.0,1784.806955588265,0.13724925600676072,1.341332715987622,0.8102504467715606,0.28847555,0.628482069504188
0.0135,1.79544375,1.0,1841.7556099476624,0.1420886060018849,1.3405480052762304,0.8203240970514909,0.2884616375,0.6301883166529991
0.014,1.7951000000000001,1.0,1896.0379037214,0.14690081085362497,1.3397964639519444,0.8296097785530234,0.2884472,0.6318187598397799
0.0145,1.79474375,1.0,1947.7226681045354,0.15168602256504074,1.3390756947731735,0.8381838043087501,0.2884322375,0.6333790599939086
0.015,1.794375,1.0,1996.890430676113,0.1564443924157479,1.3383834006890936,0.8461140522083704,0.28841675,0.6348745986546058
0.0155,1.79399375,1.0,2043.6339123526789,0.16117607212014806,1.3377173541913143,0.8534609447790007,0.2884007375,0.6363105506314362
0.016,1.7936,1.0,2088.0393330569764,0.16588121202460845,1.3370755704225747,0.8602783808557576,0.2883842,0.6376915172968618
0.0165,1.7931937500000001,1.0,2130.171982900912,0.17055995961239048,1.3364564279214017,0.8666145386420604,0.2883671375,0.6390212758621512
0.017,1.792775,1.0,2170.1089482264874,0.17521246236675547,1.335858305226321,0.8725124446437974,0.28834955,0.6403035676355336
0.0175,1.7923437500000001,1.0,2207.938123847625,0.17983886777096478,1.3352795808758593,0.8780105820136038,0.2883314375,0.6415421002796815
0.018000000000000002,1.7919,1.0,2243.746812998485,0.18443932218842676,1.3347187383799253,0.8831434511651354,0.2883128,0.642740325820635
0.0185,1.79144375,1.0,2277.6294737314934,0.1890139728058703,1.3341742765504034,0.8879420111553974,0.2882936375,0.6439016354974951
0.019,1.790975,1.0,2309.663284156316,0.1935629641453788,1.3336449428496846,0.8924341437982009,0.28827395,0.6450288651493326
0.0195,1.79049375,1.0,2339.9164245443585,0.19808643890370492,1.3331296370577537,0.8966449800703298,0.2882537375,0.6461245054648257
0.02,1.79,1.0,2368.4626555283203,0.20258453977760127,1.3326272589545962,0.9005971757183523,0.288233,0.647191028700102
0.0205,1.78949375,1.0,2395.380851625215,0.2070574094638205,1.3321367083201978,0.904311188463521,0.2882117375,0.6482308896244383
0.021,1.788975,1.0,2420.7428527756474,0.2115051889160912,1.331656997946853,0.9078055447149647,0.28818995000000003,0.6492462873497484
0.021500000000000002,1.78844375,1.0,2444.6339656707814,0.2159280214374944,1.3311870499981664,0.9110970093955071,0.2881676375,0.6502395979384951
0.022,1.7879,1.0,2467.1188118500063,0.22032604656161134,1.330726021250537,0.9142008394483374,0.2881448,0.6512126877161651
0.0225,1.78734375,1.0,2488.2537488043763,0.2246994020066224,1.3302731764595264,0.9171309186420172,0.28812143749999997,0.6521671840284904
0.023,1.786775,1.0,2508.0977671442674,0.22904822549070772,1.3298277803806968,0.9198998814473758,0.28809755,0.6531047043658891
0.0235,1.78619375,1.0,2526.7122711574366,0.23337265473204755,1.3293890977696097,0.9225192427330848,0.28807313749999996,0.6540268567299825
0.024,1.7856,1.0,2544.1607122385317,0.23767282740677045,1.3289563948798628,0.9249995126936594,0.2880482,0.6549352368228436
0.0245,1.78499375,1.0,2560.496217096462,0.24194887779287125,1.3285290537114236,0.9273503167527205,0.2880227375,0.6558311889906778
0.025,1.784375,1.0,2575.7916449083214,0.24620094598188688,1.3281062873340692,0.9295804389995884,0.28799675,0.6567164037367769
0.025500000000000002,1.78374375,1.0,2590.089650901992,0.2504291643740187,1.3276876068128338,0.9316979770903329,0.2879702375,0.657591939863768
0.026000000000000002,1.7831000000000001,1.0,2603.4341210890775,0.25463366536946813,1.3272725232127514,0.9337103625337428,0.2879432,0.658458850605737
0.0265,1.78244375,1.0,2615.870069426215,0.25881458136843644,1.3268605475988566,0.9356244244688909,0.2879156375,0.6593181837480089
0.027,1.781775,1.0,2627.4435402775152,0.26297204477112507,1.3264511910361834,0.9374464465595613,0.28788755,0.6601709817316879
0.0275,1.7810937500000001,1.0,2638.201516176587,0.2671061879777354,1.3260439645897664,0.9391822178223216,0.2878589375,0.6610182817429437
0.028,1.7804,1.0,2648.181866661006,0.27121713935768527,1.3256384712756974,0.9408370899453831,0.2878298,0.6618609248253404
0.0285,1.77969375,1.0,2657.437375812883,0.27530503460922534,1.3252341831649217,0.9424159892483635,0.2878001375,0.6627000194548667
0.029,1.778975,1.0,2666.0034883643852,0.2793700024360167,1.324830738500752,0.9439234911388109,0.28776995,0.6635363243783674
0.029500000000000002,1.7782437500000001,1.0,2673.9112093558706,0.28341216945062175,1.3244278212920932,0.9453638360211978,0.2877392375,0.664370499909648
0.03,1.7775,1.0,2681.192009791564,0.28743166226560296,1.3240251155478506,0.9467409530353421,0.287708,0.6652032031065116
0.0305,1.77674375,1.0,2687.8777845014224,0.29142860749352273,1.3236223052769287,0.9480584868475578,0.2876762375,0.6660350877782091
0.031,1.775975,1.0,2694.0008122161753,0.2954031317469436,1.3232190744882326,0.9493198218197799,0.28764395,0.6668668044865126
0.0315,1.7751937500000001,1.0,2699.5937178566874,0.29935536163842785,1.3228151071906673,0.950528103841693,0.2876111375,0.6676990005404273
0.032,1.7744,1.0,2704.6826217349962,0.3032854200601369,1.32241014962518,0.9516862665133456,0.2875778,0.668532192023817
0.0325,1.77359375,1.0,2709.2974174639985,0.3071934330749557,1.3220039159257275,0.9527970392012892,0.2875439375,0.6693669583179114
0.033,1.772775,1.0,2713.475575840142,0.3110795310755236,1.3215960533325375,0.9538629598242605,0.28750955,0.6702040130131879
0.0335,1.7719437500000002,1.0,2717.236347182071,0.31494383405401477,1.3211863771993164,0.9548864129619843,0.2874746375,0.6710437216249312
0.034,1.7711000000000001,1.0,2720.599138797144,0.31878646200260347,1.3207747028797705,0.9558696256978313,0.2874392,0.6718864476798309
0.0345,1.7702437500000001,1.0,2723.583499673334,0.322607534913464,1.3203608457276055,0.9568146798752526,0.2874032375,0.6727325526935375
0.035,1.7693750000000001,1.0,2726.2091059264594,0.3264071727787706,1.319944621096528,0.9577235232638452,0.28736675,0.6735823961460432
0.035500000000000004,1.76849375,1.0,2728.4957470042214,0.33018549559069754,1.319525844340244,0.9585979797434231,0.2873297375,0.6744363354548921
0.036000000000000004,1.7676,1.0,2730.4633126454764,0.33394262334141905,1.3191043308124595,0.9594397586026605,0.2872922,0.6752947259462131
0.0365,1.76669375,1.0,2732.1317805956537,0.33767867602310936,1.3186798958668808,0.9602504630384188,0.2872541375,0.6761579208235777
0.037,1.765775,1.0,2733.5211426288042,0.3413937734975676,1.3182523554244368,0.9610315979604642,0.28721555,0.677026269983412
0.0375,1.76484375,1.0,2734.647799658779,0.3450880265712435,1.3178215586110773,0.9617845783995115,0.2871764375,0.6779000538329897
0.038,1.7639,1.0,2735.5333734638625,0.34876156435765887,1.3173873076333045,0.9625107339967673,0.28713679999999997,0.6787796458969457
0.0385,1.76294375,1.0,2736.189486420507,0.35241450007929276,1.3169494959133181,0.9632113209903211,0.28709663750000003,0.6796652329090993
0.039,1.761975,1.0,2736.627796444719,0.3560469469586243,1.316508016873318,0.9638875221058758,0.28705595,0.6805570001751257
0.0395,1.7609937500000001,1.0,2736.859992193373,0.35965901821813256,1.316062763935504,0.9645404516464507,0.2870147375,0.6814551315479906
0.04,1.76,1.0,2736.897788515756,0.36325082708029666,1.3156136305220756,0.9651711601773457,0.286973,0.6823598094026619
0.0405,1.7589937500000001,1.0,2736.752922158137,0.36682248676759566,1.3151605100552326,0.9657806388425012,0.2869307375,0.6832712146100945
0.041,1.757975,1.0,2736.437147719625,0.3703741105025087,1.3147032959571745,0.9663698233448299,0.28688795,0.6841895265104945
0.0415,1.75694375,1.0,2735.962233859859,0.37390581150751473,1.3142418816501016,0.9669395976199142,0.2868446375,0.6851149228858532
0.042,1.7559,1.0,2735.339959758914,0.37741770300509303,1.313776160556213,0.9674907972296278,0.28680079999999997,0.6860475799317654
0.0425,1.75484375,1.0,2734.568645345279,0.38090987523188186,1.3133061483893105,0.9680242188410733,0.2867564375,0.6869874278745388
0.043000000000000003,1.753775,1.0,2733.6718235271123,0.38438246450330454,1.3128316319799298,0.9685406052687554,0.28671155,0.6879348534208347
0.043500000000000004,1.75269375,1.0,2732.662593651282,0.38783558896972814,1.31235249289024,0.9690406646187938,0.28666613750000003,0.6888900516111371
0.044,1.7516,1.0,2731.5464604363087,0.39126935349610475,1.3118686816696488,0.9695250712571981,0.2866202,0.6898530784235819
0.0445,1.75049375,1.0,2730.328930670362,0.3946838629473868,1.3113801488675636,0.9699944645691096,0.2865737375,0.6908239888112689
0.045,1.7493750000000001,1.0,2729.0155121707194,0.39807922218852626,1.3108868450333921,0.9704494511123762,0.28652675,0.6918028366874478
0.0455,1.74824375,1.0,2727.6117127987354,0.4014555360844755,1.3103887207165419,0.9708906066183215,0.2864792375,0.6927896749105502
0.046,1.7471,1.0,2726.12303952842,0.40481290950018656,1.3098857264664203,0.971318477851921,0.2864312,0.6937845552690655
0.0465,1.7459437500000001,1.0,2724.554997569381,0.4081514473006117,1.3093778128324352,0.9717335843425211,0.28638263750000004,0.6947875284662587
0.047,1.744775,1.0,2722.9130895438093,0.4114712543507032,1.3088649303639937,0.9721364199952565,0.28633355,0.6957986441047365
0.0475,1.74359375,1.0,2721.2028147183414,0.4147724355154131,1.3083470296105035,0.9725274545924429,0.28628393750000003,0.6968179506708523
0.048,1.7424,1.0,2719.4296682889953,0.4180550956596937,1.307824061121372,0.9729071351934155,0.2862338,0.6978454955189599
0.0485,1.74119375,1.0,2717.59914072156,0.4213193396484971,1.3072959754460072,0.9732758874405658,0.2861831375,0.6988813248555069
0.049,1.739975,1.0,2715.7167171451315,0.4245652723467756,1.3067627231338161,0.9736341167786682,0.28613195,0.6999254837229772
0.0495,1.73874375,1.0,2713.7878768007104,0.42779299861948133,1.3062242547342064,0.9739822095939968,0.2860802375,0.7009780159836729
0.05,1.7375,1.0,2711.8180925435927,0.4310026233315665,1.305680520796586,0.9743205342791897,0.286028,0.7020389643033417
0.0505,1.73624375,1.0,2709.8088107739586,0.43419423044378724,1.3051315085397377,0.9746494422812526,0.2859752375,0.703108298776352
0.051000000000000004,1.734975,1.0,2707.7674149479553,0.43736794345455454,1.304577150990095,0.9749692699093232,0.28592195,0.7041860940521585
0.051500000000000004,1.73369375,1.0,2705.6970887879584,0.44052386441073177,1.304017419420976,0.9752803382984342,0.2858681375,0.7052723491345996
0.052000000000000005,1.7324,1.0,2703.599969670363,0.44366208956903525,1.303452294622863,0.9755829541600644,0.2858138,0.7063670436483391
0.0525,1.73109375,1.0,2701.4781921539497,0.44678271518618146,1.3028817573862375,0.9758774105828162,0.28575893750000003,0.7074701563859196
0.053,1.729775,1.0,2699.3338878761197,0.44988583751888683,1.3023057885015812,0.9761639877524089,0.28570355000000003,0.7085816653011392
0.0535,1.72844375,1.0,2697.169185458358,0.45297155282386786,1.3017243687593758,0.97644295362765,0.2856476375,0.7097015475024113
0.054,1.7271,1.0,2694.9862104192252,0.456039957357841,1.3011374789501033,0.9767145645754227,0.2855912,0.7108297792460971
0.0545,1.7257437500000001,1.0,2692.7870850955296,0.45909114737752255,1.3005450998642454,0.976979065967504,0.2855342375,0.7119663359298176
0.055,1.724375,1.0,2690.5739285719756,0.4621252191396291,1.2999472122922837,0.9772366927418057,0.28547675,0.7131111920857388
0.0555,1.72299375,1.0,2688.3488566189935,0.465142268900877,1.2993437970247002,0.9774876699304407,0.2854187375,0.7142643213738364
0.056,1.7216,1.0,2686.1139816383243,0.46814239291798276,1.2987348348519765,0.97773221315683,0.2853602,0.7154256965751351
0.0565,1.72019375,1.0,2683.8714126173772,0.4711256874476628,1.298120306564594,0.9779705291039071,0.28530113749999997,0.7165952895849249
0.057,1.718775,1.0,2681.623255091339,0.47409224874663347,1.2975001929530352,0.978202815955322,0.28524155,0.7177730714059529
0.0575,1.71734375,1.0,2679.3714294253423,0.4770421716727952,1.2968744764746352,0.9784292637826617,0.2851814375,0.7189590089856865
0.058,1.7159,1.0,2677.1127097468548,0.47997550791076626,1.296243186790181,0.9786500538785015,0.2851208,0.7201529792104527
0.0585,1.71444375,1.0,2674.8568717772623,0.48289241176086667,1.2956062342300405,0.9788653624735947,0.2850596375,0.7213550838148419
0.059000000000000004,1.7129750000000001,1.0,2672.604401272381,0.4857929705343573,1.294963614309711,0.9790753577247397,0.28499795,0.7225652622236992
0.059500000000000004,1.71149375,1.0,2670.3557831684993,0.48867727154249907,1.2943153225446893,0.9792802011659373,0.2849357375,0.7237834531741566
0.06,1.71,1.0,2668.111501584232,0.49154540209655273,1.2936613544504727,0.9794800480188789,0.284873,0.7250095947140109
0.0605,1.7084937500000001,1.0,2665.8720398239725,0.4943974495077792,1.293001705542558,0.9796750474865505,0.2848097375,0.7262436242001025
0.061,1.7069750000000001,1.0,2663.6378803805037,0.49723350108743936,1.2923363713364426,0.9798653430309974,0.28474595,0.7274854782966885
0.0615,1.7054437500000001,1.0,2661.4095049394177,0.500053644146794,1.2916653473476232,0.9800510726362106,0.2846816375,0.7287350929738212
0.062,1.7039,1.0,2659.187394383065,0.502857965997104,1.2909886290915968,0.9802323690570469,0.2846168,0.7299924035057177
0.0625,1.70234375,1.0,2656.9720287950227,0.5056465539496303,1.2903062120838609,0.9804093600550166,0.2845514375,0.7312573444691339
0.063,1.7007750000000001,1.0,2654.7638874655877,0.5084194953156336,1.289618091839912,0.9805821686217268,0.28448555,0.7325298497417356
0.0635,1.69919375,1.0,2652.5634488971673,0.511176877406375,1.2889242638752476,0.9807509131907153,0.28441913750000003,0.7338098525004665
0.064,1.6976,1.0,2650.371190809918,0.513918787533115,1.2882247237053646,0.9809157078383547,0.2843522,0.735097285219918
0.0645,1.69599375,1.0,2648.1875901489675,0.5166453130071147,1.2875194668457597,0.9810766624744703,0.2842847375,0.7363920796706955
0.065,1.694375,1.0,2646.0131230904935,0.519356541139635,1.2868084888119304,0.981233883023267,0.28421675,0.7376941669177831
0.0655,1.69274375,1.0,2643.8482650495134,0.5220525592419366,1.2860917851193738,0.9813874715951245,0.2841482375,0.7390034773189096
0.066,1.6911,1.0,2641.693490687694,0.5247334546252804,1.2853693512835864,0.9815375266497837,0.2840792,0.7403199405229115
0.0665,1.6894437500000001,1.0,2639.5492739213223,0.5273993146009274,1.284641182820066,0.9816841431514144,0.2840096375,0.7416434854680927
0.067,1.687775,1.0,2637.4160879300757,0.5300502264801383,1.2839072752443088,0.9818274127160201,0.28393955,0.7429740403805876
0.0675,1.68609375,1.0,2635.2960637132064,0.5326862717346416,1.2831676087291581,0.9819674226284133,0.2838689375,0.7443115604802628
0.068,1.6844000000000001,1.0,2633.188489094861,0.5353075326481073,1.2824221897280212,0.9821042584442673,0.2837978,0.745655952644227
0.0685,1.68269375,1.0,2631.093203428904,0.5379140909913825,1.2816710195992884,0.9822380024973899,0.2837261375,0.7470071323912542
0.069,1.680975,1.0,2629.01013179218,0.5405060283689228,1.2809140989102723,0.9823687342550451,0.28365395,0.7483650160504776
0.0695,1.67924375,1.0,2626.939199432576,0.5430834263851835,1.2801514282282846,0.9824965304817347,0.28358123749999997,0.7497295193292484
0.07,1.6775,1.0,2624.8803317679917,0.5456463666446199,1.2793830081206383,0.9826214653481707,0.283508,0.7511005573133398
0.07050000000000001,1.67574375,1.0,2622.833454384828,0.5481949307516875,1.2786088391546448,0.9827436105351302,0.2834342375,0.7524780444671596
0.07100000000000001,1.673975,1.0,2620.7991039432395,0.5507291998967211,1.2778289162307204,0.9828630350475771,0.28335995,0.753861904674947
0.07150000000000001,1.67219375,1.0,2618.7734238053067,0.5532492538809782,1.2770432750109615,0.9829798073740398,0.2832851375,0.755251989066329
0.07200000000000001,1.6704,1.0,2616.760138872722,0.55575517229459,1.2762518808308625,0.9830939905667093,0.2832098,0.7566482727596013
0.0725,1.66859375,1.0,2614.761860875039,0.5582470345370507,1.2754547093110833,0.9832056460531361,0.2831339375,0.7580507114743196
0.073,1.6667750000000001,1.0,2612.7766225705013,0.5607249193857978,1.2746517785766107,0.9833148351185799,0.28305755,0.7594591853466339
0.0735,1.66494375,1.0,2610.801750682358,0.5631889052306087,1.27384311334273,0.9834216173461029,0.2829806375,0.7608735627383953
0.074,1.6631,1.0,2608.8365847264436,0.5656390701238007,1.2730287196488745,0.9835260495707239,0.2829032,0.7622937444097457
0.0745,1.6612437500000001,1.0,2606.881538495356,0.5680754914734621,1.2722085935522476,0.9836281863408629,0.2828252375,0.7637196479474084
0.075,1.6593750121123247,1.0,2604.938952900639,0.5704982461446606,1.2713827186439794,0.9837280798974536,0.28274675050871767,0.7651512118029423
