Time [s],Phi [rad],STIM [ ],Fsee [N],Gamma [ ],Lcerel [ ],q [ ],Lmtc [m],fisomrel [ ]
0.0,1.8,1.0,18.50784503671233,0.0007491006500612227,1.3792796201994533,0.0051445055695106216,0.288653,0.5412849799150462
0.0005,1.79999375,1.0,19.042090750601254,0.006354108096654069,1.379218244529598,0.015119108564429565,0.2886527375,0.5414334279843434
0.001,1.799975,1.0,22.932732563850458,0.011927675883047557,1.3788060411391552,0.03956337455604967,0.28865195,0.5424297933561246
0.0015,1.79994375,1.0,33.61249355874018,0.01746998036161445,1.3778337883852467,0.07594716836026606,0.2886506375,0.5447756006200657
0.002,1.7999,1.0,58.54790479747434,0.02298119689404377,1.3760531307078798,0.12100476210603475,0.2886488,0.5490562591989868
0.0025,1.79984375,1.0,105.03541364575206,0.028461499859167544,1.3735611634483373,0.17138646560033394,0.28864643749999996,0.5550129373824126
0.003,1.7997750000000001,1.0,170.98582874454615,0.033911062658643215,1.3708446694992218,0.22428946488736978,0.28864354999999997,0.5614611961224905
0.0035,1.79969375,1.0,248.86575343566798,0.0393300577192618,1.3682442448297425,0.2775713311845231,0.2886401375,0.567589847416367
0.004,1.7996,1.0,333.2781861758394,0.04471865650261901,1.3658460751269856,0.329644368524491,0.2886362,0.5732036011294005
0.0045000000000000005,1.7994937500000001,1.0,421.4437757343809,0.05007702950932102,1.3636390912271479,0.37941532674468154,0.2886317375,0.5783374085825703
0.005,1.799375,1.0,511.78370718509933,0.05540534623481034,1.3615970844682104,0.4262130706850784,0.28862675,0.5830597847706951
0.0055,1.79924375,1.0,603.2519157401501,0.060703775421911736,1.3596966380711648,0.46969395780857903,0.2886212375,0.5874308946438185
0.006,1.7991000000000001,1.0,694.9613630915363,0.06597248453336828,1.3579212511227532,0.5097513529416529,0.2886152,0.5914935522790914
0.006500000000000001,1.79894375,1.0,786.2285214234239,0.07121164035952779,1.3562573118177923,0.546436676818943,0.2886086375,0.5952829329603326
0.007,1.798775,1.0,876.4721490310142,0.07642140867921415,1.354694235627771,0.5799009306105365,0.28860155,0.5988265281008652
0.0075,1.79859375,1.0,965.208051130415,0.08160195422888325,1.3532233215345346,0.6103515644169177,0.2885939375,0.6021469551151493
0.008,1.7984,1.0,1052.0692644610533,0.08675344123452748,1.3518367107582174,0.6380225389042535,0.2885858,0.605264441845786
0.0085,1.79819375,1.0,1136.7333439693832,0.09187603229274921,1.3505279968186263,0.6631553443511977,0.2885771375,0.60819554670383
0.009000000000000001,1.797975,1.0,1218.9693883170546,0.09696988950415235,1.3492911324149213,0.685986176573364,0.28856795,0.6109556913785139
0.0095,1.79774375,1.0,1298.6267243043999,0.10203517463203847,1.3481203721763668,0.7067387761881597,0.2885582375,0.6135593318743235
0.01,1.7975,1.0,1375.5633147131005,0.10707204736878609,1.3470110185927797,0.7256210490994147,0.288548,0.6160183449464334
0.0105,1.79724375,1.0,1449.6939396564576,0.11208066703018084,1.3459585757435946,0.7428230153147912,0.2885372375,0.6183439536653812
0.011,1.796975,1.0,1520.9840848924352,0.11706119221596108,1.3449587177453879,0.7585166225447895,0.28852595000000003,0.6205468209549038
0.0115,1.79669375,1.0,1589.4285197908112,0.12201378110717649,1.3440074537951046,0.772856484465939,0.2885141375,0.6226367083335747
0.012,1.7964,1.0,1655.0130408977373,0.12693858962527632,1.3431014783923023,0.7859811350941228,0.28850180000000003,0.6246217331792618
0.0125,1.79609375,1.0,1717.7634749717147,0.13183577366073504,1.3422374936663344,0.7980140485758285,0.2884889375,0.626509878600082
0.013000000000000001,1.7957750000000001,1.0,1777.7251830884177,0.13670548797190463,1.3414123988939448,0.8090651440391693,0.28847555,0.628308590183297
0.0135,1.79544375,1.0,1834.9761531325794,0.14154788813294217,1.3406230925757874,0.8192321067738981,0.2884616375,0.6300252194008501
0.014,1.7951000000000001,1.0,1889.5557539849588,0.14636312612222754,1.3398672185382976,0.828601990188577,0.2884472,0.6316654137852075
0.0145,1.79474375,1.0,1941.525804265803,0.15115135387815784,1.33914242792274,0.8372521385986745,0.2884322375,0.6332347371896337
0.015,1.794375,1.0,1990.9685823778723,0.15591272328294806,1.338446378835679,0.8452513095083519,0.28841675,0.6347386755517093
0.0155,1.79399375,1.0,2037.967100608714,0.16064738479706583,1.3377769239706414,0.8526607399909868,0.2884007375,0.6361822373499093
0.016,1.7936,1.0,2082.622246790456,0.16535548995554325,1.3371319037940006,0.8595349696586786,0.2883842,0.6375704063910483
0.0165,1.7931937500000001,1.0,2124.998266258952,0.17003718631263423,1.336509693497064,0.8659227939516699,0.2883671375,0.6389069712452553
0.017,1.792775,1.0,2165.171323014711,0.17469262142259265,1.335908668271139,0.8718677835805042,0.28834955,0.6401956842484373
0.0175,1.7923437500000001,1.0,2203.2285039118055,0.17932194283967245,1.3353272033075327,0.8774089018063204,0.2883314375,0.6414402637817239
0.018000000000000002,1.7919,1.0,2239.253336450304,0.18392529671515806,1.3347638097264696,0.8825810811665867,0.2883128,0.6426441061779977
0.0185,1.79144375,1.0,2273.345228940674,0.18850283084905495,1.3342169270861306,0.8874156406487309,0.2882936375,0.643810732299439
0.019,1.790975,1.0,2305.577656988226,0.19305468933312536,1.3336853319297972,0.8919408023906039,0.28827395,0.6449429185424141
0.0195,1.79049375,1.0,2336.019900689485,0.1975810150457489,1.3331679059119022,0.8961819879953484,0.2882537375,0.646043196652672
0.02,1.79,1.0,2364.746928893238,0.20208195086530517,1.3326635306868775,0.9001621111501573,0.288233,0.6471140795629494
0.0205,1.78949375,1.0,2391.8389217613353,0.20655763967017376,1.3321710879091553,0.9039018588510476,0.2882117375,0.6481580623636742
0.021,1.788975,1.0,2417.3672964382195,0.21100822240754336,1.3316895898624634,0.9074199654368915,0.28818995000000003,0.6491773468650217
0.021500000000000002,1.78844375,1.0,2441.4187164564432,0.2154338427113252,1.3312179414249496,0.9107333777743397,0.2881676375,0.6501743471881971
0.022,1.7879,1.0,2464.0556540384873,0.21983463979282045,1.3307553164584511,0.913857522073635,0.2881448,0.6511508948803248
0.0225,1.78734375,1.0,2485.3353525136126,0.22421075154497985,1.3303009679416198,0.9168064280212033,0.28812143749999997,0.652108643421011
0.023,1.786775,1.0,2505.3177374926972,0.22856231586075415,1.3298541488531068,0.9195928607702982,0.28809755,0.6530492362384963
0.0235,1.78619375,1.0,2524.0651924760355,0.23288947063309406,1.3294141121715641,0.9222284524124134,0.28807313749999996,0.6539743070861612
0.024,1.7856,1.0,2541.638977051278,0.23719235313631715,1.3289801426174994,0.9247238236573435,0.2880482,0.6548854137862556
0.0245,1.78499375,1.0,2558.09362610478,0.24147109916999807,1.328551606854079,0.9270886944387612,0.2880227375,0.6557839337806208
0.025,1.784375,1.0,2573.503197173605,0.24572584754540544,1.3281277048700368,0.9293319327764776,0.28799675,0.6566715857676084
0.025500000000000002,1.78374375,1.0,2587.910292333138,0.24995673085394893,1.3277079467709942,0.9314617150693392,0.2879702375,0.6575494311962347
0.026000000000000002,1.7831000000000001,1.0,2601.3587579646996,0.25416388168703824,1.3272918426625737,0.9334855439675572,0.2879432,0.6584185259137025
0.0265,1.78244375,1.0,2613.8935810901385,0.25834743263608306,1.326878902650397,0.9354103129769504,0.2879156375,0.6592799202872202
0.027,1.781775,1.0,2625.5607910281487,0.26250751629249314,1.3264686368400864,0.9372423640812826,0.28788755,0.6601346593105095
0.0275,1.7810937500000001,1.0,2636.4073663710687,0.2666442652476781,1.3260605553372637,0.9389875392121556,0.2878589375,0.6609837826950101
0.028,1.7804,1.0,2646.474997362707,0.2707578084004817,1.3256542250180516,0.9406512331281104,0.2878298,0.6618282070404726
0.0285,1.77969375,1.0,2655.812148766838,0.27484828092259816,1.3252491571127605,0.9422384217182256,0.2878001375,0.6626689598132617
0.029,1.778975,1.0,2664.4521535457543,0.2789158105577404,1.3248450085592585,0.9437537225439981,0.28776995,0.6635067615246661
0.029500000000000002,1.7782437500000001,1.0,2672.427793770773,0.2829605244173348,1.3244414463065246,0.9452014101236502,0.2877392375,0.6643423084136815
0.03,1.7775,1.0,2679.772335811491,0.2869825496128077,1.3240381373035377,0.9465854447568738,0.287708,0.6651762932807833
0.0305,1.77674375,1.0,2686.519485550714,0.2909820132555855,1.323634748499277,0.947909499607969,0.2876762375,0.6660094054968423
0.031,1.775975,1.0,2692.7033460590505,0.2949590424570946,1.3232309468427212,0.9491769851347347,0.28764395,0.6668423310049678
0.0315,1.7751937500000001,1.0,2698.35418469372,0.29891376118564905,1.3228264376152643,0.9503910749380122,0.2876111375,0.6676756733948912
0.032,1.7744,1.0,2703.498753886176,0.3028462926632644,1.3224209609765114,0.9515547256681136,0.2875778,0.6685099614891037
0.0325,1.77359375,1.0,2708.178488806737,0.30675677346960584,1.3220141254682152,0.952670678984131,0.2875439375,0.6693459917058054
0.033,1.772775,1.0,2712.4136063117876,0.3106453239188445,1.321605735642321,0.9537415088210687,0.28750955,0.6701841543429896
0.0335,1.7719437500000002,1.0,2716.224505162622,0.31451206432515155,1.321195596050774,0.9547696166872788,0.2874746375,0.6710248376198598
0.034,1.7711000000000001,1.0,2719.631748721163,0.31835711500269814,1.3207835112455197,0.9557572452661122,0.2874392,0.6718684276562357
0.0345,1.7702437500000001,1.0,2722.6560484936326,0.3221805962656555,1.3203692857785039,0.9567064907917889,0.2874032375,0.6727153084495259
0.035,1.7693750000000001,1.0,2725.3182485206307,0.3259826284281947,1.3199527242016715,0.9576193143228342,0.28736675,0.6735658618492638
0.035500000000000004,1.76849375,1.0,2727.6393106143155,0.32976333180448697,1.3195336310669683,0.9584975520228055,0.2873297375,0.6744204675292047
0.036000000000000004,1.7676,1.0,2729.640300442314,0.3335228267087035,1.3191118109263398,0.9593429245460381,0.2872922,0.6752795029569898
0.0365,1.76669375,1.0,2731.3423744592005,0.3372612334550153,1.3186870683317309,0.9601570456155728,0.2872541375,0.6761433433613734
0.037,1.765775,1.0,2732.7664518112133,0.3409786719241562,1.318259210704535,0.9609414300613884,0.28721555,0.677012355872852
0.0375,1.76484375,1.0,2733.923538263154,0.3446752504604134,1.3178281361098099,0.9616975072005554,0.2871764375,0.6778867216102173
0.038,1.7639,1.0,2734.8398720492596,0.3483511024850137,1.3173936047428487,0.9624266126471966,0.28713679999999997,0.6787668994526158
0.0385,1.76294375,1.0,2735.5267238053484,0.3520063408741445,1.3169555131708233,0.9631300114789624,0.28709663750000003,0.6796530697404977
0.039,1.761975,1.0,2735.995399782065,0.3556410785039934,1.3165137579609045,0.9638088946491823,0.28705595,0.680545411420491
0.0395,1.7609937500000001,1.0,2736.2572371826864,0.35925542825074785,1.3160682356802638,0.9644643841252875,0.2870147375,0.6814441020215729
0.04,1.76,1.0,2736.3235997372767,0.3628495029905954,1.315618842896072,0.9650975376181431,0.286973,0.6823493176305633
0.0405,1.7589937500000001,1.0,2736.2058735142323,0.3664234155997236,1.315165476175501,0.9657093529388636,0.2869307375,0.6832612328669316
0.041,1.757975,1.0,2735.9154629694194,0.36997727895431987,1.3147080320857216,0.9663007720160621,0.28688795,0.6841800208569273
0.0415,1.75694375,1.0,2735.4637872318613,0.3735112059305718,1.3142464071939055,0.9668726846032747,0.2868446375,0.6851058532070222
0.042,1.7559,1.0,2734.8622766273693,0.3770253094046669,1.3137804980672234,0.967425931703416,0.28680079999999997,0.6860388999766748
0.0425,1.75484375,1.0,2734.122369438755,0.3805197022527927,1.313310201272847,0.9679613087345545,0.2867564375,0.6869793296504085
0.043000000000000003,1.753775,1.0,2733.2472754936093,0.38399448242285317,1.3128354881651543,0.9684795721655672,0.28671155,0.6879271598994567
0.043500000000000004,1.75269375,1.0,2732.2522035761085,0.3874497735229704,1.3123562211617126,0.9689814336400456,0.28666613750000003,0.6888826246861457
0.044,1.7516,1.0,2731.1499996042203,0.39088569433901116,1.3118722841293369,0.969467568341302,0.2866202,0.6898459132396371
0.0445,1.75049375,1.0,2729.9461542392887,0.39430234964567634,1.3113836277544135,0.9699386194556862,0.2865737375,0.6908170802503215
0.045,1.7493750000000001,1.0,2728.6461592670885,0.3976998442176667,1.3108902027233276,0.9703951971102067,0.28652675,0.6917961793706897
0.0455,1.74824375,1.0,2727.2555066122704,0.40107828282968294,1.3103919597224651,0.9708378803896398,0.2864792375,0.6927832632004068
0.046,1.7471,1.0,2725.7796874073474,0.404437770256426,1.3098888494382117,0.9712672192117483,0.2864312,0.6937783832712416
0.0465,1.7459437500000001,1.0,2724.2241911151373,0.4077784112725966,1.309380822556953,0.9716837360718595,0.28638263750000004,0.6947815900318342
0.047,1.744775,1.0,2722.594504704833,0.4111003106528955,1.3088678297650749,0.9720879276670652,0.28633355,0.695792932832311
0.0475,1.74359375,1.0,2720.8961118831307,0.41440357317202353,1.3083498217489626,0.9724802664094048,0.28628393750000003,0.6968124599087467
0.048,1.7424,1.0,2719.1344923777087,0.41768830360468145,1.3078267491950024,0.9728612018365971,0.2862338,0.6978402183674652
0.0485,1.74119375,1.0,2717.3151212762236,0.4209546067255701,1.3072985627895795,0.9732311619281412,0.2861831375,0.6988762541691929
0.049,1.739975,1.0,2715.4434684176554,0.4242025873093902,1.3067652132190797,0.9735905543339534,0.28613195,0.6999206121130503
0.0495,1.73874375,1.0,2713.5249978390425,0.42743235013084263,1.3062266511698888,0.9739397675221019,0.2860802375,0.7009733358203931
0.05,1.7375,1.0,2711.5642281736878,0.43064399639947454,1.305682835892652,0.9742791720117749,0.286028,0.7020344510224044
0.0505,1.73624375,1.0,2709.5616677018115,0.43383761328931775,1.305133763175526,0.9746091220431824,0.2859752375,0.7031039112574682
0.051000000000000004,1.734975,1.0,2707.5280753576835,0.43701332965566847,1.3045793352576738,0.9749299542334802,0.28592195,0.7041818511925815
0.051500000000000004,1.73369375,1.0,2705.465577496383,0.4401712419216503,1.3040195330524098,0.9752419913902164,0.2858681375,0.7052682510286821
0.052000000000000005,1.7324,1.0,2703.37629779767,0.4433114465103869,1.3034543374730478,0.9755455418389658,0.2858138,0.7063630901428367
0.0525,1.73109375,1.0,2701.2623571559816,0.44643403984500174,1.3028837294329016,0.975840900196363,0.28575893750000003,0.7074663470816863
0.053,1.729775,1.0,2699.125873577301,0.4495391183486184,1.3023076898452852,0.9761283480954087,0.28570355000000003,0.7085779995548688
0.0535,1.72844375,1.0,2696.9689620849795,0.4526267784443606,1.3017261996235125,0.976408154866381,0.2856476375,0.7096980244284192
0.054,1.7271,1.0,2694.7937346335766,0.45569711655535183,1.3011392396808976,0.976680578176424,0.2855912,0.710826397718147
0.0545,1.7257437500000001,1.0,2692.6023000303508,0.45875022910471563,1.300546790930754,0.9769458646306513,0.2855342375,0.71196309458299
0.055,1.724375,1.0,2690.396763864822,0.4617862125155756,1.2999488342863958,0.9772042503373808,0.28547675,0.7131080893183426
0.0555,1.72299375,1.0,2688.1792284471703,0.46480516321105536,1.2993453506611372,0.9774559614399237,0.2854187375,0.7142613553493649
0.056,1.7216,1.0,2685.9517927537945,0.4678071776142785,1.2987363209682916,0.97770121461717,0.2853602,0.7154228652242661
0.0565,1.72019375,1.0,2683.7165523815315,0.4707923521483685,1.2981217261211735,0.9779402175550354,0.28530113749999997,0.7165925906075639
0.057,1.718775,1.0,2681.475599509861,0.47376078323644905,1.2975015470330962,0.9781731693906975,0.28524155,0.7177705022733243
0.0575,1.71734375,1.0,2679.2306813271916,0.47671256088687675,1.2968757677508627,0.9784002607428887,0.2851814375,0.7189565641656118
0.058,1.7159,1.0,2676.983128511677,0.47964775668288545,1.2962443761175717,0.9786216731376902,0.2851208,0.7201507322025213
0.0585,1.71444375,1.0,2674.7368376114314,0.48256650627260905,1.2956073363956475,0.9788375850240809,0.2850596375,0.7213530059600461
0.059000000000000004,1.7129750000000001,1.0,2672.4924446997284,0.48546889743525723,1.2949646427383958,0.9790481652793638,0.28499795,0.7225633275963346
0.059500000000000004,1.71149375,1.0,2670.25058478145,0.48835501795003966,1.2943162892991225,0.9792535761226526,0.2849357375,0.7237816385624849
0.06,1.71,1.0,2668.0118917944433,0.491224955596166,1.293662270231133,0.9794539734273239,0.284873,0.7250078796004371
0.0605,1.7084937500000001,1.0,2665.776998612022,0.49407879815284617,1.293002579687733,0.9796495070164619,0.2848097375,0.7262419907408602
0.061,1.7069750000000001,1.0,2663.5465370457046,0.49691663339928976,1.2923372118222285,0.9798403209423472,0.28474595,0.7274839113010381
0.0615,1.7054437500000001,1.0,2661.3211378492338,0.49973854911470644,1.2916661607879252,0.9800265537509598,0.2846816375,0.7287335798827557
0.062,1.7039,1.0,2659.1014307231544,0.502544633078306,1.290989420738129,0.9802083387324162,0.2846168,0.7299909343701791
0.0625,1.70234375,1.0,2656.888044319895,0.5053349730692981,1.2903069858261451,0.9803858041581777,0.2845514375,0.7312559119277372
0.063,1.7007750000000001,1.0,2654.681606249992,0.5081096568668925,1.2896188502052797,0.9805590735058332,0.28448555,0.7325284489979969
0.0635,1.69919375,1.0,2652.4827430890086,0.5108687722502988,1.2889250080288384,0.9807282656721846,0.28441913750000003,0.7338084812995398
0.064,1.6976,1.0,2650.292080384727,0.5136124069987269,1.288225453450127,0.9808934951753329,0.2843522,0.7350959438248365
0.0645,1.69599375,1.0,2648.110242665969,0.5163406488913864,1.2875201806224512,0.9810548723464025,0.2842847375,0.7363907708381155
0.065,1.694375,1.0,2645.9378534514026,0.519053585707487,1.2868091836991167,0.9812125035115122,0.28421675,0.7376928958732345
0.0655,1.69274375,1.0,2643.775535259396,0.5217513052262385,1.2860924568334293,0.9813664911645508,0.2841482375,0.7390022517315447
0.066,1.6911,1.0,2641.6239096187205,0.5244338952268506,1.2853699941786947,0.9815169341312878,0.2840792,0.7403187704797569
0.0665,1.6894437500000001,1.0,2639.4818273626342,0.5271014238870678,1.284641806246282,0.9816639271894781,0.2840096375,0.7416423537527232
0.067,1.687775,1.0,2637.3474913135783,0.5297539580018913,1.2839079095572492,0.9818075619954036,0.28393955,0.7429728918712781
0.0675,1.68609375,1.0,2635.226055493212,0.5323916377177782,1.2831682563556284,0.9819479287960813,0.2838689375,0.7443103909200036
0.068,1.6844000000000001,1.0,2633.1174299207064,0.5350145414055288,1.2824228473396584,0.9820851128970318,0.2837978,0.7456547681778062
0.0685,1.68269375,1.0,2631.021524817515,0.5376227474359437,1.2816716832075787,0.9822191966652609,0.2837261375,0.7470059403029636
0.069,1.680975,1.0,2628.9382506063043,0.5402163341798232,1.280914764657628,0.9823502596492449,0.28365395,0.7483638233333849
0.0695,1.67924375,1.0,2626.8675179086795,0.5427953800079678,1.2801520923880454,0.9824783786932145,0.28358123749999997,0.7497283326868625
0.07,1.6775,1.0,2624.809237544014,0.545359963291178,1.2793836670970702,0.9826036280460394,0.283508,0.7510993831613312
0.07050000000000001,1.67574375,1.0,2622.7633205272928,0.547910162400254,1.2786094894829412,0.982726079465012,0.2834342375,0.7524768889351241
0.07100000000000001,1.673975,1.0,2620.7296780677634,0.5504460557059965,1.2778295602438974,0.9828458023147906,0.28335995,0.7538607635672278
0.07150000000000001,1.67219375,1.0,2618.7082215670985,0.5529677215792058,1.2770438800781783,0.9829628636617679,0.2832851375,0.7552509199975382
0.07200000000000001,1.6704,1.0,2616.6988626181,0.5554752383906824,1.2762524496840222,0.9830773283641,0.2832098,0.7566472705471199
0.0725,1.66859375,1.0,2614.701513002524,0.5579686845112265,1.2754552697596688,0.9831892591576233,0.2831339375,0.758049726918457
0.073,1.6667750000000001,1.0,2612.7160846898746,0.560448138311639,1.274652341003357,0.983298716737874,0.28305755,0.7594582001957133
0.0735,1.66494375,1.0,2610.7424898357663,0.5629136781627199,1.2738436641133255,0.9834057598384078,0.2829806375,0.7608726008449878
0.074,1.6631,1.0,2608.780640779997,0.5653653824352698,1.2730292397878138,0.9835104453056156,0.2829032,0.7622928387145679
0.0745,1.6612437500000001,1.0,2606.8304500452864,0.5678033295000892,1.272209068725061,0.9836128281702042,0.2828252375,0.7637188230351883
0.075,1.659375,1.0,2604.8918303357564,0.5702275977279785,1.2713831516233054,0.9837129617155205,0.28274675,0.7651504624202872
