Time [s],Phi [rad],STIM [ ],Fsee [N],Gamma [ ],Lcerel [ ],q [ ],Lmtc [m],fisomrel [ ]
0.0,1.8,1.0,17.993273095889798,0.00016638188060802056,1.3793368215367479,0.005007215987684184,0.288653,0.5411466065892778
0.0005,1.79999375,1.0,18.35398659378769,0.005774657918666638,1.3792938167034854,0.013380362392400511,0.2886527375,0.5412506397018586
0.001,1.799975,1.0,21.811822203164752,0.011351475962330337,1.3789185889988624,0.03642813201271621,0.28865195,0.5421578536706351
0.0015,1.79994375,1.0,31.512561438610753,0.016897012467033626,1.3780085677053813,0.07172053437327454,0.2886506375,0.5443543454761677
0.002,1.7999,1.0,54.523335761510204,0.022411442896390174,1.3763073535011963,0.1160409554280277,0.2886488,0.5484463510871356
0.0025,1.79984375,1.0,98.68827006587907,0.02789494173070624,1.3738598479253312,0.1660129091670559,0.28864643749999996,0.5543010653993885
0.003,1.7997750000000001,1.0,162.99221429282608,0.03334768247332699,1.3711384464516063,0.21876322344496488,0.28864354999999997,0.5607661146858679
0.0035,1.79969375,1.0,239.97718216918437,0.03876983765137543,1.3685142472228007,0.27208714578804394,0.2886401375,0.5669555152863921
0.004,1.7996,1.0,323.9046257918161,0.04416157882617207,1.3660916448973592,0.32434291794106374,0.2886362,0.5726304449500823
0.0045000000000000005,1.7994937500000001,1.0,411.79047097776316,0.049523076598533826,1.363863687282337,0.3743889606919781,0.2886317375,0.5778163809862934
0.005,1.799375,1.0,501.9862960057355,0.05485450060061003,1.3618037409650423,0.4215144805160596,0.28862675,0.5825830772439432
0.0055,1.79924375,1.0,593.3847827716919,0.06015601953527591,1.3598882029498696,0.46534665194779895,0.2886212375,0.5869913309231936
0.006,1.7991000000000001,1.0,685.1135220379643,0.06542780113922703,1.3580992818001207,0.5057578401823188,0.2886152,0.5910870675198907
0.006500000000000001,1.79894375,1.0,776.4600165077239,0.07067001220982556,1.3564232691264722,0.5427862671971049,0.2886086375,0.5949057819681072
0.007,1.798775,1.0,866.8330101190235,0.0758828186413063,1.3548492798429204,0.5765748626677529,0.28860155,0.5984757289380127
0.0075,1.79859375,1.0,955.7433235031467,0.081066385265065,1.3533683501258007,0.6073267496831121,0.2885939375,0.6018201821727345
0.008,1.7984,1.0,1042.8121039055482,0.08622087636051247,1.3519725425767208,0.6352741938510442,0.2885858,0.6049595958931073
0.0085,1.79819375,1.0,1127.713105719761,0.09134645469871633,1.3506553002818351,0.660658573826688,0.2885771375,0.6079109068375512
0.009000000000000001,1.797975,1.0,1210.2092333742369,0.09644328250958807,1.349410499652758,0.6837170130934027,0.28856795,0.6106897408558991
0.0095,1.79774375,1.0,1290.1356437851894,0.10151152141970528,1.3482324500352738,0.704674810041814,0.2885582375,0.6133104615511178
0.01,1.7975,1.0,1367.3496011441582,0.10655133134012068,1.3471163447906114,0.723741609481187,0.288548,0.615785214219405
0.0105,1.79724375,1.0,1441.7645731327887,0.11156287164176105,1.3460576093955723,0.741109276894769,0.2885372375,0.6181254176639717
0.011,1.796975,1.0,1513.349876012279,0.11654630164360476,1.3450517931792147,0.7569515614607987,0.28852595000000003,0.6203420281371442
0.0115,1.79669375,1.0,1582.0765518151543,0.12150177859521849,1.344095128349881,0.7714249461114644,0.2885141375,0.6224443324167058
0.012,1.7964,1.0,1647.9408183596724,0.12642945888566448,1.3431841216235667,0.7846695108985393,0.28850180000000003,0.6244408758464954
0.0125,1.79609375,1.0,1710.9711777903913,0.1313294984499707,1.3423153963340135,0.7968101886852466,0.2884889375,0.6263398259970894
0.013000000000000001,1.7957750000000001,1.0,1771.2249327199931,0.1362020532763554,1.3414856784273073,0.807958179294449,0.28847555,0.6281490160364851
0.0135,1.79544375,1.0,1828.7471954656821,0.14104727720589053,1.3406922050715064,0.8182125084074582,0.2884616375,0.6298750682510033
0.014,1.7951000000000001,1.0,1883.5855432540654,0.14586532283706888,1.339932492600051,0.8276612472657148,0.2884472,0.63152391733009
0.0145,1.79474375,1.0,1935.811644061217,0.15065634276838324,1.3392040573463813,0.8363826408035332,0.2884322375,0.6331014269124774
0.015,1.794375,1.0,1985.500003125438,0.15542048850503076,1.3385046197535886,0.8444463098625435,0.28841675,0.6346129540991021
0.0155,1.79399375,1.0,2032.7545462824617,0.1601579122523992,1.3378317917465092,0.8519141561108233,0.2884007375,0.6360640321598955
0.016,1.7936,1.0,2077.6407180438887,0.1648687628139513,1.3371837724151658,0.8588414908839386,0.2883842,0.6374588763388955
0.0165,1.7931937500000001,1.0,2120.2325278161675,0.16955318867821198,1.3365588161705069,0.8652776461745958,0.2883671375,0.6388015410009789
0.017,1.792775,1.0,2160.616530516986,0.17421133833370617,1.3359551774234817,0.8712666665582397,0.28834955,0.6400960419718015
0.0175,1.7923437500000001,1.0,2198.8738477975303,0.17884335896610332,1.335371281748532,0.8768479809651009,0.2883314375,0.6413459929156469
0.018000000000000002,1.7919,1.0,2235.1098750175465,0.1834493989430639,1.334805410375421,0.8820568594204553,0.2883128,0.6425552843856694
0.0185,1.79144375,1.0,2269.3959005624065,0.18802960288541523,1.334256279073333,0.886925047700458,0.2882936375,0.6437268491710783
0.019,1.790975,1.0,2301.804737683166,0.19258411493933425,1.333722661483671,0.8914810770135915,0.28827395,0.6448634732533646
0.0195,1.79049375,1.0,2332.4157971440536,0.19711307925099777,1.3332033312478375,0.8957506182417384,0.2882537375,0.6459679210629587
0.02,1.79,1.0,2361.3084759416474,0.20161663909913238,1.3326971211573408,0.8997568198652658,0.288233,0.6470428111403626
0.0205,1.78949375,1.0,2388.566943597834,0.20609493826632458,1.33220286984983,0.9035205794570483,0.2882117375,0.6480907310699517
0.021,1.788975,1.0,2414.2660968268947,0.21054811888209257,1.3317195528512697,0.9070608205604839,0.28818995000000003,0.6491139612760002
0.021500000000000002,1.78844375,1.0,2438.467315594292,0.21497632048828147,1.3312463157641306,0.9103947141214186,0.2881676375,0.6501144078210777
0.022,1.7879,1.0,2461.2354537397778,0.21937968262673632,1.3307823041908835,0.9135378332751691,0.2881448,0.6510939643946743
0.0225,1.78734375,1.0,2482.638549185449,0.2237583448393022,1.3303266637339988,0.9165043241237152,0.28812143749999997,0.6520545128391764
0.023,1.786775,1.0,2502.7408413578164,0.2281124452596803,1.3298786036806391,0.9193070677773323,0.28809755,0.6529977896483157
0.0235,1.78619375,1.0,2521.6113089106157,0.23244212336850836,1.3294373126338912,0.9219577973401069,0.28807313749999996,0.6539255645553566
0.024,1.7856,1.0,2539.314052002683,0.2367475174449658,1.3290020473903417,0.9244672307088869,0.2880482,0.65483945412297
0.0245,1.78499375,1.0,2555.8976211706486,0.24102876191558004,1.3285722300376386,0.926845188845705,0.2880227375,0.6557407195411133
0.025,1.784375,1.0,2571.4122143004834,0.24528599120687855,1.3281472826634302,0.9291006579241928,0.28799675,0.6566306150529555
0.025500000000000002,1.78374375,1.0,2585.909538192616,0.24951933974538879,1.3277266273553647,0.9312418716844436,0.2879702375,0.6575103881450188
0.026000000000000002,1.7831000000000001,1.0,2599.442677531908,0.25372894195763823,1.3273096862010902,0.9332763846595111,0.2879432,0.65838127971602
0.0265,1.78244375,1.0,2612.059674132377,0.2579149306528818,1.326895939799351,0.9352111459623699,0.2879156375,0.6592444022407498
0.027,1.781775,1.0,2623.808189083183,0.26207743939914463,1.3264848823041195,0.9370525504481831,0.28788755,0.6601008342693406
0.0275,1.7810937500000001,1.0,2634.742878510983,0.2662166028036254,1.3260759521318481,0.9388064800225031,0.2878589375,0.6609517648000915
0.028,1.7804,1.0,2644.898952363194,0.27033254966911074,1.325668775814542,0.9404783843379375,0.2878298,0.6617979861589847
0.0285,1.77969375,1.0,2654.3123081964777,0.2744254087983873,1.3252629798842062,0.9420732946666333,0.2878001375,0.6626402867246382
0.029,1.778975,1.0,2663.019471456911,0.2784953089942418,1.3248581908728456,0.943595861465034,0.28776995,0.6634794509656308
0.029500000000000002,1.7782437500000001,1.0,2671.057538851576,0.2825423790594608,1.3244540353124659,0.9450503881149749,0.2877392375,0.6643162594689322
0.03,1.7775,1.0,2678.4641248137805,0.286566747796831,1.3240501397350721,0.9464408612719514,0.287708,0.6651514889594395
0.0305,1.77674375,1.0,2685.2722671858555,0.2905685422073113,1.3236461768955752,0.9477709836271958,0.2876762375,0.6659858169033102
0.031,1.775975,1.0,2691.5149742713693,0.29454789029011,1.3232418234483228,0.9490441934924769,0.28764395,0.6668199093552403
0.0315,1.7751937500000001,1.0,2697.2286158951156,0.2985049201668638,1.3228367285599336,0.9502636827956625,0.2876111375,0.6676544856272951
0.032,1.7744,1.0,2702.437820415166,0.3024397550069785,1.3224306516744344,0.9514324329035071,0.2875778,0.6684900346326517
0.0325,1.77359375,1.0,2707.167467497846,0.30635251797985996,1.3220233522358522,0.9525532199467951,0.2875439375,0.6693270427767355
0.033,1.772775,1.0,2711.442663888112,0.3102433322549141,1.3216145896882139,0.953628631438738,0.28750955,0.670165993940312
0.0335,1.7719437500000002,1.0,2715.2887204631807,0.3141123210015466,1.321204123475546,0.9546610813578995,0.2874746375,0.6710073694588845
0.034,1.7711000000000001,1.0,2718.731130569138,0.3179596073891634,1.3207917130418758,0.9556528238538331,0.2874392,0.6718516480984018
0.0345,1.7702437500000001,1.0,2721.7896466451343,0.3217853106283125,1.320377171563143,0.956605970599439,0.2874032375,0.6726991962410729
0.035,1.7693750000000001,1.0,2724.488449347976,0.3255895548319157,1.319960273121716,0.9575224939344749,0.28736675,0.6735504579843015
0.035500000000000004,1.76849375,1.0,2726.85477284949,0.3293724654358067,1.3195407651636941,0.9584042379215633,0.2873297375,0.6744059292047222
0.036000000000000004,1.7676,1.0,2728.904367980462,0.3331341593672575,1.3191185005533328,0.959252939403048,0.2872922,0.6752658884075018
0.0365,1.76669375,1.0,2730.6530673178754,0.33687475355354,1.3186933321548868,0.9600702271271796,0.2872541375,0.6761306123724968
0.037,1.765775,1.0,2732.116776002016,0.3405943649219263,1.318265112832611,0.9608576296920859,0.28721555,0.6770003761276957
0.0375,1.76484375,1.0,2733.3114630334694,0.34429311039968824,1.3178336954507608,0.9616165828206638,0.2871764375,0.6778754529212789
0.038,1.7639,1.0,2734.2531530501697,0.3479711069140979,1.3173989328735907,0.9623484360295096,0.28713679999999997,0.678756114192302
0.0385,1.76294375,1.0,2734.9579185843413,0.35162847139242714,1.316960677965356,0.9630544587484695,0.28709663750000003,0.6796426295399933
0.039,1.761975,1.0,2735.441872799462,0.35526532076194806,1.3165187835903114,0.9637358459415553,0.28705595,0.6805352666916762
0.0395,1.7609937500000001,1.0,2735.719238889377,0.3588817681395112,1.3160731200795996,0.9643937241399901,0.2870147375,0.6814342562600351
0.04,1.76,1.0,2735.8021217382147,0.3624779275163485,1.3156235772457696,0.9650291572105197,0.286973,0.682339787903647
0.0405,1.7589937500000001,1.0,2735.7057984287917,0.366053922284918,1.3151700163030606,0.9656431478745131,0.2869307375,0.6832521072178843
0.041,1.757975,1.0,2735.4394153913154,0.3696098624716764,1.3147123542900514,0.9662366450544109,0.28688795,0.6841713458457053
0.0415,1.75694375,1.0,2735.012133718279,0.37314585810308015,1.31425050824532,0.9668105450600606,0.2868446375,0.685097634143999
0.042,1.7559,1.0,2734.433126400527,0.376662019205586,1.313784395207445,0.9673656950452241,0.28680079999999997,0.6860311011616644
0.0425,1.75484375,1.0,2733.7115757162737,0.38015845580565055,1.3133139322150051,0.9679028962028157,0.2867564375,0.6869718746172551
0.043000000000000003,1.753775,1.0,2732.856670771907,0.3836352779297304,1.3128390363065783,0.9684229067210772,0.28671155,0.6879200808761843
0.043500000000000004,1.75269375,1.0,2731.877605196463,0.38709259560428216,1.3123596245207434,0.9689264445208208,0.28666613750000003,0.6888758449274879
0.044,1.7516,1.0,2730.7835749876217,0.39053051885576245,1.3118756138960783,0.9694141897919814,0.2866202,0.689839290360154
0.0445,1.75049375,1.0,2729.583776511351,0.39394915771062794,1.311386921471162,0.9698867873460505,0.2865737375,0.6908105393390064
0.045,1.7493750000000001,1.0,2728.2874046532243,0.3973486221953352,1.3108934642845724,0.9703448487994409,0.28652675,0.6917897125801572
0.0455,1.74824375,1.0,2726.8955856678745,0.4007289909400246,1.310395232721773,0.970788955715511,0.2864792375,0.6927767841313661
0.046,1.7471,1.0,2725.42621331189,0.40409041511832555,1.3098920646802745,0.9712196591037974,0.2864312,0.6937720288526676
0.0465,1.7459437500000001,1.0,2723.8833262797802,0.40743299660870774,1.309383923985226,0.9716374848657314,0.28638263750000004,0.6947754705979077
0.047,1.744775,1.0,2722.270896980255,0.4107568370387805,1.3088707750524897,0.9720429329317805,0.28633355,0.6957871311175838
0.0475,1.74359375,1.0,2720.5928959930684,0.41406203803615327,1.3083525822979276,0.9724364787771389,0.28628393750000003,0.6968070312187493
0.048,1.7424,1.0,2718.853291579994,0.4173487012284352,1.3078293101374026,0.9728185748432256,0.2862338,0.697835190753606
0.0485,1.74119375,1.0,2717.0560492253535,0.4206169282432357,1.3073009229867765,0.9731896518638019,0.2861831375,0.6988716286080207
0.049,1.739975,1.0,2715.2051312027143,0.42386682070816406,1.3067673852619122,0.9735501201029363,0.28613195,0.6999163626899539
0.0495,1.73874375,1.0,2713.3044961712994,0.42709848025082964,1.3062286613786716,0.9739003705114271,0.2860802375,0.7009694099178154
0.05,1.7375,1.0,2711.358098799692,0.43031200849884177,1.3056847157529172,0.9742407758077473,0.286028,0.7020307862087316
0.0505,1.73624375,1.0,2709.3698894175054,0.43350750707980973,1.3051355128005118,0.9745716914890735,0.2859752375,0.703100506466737
0.051000000000000004,1.734975,1.0,2707.34381369566,0.43668507762134284,1.304581016937317,0.9748934567775085,0.28592195,0.7041785845708857
0.051500000000000004,1.73369375,1.0,2705.2838123543065,0.43984482175105044,1.3040211925791958,0.9752063955061886,0.2858681375,0.7052650333632766
0.052000000000000005,1.7324,1.0,2703.1938208987553,0.44298684109654185,1.3034560041420102,0.9755108169495904,0.2858138,0.7063598646370035
0.0525,1.73109375,1.0,2701.077769384137,0.44611123728542634,1.302885416041623,0.975807016602011,0.28575893750000003,0.7074630891240209
0.053,1.729775,1.0,2698.9395822072206,0.44921811194531336,1.302309392693896,0.9760952769078756,0.28570355000000003,0.708574716482933
0.0535,1.72844375,1.0,2696.777758225483,0.4523075272626364,1.3017279480756803,0.9763758670028673,0.2856476375,0.7096946599172181
0.054,1.7271,1.0,2694.6021089188853,0.45537963055052705,1.3011409926978748,0.9766490466254021,0.2855912,0.7108230309851358
0.0545,1.7257437500000001,1.0,2692.4142422850637,0.45843451648355077,1.3005485120068783,0.9769150635807591,0.2855342375,0.7119597956965924
0.055,1.724375,1.0,2690.2154302298663,0.46147227739497354,1.2999504945035523,0.977174155080453,0.28547675,0.713104913415416
0.0555,1.72299375,1.0,2688.006942690564,0.4644930056180611,1.2993469286887585,0.9774265483276363,0.2854187375,0.7142583427442837
0.056,1.7216,1.0,2685.790047609362,0.4674967934860794,1.2987378030633583,0.9776724610197708,0.2853602,0.7154200415206574
0.0565,1.72019375,1.0,2683.5660109104065,0.47048373333229443,1.2981231061282137,0.9779121018220625,0.28530113749999997,0.71658996681271
0.057,1.718775,1.0,2681.336096479552,0.4734539174899719,1.2975028263841861,0.9781456708135783,0.28524155,0.7177680749152449
0.0575,1.71734375,1.0,2679.1015661466417,0.4764074382923778,1.2968769523321375,0.9783733599078335,0.2851814375,0.7189543213456051
0.058,1.7159,1.0,2676.8636796714013,0.479344388072778,1.2962454724729293,0.9785953532495004,0.2851208,0.7201486608395755
0.0585,1.71444375,1.0,2674.6236947318744,0.48226485916443834,1.2956083753074235,0.9788118275887768,0.2850596375,0.7213510473472751
0.059000000000000004,1.7129750000000001,1.0,2672.382866915824,0.48516894390062476,1.2949656493364812,0.9790229526348369,0.28499795,0.7225614340290434
0.059500000000000004,1.71149375,1.0,2670.142449715062,0.48805673461460314,1.2943172830609644,0.9792288913896872,0.2849357375,0.7237797732513144
0.06,1.71,1.0,2667.903694522715,0.4909283236396393,1.2936632649817348,0.9794298004636629,0.284873,0.7250060165824854
0.0605,1.7084937500000001,1.0,2665.6678506336757,0.4937838033089991,1.293003583599654,0.9796258303737024,0.2848097375,0.7262401147887771
0.061,1.7069750000000001,1.0,2663.4361652475386,0.49662326595594863,1.2923382274155837,0.9798171258254704,0.28474595,0.7274820178300845
0.0615,1.7054437500000001,1.0,2661.209883474625,0.4994468039137535,1.2916671849303853,0.980003825980318,0.2846816375,0.7287316748558177
0.062,1.7039,1.0,2658.988655777494,0.5022544966190772,1.2909904593114387,0.9801860644829803,0.2846168,0.7299890069825189
0.0625,1.70234375,1.0,2656.7703452539677,0.5050464110525165,1.2903080701988492,0.9803639698669956,0.2845514375,0.7312539042647324
0.063,1.7007750000000001,1.0,2654.561895485589,0.5078226867519372,1.2896199535704176,0.9805376670151579,0.28448555,0.7325264110136134
0.0635,1.69919375,1.0,2652.3634308858223,0.510583406633252,1.288926108176155,0.9807072751154685,0.28441913750000003,0.7338064541268521
0.064,1.6976,1.0,2650.1750756891593,0.513328653612374,1.288226532766072,0.9808729089719028,0.2843522,0.7350939598521953
0.0645,1.69599375,1.0,2647.996953954072,0.5160585106052161,1.2875212260901792,0.9810346791961272,0.2842847375,0.73638885378699
0.065,1.694375,1.0,2645.82918956499,0.5187730605276912,1.2868101868984876,0.981192692389474,0.28421675,0.7376910608777252
0.0655,1.69274375,1.0,2643.6719062347083,0.5214723862957125,1.2860934139410076,0.9813470513157381,0.2841482375,0.7390005054195767
0.066,1.6911,1.0,2641.525227507048,0.5241565708251925,1.2853709059677503,0.9814978550653203,0.2840792,0.7403171110559484
0.0665,1.6894437500000001,1.0,2639.3892767592342,0.5268256970320445,1.2846426617287263,0.9816451992112081,0.2840096375,0.7416408007780162
0.067,1.687775,1.0,2637.264177204145,0.5294798478321814,1.2839086799739463,0.9817891759572557,0.28393955,0.7429714969242709
0.0675,1.68609375,1.0,2635.1500518933376,0.532119106141516,1.283168959453421,0.9819298742791929,0.2838689375,0.74430912118006
0.068,1.6844000000000001,1.0,2633.047023719271,0.5347435548759615,1.2824234989171615,0.9820673800587693,0.2837978,0.7456535945771304
0.0685,1.68269375,1.0,2630.955215417915,0.5373532769514306,1.2816722971151782,0.9822017762114121,0.2837261375,0.7470048374931721
0.069,1.680975,1.0,2628.874749571691,0.5399483552838364,1.2809153527974817,0.982333142807753,0.28365395,0.7483627696513597
0.0695,1.67924375,1.0,2626.805748611697,0.5425288727890918,1.2801526647140833,0.9824615571893617,0.28358123749999997,0.7497273101198929
0.07,1.6775,1.0,2624.7483348210058,0.5450949123831097,1.2793842316149933,0.9825870940789929,0.283508,0.7510983773115427
0.07050000000000001,1.67574375,1.0,2622.702630336866,0.5476465569818032,1.2786100522502224,0.9827098256856511,0.2834342375,0.75247588898319
0.07100000000000001,1.673975,1.0,2620.6687571536813,0.5501838895010851,1.2778301253697817,0.9828298218047409,0.28335995,0.753859762235368
0.07150000000000001,1.67219375,1.0,2618.6468371259252,0.5527069928568683,1.277044449723682,0.9829471499135698,0.2832851375,0.7552499135118058
0.07200000000000001,1.6704,1.0,2616.6364423387217,0.5552159411714577,1.2762530291644918,0.9830618749684958,0.2832098,0.7566462496091915
0.0725,1.66859375,1.0,2614.6356479188557,0.5577107800119716,1.275455881453783,0.9831740587429977,0.2831339375,0.75804865233584
0.073,1.6667750000000001,1.0,2612.6482869756505,0.5601916466491523,1.2746529708852703,0.9832837639920324,0.28305755,0.7594570968874199
0.0735,1.66494375,1.0,2610.674048357937,0.5626586149046475,1.2738443002165312,0.9833910494342308,0.2829806375,0.7608714899200203
0.074,1.6631,1.0,2608.7126214523028,0.5651117586001051,1.273029872205144,0.9834959719044998,0.2829032,0.7622917375116158
0.0745,1.6612437500000001,1.0,2606.763696176501,0.567551151557173,1.2722096896086863,0.9835985864252036,0.2828252375,0.7637177451630826
0.075,1.659375,1.0,2604.826962972579,0.5699768675974989,1.271383755184736,0.9836989462742075,0.28274675,0.7651494177992069
0.0755,1.65749375,1.0,2602.902112800116,0.5723889805427307,1.270552071690871,0.983797103049935,0.2826677375,0.7665866597696998
