Time [s],Phi [rad],STIM [ ],Fsee [N],Gamma [ ],Lcerel [ ],q [ ],Lmtc [m],fisomrel [ ]
0.0,1.8,1.0,17.96493490281816,1.0000164559496879e-05,1.3793399953074326,0.005000026652663216,0.288653,0.5411389284443784
0.0005,1.79999375,1.0,18.274472455686464,0.005619153380340038,1.379302640137928,0.012940519462032011,0.2886527375,0.5412292958686145
0.001,1.799975,1.0,21.616212899926627,0.01119684368150088,1.3789385236157354,0.03560859379106884,0.28865195,0.542109678953848
0.0015,1.79994375,1.0,31.06699008095442,0.016743247550980056,1.3780463950773878,0.07060173426078792,0.2886506375,0.5442631478603049
0.002,1.7999,1.0,53.57983758486911,0.02225854048005911,1.3763682971363072,0.11471787259386143,0.2886488,0.5483000794346824
0.0025,1.79984375,1.0,97.11605012245525,0.027742896975937046,1.373935306403487,0.16457471021024647,0.28864643749999996,0.5541211308192933
0.003,1.7997750000000001,1.0,160.95529360363233,0.033196490569438665,1.3712144513040072,0.2172802602482658,0.28864354999999997,0.5605861962470181
0.0035,1.79969375,1.0,237.68058867015858,0.03861949381461131,1.3685848187211362,0.2706126909817175,0.2886401375,0.5667896409703672
0.004,1.7996,1.0,321.4642070226393,0.04401207829950602,1.3661561603152443,0.32291560687717613,0.2886362,0.5724798031351949
0.0045000000000000005,1.7994937500000001,1.0,409.2653753043427,0.049374414651361935,1.3639228699283452,0.37303432035047074,0.2886317375,0.5776790329818774
0.005,1.799375,1.0,499.41129945616717,0.054706672527708174,1.3618583891968035,0.42024728410039813,0.28862675,0.5824569711986438
0.0055,1.79924375,1.0,590.788357933576,0.06000902066374784,1.3599388752698904,0.4641735340221886,0.2886212375,0.5868750193541016
0.006,1.7991000000000001,1.0,682.5161988800423,0.06528162681569549,1.3581464494561046,0.5046798107468865,0.2886152,0.5909793391007203
0.006500000000000001,1.79894375,1.0,773.8634179988393,0.07052465758787005,1.356467558157184,0.541800795506668,0.2886086375,0.5948051019816796
0.007,1.798775,1.0,864.2917591242141,0.07573827962940277,1.3548902989185583,0.5756765785812736,0.28860155,0.5983828945583429
0.0075,1.79859375,1.0,953.2559615097655,0.08092265716794811,1.3534065831436233,0.60650966797655,0.2885939375,0.601734014638869
0.008,1.7984,1.0,1040.3584764545915,0.08607795419532799,1.3520086460227085,0.6345319435876468,0.2885858,0.6048785495065673
0.0085,1.79819375,1.0,1125.3182427862837,0.09120433424040175,1.3506891846570512,0.6599843013124866,0.2885771375,0.6078351268002954
0.009000000000000001,1.797975,1.0,1207.884081632683,0.09630195934642675,1.3494422550243064,0.6831042249976552,0.28856795,0.6106189745010449
0.0095,1.79774375,1.0,1287.8720640786,0.10137099068473933,1.3482623903322484,0.7041175389253875,0.2885582375,0.6132439651787904
0.01,1.7975,1.0,1365.1607262472232,0.10641158893013497,1.347144466547231,0.7232341958962804,0.288548,0.6157229570970614
0.0105,1.79724375,1.0,1439.6628780489332,0.1114239135827108,1.346083904098491,0.7406465731434686,0.2885372375,0.6180673830482986
0.011,1.796975,1.0,1511.3170553623415,0.11640812275943291,1.3450766166603545,0.7565290977733337,0.28852595000000003,0.6202873999816414
0.0115,1.79669375,1.0,1580.1052489058118,0.12136437407288672,1.344118671379144,0.7710386397989148,0.2885141375,0.6223926658426426
0.012,1.7964,1.0,1646.0545459061184,0.12629282540541847,1.3432061938084052,0.7843155524737401,0.28850180000000003,0.6243925654704956
0.0125,1.79609375,1.0,1709.1794895153532,0.13119363229164815,1.3423359714467376,0.7964852551754822,0.2884889375,0.6262949064209773
0.013000000000000001,1.7957750000000001,1.0,1769.5033222741683,0.13606694908155567,1.3415051092406327,0.8076594663796994,0.28847555,0.6281066975846413
0.0135,1.79544375,1.0,1827.0809919235114,0.14091293012512102,1.3407107121365816,0.8179374736991131,0.2884616375,0.6298348553424218
0.014,1.7951000000000001,1.0,1881.975914272793,0.145731728787651,1.3399501088433063,0.8274075633794162,0.2884472,0.6314857254382149
0.0145,1.79474375,1.0,1934.2815567747425,0.15052349877328783,1.33922057536225,0.8361481554260485,0.2884322375,0.6330656927643626
0.015,1.794375,1.0,1984.0553908499296,0.15528839069117772,1.338520018407231,0.844229171967262,0.28841675,0.6345797102601021
0.0155,1.79399375,1.0,2031.3664778204252,0.16002655481744965,1.3378464145267412,0.8517128356591146,0.2884007375,0.6360325261206166
0.016,1.7936,1.0,2076.3002469021008,0.16473814142823248,1.3371977402692732,0.8586545558461123,0.2883842,0.6374288391495402
0.0165,1.7931937500000001,1.0,2118.943321294351,0.16942329937892853,1.3365721141040618,0.865103777694885,0.2883671375,0.6387729974729668
0.017,1.792775,1.0,2159.3964787929312,0.17408217852587324,1.3359676437384642,0.871104644880054,0.28834955,0.6400693315077308
0.0175,1.7923437500000001,1.0,2197.7275044897187,0.1787149249649584,1.3353828924520392,0.8766967524055159,0.2883314375,0.641321158962066
0.018000000000000002,1.7919,1.0,2234.0134036290997,0.18332168477364233,1.3348164254772275,0.8819155546034428,0.2883128,0.6425317641283552
0.0185,1.79144375,1.0,2268.3398049520492,0.18790260402938352,1.3342668080464697,0.886792848226587,0.2882936375,0.643704403821507
0.019,1.790975,1.0,2300.7844477919834,0.19245782698151773,1.3337327615646537,0.8913572338910664,0.28827395,0.6448419765893814
0.0195,1.79049375,1.0,2331.448578092657,0.19698750058117656,1.333212842862861,0.8956344064567224,0.2882537375,0.6459477083904668
0.02,1.79,1.0,2360.399384781837,0.20149176689625134,1.3327060062151124,0.899647613107643,0.288233,0.6470239586364466
0.0205,1.78949375,1.0,2387.7036233083513,0.20597076731989897,1.3322112592298028,0.9034178485584672,0.2882117375,0.6480729567632295
0.021,1.788975,1.0,2413.4325635272444,0.21042464324527627,1.3317276095153272,0.9069640932571514,0.28818995000000003,0.649096916725914
0.021500000000000002,1.78844375,1.0,2437.661610401211,0.21485353606554014,1.3312540646800803,0.910303534270574,0.2881676375,0.6500980377325419
0.022,1.7879,1.0,2460.4591470221158,0.21925758529866426,1.3307897357235436,0.9134517796109592,0.2881448,0.651078286798304
0.0225,1.78734375,1.0,2481.903326120615,0.22363693295888581,1.3303336715374219,0.916422995885825,0.28812143749999997,0.6520397495172408
0.023,1.786775,1.0,2502.054890118366,0.22799171724596892,1.329885115501486,0.919230106710685,0.28809755,0.652984089829628
0.0235,1.78619375,1.0,2520.967272881872,0.23232207445415204,1.3294434036002771,0.9218849026587956,0.28807313749999996,0.6539127672967631
0.024,1.7856,1.0,2538.6960388986477,0.23662814087767348,1.329007871818337,0.9243981411876134,0.2880482,0.6548272330407169
0.0245,1.78499375,1.0,2555.298704295209,0.2409100528107717,1.3285778561402064,0.9267796513922806,0.2880227375,0.6557289300201079
0.025,1.784375,1.0,2570.8345676299905,0.24516794654768514,1.3281526925504266,0.9290384268684523,0.28799675,0.656619293277759
0.025500000000000002,1.78374375,1.0,2585.3542260185777,0.24940195484181477,1.3277318134594178,0.9311827226088689,0.2879702375,0.6574995486179891
0.026000000000000002,1.7831000000000001,1.0,2598.9203998590783,0.2536122167519291,1.3273145510631663,0.9332200990380036,0.2879432,0.6583711245609627
0.0265,1.78244375,1.0,2611.5750064838267,0.2577988639417474,1.3269004434014173,0.9351575314281543,0.2879156375,0.6592350130865968
0.027,1.781775,1.0,2623.3587112891014,0.26196202722942136,1.3264890495409034,0.9370014387326291,0.28788755,0.6600921573019054
0.0275,1.7810937500000001,1.0,2634.3130889153736,0.26610183743310245,1.326079928548358,0.93875773270227,0.2878589375,0.6609434955290107
0.028,1.7804,1.0,2644.4805436842,0.2702184253709423,1.3256726394905134,0.940431864671157,0.2878298,0.6617899613752618
0.0285,1.77969375,1.0,2653.9042343455517,0.27431192186109243,1.325266741434103,0.9420288674600008,0.2878001375,0.662632483790945
0.029,1.778975,1.0,2662.623977954869,0.27838245601178013,1.3248618304898467,0.943553397512029,0.28776995,0.6634719103660272
0.029500000000000002,1.7782437500000001,1.0,2670.674629197052,0.28243015588878045,1.3244575538131382,0.9450097703129122,0.2877392375,0.6643089788698805
0.03,1.7775,1.0,2678.105224255558,0.2864551562282574,1.3240534330490998,0.9464019691202283,0.287708,0.6651446828096064
0.0305,1.77674375,1.0,2684.942402291578,0.29045758167082847,1.3236491999269266,0.947733712101254,0.2876762375,0.6659795771258299
0.031,1.775975,1.0,2691.213161998439,0.2944375568571111,1.3232445861758142,0.9490084509174986,0.28764395,0.6668142139924319
0.0315,1.7751937500000001,1.0,2696.9448294903978,0.29839520642772255,1.3228393235249578,0.9502293931498922,0.2876111375,0.667649142812333
0.032,1.7744,1.0,2702.1650277873678,0.3023306550232804,1.3224331437035524,0.9513995225755703,0.2875778,0.6684849102086874
0.0325,1.77359375,1.0,2706.9016478951444,0.3062440272844018,1.3220257784407932,0.9525216175252113,0.2875439375,0.6693220600114834
0.033,1.772775,1.0,2711.182821480969,0.3101354478517044,1.3216169594658755,0.9535982675232262,0.28750955,0.6701611332395581
0.0335,1.7719437500000002,1.0,2715.036895145715,0.3140050413658054,1.3212064185079946,0.9546318883897783,0.2874746375,0.6710026680780199
0.034,1.7711000000000001,1.0,2718.4897049630517,0.31785292569381124,1.3207939119000587,0.9556247369228243,0.2874392,0.6718471495148515
0.0345,1.7702437500000001,1.0,2721.565732989429,0.32167923142268556,1.320379209776353,0.9565789272176561,0.2874032375,0.6726950317062489
0.035,1.7693750000000001,1.0,2724.283101364848,0.32548407720713013,1.3199621414083968,0.9574964401037058,0.28736675,0.6735466456165595
0.035500000000000004,1.76849375,1.0,2726.659935791023,0.32926758137745643,1.319542537049364,0.9583791300639913,0.2873297375,0.6744023182909942
0.036000000000000004,1.7676,1.0,2728.7144612205384,0.333029862263976,1.3191202269524287,0.9592287347233556,0.2872922,0.6752623748400204
0.0365,1.76669375,1.0,2730.4649904752678,0.33677103819700027,1.318695041370765,0.9600468835403051,0.2872541375,0.6761271384109898
0.037,1.765775,1.0,2731.929913503087,0.34049122750684085,1.3182668105575468,0.9608351057582034,0.28721555,0.6769969301579293
0.0375,1.76484375,1.0,2733.1276872733706,0.34419054852380926,1.3178353647659484,0.9615948376864842,0.2871764375,0.6778720692094915
0.038,1.7639,1.0,2734.0768263114687,0.34786911957821687,1.3174005342491435,0.9623274293751384,0.28713679999999997,0.6787528726350711
0.0385,1.76294375,1.0,2734.7650632060117,0.35152705652370186,1.3169624292287305,0.9630341766674523,0.28709663750000003,0.6796390894688201
0.039,1.761975,1.0,2735.268125698786,0.35516447720335115,1.3165203611946625,0.9637162254161475,0.28705595,0.6805320821084195
0.0395,1.7609937500000001,1.0,2735.586426184726,0.3587814958836644,1.3160743259385408,0.9643747172362932,0.2870147375,0.6814318255181667
0.04,1.7600007219377165,1.0,2735.735149377688,0.3623782257545943,1.3156245113377705,0.9650107451585188,0.2869730303213841,0.6823379076619693
0.0405,1.7590049702836197,1.0,2736.1439835932333,0.3659547800060933,1.3151711052697568,0.9656253399548139,0.286931208751912,0.6832499183770405
0.041,1.7580092186295229,1.0,2736.927792551082,0.36951127182811433,1.3147142956119053,0.966219474343544,0.28688938718243995,0.6841674494180556
0.0415,1.757013466975426,1.0,2738.066035446633,0.37304781441060986,1.3142542702416211,0.9667940668687018,0.28684756561296787,0.685090094499063
0.042,1.756017715321329,1.0,2739.538312714473,0.37656451888801934,1.3137912162477394,0.9673499850721424,0.2868057440434958,0.6860174509112387
0.0425,1.7550219636672322,1.0,2741.3016088142385,0.38006149920819055,1.3133255262221704,0.9678880666873501,0.28676392247402377,0.6869487073265308
0.043000000000000003,1.7540262120131354,1.0,2743.3321756768855,0.38353886523482955,1.312857418023367,0.9684090893088904,0.2867221009045517,0.6878834055731895
0.043500000000000004,1.7530304603590385,1.0,2745.609750972057,0.38699672579288996,1.312387077971004,0.9689137864055961,0.2866802793350796,0.6888211527957202
0.044,1.7520347087049417,1.0,2748.114073307513,0.39043518970732516,1.3119146923847556,0.9694028528024401,0.28663845776560753,0.6897615582733525
0.0445,1.751038957050845,1.0,2750.824873394083,0.39385436580308886,1.3114404475842962,0.9698769471043374,0.2865966361961355,0.6907042334454503
0.045,1.7500432053967478,1.0,2753.721865980265,0.39725436290513444,1.3109645298893005,0.9703366939451373,0.28655481462666343,0.6916487919347142
0.0455,1.749047453742651,1.0,2756.788572643723,0.40063528784157165,1.3104870909781243,0.9707826831777943,0.28651299305719136,0.6925949181630802
0.046,1.7480517020885542,1.0,2760.0057357479404,0.40399725018692795,1.3100083074626143,0.9712154771211875,0.2864711714877193,0.6935422490566492
0.0465,1.7470559504344574,1.0,2763.360581188909,0.40734035553187176,1.3095282970910722,0.9716356051202006,0.2864293499182472,0.694490539859378
0.047,1.7460601987803606,1.0,2766.8418884004423,0.41066470850468706,1.3090471633969758,0.9720435692102576,0.2863875283487751,0.6954395752432492
0.0475,1.7450644471262635,1.0,2770.4384168814577,0.41397041373365795,1.308565009913802,0.9724398468822841,0.28634570677930304,0.6963891411253038
0.048,1.7440686954721667,1.0,2774.1389037362546,0.4172575758470683,1.3080819401750283,0.9728248925151574,0.28630388520983097,0.6973390246747139
0.0485,1.7430729438180699,1.0,2777.932061452398,0.4205262994732022,1.307598057714132,0.9731991387117744,0.28626206364035894,0.6982890143191758
0.049,1.742077192163973,1.0,2781.8140553896033,0.423776680279424,1.3071133987212498,0.9735629918358425,0.28622024207088687,0.6992390316514115
0.0495,1.7410814405098762,1.0,2785.7663547310904,0.42700883378100246,1.3066281315493824,0.9739168505262443,0.2861784205014148,0.7001887402504294
0.05,1.7400856888557792,1.0,2789.7808418491177,0.4302228630581024,1.3061423304769204,0.9742610870632838,0.2861365989319427,0.7011379894456635
0.0505,1.7390899372016824,1.0,2793.8526895416326,0.433418867094114,1.305656040025011,0.9745960541468539,0.2860947773624707,0.7020866874879748
0.051000000000000004,1.7380941855475855,1.0,2797.9770578506573,0.4365969448724273,1.3051693047148016,0.974922088408359,0.2860529557929986,0.7030347431756523
0.051500000000000004,1.7370984338934887,1.0,2802.149093601555,0.43975719537643243,1.30468216906744,0.9752395112862535,0.28601113422352653,0.7039820658557396
0.052000000000000005,1.736102682239392,1.0,2806.3639299859883,0.4428997175895196,1.304194677604073,0.9755486298464584,0.28596931265405445,0.7049285654252364
0.0525,1.735106930585295,1.0,2810.616686188285,0.44602461049507885,1.3037068748458485,0.9758497375515796,0.2859274910845824,0.7058741523321688
0.053,1.734111178931198,1.0,2814.9024670564845,0.4491319730765004,1.3032188053139138,0.9761431149825393,0.2858856695151103,0.7068187375765398
0.0535,1.7331154272771012,1.0,2819.216362816999,0.45222190431717424,1.3027305135294163,0.9764290305159496,0.2858438479456382,0.7077622327111477
0.054,1.7321196756230044,1.0,2823.553448833254,0.4552945032004906,1.3022420440135034,0.9767077409602979,0.2858020263761662,0.7087045498422815
0.0545,1.7311239239689076,1.0,2827.9087854080767,0.45834986870983957,1.3017534412873226,0.9769794921537773,0.2857602048066941,0.7096456016302881
0.055,1.7301281723148108,1.0,2832.28427122988,0.46138807894910927,1.3012646887161816,0.9772445138781248,0.28571838323722204,0.710585418790632
0.0555,1.7291324206607137,1.0,2836.6695924743185,0.4644092584838196,1.300775878607895,0.9775030371366031,0.28567656166774996,0.7115238228560232
0.056,1.7281366690066169,1.0,2841.0630026964986,0.46741350029264195,1.3002870266555546,0.9777552758566169,0.28563474009827794,0.7124607832345862
0.0565,1.72714091735252,1.0,2845.4631003458508,0.470400896131362,1.2997981454334537,0.9780014348702581,0.28559291852880586,0.7133962754931815
0.057,1.7261451656984232,1.0,2849.8684795099725,0.4733715377557655,1.299309247515884,0.9782417106552619,0.2855510969593338,0.7143302753554696
0.0575,1.7251494140443264,1.0,2854.277729907547,0.4763255169216382,1.2988203454771383,0.9784762917437884,0.2855092753898617,0.7152627587019251
0.058,1.7241536623902294,1.0,2858.6894368856783,0.47926292538476584,1.2983314518915086,0.97870535910803,0.2854674538203896,0.7161937015698486
0.0585,1.7231579107361326,1.0,2863.1021814204605,0.4821838549009341,1.2978425793332873,0.9789290865241385,0.28542563225091755,0.7171230801533625
0.059000000000000004,1.7221621590820357,1.0,2867.5145401210198,0.48508839722592867,1.297353740376767,0.9791476409158454,0.28538381068144547,0.7180508708034001
0.059500000000000004,1.721166407427939,1.0,2871.9250852373993,0.4879766441155354,1.2968649475962395,0.9793611826790715,0.28534198911197345,0.7189770500276849
0.06,1.720170655773842,1.0,2876.332384671175,0.4908486873255398,1.2963762135659977,0.9795698659887042,0.28530016754250137,0.7199015944906955
0.0605,1.719174904119745,1.0,2880.7350019905853,0.4937046186117279,1.2958875508603336,0.9797738390886663,0.2852583459730293,0.7208244810136273
0.061,1.7181791524656482,1.0,2885.1314964484304,0.4965445297298852,1.2953989720535397,0.9799732445663011,0.2852165244035572,0.721745686574337
0.0615,1.7171834008115514,1.0,2889.52042300374,0.4993685124357975,1.2949104897199082,0.9801682196120345,0.28517470283408514,0.722665188307283
0.062,1.7161876491574546,1.0,2893.9014227295547,0.5021766445693677,1.2944221068082062,0.980358894703544,0.2851328812646131,0.7235829815772232
0.0625,1.7151918975033578,1.0,2898.2743248648508,0.504969012407162,1.2939338245990308,0.9805453960302485,0.28509105969514104,0.7244990649125835
0.063,1.714196145849261,1.0,2902.6365667329233,0.507745733402414,1.2934456654529232,0.9807278485103094,0.28504923812566896,0.7254133974071783
0.0635,1.713200394195164,1.0,2906.9879475444272,0.5105068911637689,1.292957630861073,0.9809063689152028,0.2850074165561969,0.7263259774243216
0.064,1.712204642541067,1.0,2911.3282661054477,0.5132525692998713,1.29246972231467,0.9810810697802728,0.2849655949867248,0.727236803345599
0.0645,1.7112088908869703,1.0,2915.6573208214045,0.5159828514193662,1.2919819413049036,0.9812520595896763,0.2849237734172527,0.728145873570854
0.065,1.7102131392328734,1.0,2919.974909701586,0.5186978211308982,1.291494289322964,0.9814194429519554,0.2848819518477807,0.7290531865181766
0.0655,1.7092173875787766,1.0,2924.280830362946,0.5213975620431123,1.29100676786004,0.981583320766775,0.2848401302783086,0.7299587406238928
0.066,1.7082216359246796,1.0,2928.5748800347355,0.5240821577646533,1.2905193784073223,0.9817437903833313,0.28479830870883655,0.7308625343425481
0.0665,1.7072258842705827,1.0,2932.856855562811,0.526751691904166,1.2900321224559999,0.9819009457509013,0.28475648713936447,0.7317645661469002
0.067,1.706230132616486,1.0,2937.126553413949,0.5294062480702952,1.2895450014972625,0.9820548775619814,0.2847146655698924,0.7326648345279028
0.0675,1.705234380962389,1.0,2941.3837696801907,0.532045909871686,1.2890580170223,0.9822056733884245,0.28467284400042037,0.7335633379946929
0.068,1.7042386293082923,1.0,2945.628300083425,0.5346707609169828,1.288571170522302,0.9823534178109673,0.2846310224309483,0.7344600750745808
0.0685,1.7032428776541955,1.0,2949.859939979999,0.5372808848148307,1.288084463488458,0.9824981925425122,0.2845892008614762,0.7353550443130334
0.069,1.7022471260000984,1.0,2954.0784843651963,0.5398763651738745,1.287597897411958,0.9826400765455073,0.28454737929200413,0.7362482442736636
0.0695,1.7012513743460016,1.0,2958.2837278779816,0.542457285602759,1.2871114737839915,0.9827791461437413,0.28450555772253205,0.7371396735382155
0.07,1.7002556226919048,1.0,2962.4754648055437,0.545023729710129,1.2866251940957478,0.9829154751288619,0.28446373615306,0.7380293307065526
0.07050000000000001,1.699259871037808,1.0,2966.6534890881007,0.5475757811046295,1.2861390598384173,0.9830491348618958,0.2844219145835879,0.7389172143966412
0.07100000000000001,1.698264119383711,1.0,2970.81800865656,0.5501134824532701,1.2856530688932597,0.9831801917568941,0.2843800930141159,0.7398033298209905
0.07150000000000001,1.697268367729614,1.0,2974.9690559598776,0.5526369331378823,1.2851672206765163,0.9833087135325005,0.2843382714446438,0.7406876793738235
