Time [s],Phi [rad],STIM [ ],Fsee [N],Gamma [ ],Lcerel [ ],q [ ],Lmtc [m],fisomrel [ ]
0.0,1.8,1.0,17.97650025201122,0.00010391814477799007,1.379338699729852,0.005002825423578474,0.288653,0.5411420627782692
0.0005,1.79999375,1.0,18.317004003547865,0.005712544554987039,1.3792979181630647,0.013203307604580484,0.2886527375,0.541240718358307
0.001,1.799975,1.0,21.728492893518272,0.011289711005503258,1.3789270701455512,0.036099659901404915,0.28865195,0.5421373581342748
0.0015,1.79994375,1.0,31.328742987347802,0.016835593962758414,1.3780241406000961,0.07127284960364422,0.2886506375,0.5443168020521644
0.002,1.7999,1.0,54.13969277628219,0.02235036890140785,1.3763320701400388,0.11551200282135508,0.2886488,0.5483870311993397
0.0025,1.79984375,1.0,98.05369587783561,0.027834210312507286,1.373890231358131,0.16543824074550809,0.28864643749999996,0.5542286189252658
0.003,1.7997750000000001,1.0,162.1731335298007,0.03328729171037672,1.3711689518933117,0.2181708699658386,0.28864354999999997,0.5606939067296572
0.0035,1.79969375,1.0,239.05536740908678,0.038709785632887954,1.368542532713846,0.27149833379804916,0.2886401375,0.5668890356532643
0.004,1.7996,1.0,322.9260599541807,0.04410186365204353,1.3661174851790072,0.32377303451924355,0.2886362,0.5725701117544625
0.0045000000000000005,1.7994937500000001,1.0,410.7785983050445,0.04946369637922216,1.363887381487131,0.3738481636911952,0.2886317375,0.577761395390431
0.005,1.799375,1.0,500.9549220714874,0.054795453456787366,1.3618256125796468,0.4210086405888702,0.28862675,0.5825326086778166
0.0055,1.79924375,1.0,592.345121965512,0.06009730360038221,1.3599084798332328,0.4648783987371772,0.2886212375,0.5869447900004192
0.006,1.7991000000000001,1.0,684.0741109962437,0.06536941455427665,1.3581181468626629,0.5053275580254398,0.2886152,0.5910439824223606
0.006500000000000001,1.79894375,1.0,775.4278760872413,0.07061195312450626,1.356440865007367,0.5423928674376521,0.2886086375,0.5948657836505102
0.007,1.798775,1.0,865.817022457338,0.07582508521799856,1.3548656719734196,0.5762163349595528,0.28860155,0.5984386315524661
0.0075,1.79859375,1.0,954.7522353270232,0.08100897578076592,1.3533835780837622,0.6070006046493245,0.2885939375,0.6017858633313697
0.008,1.7984,1.0,1041.8288212528057,0.08616378860977279,1.3519870058014916,0.6349779684925856,0.2885858,0.6049271292949642
0.0085,1.79819375,1.0,1126.7589261505489,0.09128968734517741,1.3506687964373172,0.6603894330356809,0.2885771375,0.6078807245063884
0.009000000000000001,1.797975,1.0,1209.2880552272459,0.09638683380504147,1.349423076837512,0.6834723741288821,0.28856795,0.6106617135631576
0.0095,1.79774375,1.0,1289.229767125503,0.10145538907787349,1.348244428882242,0.7044523973636346,0.2885582375,0.6132838576290853
0.01,1.7975,1.0,1366.4671067203535,0.1064955136819829,1.3471276800028125,0.7235391360765443,0.288548,0.6157601204587533
0.0105,1.79724375,1.0,1440.928614285935,0.11150736764302178,1.3460680659371296,0.7409245714451674,0.2885372375,0.6181023397274699
0.011,1.796975,1.0,1512.5428186243507,0.11649110882963816,1.3450616464413256,0.7567829084114239,0.28852595000000003,0.6203203448826582
0.0115,1.79669375,1.0,1581.2892676626295,0.12144689495263333,1.344104529027941,0.7712707506942542,0.2885141375,0.6224237024950858
0.012,1.7964,1.0,1647.1835481303697,0.12637488289835333,1.3431929812897168,0.7845282447249349,0.28850180000000003,0.6244214846730745
0.0125,1.79609375,1.0,1710.2607228946652,0.1312752294900292,1.342323553656525,0.7966804626119733,0.2884889375,0.6263220172575519
0.013000000000000001,1.7957750000000001,1.0,1770.540817466036,0.1361480887541725,1.3414933985061401,0.807838926924717,0.28847555,0.6281322027319087
0.0135,1.79544375,1.0,1828.0751921351512,0.14099361471729477,1.3406996682163366,0.8181027492770118,0.2884616375,0.6298588522872391
0.014,1.7951000000000001,1.0,1882.9300782489204,0.14581196054590387,1.3399396652890556,0.8275600314161471,0.2884472,0.6315083672294797
0.0145,1.79474375,1.0,1935.1926702652356,0.15060328023458364,1.339210738674699,0.8362890667608031,0.2884322375,0.6330869731114959
0.015,1.794375,1.0,1984.9295838596172,0.15536772499994392,1.33851069939288,0.8443596069117577,0.28841675,0.6345998290706101
0.0155,1.79399375,1.0,2032.2050668310333,0.16010544455580647,1.337837579709098,0.8518337732500594,0.2884007375,0.6360515616591162
0.016,1.7936,1.0,2077.099455302866,0.16481658861599313,1.3371894118888534,0.8587668853553544,0.2883842,0.6374467490754119
0.0165,1.7931937500000001,1.0,2119.7052741926027,0.16950130664495713,1.336564254208118,0.865208275017738,0.2883671375,0.6387898685884354
0.017,1.792775,1.0,2160.1106759127156,0.17415974699854259,1.3359603457466318,0.8712020399318143,0.28834955,0.6400849683858534
0.0175,1.7923437500000001,1.0,2198.411462308938,0.17879205858926384,1.3353759646416958,0.8767876209816294,0.2883314375,0.641335976851569
0.018000000000000002,1.7919,1.0,2234.6749477409307,0.1833983865303278,1.3348097793117306,0.882000439769312,0.2883128,0.6425459556034128
0.0185,1.79144375,1.0,2268.976691511744,0.18797887593494136,1.3342604581751574,0.8868722636056067,0.2882936375,0.6437179403716004
0.019,1.790975,1.0,2301.3998136638183,0.19253367191631146,1.333726669650397,0.8914316287205009,0.28827395,0.6448549424874195
0.0195,1.79049375,1.0,2332.0249467775047,0.1970629183706194,1.333207174625925,0.895704232419905,0.2882537375,0.6459597537557662
0.02,1.79,1.0,2360.942428317422,0.2015667604090063,1.332700698540346,0.899713226193431,0.288233,0.6470352206338196
0.0205,1.78949375,1.0,2388.227510123129,0.20604534067487965,1.3322061681393065,0.9034795528769323,0.2882117375,0.6480837431447668
0.021,1.788975,1.0,2413.94259441186,0.21049879944966107,1.3317226795561141,0.9070221826551398,0.28818995000000003,0.6491073465182131
0.021500000000000002,1.78844375,1.0,2438.154001937108,0.2149272770147722,1.3312493289240763,0.9103582932012744,0.2881676375,0.6501080423703733
0.022,1.7879,1.0,2460.9316466373375,0.21933091365163476,1.3307852123764998,0.9135034637653225,0.2881448,0.6510878293145215
0.0225,1.78734375,1.0,2482.3447152984,0.22370984891176696,1.3303294642970964,0.9164718532280763,0.28812143749999997,0.6520486129374787
0.023,1.786775,1.0,2502.4590058960957,0.2280642216149246,1.3298812790718848,0.9192763539021079,0.28809755,0.6529921610902336
0.0235,1.78619375,1.0,2521.349358114326,0.2323941720208395,1.329439789937918,0.9219287013438768,0.28807313749999996,0.6539203597119275
0.024,1.7856,1.0,2539.0652418701393,0.23669983525688829,1.3290043922014962,0.9244396490837098,0.2880482,0.6548345341585589
0.0245,1.78499375,1.0,2555.6579725183838,0.24098134645044747,1.328574481168919,0.9268190226151878,0.2880227375,0.6557360023105091
0.025,1.784375,1.0,2571.1805575531384,0.24523884072889365,1.3281494521464867,0.9290758122136307,0.28799675,0.6566260747957928
0.025500000000000002,1.78374375,1.0,2585.6875514172093,0.24947245321960343,1.3277287004404992,0.9312182553428561,0.2879702375,0.6575060551899923
0.026000000000000002,1.7831000000000001,1.0,2599.229292351348,0.25368231772402733,1.3273116737618929,0.9332539178729425,0.2879432,0.6583771308009829
0.0265,1.78244375,1.0,2611.856079270681,0.2578685683330158,1.3268978315814293,0.9351897525828787,0.2879156375,0.6592404582505087
0.027,1.781775,1.0,2623.6250516315436,0.26203134010549733,1.3264865801805577,0.9370321473603405,0.28788755,0.6600972989859831
0.0275,1.7810937500000001,1.0,2634.572976743606,0.2661707627149964,1.3260775240254876,0.9387870135750978,0.2878589375,0.6609484959356109
0.028,1.7804,1.0,2644.737400568803,0.2702869658350375,1.3256702675824288,0.9404598021964096,0.2878298,0.6617948877958841
0.0285,1.77969375,1.0,2654.156580698839,0.2743800791391449,1.3252644153175912,0.9420555456909866,0.2878001375,0.6626373090819693
0.029,1.778975,1.0,2662.869422801296,0.27845023230084315,1.3248595716971843,0.9435788956029579,0.28776995,0.6634765901681187
0.029500000000000002,1.7782437500000001,1.0,2670.9154205336977,0.28249755499365664,1.324455341187418,0.9450341563078517,0.2877392375,0.6643135573181
0.03,1.7775,1.0,2678.328614024133,0.2865221740620041,1.324051383172198,0.9464253217231072,0.287708,0.6651489192097745
0.0305,1.77674375,1.0,2685.149190350709,0.29052422042118686,1.3236473048057418,0.9477560903201191,0.2876762375,0.6659834888137095
0.031,1.775975,1.0,2691.4071408513787,0.29450382021333316,1.323242810515492,0.9490299065611674,0.28764395,0.6668178745218294
0.0315,1.7751937500000001,1.0,2697.1289895847467,0.2984610976843725,1.3228376395351373,0.9502499751702196,0.2876111375,0.6676526100107805
0.032,1.7744,1.0,2702.341551763586,0.3023961770802344,1.3224315310983654,0.9514192773078541,0.2875778,0.6684882262549867
0.0325,1.77359375,1.0,2707.07190578339,0.3063091826468484,1.3220242244388647,0.9525405889052342,0.2875439375,0.6693252515132261
0.033,1.772775,1.0,2711.347366757885,0.31020023863014395,1.3216154587903228,0.9536164972835129,0.28750955,0.6701642113108743
0.0335,1.7719437500000002,1.0,2715.191789925854,0.3140694690972788,1.321205006848028,0.9546494200186801,0.2874746375,0.671005559871678
0.034,1.7711000000000001,1.0,2718.621555200673,0.3179169962116345,1.3207927110212454,0.9556416218675032,0.2874392,0.6718496063636472
0.0345,1.7702437500000001,1.0,2721.705080102685,0.3217429432250889,1.320377941335032,0.9565951677767911,0.2874032375,0.6726976234245114
0.035,1.769376534315284,1.0,2724.5017216956794,0.32554742981868995,1.319960845286912,0.9575120728342112,0.2873668144412419,0.6735492904441478
0.035500000000000004,1.768507727689332,1.0,2727.460400940599,0.3293305756734856,1.3195415703744093,0.9583942230648882,0.28733032456295193,0.6744042882737769
0.036000000000000004,1.76763892106338,1.0,2730.644210061018,0.33309250047052374,1.319120264095048,0.9592433851830949,0.28729383468466196,0.6752622992471521
0.0365,1.766770114437428,1.0,2734.037577834221,0.33683332375908825,1.3186970714192006,0.9600612152153538,0.287257344806372,0.6761230123368144
0.037,1.765901307811476,1.0,2737.6208967862704,0.340553163633844,1.318272173817284,0.9608492702760617,0.28722085492808197,0.6769860439209839
0.0375,1.765032501185524,1.0,2741.367122558982,0.34425213961176565,1.317845819925243,0.9616090193536212,0.287184365049792,0.6778508761353637
0.038,1.764163694559572,1.0,2745.261199011434,0.3479303673906331,1.3174181491881403,0.9623418314985834,0.28714787517150203,0.678717214814973
0.0385,1.7632948879336199,1.0,2749.2880387312784,0.3515879626682265,1.3169893010510385,0.963048994272374,0.287111385293212,0.6795847672805296
0.039,1.762426081307668,1.0,2753.432519179462,0.3552250411423258,1.316559414959,0.9637317194895891,0.28707489541492204,0.6804532423495395
0.0395,1.7615572746817159,1.0,2757.6800035307,0.35884171804495846,1.316128625616119,0.9643911479757221,0.28703840553663207,0.6813223599045396
0.04,1.760688468055764,1.0,2762.0238908032165,0.3624381019882462,1.3156969947544723,0.9650283472199683,0.2870019156583421,0.6821919882110801
0.0405,1.7598196614298118,1.0,2766.438898534961,0.366014319590152,1.3152647526265457,0.9656443422670634,0.2869654257800521,0.6830616573702899
0.041,1.75895085480386,1.0,2770.9184319257665,0.3695704810327363,1.3148319601895453,0.9662400828262073,0.2869289359017621,0.6839312399337008
0.0415,1.7580820481779078,1.0,2775.4558764907774,0.37310669649805966,1.3143986784006765,0.9668164659414511,0.28689244602347214,0.6848006091196046
0.042,1.757213241551956,1.0,2780.044597358419,0.3766230761681826,1.3139649682171448,0.9673743394590661,0.2868559561451821,0.6856696388150743
0.0425,1.7563444349260038,1.0,2784.6779386499925,0.38011973022516554,1.3135308905961562,0.9679145052324815,0.28681946626689214,0.6865382035777459
0.043000000000000003,1.7554756283000517,1.0,2789.349222941955,0.383596768851069,1.313096506494916,0.9684377220871206,0.2867829763886022,0.6874061786373693
0.043500000000000004,1.7546068216740998,1.0,2794.051750810345,0.3870543022279535,1.3126618768706302,0.9689447085653753,0.2867464865103122,0.6882734398971138
0.044,1.7537380150481479,1.0,2798.7788004580993,0.3904924405378795,1.312227062680504,0.9694361454700582,0.28670999663202223,0.6891398639346451
0.0445,1.7528692084221957,1.0,2803.5236274239164,0.39391129396290764,1.3117921248817432,0.9699126782229938,0.2866735067537322,0.6900053280029574
0.045,1.7520004017962438,1.0,2808.283393342395,0.3973109642306121,1.3113570892232158,0.9703749151415622,0.28663701687544224,0.6908697799440257
0.0455,1.7511315951702917,1.0,2813.051299403707,0.40069156696794983,1.3109220168275166,0.9708234382757558,0.2866005269971522,0.6917330977420583
0.046,1.7502627885443398,1.0,2817.821793759881,0.40405321424290624,1.3104869574550113,0.971258798988305,0.28656403711886225,0.6925951825584502
0.0465,1.7493939819183877,1.0,2822.5929275512367,0.40739600933937326,1.3100519284924657,0.9716815175900869,0.2865275472405723,0.6934560001215018
0.047,1.7485251752924358,1.0,2827.362745343768,0.41072005554124275,1.309616947326645,0.972092088765191,0.2864910573622823,0.6943155163524539
0.0475,1.7476563686664837,1.0,2832.1292851443154,0.4140254561324067,1.3091820313443159,0.9724909830756443,0.28645456748399234,0.6951736973654417
0.048,1.7467875620405318,1.0,2836.890578422241,0.417312314396757,1.3087471979322438,0.9728786483641869,0.2864180776057023,0.6960305094674358
0.0485,1.7459187554145796,1.0,2841.6446501381793,0.42058073361818554,1.3083124644771944,0.9732555110628989,0.28638158772741235,0.6968859191581593
0.049,1.7450499487886277,1.0,2846.3895187788116,0.42383081708058434,1.307877848365934,0.973621977414805,0.2863450978491224,0.6977398931299841
0.0495,1.7441811421626756,1.0,2851.123196398988,0.4270626680678453,1.307443366985228,0.9739784346149967,0.28630860797083235,0.6985923982678142
0.05,1.7433123355367237,1.0,2855.8436886704117,0.4302763898638603,1.3070090377218422,0.974325251877257,0.2862721180925424,0.6994434016489428
0.0505,1.7424435289107716,1.0,2860.5489949366943,0.43347208575252133,1.3065748779625428,0.9746627814316842,0.2862356282142524,0.7002928705428955
0.051000000000000004,1.7415747222848195,1.0,2865.2388283572445,0.4366498441630847,1.3061408898340383,0.9749913568123506,0.28619913833596244,0.7011408022054313
0.051500000000000004,1.7407059156588676,1.0,2869.912225007054,0.43980976834367386,1.3057070814598006,0.9753112985571716,0.2861626484576724,0.7019871822236314
0.052000000000000005,1.7398371090329157,1.0,2874.565797871937,0.4429519836574424,1.3052734824007217,0.975622916596094,0.28612615857938245,0.7028319545374243
0.0525,1.7389683024069635,1.0,2879.199397088775,0.4460765850531804,1.3048400934750342,0.9759265020496465,0.2860896687010925,0.7036751192925141
0.053,1.7380994957810116,1.0,2883.8128727897915,0.44918366747967764,1.3044069155009703,0.9762223332870701,0.28605317882280246,0.7045166766428097
0.0535,1.7372306891550595,1.0,2888.4060751064094,0.452273325885724,1.3039739492967626,0.9765106765944321,0.2860166889445125,0.7053566267504121
0.054,1.7363618825291076,1.0,2892.9788541727758,0.4553456552201094,1.3035411956806433,0.9767917868022274,0.2859801990662225,0.706194969785604
0.0545,1.7354930759031555,1.0,2897.531060129786,0.45840075043162376,1.3031086554708453,0.9770659078752546,0.28594370918793255,0.7070317059268381
0.055,1.7346242692772036,1.0,2902.062543128977,0.4614387064690569,1.3026763294856007,0.9773332734673265,0.2859072193096426,0.7078668353607273
0.0555,1.7337554626512515,1.0,2906.573153336443,0.4644596182811987,1.302244218543142,0.9775941074431951,0.28587072943135255,0.7087003582820326
0.056,1.7328866560252996,1.0,2911.062740936591,0.46746358081683914,1.301812323461702,0.9778486243698801,0.2858342395530626,0.709532274893651
0.0565,1.7320178493993474,1.0,2915.531156136122,0.470450689024768,1.3013806450595127,0.9780970299794352,0.28579774967477256,0.7103625854066073
0.057,1.7311490427733953,1.0,2919.9782491679816,0.4734210378537752,1.3009491841548069,0.9783395216050328,0.2857612597964826,0.7111912900400388
0.0575,1.7302802361474434,1.0,2924.403870295271,0.47637472225265065,1.300517941565817,0.9785762885921095,0.2857247699181926,0.7120183890211869
0.058,1.7294114295214915,1.0,2928.807869815127,0.4793118371701842,1.3000869181107753,0.9788075126861872,0.28568828003990265,0.7128438825853854
0.0585,1.7285426228955394,1.0,2933.1900980628297,0.48223247755516585,1.2996561146079144,0.9790333683988718,0.2856517901616127,0.7136677709760474
0.059000000000000004,1.7276738162695873,1.0,2937.5504054156127,0.4851367383563853,1.2992255318754666,0.9792540233534205,0.28561530028332266,0.714490054444656
0.059500000000000004,1.7268050096436354,1.0,2941.889009691962,0.48802468124998843,1.2987951675149878,0.9794696357067159,0.2855788104050327,0.7153107393803902
0.06,1.7259362030176835,1.0,2946.2062229568082,0.4908964172197705,1.298365018313341,0.979680361481341,0.2855423205267427,0.7161298336954072
0.0605,1.7250673963917313,1.0,2950.502046322798,0.4937520667263225,1.2979350837880463,0.9798863515560058,0.2855058306484527,0.7169473400771997
0.061,1.7241985897657794,1.0,2954.776716452566,0.49659171509361494,1.297505361402888,0.9800877481386097,0.2854693407701627,0.7177632651037533
0.0615,1.7233297831398273,1.0,2959.030471150563,0.49941544764561835,1.29707584862165,0.98028468806632,0.28543285089187276,0.7185776153243829
0.062,1.7224609765138754,1.0,2963.2635493516104,0.5022233497063033,1.2966465429081167,0.9804773030492221,0.2853963610135828,0.719390397259767
0.0625,1.7215921698879233,1.0,2967.4761911087753,0.5050155065996405,1.296217441726072,0.9806657199011475,0.28535987113529276,0.720201617401981
0.063,1.7207233632619714,1.0,2971.6686375821714,0.5077920036496002,1.2957885425393,0.9808500607584383,0.2853233812570028,0.7210112822145303
0.0635,1.7198545566360193,1.0,2975.8411310273614,0.5105529261801531,1.295359842811585,0.9810304432873699,0.2852868913787128,0.7218193981323848
0.064,1.7189857500100674,1.0,2979.993914783759,0.5132983595152698,1.294931340006711,0.9812069808808946,0.2852504015004228,0.7226259715620083
0.0645,1.7181169433841152,1.0,2984.1272332643425,0.5160283889789208,1.294503031588462,0.9813797828453348,0.28521391162213283,0.7234310088813947
0.065,1.7172481367581631,1.0,2988.241331943589,0.5187430998950766,1.2940749150206223,0.9815489545776032,0.28517742174384286,0.724234516440095
0.0655,1.7163793301322112,1.0,2992.336457347474,0.5214425775877078,1.293646987766976,0.9817145977335023,0.2851409318655529,0.725036500559252
0.066,1.7155105235062593,1.0,2996.4128570421003,0.5241269073807849,1.293219247291307,0.9818768103876075,0.28510444198726287,0.7258369675316304
0.0665,1.7146417168803072,1.0,3000.4707796237785,0.5267961745982785,1.2927916910573998,0.9820356871852169,0.2850679521089729,0.726635923621646
0.067,1.713772910254355,1.0,3004.5104747080786,0.5294504645641592,1.292364316529038,0.9821913194868092,0.28503146223068293,0.7274333750653971
0.0675,1.7129041036284032,1.0,3008.5321929195757,0.5320898626023974,1.291937121170006,0.9823437955054356,0.2849949723523929,0.7282293280706928
0.068,1.7120352970024513,1.0,3012.5361858820834,0.5347144540369637,1.291510102444088,0.9824932004374352,0.28495848247410294,0.7290237888170832
0.0685,1.7111664903764991,1.0,3016.5227062083386,0.5373243241918287,1.291083257815068,0.9826396165868404,0.28492199259581297,0.7298167634558888
0.069,1.710297683750547,1.0,3020.492007490106,0.539919558390963,1.29065658474673,0.982783123483825,0.284885502717523,0.7306082581102264
0.0695,1.7094288771245951,1.0,3024.444314606249,0.5425002386506568,1.2902300809591667,0.9829237978052728,0.284849012839233,0.7313982784006237
0.07,1.7085600704986432,1.0,3028.379525058041,0.5450664034435875,1.2898037470051713,0.9830617111620228,0.284812522960943,0.7321868246867431
0.07050000000000001,1.707691263872691,1.0,3032.298482763318,0.5476181956446998,1.2893775752759908,0.9831969387612284,0.28477603308265304,0.7329739123960084
0.07100000000000001,1.706822457246739,1.0,3036.2013836708898,0.5501556912964928,1.288951563768487,0.9833295495690842,0.284739543204363,0.7337595465425575
0.07150000000000001,1.705953650620787,1.0,3040.088424499837,0.5526789664414656,1.2885257104795214,0.9834596103184234,0.28470305332607304,0.7345437321182635
