Time [s],Phi [rad],STIM [ ],Fsee [N],Gamma [ ],Lcerel [ ],q [ ],Lmtc [m],fisomrel [ ]
0.0,1.8,1.0,18.701788094889192,0.0008738489190783699,1.3792582676175635,0.005196382517798861,0.288653,0.5413366276904483
0.0005,1.79999375,1.0,19.269870319431423,0.006478156626527845,1.3791935300272458,0.015511610869660398,0.2886527375,0.5414931976577688
0.001,1.799975,1.0,23.25379146626079,0.012051028598893386,1.3787743139150355,0.040250993353321496,0.28865195,0.5425064385146499
0.0015,1.79994375,1.0,34.15440864719021,0.01759264116609236,1.3777895775953872,0.0768635342837227,0.2886506375,0.5448821271055451
0.002,1.7999,1.0,59.51328059747822,0.02310316966820523,1.3759934616963094,0.12207409740655677,0.2886488,0.5491993519184499
0.0025,1.79984375,1.0,106.48937700000666,0.02858278846319166,1.3734940240005935,0.17253970479740505,0.28864643749999996,0.555172876389809
0.003,1.7997750000000001,1.0,172.7765877872487,0.0340316709290503,1.370779804292704,0.22547250735058796,0.28864354999999997,0.5616145941602811
0.0035,1.79969375,1.0,250.83664404105392,0.039449989471481324,1.3681850327898313,0.2787432331620305,0.2886401375,0.5677288955023945
0.004,1.7996,1.0,335.3408143377654,0.04483791552858634,1.3657925035441165,0.3307757607317589,0.2886362,0.5733285853027026
0.0045000000000000005,1.7994937500000001,1.0,423.5564458082291,0.05019561959082407,1.3635902815444532,0.3804870095864995,0.2886317375,0.5784505968317133
0.005,1.799375,1.0,513.9303221043795,0.05552327114384524,1.3615520708825255,0.4272140502842154,0.28862675,0.5831635843130014
0.0055,1.79924375,1.0,605.4020420233398,0.06082103884256973,1.359655102945717,0.47061972102791155,0.2886212375,0.5875261700417914
0.006,1.7991000000000001,1.0,697.0965718896146,0.06608909017046477,1.3578828172455002,0.5106015633988402,0.2886152,0.5915812790829844
0.006500000000000001,1.79894375,1.0,788.3421652679596,0.07132759197733841,1.3562215389957664,0.54721368236469,0.2886086375,0.5953642064907134
0.007,1.798775,1.0,878.5457962793773,0.07653670983452655,1.354660992907841,0.5806088997296341,0.28860155,0.5989017222883429
0.0075,1.79859375,1.0,967.249437817196,0.08171660877531955,1.3531921345963005,0.6109953015734426,0.2885939375,0.6022172068217755
0.008,1.7984,1.0,1054.0590967032517,0.08686745252796448,1.3518075917573191,0.6386074740358292,0.2885858,0.6053297780035571
0.0085,1.79819375,1.0,1138.6645607428177,0.09198940395153651,1.3505008070968956,0.6636868002358548,0.2885771375,0.6082563272462526
0.009000000000000001,1.797975,1.0,1220.8581021240182,0.09708262561450821,1.3492654527706485,0.6864691032864657,0.28856795,0.6110128938166899
0.0095,1.79774375,1.0,1300.4526582126373,0.10214727821112582,1.3480963187093071,0.7071780914609074,0.2885582375,0.6136127324650142
0.01,1.7975,1.0,1377.3204963883973,0.10718352189838216,1.3469885267456705,0.7260211775777358,0.288548,0.6160681196009857
0.0105,1.79724375,1.0,1451.3962790089608,0.11219151635943218,1.3459373497555185,0.7431878614598435,0.2885372375,0.61839078457949
0.011,1.796975,1.0,1522.6347002898722,0.11717142020318658,1.3449386243580608,0.7588497827235331,0.28852595000000003,0.6205910249552572
0.0115,1.79669375,1.0,1591.0057486913392,0.12212339043805089,1.3439886712732239,0.773161319530094,0.2885141375,0.622677914654598
0.012,1.7964,1.0,1656.517315913144,0.12704758356945536,1.3430839228091926,0.7862605297461215,0.28850180000000003,0.6246601463962244
0.0125,1.79609375,1.0,1719.2158888628178,0.1319441564632418,1.3422208555438455,0.7982704785140279,0.2884889375,0.6265461927003777
0.013000000000000001,1.7957750000000001,1.0,1779.1391849718036,0.13681326397890076,1.3413964761203474,0.8093008543285851,0.28847555,0.628343259223881
0.0135,1.79544375,1.0,1836.3234326435124,0.1416550592425852,1.3406081594688286,0.8194492713186902,0.2884616375,0.6300576584925288
0.014,1.7951000000000001,1.0,1890.8318014488973,0.14646969538044818,1.33985328051942,0.8288024421574163,0.2884472,0.6316956241077435
0.0145,1.79474375,1.0,1942.7421123786314,0.15125732483387513,1.3391293212819833,0.8374374476031304,0.2884322375,0.6332630849707315
0.015,1.794375,1.0,1992.142708293887,0.15601810026675653,1.3384338847110349,0.8454228540438474,0.28841675,0.6347656431103252
0.0155,1.79399375,1.0,2039.1067313761484,0.16075217206955622,1.3377649374742844,0.852819784683504,0.2884007375,0.6362080580771453
0.016,1.7936,1.0,2083.7033114890055,0.16545968905645791,1.3371206557381503,0.8596827436506993,0.2883842,0.6375945901616057
0.0165,1.7931937500000001,1.0,2126.015486847033,0.17014080004164533,1.3364992156690505,0.8660603352019561,0.2883671375,0.6389294574429651
0.017,1.792775,1.0,2166.1330293079372,0.1747956532351036,1.3358988545099468,0.8719959800437073,0.28834955,0.6402167077133469
0.0175,1.7923437500000001,1.0,2204.148411055722,0.17942439678676889,1.3353178974526985,0.8775285348260795,0.2883314375,0.6414601646935638
0.018000000000000002,1.7919,1.0,2240.149821306011,0.18402717796589077,1.3347548140203387,0.8826928411340734,0.2883128,0.6426633115121443
0.0185,1.79144375,1.0,2274.2054246425737,0.18860414102318349,1.3342083604390942,0.8875202265750893,0.2882936375,0.6438289917494021
0.019,1.790975,1.0,2306.390567075736,0.19315543020936127,1.3336772929351923,0.8920388379331918,0.28827395,0.6449600260824039
0.0195,1.79049375,1.0,2336.7871789286946,0.19768118977513832,1.3331603677348605,0.8962740055755843,0.2882537375,0.6460592135547594
0.02,1.79,1.0,2365.4734927847644,0.20218156264190534,1.332656435962986,0.9002485839092808,0.288233,0.6471291314171039
0.0205,1.78949375,1.0,2392.537474847161,0.20665669314634133,1.332164305419767,0.9039831987234691,0.2882117375,0.6481724305006499
0.021,1.788975,1.0,2418.0514469608743,0.2111067229610454,1.3316829823651495,0.9074965444578945,0.28818995000000003,0.6491913240094387
0.021500000000000002,1.78844375,1.0,2442.075666283167,0.2155317914417846,1.331211627938786,0.9108055846291551,0.2881676375,0.6501876834124337
0.022,1.7879,1.0,2464.6737929374463,0.21993203794432586,1.330749403280328,0.9139257071938073,0.2881448,0.6511633680794227
0.0225,1.78734375,1.0,2485.912607416328,0.22430760182443632,1.330295469529428,0.9168708926760363,0.28812143749999997,0.6521202257918837
0.023,1.786775,1.0,2505.8590624177314,0.22865862198726616,1.329849013260816,0.9196538670439095,0.28809755,0.6530600397030166
0.0235,1.78619375,1.0,2524.5715065069444,0.2329852355745637,1.3294093265838673,0.9222862461957274,0.28807313749999996,0.6539843608404434
0.024,1.7856,1.0,2542.1300055955676,0.23728758288134144,1.328975517569844,0.9247785989581323,0.2880482,0.6548951174733844
0.0245,1.78499375,1.0,2558.580623941261,0.24156579805223832,1.328547034545593,0.9271406421956703,0.2880227375,0.6557935143217377
0.025,1.784375,1.0,2573.9710107696897,0.2458200152318932,1.3281233258379612,0.9293812682756445,0.28799675,0.6566807494930967
0.025500000000000002,1.78374375,1.0,2588.35026945576,0.25005036856494495,1.3277038397737955,0.9315086262743717,0.2879702375,0.6575580146604292
0.026000000000000002,1.7831000000000001,1.0,2601.768833452393,0.2542569921960324,1.3272880246799423,0.9335301941959728,0.2879432,0.6584264952203491
0.0265,1.78244375,1.0,2614.277383872183,0.2584400199574865,1.3268753378468263,0.9354528445732538,0.2879156375,0.6592873517459285
0.027,1.781775,1.0,2625.9196044439923,0.2625995828912579,1.3264653115451226,0.9372829108014291,0.28788755,0.6601415827734249
0.0275,1.7810937500000001,1.0,2636.7535555448294,0.2667358170269733,1.3260573536394027,0.9390262103989209,0.2878589375,0.6609904404900175
0.028,1.7804,1.0,2646.814234249131,0.2708488511165748,1.3256510935885981,0.940688138756484,0.2878298,0.661834710601244
0.0285,1.77969375,1.0,2656.1373141089953,0.2749388139120046,1.3252461608516406,0.9422736777820592,0.2878001375,0.6626751749083825
0.029,1.778975,1.0,2664.7590863502096,0.2790058341652048,1.3248421848874616,0.9437874329642173,0.28776995,0.6635126113441971
0.029500000000000002,1.7782437500000001,1.0,2672.7164041119904,0.28305004062811745,1.3244387951549925,0.9452336666687525,0.2877392375,0.664347793999926
0.03,1.7775,1.0,2680.0466297312687,0.2870715620526848,1.3240356211131654,0.9466163280922829,0.287708,0.6651814931435112
0.0305,1.77674375,1.0,2686.7764417108897,0.2910705263375826,1.3236323943118817,0.9479390932563219,0.2876762375,0.6660142645151745
0.031,1.775975,1.0,2692.958806097693,0.2950470603955296,1.3232286090511072,0.9492053446412443,0.28764395,0.6668471501622657
0.0315,1.7751937500000001,1.0,2698.6156274914383,0.29900128938903825,1.3228240475813482,0.9504182618437857,0.2876111375,0.6676805940790671
0.032,1.7744013681641742,1.0,2703.8224060502243,0.3029333378867074,1.32241862295662,0.9515808186685873,0.2875778574628953,0.6685147690394035
0.0325,1.7736072165916856,1.0,2709.0507380037816,0.30684333045713563,1.3220122482309375,0.9526957841793011,0.2875445030968508,0.6693498469045187
0.033,1.7728130650191969,1.0,2714.389288478077,0.3107313908789367,1.3216049148974982,0.9537657481966048,0.2875111487308063,0.6701858377352454
0.0335,1.7720189134467081,1.0,2719.811714758686,0.3145976431285432,1.3211968656537099,0.9547931554144957,0.28747779436476173,0.6710222369076297
0.034,1.7712247618742196,1.0,2725.304198687458,0.31844220874467416,1.3207882283377437,0.9557802745710687,0.2874444399987172,0.6718587772957003
0.0345,1.7704306103017309,1.0,2730.853963648892,0.32226520897601413,1.3203791208321314,0.9567292246067886,0.2874110856326727,0.6726952134401485
0.035,1.7696364587292421,1.0,2736.448182022619,0.3260667650712475,1.3199696610194047,0.9576419874038685,0.28737773126662813,0.6735313011069108
0.035500000000000004,1.7688423071567536,1.0,2742.0808873626934,0.329846992363205,1.319559904087512,0.9585204102252578,0.2873443769005837,0.6743669250624369
0.036000000000000004,1.7680481555842649,1.0,2747.731171669922,0.3336060208911832,1.3191500403654024,0.959366241331705,0.2873110225345391,0.6752016955827871
0.0365,1.7672540040117761,1.0,2753.3936990471616,0.33734396689694923,1.3187401184726661,0.9601811023354249,0.2872776681684946,0.676035512997547
0.037,1.7664598524392876,1.0,2759.063150965405,0.3410609465867886,1.3183301866723578,0.9609665151190823,0.2872443138024501,0.676868278868437
0.0375,1.7656657008667989,1.0,2764.7341869532243,0.3447570761669867,1.317920293227533,0.9617239091282174,0.28721095943640557,0.6776998952618607
0.038,1.7648715492943101,1.0,2770.401444612158,0.3484324718438289,1.317510486401246,0.962454628013277,0.28717760507036105,0.6785302647488656
0.0385,1.7640773977218216,1.0,2776.0595396832077,0.3520872498236007,1.317100814456552,0.9631599357246065,0.2871442507043165,0.6793592904049472
0.039,1.7632832461493329,1.0,2781.7030661658855,0.3557215263125874,1.316691325656506,0.9638410221109088,0.28711089633827197,0.6801868758097094
0.0395,1.762489094576844,1.0,2787.3265964878638,0.35933541751707454,1.3162820682641634,0.9644990080665387,0.28707754197222746,0.6810129250463747
0.04,1.7616949430043554,1.0,2792.928367315832,0.36292903075125965,1.3158730574245474,0.9651349456692142,0.2870441876061829,0.6818374094173105
0.0405,1.7609007914318668,1.0,2798.5023099816713,0.3665024893389998,1.3154643468738287,0.965749833781201,0.28701083324013843,0.6826602227406526
0.041,1.760106639859378,1.0,2804.0444665625187,0.3700559106778234,1.3150559712098757,0.9663446125575885,0.28697747887409386,0.6834812978475828
0.0415,1.7593124882868894,1.0,2809.5538691625607,0.37358940403277197,1.314647938111886,0.9669201664070064,0.28694412450804935,0.6843006219449577
0.042,1.7585183367144008,1.0,2815.0295472913713,0.37710307866888704,1.3142402552590577,0.9674773313778526,0.28691077014200483,0.685118182317354
0.0425,1.757724185141912,1.0,2820.470527923357,0.38059704385121,1.313832930330589,0.9680168982993602,0.2868774157759603,0.6859339663268997
0.043000000000000003,1.7569300335694233,1.0,2825.875835558177,0.38407140884478247,1.3134259710056768,0.9685396156879152,0.2868440614099158,0.6867479614131016
0.043500000000000004,1.7561358819969348,1.0,2831.244492281802,0.38752628291464586,1.3130193849635199,0.9690461924383654,0.28681070704387124,0.6875601550926651
0.044,1.755341730424446,1.0,2836.57551783015,0.39096177532584164,1.3126131798833156,0.9695373003182322,0.2867773526778267,0.6883705349593168
0.0445,1.7545475788519573,1.0,2841.867929652562,0.3943779953434114,1.3122073634442621,0.9700135762810732,0.2867439983117822,0.6891790886836173
0.045,1.7537534272794688,1.0,2847.12074297785,0.39777505223239656,1.311801943325557,0.9704756246137728,0.2867106439457377,0.6899858040127748
0.0455,1.75295927570698,1.0,2852.3329708807546,0.4011530552578387,1.3113969272063986,0.9709240189311905,0.2866772895796932,0.6907906687704494
0.046,1.7521651241344913,1.0,2857.505397008947,0.4045120892244222,1.3109923070182157,0.9713592995133102,0.2866439352136486,0.6915937020902037
0.0465,1.7513709725620026,1.0,2862.6370003897687,0.40785228250846356,1.3105880907483436,0.971781986920641,0.2866105808476041,0.6923948912158759
0.047,1.750576820989514,1.0,2867.727004439345,0.41117375603379946,1.3101842841977862,0.9721925748470966,0.2865772264815596,0.6931942277956218
0.0475,1.7497826694170253,1.0,2872.775890568522,0.4144766102278829,1.3097808820108585,0.9725915294465197,0.2865438721155151,0.6939917255758117
0.048,1.7489885178445366,1.0,2877.784143411048,0.4177609455181669,1.3093778788318753,0.9729792944255806,0.28651051774947056,0.6947873982445456
0.0485,1.748194366272048,1.0,2882.752250775708,0.4210268623321044,1.3089752693051517,0.9733562923329429,0.286477163383426,0.6955812594317888
0.049,1.7474002146995593,1.0,2887.6807035998363,0.4242744610971484,1.3085730480750026,0.973722925762926,0.2864438090173815,0.6963733227095094
0.0495,1.7466060631270706,1.0,2892.5699959020794,0.4275038422407519,1.3081712097857434,0.9740795784800783,0.28641045465133697,0.697163601591809
0.05,1.745811911554582,1.0,2897.4206247371467,0.4307151061903678,1.3077697490816889,0.9744266164705212,0.28637710028529245,0.6979521095350583
0.0505,1.7450177599820933,1.0,2902.233090150658,0.4339083533734492,1.3073686606071537,0.9747643889254617,0.28634374591924794,0.698738859938024
0.051000000000000004,1.7442236084096046,1.0,2907.0078951341834,0.437083684217449,1.3069679390064535,0.9750932291618123,0.28631039155320337,0.6995238661419971
0.051500000000000004,1.743429456837116,1.0,2911.745545582008,0.44024119914982013,1.306567578923903,0.9754134554844676,0.28627703718715886,0.7003071414309199
0.052000000000000005,1.7426353052646273,1.0,2916.446550247409,0.44338099859801566,1.3061675750038173,0.9757253719944167,0.28624368282111434,0.7010886990315113
0.0525,1.7418411536921385,1.0,2921.1114207000464,0.44650318298948855,1.3057679218905114,0.9760292693465411,0.28621032845506983,0.701868552113387
0.053,1.74104700211965,1.0,2925.740671284362,0.44960785275169174,1.3053686142283,0.9763254254606396,0.2861769740890253,0.7026467137891825
0.0535,1.7402528505471613,1.0,2930.3348190776665,0.45269510831207826,1.3049696466614988,0.976614106188946,0.28614361972298075,0.7034231971146702
0.054,1.7394586989746725,1.0,2934.894383850315,0.45576505009810103,1.3045710138344222,0.9768955659431534,0.28611026535693623,0.7041980150888782
0.0545,1.738664547402184,1.0,2939.4192883647906,0.45881773887464117,1.3041727156438303,0.9771700447557826,0.2860769109908917,0.704971170465107
0.055,1.7378703958296953,1.0,2943.9109155193755,0.4618532981369313,1.3037747392136918,0.977437777836956,0.2860435566248472,0.7057426907386912
0.0555,1.7370762442572065,1.0,2948.370464272033,0.4648718541457919,1.3033770733221302,0.97769899082808,0.2860102022588027,0.7065126000717439
0.056,1.7362820926847178,1.0,2952.7984706046077,0.46787349698522207,1.302979712580811,0.9779538969426755,0.2859768478927581,0.7072809112386773
0.0565,1.7354879411122293,1.0,2957.195472975778,0.470858316739221,1.302582651601399,0.9782027006398333,0.2859434935267136,0.7080476369574822
0.057,1.7346937895397405,1.0,2961.5620122846867,0.47382640349178795,1.302185884995559,0.9784455980548589,0.2859101391606691,0.7088127898898304
0.0575,1.7338996379672518,1.0,2965.8986318352777,0.4767778473269219,1.3017894073749565,0.9786827774053698,0.2858767847946246,0.7095763826411752
0.058,1.7331054863947633,1.0,2970.205877301859,0.4797127383286222,1.3013932133512562,0.9789144193744306,0.28584343042858007,0.7103384277608551
0.0585,1.7323113348222745,1.0,2974.4842966945607,0.4826311665808879,1.3009972975361235,0.9791406974722009,0.2858100760625355,0.7110989377421887
0.059000000000000004,1.7315171832497858,1.0,2978.7344403260495,0.4855332221677182,1.3006016545412231,0.9793617783774579,0.285776721696491,0.7118579250225738
0.059500000000000004,1.7307230316772972,1.0,2982.9568607784745,0.4884189951731123,1.30020627897822,0.9795778222602658,0.2857433673304465,0.7126154019835813
0.06,1.7299288801048085,1.0,2987.152112871063,0.4912885756810693,1.2998111654587794,0.9797889830869723,0.28571001296440196,0.7133713809510472
0.0605,1.7291347285323198,1.0,2991.320753628693,0.4941420537755885,1.2994163085945665,0.979995408908627,0.28567665859835745,0.7141258741951637
0.061,1.7283405769598312,1.0,2995.4633422507777,0.49697951954066893,1.299021702997246,0.9801972421338495,0.2856433042323129,0.7148788939305704
0.0615,1.7275464253873425,1.0,2999.580440081163,0.4998010630603098,1.2986273432784832,0.9803946197870906,0.28560994986626836,0.7156304523164381
0.062,1.7267522738148537,1.0,3003.6726105781554,0.5026067744185103,1.298233224049943,0.9805876737531812,0.28557659550022385,0.7163805614565577
0.0625,1.725958122242365,1.0,3007.740419285575,0.5053967436992696,1.2978393399232904,0.9807765310089893,0.28554324113417934,0.7171292333994219
0.063,1.7251639706698765,1.0,3011.784433804311,0.5081710609865868,1.2974456855101906,0.9809613138429615,0.2855098867681348,0.7178764801383062
0.0635,1.7243698190973877,1.0,3015.805223764589,0.5109298163644612,1.2970522554223083,0.9811421400632616,0.28547653240209026,0.7186223136113512
0.064,1.723575667524899,1.0,3019.8033607989914,0.5136730999168918,1.296659044271309,0.9813191231951873,0.28544317803604574,0.7193667457016374
0.0645,1.7227815159524105,1.0,3023.779418515701,0.516401001727878,1.2962660466688576,0.9814923726684835,0.28540982367000123,0.720109788237265
0.065,1.7219873643799217,1.0,3027.7331025943236,0.5191135695884707,1.2958732647339775,0.9816619914371186,0.2853764693039567,0.720851438825439
0.0655,1.721193212807433,1.0,3031.665549732781,0.5218109244928871,1.2954806882406278,0.9818280832506496,0.2853431149379122,0.7215917183572862
0.066,1.7203990612349445,1.0,3035.5775548011247,0.524493170025669,1.2950883099380706,0.9819907471278423,0.28530976057186763,0.7223306420213431
0.0665,1.7196049096624557,1.0,3039.4694400344483,0.5271603862832173,1.2946961266676826,0.9821500772404117,0.2852764062058231,0.7230682172419169
0.067,1.718810758089967,1.0,3043.34152886267,0.5298126533619332,1.2943041352708409,0.982306164501695,0.2852430518397786,0.7238044514109777
0.0675,1.7180166065174785,1.0,3047.194145897471,0.5324500513582178,1.293912332588922,0.9824590967024092,0.2852096974737341,0.7245393518881982
0.068,1.7172224549449897,1.0,3051.0276169187628,0.5350726603684722,1.2935207154633024,0.9826089586398369,0.2851763431076896,0.725272926000992
0.0685,1.716428303372501,1.0,3054.842268861472,0.5376805604890976,1.2931292807353594,0.9827558322408024,0.285142988741645,0.72600518104455
0.069,1.7156341518000124,1.0,3058.6384298032526,0.5402738318164951,1.2927380252464693,0.9828997966787791,0.28510963437560055,0.7267361242818798
0.0695,1.7148400002275237,1.0,3062.4164289506402,0.5428525544470658,1.2923469458380092,0.9830409284854428,0.285076280009556,0.7274657629438396
0.07,1.714045848655035,1.0,3066.1765966280313,0.5454168084772109,1.2919560393513556,0.9831793016569745,0.28504292564351147,0.7281941042291764
0.07050000000000001,1.7132516970825462,1.0,3069.9192642644257,0.5479666740033312,1.2915653026278855,0.9833149877553906,0.28500957127746696,0.7289211553045585
0.07100000000000001,1.7124575455100577,1.0,3073.644764381771,0.5505022311218282,1.2911747325089755,0.9834480560051659,0.2849762169114224,0.7296469233046128
