Time [s],Phi [rad],STIM [ ],Fsee [N],Gamma [ ],Lcerel [ ],q [ ],Lmtc [m],fisomrel [ ]
0.0,1.8,1.0,17.979128107597393,0.00011205532002483543,1.3793384054094082,0.005003283272009296,0.288653,0.5411427748132891
0.0005,1.79999375,1.0,18.322204095778492,0.0057206360871170925,1.3792973412101335,0.013226267843447152,0.2886527375,0.5412421140016697
0.001,1.799975,1.0,21.739686222613948,0.011297757150536653,1.378925929958963,0.03614235991886588,0.28865195,0.5421401135355075
0.0015,1.79994375,1.0,31.3529728417852,0.01684359497528254,1.378022085264466,0.0713310997909014,0.2886506375,0.5443217571820944
0.002,1.7999,1.0,54.18989740283181,0.02235832503457205,1.3763288306803625,0.11558086232038577,0.2886488,0.5483948061184665
0.0025,1.79984375,1.0,98.1365917179509,0.02784212181806004,1.3738862567311991,0.16551307559094183,0.28864643749999996,0.5542380963888134
0.003,1.7997750000000001,1.0,162.28009367575004,0.03329515883863747,1.3711649639560302,0.21824802457494927,0.28864354999999997,0.5607033467204046
0.0035,1.79969375,1.0,239.1757144932911,0.038717608632775395,1.3685388368237144,0.27157503930701693,0.2886401375,0.5668977224254581
0.004,1.7996,1.0,323.05378556630245,0.04410964277108485,1.3661141102014707,0.3238472829332519,0.2886362,0.5725779920643668
0.0045000000000000005,1.7994937500000001,1.0,410.9106434622185,0.049471431863568754,1.3638842878380109,0.37391862866478537,0.2886317375,0.5777685748234174
0.005,1.799375,1.0,501.0894870756542,0.054803145551258564,1.3618227576788524,0.4210745549434906,0.28862675,0.5825391965104287
0.0055,1.79924375,1.0,592.4807580302688,0.06010495254810847,1.359905833464896,0.4649394180028316,0.2886212375,0.586950864279141
0.006,1.7991000000000001,1.0,684.2097409406134,0.06537702059739994,1.3581156843988376,0.505383630543044,0.2886152,0.5910496064654087
0.006500000000000001,1.79894375,1.0,775.5625431985965,0.07061951650277427,1.3564385685448392,0.542444134768264,0.2886086375,0.5948710039977868
0.007,1.798775,1.0,865.9504990436753,0.07583260618142845,1.3548635178892352,0.5762630491641102,0.28860155,0.5984435066048357
0.0075,1.79859375,1.0,954.8821556362259,0.0810164545316865,1.3533815814228871,0.6070431025214134,0.2885939375,0.6017903632367966
0.008,1.7984,1.0,1041.9564482581598,0.08617122544466325,1.3519851281349249,0.6350165788904382,0.2885858,0.6049313442979608
0.0085,1.79819375,1.0,1126.8872589752991,0.09129708250749079,1.3506669809330978,0.6604244767096042,0.2885771375,0.6078847847042935
0.009000000000000001,1.797975,1.0,1209.4122303142517,0.09639418738888986,1.3494213811500029,0.6835042252970509,0.28856795,0.6106654923317105
0.0095,1.79774375,1.0,1289.3507547904744,0.10146270131383972,1.3482428287601467,0.704481361824083,0.2885582375,0.6132874114066682
0.01,1.7975,1.0,1366.591773625995,0.10650278515650542,1.3471260784949985,0.7235654592555616,0.288548,0.6157636659077937
0.0105,1.79724375,1.0,1441.0440348349491,0.11151459826135071,1.3460666220256,0.7409486028648962,0.2885372375,0.6181055265299444
0.011,1.796975,1.0,1512.6479750536748,0.11649829876088542,1.3450603624507924,0.7568048876742337,0.28852595000000003,0.6203231704889278
0.0115,1.79669375,1.0,1581.3860645638383,0.12145404426382125,1.3441033730846608,0.7712908763331962,0.2885141375,0.6224262392594349
0.012,1.7964,1.0,1647.2863886421678,0.12638199265227304,1.3431917779899547,0.7845466335704154,0.28850180000000003,0.6244241183676456
0.0125,1.79609375,1.0,1710.3620597342635,0.13128229935489028,1.3423223900205494,0.796697326643935,0.2884889375,0.6263245576869223
0.013000000000000001,1.7957750000000001,1.0,1770.6371432951125,0.1361551187602296,1.3414923114017359,0.8078544350462211,0.28847555,0.6281345703236603
0.0135,1.79544375,1.0,1828.167375945124,0.14100060525684757,1.3406986443588054,0.8181170327548059,0.2884616375,0.6298610769517611
0.014,1.7951000000000001,1.0,1883.0194417737728,0.14581891217646734,1.3399386873193104,0.827573205637007,0.2884472,0.6315104874477809
0.0145,1.79474375,1.0,1935.2809732003295,0.15061019315547336,1.339209785449624,0.8363012322325547,0.2884322375,0.6330890352526148
0.015,1.794375,1.0,1985.0090948855764,0.15537459872628676,1.3385098518965348,0.8443708869713912,0.28841675,0.6346016587021239
0.0155,1.79399375,1.0,2032.2762372791378,0.16011227924499344,1.3378368299883825,0.8518442492676025,0.2884007375,0.636053176987885
0.016,1.7936,1.0,2077.168575829926,0.16482338480578065,1.3371886916738567,0.8587766112352181,0.2883842,0.6374482978548242
0.0165,1.7931937500000001,1.0,2119.77592273413,0.16950806473678753,1.3365635255073627,0.8652173079529416,0.2883671375,0.6387914327106341
0.017,1.792775,1.0,2160.1936701566847,0.17416646855008658,1.3359594977518536,0.8712104111754677,0.28834955,0.6400867853007726
0.0175,1.7923437500000001,1.0,2198.489680325075,0.17879874227986767,1.3353751724399012,0.8767954359515722,0.2883314375,0.6413376712720233
0.018000000000000002,1.7919,1.0,2234.74121615414,0.18340503196032065,1.3348091136040774,0.8820077655156799,0.2883128,0.6425473770652168
0.0185,1.79144375,1.0,2269.0341570989876,0.1879854836256354,1.3342598852769538,0.8868791338010815,0.2882936375,0.6437191616538191
0.019,1.790975,1.0,2301.4488726158334,0.19254024175563353,1.3337261840184,0.8914380801063958,0.28827395,0.6448559760858323
0.0195,1.79049375,1.0,2332.0821962334994,0.1970694528448098,1.3332066116504437,0.8957102615714536,0.2882537375,0.6459609501034131
0.02,1.79,1.0,2361.0049822565243,0.20157325945142474,1.3327000871811263,0.8997188735208188,0.288233,0.6470365178242059
0.0205,1.78949375,1.0,2388.283053920578,0.2060518028543153,1.3322056284018313,0.9034848746038018,0.2882117375,0.6480848866650012
0.021,1.788975,1.0,2413.9867157226226,0.21050522433231836,1.331722253103942,0.9070272131493671,0.28818995000000003,0.6491082487106001
0.021500000000000002,1.78844375,1.0,2438.1903784254587,0.21493366516427087,1.3312489790788415,0.9103630475719312,0.2881676375,0.6501087814388559
0.022,1.7879,1.0,2460.9640289878403,0.21933726503359163,1.3307849023887417,0.9135079552564939,0.2881448,0.6510884832642558
0.0225,1.78734375,1.0,2482.3828586936393,0.22371616547624876,1.3303291007388396,0.916476083841472,0.28812143749999997,0.6520493788426964
0.023,1.786775,1.0,2502.510068839559,0.2280705052831659,1.3298807943333764,0.9192803304297682,0.28809755,0.652993180899173
0.0235,1.78619375,1.0,2521.399271010564,0.2324004206398594,1.3294393178949995,0.9219324655621258,0.28807313749999996,0.65392135148239
0.024,1.7856,1.0,2539.1062057083864,0.23670604773184567,1.3290040061463566,0.9244432287184119,0.2880482,0.6548353441953066
0.0245,1.78499375,1.0,2555.6885632472176,0.24098752274464103,1.3285741938100952,0.9268224328357169,0.2880227375,0.65573660447081
0.025,1.784375,1.0,2571.2058144625635,0.24524498186376184,1.3281492156088626,0.9290790569651037,0.28799675,0.6566265698191589
0.025500000000000002,1.78374375,1.0,2585.7067440300166,0.24947855796421742,1.3277285212014416,0.9312213462190944,0.2879702375,0.6575064298186105
0.026000000000000002,1.7831000000000001,1.0,2599.2556209381096,0.25368838973512775,1.3273114285217673,0.9332568466550044,0.2879432,0.6583776427265307
0.0265,1.78244375,1.0,2611.8968553683276,0.2578746096549717,1.3268974526883066,0.9351925197456167,0.2879156375,0.6592412481693124
0.027,1.781775,1.0,2623.669710224155,0.2620373483446758,1.3264861661430576,0.9370347771416282,0.28788755,0.6600981610880351
0.0275,1.7810937500000001,1.0,2634.6143409821534,0.26617673642516637,1.3260771413280177,0.9387895239572326,0.2878589375,0.6609492917836353
0.028,1.7804,1.0,2644.77171871114,0.2702929045173698,1.3256699506851848,0.940462205485286,0.2878298,0.6617955459844047
0.0285,1.77969375,1.0,2654.1835571448037,0.2743859832422126,1.3252641666565566,0.9420578490386217,0.2878001375,0.6626378249018361
0.029,1.778975,1.0,2662.8922438068844,0.27845610322062103,1.324859361684131,0.9435811014789957,0.28776995,0.6634770252748052
0.029500000000000002,1.7782437500000001,1.0,2670.9314948413826,0.2825033898484238,1.324455193484548,0.9450362726976037,0.2877392375,0.6643138629493127
0.03,1.7775,1.0,2678.3491101008494,0.286527978467556,1.3240511950996736,0.9464273421679628,0.287708,0.6651493078905397
0.0305,1.77674375,1.0,2685.1737685071944,0.29052999474320473,1.3236470795626505,0.9477580207709344,0.2876762375,0.6659839537326766
0.031,1.775975,1.0,2691.432642988276,0.2945095632866588,1.3232425770765956,0.9490317553400955,0.28764395,0.6668183557553607
0.0315,1.7751937500000001,1.0,2697.1532339914797,0.29846680870920705,1.322837417844626,0.9502517490339941,0.2876111375,0.6676530664522141
0.032,1.7744,1.0,2702.363338837221,0.3024018556221383,1.3224313320698586,0.951420981574211,0.2875778,0.668488635521864
0.0325,1.77359375,1.0,2707.0910226863534,0.3063148286367413,1.3220240499554101,0.9525422275680737,0.2875439375,0.6693256098543225
0.033,1.772775,1.0,2711.3645911207327,0.310205852364305,1.321615301704398,0.9536180731178515,0.28750955,0.6701645335127204
0.0335,1.7719437500000002,1.0,2715.2103250280643,0.3140750492633517,1.3212048379279142,0.9546509326400574,0.2874746375,0.6710059059046631
0.034,1.7711000000000001,1.0,2718.649291913243,0.3179225374140998,1.3207924584017414,0.9556430650520499,0.2874392,0.6718501231905836
0.0345,1.7702437500000001,1.0,2721.717030545857,0.32174845200665814,1.3203778325546998,0.9565965716751582,0.2874032375,0.6726978456873494
0.035,1.7693750000000001,1.0,2724.4301319451397,0.32555291070633435,1.3199608036950154,0.9575134324758227,0.28736675,0.673549375315178
0.035500000000000004,1.76849375,1.0,2726.8052936649437,0.3293360311784362,1.319541215130915,0.9583955011246706,0.2873297375,0.6744050122214871
0.036000000000000004,1.7676,1.0,2728.8593088020025,0.3330979310882714,1.3191189101706242,0.9592445145010144,0.2872922,0.6752650547561003
0.0365,1.76669375,1.0,2730.609055549372,0.3368387281011475,1.3186937321223697,0.9600621013784562,0.2872541375,0.6761297994448828
0.037,1.765775,1.0,2732.0714872933513,0.34055853988237245,1.3182655242943777,0.9608497903705582,0.28721555,0.676999540961814
0.0375,1.76484375,1.0,2733.263623255617,0.3442574840972538,1.3178341299948746,0.9616090172071573,0.2871764375,0.6778745720994935
0.038,1.7639,1.0,2734.2025396790928,0.3479356784110993,1.3173993925320864,0.9623411314044953,0.28713679999999997,0.6787551837380821
0.0385,1.76294375,1.0,2734.905361558548,0.3515932404892166,1.3169611552142395,0.9630474023857732,0.28709663750000003,0.6796416648126746
0.039,1.761975,1.0,2735.389254915093,0.3552302879969134,1.3165192613495604,0.9637290251029013,0.28705595,0.6805343022791093
0.0395,1.7609937500000001,1.0,2735.6636916789603,0.3588469271694417,1.3160736244110758,0.9643871294198098,0.2870147375,0.681433239641729
0.04,1.76,1.0,2735.7494587337574,0.3624432871935722,1.3156240553832177,0.9650227755326579,0.286973,0.6823388254574347
0.0405,1.7589937500000001,1.0,2735.6561448448165,0.3660194792252087,1.3151704671252196,0.965636969163147,0.2869307375,0.6832512010588996
0.041,1.757975,1.0,2735.3929536115147,0.36957561375081477,1.3147127761531265,0.9662306598385143,0.28688795,0.6841704991262503
0.0415,1.75694375,1.0,2734.969103275196,0.37311180125685395,1.3142508989829835,0.9668047444299007,0.2868446375,0.6850968510471515
0.042,1.7559,1.0,2734.393823941419,0.3766281522297898,1.3137847521308357,0.9673600706123868,0.28680079999999997,0.6860303868947386
0.0425,1.75484375,1.0,2733.6763549567295,0.3801247771560858,1.313314252112728,0.9678974400634417,0.2867564375,0.6869712354051083
0.043000000000000003,1.753775,1.0,2732.8259424397274,0.3836017865222055,1.3128393154447053,0.9684176114220245,0.28671155,0.6879195239543627
0.043500000000000004,1.75269375,1.0,2731.851836967485,0.3870592908146125,1.3123598586428127,0.9689213030284871,0.28666613750000003,0.6888753785352107
0.044,1.7516,1.0,2730.7632914150404,0.3904974005197702,1.311875798223095,0.9694091954635619,0.2866202,0.6898389237331227
0.0445,1.75049375,1.0,2729.5695589510347,0.3939162261241423,1.3113870507015977,0.9698819339030127,0.2865737375,0.6908102827020429
0.045,1.7493750000000001,1.0,2728.2739199802286,0.3973158565433752,1.3108935868825415,0.9703401313505197,0.28652675,0.6917894695003431
0.0455,1.74824375,1.0,2726.889949868404,0.40069642542685097,1.3103952839735442,0.9707843689049988,0.2864792375,0.692776682675328
0.046,1.7471,1.0,2725.42449910388,0.4040580435885399,1.3098920802734204,0.9712151996321315,0.2864312,0.6937719980351147
0.0465,1.7459437500000001,1.0,2723.882168692434,0.4074008133915461,1.3093839345181015,0.9716331493228618,0.28638263750000004,0.6947754498153669
0.047,1.744775,1.0,2722.267557925323,0.4107248371989735,1.3088708054435185,0.9720387177895079,0.28633355,0.6957870712521432
0.0475,1.74359375,1.0,2720.585263755487,0.4140302173739263,1.3083526517856028,0.9724323803906069,0.28628393750000003,0.6968068945688355
0.048,1.7424,1.0,2718.8398802101237,0.4173170562795085,1.3078294322802855,0.972814589452459,0.2862338,0.6978349509630011
0.0485,1.74119375,1.0,2717.035997842532,0.42058545627882415,1.3073011056634982,0.9731857755952759,0.2861831375,0.6988712705930852
0.049,1.739975,1.0,2715.178203220454,0.4238355197349773,1.3067676306711715,0.9735463489711478,0.28613195,0.6999158825650373
0.0495,1.73874375,1.0,2713.2710784528294,0.427067349011072,1.3062289660392374,0.9738967004204563,0.2860802375,0.7009688149188125
0.05,1.7375,1.0,2711.319200754494,0.43028104647021237,1.3056850705036265,0.9742372025527902,0.286028,0.7020300946147733
0.0505,1.73624375,1.0,2709.3271420478163,0.4334767144755024,1.3051359028002703,0.9745682107579362,0.2859752375,0.7030997475199746
0.051000000000000004,1.734975,1.0,2707.2994686029333,0.43665445539004616,1.3045814216651002,0.974890064152051,0.28592195,0.7041777983943446
0.051500000000000004,1.73369375,1.0,2705.240740715184,0.4398143715769477,1.3040215858340471,0.9752030864637085,0.2858681375,0.7052642708767574
0.052000000000000005,1.7324,1.0,2703.1555124205547,0.44295656539931116,1.3034563540430424,0.9755075868641421,0.2858138,0.706359187470994
0.0525,1.73109375,1.0,2701.0408751599425,0.4460811149349444,1.302885753157106,0.9758038624905817,0.28575893750000003,0.7074624379287392
0.053,1.729775,1.0,2698.9023440566857,0.4491881372261211,1.302309733086722,0.9760921966506958,0.28570355000000003,0.7085740602073818
0.0535,1.72844375,1.0,2696.747273619679,0.4522777478431246,1.3017282268460493,0.9763728590077537,0.2856476375,0.7096941234832239
0.054,1.7271,1.0,2694.577090517066,0.4553500400193158,1.301141221574071,0.9766461085608166,0.2855912,0.7108225914186106
0.0545,1.7257437500000001,1.0,2692.393219303535,0.4584051069880556,1.3005487044097699,0.9769121931890804,0.2855342375,0.7119594269056402
0.055,1.724375,1.0,2690.197082380711,0.4614430419827051,1.2999506624921289,0.977171350220156,0.28547675,0.7131045920616486
0.0555,1.72299375,1.0,2687.990099960927,0.46446393823662513,1.2993470829601306,0.977423806964724,0.2854187375,0.7142580482246834
0.056,1.7216,1.0,2685.7736900346886,0.4674678889831768,1.298737952952758,0.9776697812198204,0.2853602,0.7154197559489659
0.0565,1.72019375,1.0,2683.5492683418724,0.47045498745572095,1.2981232596089942,0.9779094817428347,0.28530113749999997,0.7165896750003452
0.057,1.718775,1.0,2681.3182483467567,0.4734253268876186,1.2975029900678217,0.9781431086981459,0.28524155,0.7177677643517398
0.0575,1.71734375,1.0,2679.0820412160024,0.4763790005122308,1.2968771314682233,0.978370854078191,0.2851814375,0.7189539821785691
0.058,1.7159,1.0,2676.8420558012763,0.4793161015629184,1.2962456709491819,0.9785929021006176,0.2851208,0.7201482858541743
0.0585,1.71444375,1.0,2674.599698625121,0.48223672327304234,1.2956085956496806,0.9788094295830599,0.2850596375,0.7213506319452285
0.059000000000000004,1.7129750000000001,1.0,2672.3563738700345,0.48514095887596365,1.2949658927087018,0.9790206062969686,0.28499795,0.7225609762071386
0.059500000000000004,1.71149375,1.0,2670.1134833721594,0.48802890160504336,1.2943175492652284,0.9792265953018169,0.2849357375,0.7237792735794321
0.06,1.71,1.0,2667.8724266176055,0.4909006446936423,1.2936635524582434,0.9794275532609189,0.284873,0.7250054781811369
0.0605,1.7084937500000001,1.0,2665.634600743372,0.4937562813751215,1.2930038894267297,0.9796236307400044,0.2848097375,0.7262395433061504
0.061,1.7069750000000001,1.0,2663.401400541426,0.496595904882842,1.29233854730967,0.9798149724896167,0.28474595,0.7274814214185964
0.0615,1.7054437500000001,1.0,2661.1738406942422,0.49941956902526596,1.2916675167236533,0.9800017148143688,0.2846816375,0.7287310576793923
0.062,1.7039,1.0,2658.954642190226,0.5022274124756775,1.2909907725555836,0.9801839946095185,0.2846168,0.7299884256616856
0.0625,1.70234375,1.0,2656.7440022105143,0.5050195197958037,1.2903083129031068,0.9803619406261496,0.2845514375,0.7312534549086476
0.063,1.7007750000000001,1.0,2654.5421119754055,0.5077959753418164,1.2896201359159427,0.9805356767932362,0.28448555,0.7325260742092821
0.0635,1.69919375,1.0,2652.3491624064613,0.5105568634698874,1.288926239743811,0.9807053224448131,0.28441913750000003,0.7338062116948401
0.064,1.6976,1.0,2650.1653441290223,0.5133022685361883,1.2882266225364314,0.9808709925225917,0.2843522,0.7350937948381426
0.0645,1.69599375,1.0,2647.990847475898,0.5160322748968913,1.2875212824435236,0.9810327977681983,0.2842847375,0.7363887504529067
0.065,1.694375,1.0,2645.825862490161,0.5187469669081678,1.2868102176148073,0.9811908449056359,0.28421675,0.7376910046930705
0.0655,1.69274375,1.0,2643.670578928244,0.5214464289261898,1.2860934262000023,0.9813452368145381,0.2841482375,0.7390004830521169
0.066,1.6911,1.0,2641.525186263694,0.524130745307129,1.2853709063488281,0.9814960726947355,0.2840792,0.7403171103623991
0.0665,1.6894437500000001,1.0,2639.3898736902297,0.5268000004071571,1.284642656211005,0.9816434482226352,0.2840096375,0.7416408107944632
0.067,1.687775,1.0,2637.264830125095,0.5294542785824462,1.283908673936252,0.9817874556998714,0.28393955,0.7429715078563743
0.0675,1.68609375,1.0,2635.1502442129167,0.5320936641891678,1.283168957674289,0.9819281841946628,0.2838689375,0.744309124393038
0.068,1.6844000000000001,1.0,2633.046304329146,0.5347182415834939,1.282423505574836,0.9820657196762813,0.2837978,0.7456535825855246
0.0685,1.68269375,1.0,2630.953198583611,0.5373280951215962,1.2816723157876129,0.9822001451430139,0.2837261375,0.7470048039503931
0.069,1.680975,1.0,2628.8711148246634,0.5399233091596464,1.2809153864623386,0.9823315407439762,0.28365395,0.7483627093390146
0.0695,1.67924375,1.0,2626.8002406423343,0.5425039680538163,1.2801527157487336,0.9824599838951104,0.28358123749999997,0.7497272189368919
0.07,1.6775,1.0,2624.7409247131536,0.545070151611499,1.2793843003010177,0.9825855490356955,0.283508,0.7510982549276491
0.07050000000000001,1.67574375,1.0,2622.696366510061,0.5476218877158971,1.2786101103337322,0.9827083036715315,0.2834342375,0.7524757857775051
0.07100000000000001,1.673975,1.0,2620.6644993784944,0.5501593361205344,1.2778301648667911,0.9828283233813543,0.28335995,0.7538596922515678
0.07150000000000001,1.67219375,1.0,2618.6451434033825,0.5526825720059613,1.2770444654414637,0.9829456752767979,0.2832851375,0.7552498857406047
0.07200000000000001,1.6704,1.0,2616.6381190053025,0.5551916705527286,1.2762530135990187,0.9830604242615836,0.2832098,0.7566462770327181
0.0725,1.66859375,1.0,2614.6432469365923,0.5576867069413864,1.2754558108807257,0.9831726331172934,0.2831339375,0.7580487763139091
0.073,1.6667750000000001,1.0,2612.660348278035,0.5601677563524858,1.2746528588278534,0.9832823625852576,0.28305755,0.7594572931686455
0.0735,1.66494375,1.0,2610.689244434856,0.5626348939665771,1.2738441589816714,0.983389671444756,0.2829806375,0.7608717365804245
0.074,1.6631,1.0,2608.7297571335066,0.5650881949642108,1.2730297128834487,0.9834946165877217,0.2829032,0.7622920149323392
0.0745,1.6612437500000001,1.0,2606.781708418091,0.5675277345259375,1.2722095220744543,0.9835972530901237,0.2828252375,0.7637180360076441
0.075,1.659375,1.0,2604.8449206470004,0.5699535878323078,1.2713835880959576,0.9836976342801969,0.28274675,0.7651497069903177
