Time [s],Phi [rad],STIM [ ],Fsee [N],Gamma [ ],Lcerel [ ],q [ ],Lmtc [m],fisomrel [ ]
0.0,1.8,1.0,17.966109520376584,1.000009889601273e-05,1.3793398637049918,0.005000026652305664,0.288653,0.5411392468248668
0.0005,1.79999375,1.0,18.27553844073761,0.005619153315044446,1.3793025217221058,0.01294051690767439,0.2886527375,0.5412295823190418
0.001,1.799975,1.0,21.617214834870644,0.011196843616571887,1.3789384212788809,0.03560858572595111,0.28865195,0.5421099262712672
0.0015,1.79994375,1.0,31.067984492754572,0.016743247486414852,1.3780463103545328,0.07060172057685606,0.2886506375,0.5442633521279472
0.002,1.7999,1.0,53.580851007062606,0.022258540415856464,1.3763682313894436,0.11471785567886637,0.2886488,0.5483002372473923
0.0025,1.79984375,1.0,97.11704524435595,0.02774289691209431,1.3739352584503475,0.16457469319745613,0.28864643749999996,0.554121245177525
0.003,1.7997750000000001,1.0,160.9562133794548,0.03319649050595413,1.3712144168756648,0.21728024491065837,0.28864354999999997,0.5605862777540184
0.0035,1.79969375,1.0,237.68141182405205,0.0386194937514832,1.3685847933656947,0.2706126777006957,0.2886401375,0.5667897005726026
0.004,1.7996,1.0,321.46493819900246,0.044012078236732186,1.366156140949109,0.3229155955120349,0.2886362,0.5724798483585978
0.0045000000000000005,1.7994937500000001,1.0,409.26602624068244,0.049374414588939534,1.36392285464835,0.37303431066001846,0.2886317375,0.577679068445778
0.005,1.799375,1.0,499.4118762482592,0.05470667246562731,1.3618583769399957,0.42024727592161193,0.28862675,0.582456999484541
0.0055,1.79924375,1.0,590.7888777128936,0.060009020602028784,1.3599388651146478,0.46417352704472953,0.2886212375,0.5868750426657507
0.006,1.7991000000000001,1.0,682.5166592019639,0.06528162675432805,1.3581464410886672,0.504679804911156,0.2886152,0.5909793582127609
0.006500000000000001,1.79894375,1.0,773.8798769814781,0.07052465775598978,1.3564672771898068,0.5418006172835906,0.2886086375,0.5948057407298645
0.007,1.798775,1.0,864.2845806312665,0.07573827949651087,1.3548904148740633,0.5756766506989188,0.28860155,0.5983826321126124
0.0075,1.79859375,1.0,953.2415936745791,0.08092265694037609,1.3534068041351321,0.6065098027082492,0.2885939375,0.6017335165529093
0.008,1.7984,1.0,1040.3579858492046,0.08607795412979498,1.3520086532458853,0.634531947564069,0.2885858,0.6048785332908742
0.0085,1.79819375,1.0,1125.3197015018034,0.09120433418541281,1.3506891640070462,0.6599842890586034,0.2885771375,0.6078351729848184
0.009000000000000001,1.797975,1.0,1207.8789722786328,0.09630195908595894,1.349442324838095,0.6831042629639839,0.28856795,0.6106188189150108
0.0095,1.79774375,1.0,1287.8707582774034,0.10137099050988221,1.3482624076116296,0.7041175475413753,0.2885582375,0.6132439268002269
0.01,1.7975,1.0,1365.1713313538999,0.1064115891303191,1.3471443302428912,0.7232341258639903,0.288548,0.61572325886548
0.0105,1.79724375,1.0,1439.6698828148312,0.11142391362037038,1.3460838164286797,0.740646529545549,0.2885372375,0.6180675765502549
0.011,1.796975,1.0,1511.3192488600573,0.1164081226531368,1.3450765898657955,0.7565290846133692,0.28852595000000003,0.6202874589495968
0.0115,1.79669375,1.0,1580.1088671731352,0.12136437405833539,1.3441186281531714,0.7710386199109229,0.2885141375,0.6223927607078423
0.012,1.7964,1.0,1646.0585039783564,0.12629282558939317,1.343206147479854,0.7843155325672581,0.28850180000000003,0.6243926668751171
0.0125,1.79609375,1.0,1709.1728348434758,0.13119363225635575,1.3423360478867257,0.7964852873582429,0.2884889375,0.6262947395321986
0.013000000000000001,1.7957750000000001,1.0,1769.4880515242653,0.13606694884473258,1.3415052816349669,0.8076595356328953,0.28847555,0.6281063221155038
0.0135,1.79544375,1.0,1827.0633360663567,0.1409129295717759,1.340710908291108,0.8179375487053032,0.2884616375,0.6298344291181385
0.014,1.7951000000000001,1.0,1881.9740075841833,0.14573172885555127,1.339950129715122,0.8274075712885649,0.2884472,0.6314856801870912
0.0145,1.79474375,1.0,1934.2835195243938,0.15052349901281512,1.3392205541692555,0.8361481482800378,0.2884322375,0.6330657386132119
0.015,1.794375,1.0,1984.0523448324682,0.155288390717867,1.3385200508817732,0.8442291831668576,0.28841675,0.6345796401498779
0.0155,1.79399375,1.0,2031.3594019724458,0.16002655464500645,1.3378464890809403,0.8517128599948782,0.2884007375,0.6360323654836801
0.016,1.7936,1.0,2076.292046105308,0.16473814074833448,1.3371978257363362,0.8586545819692362,0.2883842,0.6374286553529576
0.0165,1.7931937500000001,1.0,2118.9453327197875,0.16942329931452813,1.3365720933534198,0.8651037712723649,0.2883671375,0.6387730420143396
0.017,1.792775,1.0,2159.4010854428766,0.17408217867581852,1.3359675966617475,0.8711046312400803,0.28834955,0.640069432376688
0.0175,1.7923437500000001,1.0,2197.729856721084,0.178714925075772,1.335382868624435,0.8766967457955811,0.2883314375,0.6413212099274396
0.018000000000000002,1.7919,1.0,2234.0117387484656,0.18332168475795496,1.3348164422045978,0.8819155591481613,0.2883128,0.6425317284102526
0.0185,1.79144375,1.0,2268.3355607048534,0.1879026039659337,1.3342668503653525,0.8867928592906312,0.2882936375,0.6437043136059535
0.019,1.790975,1.0,2300.779552689403,0.19245782697825076,1.3337328100277819,0.8913572461892427,0.28827395,0.6448418734405628
0.0195,1.79049375,1.0,2331.442938887079,0.19698750067426302,1.333212898324493,0.8956344201382932,0.2882537375,0.6459475905299459
0.02,1.79,1.0,2360.391548538422,0.20149176692725218,1.3327060828105513,0.8996476312743882,0.288233,0.6470237961124319
0.0205,1.78949375,1.0,2387.6931502381835,0.20597076722950278,1.3322113610119615,0.9034178717858272,0.2882117375,0.6480727411179217
0.021,1.788975,1.0,2413.420052370784,0.21042464307329928,1.3317277304547277,0.906964119906832,0.28818995000000003,0.6490966608652919
0.021500000000000002,1.78844375,1.0,2437.648719979912,0.21485353595092624,1.3312541886648543,0.91030356076607,0.2881676375,0.6500977758035367
0.022,1.7879,1.0,2460.44472963606,0.21925758508807627,1.330789873751311,0.9134518081222807,0.2881448,0.6510779956109429
0.0225,1.78734375,1.0,2481.890974059344,0.22363693308891897,1.3303337892803755,0.9164230196697618,0.28812143749999997,0.6520395014657796
0.023,1.786775,1.0,2502.0443776040365,0.22799171742369917,1.3298852153050427,0.919230126301971,0.28809755,0.6529838798569696
0.0235,1.78619375,1.0,2520.9582521516254,0.2323220745113758,1.3294434889192968,0.9218849188478512,0.28807313749999996,0.6539125880378864
0.024,1.7856,1.0,2538.6880390461197,0.23662814077090766,1.3290079472171223,0.924398154982923,0.2880482,0.6548270748341047
0.0245,1.78499375,1.0,2555.2911303516516,0.24091005262125362,1.3285779272925038,0.9267796639880732,0.2880227375,0.6557287809188843
0.025,1.784375,1.0,2570.8263704334895,0.24516794637547693,1.3281527693247512,0.9290384400954856,0.28799675,0.6566191326036244
0.025500000000000002,1.78374375,1.0,2585.343984616019,0.24940195491675524,1.327731909109912,0.9311827387816322,0.2879702375,0.6574993486963405
0.026000000000000002,1.7831000000000001,1.0,2598.9101728134124,0.253612217240667,1.327314646329952,0.9332201149097478,0.2879432,0.658370925694829
0.0265,1.78244375,1.0,2611.5649036021127,0.25779886437212873,1.326900537283305,0.9351575466234854,0.2879156375,0.6592348173593322
0.027,1.781775,1.0,2623.349141567293,0.26196202733605684,1.3264891382684039,0.9370014525791195,0.28788755,0.6600919725534282
0.0275,1.7810937500000001,1.0,2634.304762925293,0.2661018371573679,1.3260800055836826,0.9387577442550674,0.2878589375,0.6609433353269948
0.028,1.7804,1.0,2644.4744755118486,0.27021842486097836,1.3256726955275742,0.9404318727356114,0.2878298,0.6617898449866199
0.0285,1.77969375,1.0,2653.9017431350326,0.2743119214718046,1.3252667643985125,0.942028870612426,0.2878001375,0.662632436153452
0.029,1.778975,1.0,2662.61604494875,0.27838245341884427,1.3248619034978673,0.9435534067798272,0.28776995,0.6634717591063214
0.029500000000000002,1.7782437500000001,1.0,2670.668373813822,0.28243015509049885,1.3244576112950313,0.9450097779011098,0.2877392375,0.6643088599257729
0.03,1.7775,1.0,2678.100326273223,0.28645515650673514,1.3240534779950919,0.9464019752349937,0.287708,0.6651445899211879
0.0305,1.77674375,1.0,2684.9386102621347,0.29045758245395253,1.3236492346798823,0.9477337169113772,0.2876762375,0.6659795053926227
0.031,1.775975,1.0,2691.2102938240864,0.2944375577185505,1.3232446124312351,0.9490084545542066,0.28764395,0.6668141598666473
0.0315,1.7751937500000001,1.0,2696.9427729103877,0.29839520708692846,1.322839342330984,0.9502293957070099,0.2876111375,0.6676491040921482
0.032,1.7744,1.0,2702.16374078258,0.30233065534548587,1.3224331554609623,0.9513995241099509,0.2875778,0.6684848860315272
0.0325,1.77359375,1.0,2706.901159019046,0.3062440272806221,1.3220257829030027,0.9525216180573759,0.2875439375,0.6693220508472839
0.033,1.772775,1.0,2711.1832301240197,0.31013544767873663,1.3216169557389386,0.9535982670381599,0.28750955,0.6701611408839849
0.0335,1.7719437500000002,1.0,2715.0378745483977,0.3140050407479625,1.3212064095819152,0.9546318871978952,0.2874746375,0.6710026863631855
0.034,1.7711000000000001,1.0,2718.4888802519613,0.31785292560418665,1.3207939194115368,0.9556247377414648,0.2874392,0.6718471341472718
0.0345,1.7702437500000001,1.0,2721.5650459264816,0.32167923175987156,1.3203792160305923,0.9565789279916118,0.2874032375,0.6726950189273695
0.035,1.7693750000000001,1.0,2724.283884165594,0.32548407764613896,1.3199621342862249,0.9574964394460032,0.28736675,0.6735466601498845
0.035500000000000004,1.76849375,1.0,2726.6630172404034,0.3292675816941105,1.3195425090255783,0.9583791271814637,0.2873297375,0.674402375400632
0.036000000000000004,1.7676,1.0,2728.720165439703,0.333029862334908,1.3191201750957964,0.9592287293700816,0.2872922,0.6752624803789167
0.0365,1.76669375,1.0,2730.4731360154415,0.33677103799965297,1.3186949673440227,0.9600468759751817,0.2872541375,0.6761272888698735
0.037,1.765775,1.0,2731.939812732348,0.34049122711946733,1.3182667206174004,0.9608350967062699,0.28721555,0.676997112715069
0.0375,1.76484375,1.0,2733.138146022487,0.3441905481254727,1.3178352697630735,0.9615948283036581,0.2871764375,0.6778722617813593
0.038,1.7639,1.0,2734.0861437446197,0.34786911944879073,1.3174004496281857,0.9623274212160441,0.28713679999999997,0.6787530439280152
0.0385,1.76294375,1.0,2734.7883665715553,0.35152704111562955,1.3169622176143931,0.9630341535840715,0.28709663750000003,0.6796395172352235
0.039,1.761975,1.0,2735.277958595912,0.3551644551523096,1.3165202719117126,0.9637162128113369,0.28705595,0.6805322623371668
0.0395,1.7609937500000001,1.0,2735.5662680275395,0.35878147480803213,1.3160745089649606,0.9643747299001257,0.2870147375,0.6814314565770379
0.04,1.76,1.0,2735.6629219130377,0.3623782109266725,1.31562484107749,0.9650107719553064,0.286973,0.6823372439247741
0.0405,1.7589937500000001,1.0,2735.5775688182193,0.3659547743521063,1.3151711805526547,0.9656253455673539,0.2869307375,0.6832497670569067
0.041,1.757975,1.0,2735.319875530034,0.3695112759282091,1.3147134396938076,0.9662194008762313,0.28688795,0.6841691673344774
0.0415,1.75694375,1.0,2734.8995239283545,0.37304782649885626,1.3142515308043023,0.9667938353215091,0.2868446375,0.6850955847804612
0.042,1.7559,1.0,2734.32620802896,0.37656453690792335,1.3137853661874925,0.9673494971059506,0.28680079999999997,0.6860291580567004
0.0425,1.75484375,1.0,2733.609631196647,0.38006151799928584,1.313314858146731,0.9678871883971749,0.2867564375,0.68697002444035
0.043000000000000003,1.753775,1.0,2732.759503528619,0.3835388806168193,1.3128399189853717,0.9684076682896798,0.28671155,0.6879183197998281
0.043500000000000004,1.75269375,1.0,2731.785539409216,0.3869967356043992,1.3123604610067676,0.9689116555474012,0.28666613750000003,0.6888741785702794
0.044,1.7516,1.0,2730.6974552340057,0.39043519380590086,1.3118763965142723,0.969399831145114,0.2866202,0.6898377337285472
0.0445,1.75049375,1.0,2729.5049673056064,0.3938543660652001,1.3113876378112392,0.9698728406252844,0.2865737375,0.6908091167676547
0.045,1.7493750000000001,1.0,2728.2132278209747,0.39725435476518955,1.3108941386783486,0.9703312982432071,0.28652675,0.6917883754319125
0.0455,1.74824375,1.0,2726.8283977532756,0.4006352688572252,1.3103958437298624,0.9707757872057711,0.2864792375,0.6927755746021265
0.046,1.7471,1.0,2725.3635849505745,0.4039972289656517,1.3098926343769786,0.9712068581850922,0.2864312,0.693770902930154
0.0465,1.7459437500000001,1.0,2723.82318752355,0.4073403377585888,1.309384471190112,0.9716250376940165,0.28638263750000004,0.6947743909005575
0.047,1.744775,1.0,2722.211601985582,0.4106646979041561,1.3088713147396762,0.9720308262235714,0.28633355,0.695786068019719
0.0475,1.74359375,1.0,2720.5332226658784,0.41397041207047325,1.308353125596086,0.9724246997708426,0.28628393750000003,0.6968059628033303
0.048,1.7424,1.0,2718.7924411560944,0.4172575829256599,1.307829864329756,0.9728071112633213,0.2862338,0.6978341027637885
0.0485,1.74119375,1.0,2716.993645793121,0.4205263131378357,1.3073014915110999,0.9731784918876352,0.2861831375,0.6988705143974918
0.049,1.739975,1.0,2715.1412211744437,0.4237767053751204,1.3067679677105322,0.9735392523299069,0.28613195,0.6999152231720341
0.0495,1.73874375,1.0,2713.2395477094165,0.4270088623056335,1.3062292534984672,0.9738897839343721,0.2860802375,0.700968253513302
0.05,1.7375,1.0,2711.293001204378,0.4302228865974948,1.3056853094453194,0.9742304597863418,0.286028,0.7020296287924724
0.0505,1.73624375,1.0,2709.3059524822716,0.4334188809188238,1.305136096121503,0.9745616357250833,0.2859752375,0.7030993713129109
0.051000000000000004,1.734975,1.0,2707.282767036838,0.4365969479377403,1.3045815740974325,0.9748836512917458,0.28592195,0.7041775022969715
0.051500000000000004,1.73369375,1.0,2705.2278047213686,0.4397571903223639,1.3040217039435218,0.9751968306170341,0.2858681375,0.7052640418726964
0.052000000000000005,1.7324,1.0,2703.120423337057,0.4428997081669778,1.3034566745410223,0.9755014975742148,0.2858138,0.70635856720824
0.0525,1.73109375,1.0,2701.018858077555,0.4460246004954906,1.3028859543360167,0.9757979159409482,0.28575893750000003,0.7074620493174757
0.053,1.729775,1.0,2698.914745930685,0.44913196540949113,1.3023096197213,0.9760863757808763,0.28570355000000003,0.7085742787753921
0.0535,1.728444923392447,1.0,2696.8358102231336,0.45222190024333625,1.301727947135304,0.9763671667435707,0.28564768678248276,0.7096946617267703
0.054,1.7271128395544808,1.0,2695.2118954210164,0.45529450233138263,1.3011412130164608,0.9766405659099198,0.2855917392612882,0.7108226078538731
0.0545,1.7257807557165146,1.0,2694.111455415325,0.458349869007987,1.3005496938032017,0.9769068384516049,0.2855357917400936,0.7119575304681176
0.055,1.7244486718785486,1.0,2693.5044028520365,0.461388097495739,1.299953661866962,0.9771662379966793,0.28547984421889905,0.7130988543769139
0.0555,1.7231165880405823,1.0,2693.3556809874813,0.4644092833437797,1.2993534364647135,0.9774190100947951,0.28542389669770446,0.7142459186121389
0.056,1.721784504202616,1.0,2693.6142920066904,0.4674135243543544,1.2987494838754208,0.9776653988689227,0.28536794917650987,0.7153977866204391
0.0565,1.7204524203646498,1.0,2694.2523955387937,0.4704009142889788,1.2981420593435307,0.9779056257372243,0.2853120016553153,0.7165539300076488
0.057,1.7191203365266836,1.0,2695.242222250299,0.4733715469091682,1.2975314181134894,0.9781399030505512,0.2852560541341207,0.7177138240923979
0.0575,1.7177882526887174,1.0,2696.5560549190277,0.4763255159764382,1.2969178154297434,0.9783684345441855,0.2852001066129261,0.7188769479605512
0.058,1.7164561688507511,1.0,2698.1662109525632,0.47926291525230413,1.2963015065367394,0.9785914157636507,0.2851441590917315,0.720042784515493
0.0585,1.715124085012785,1.0,2700.047365437603,0.4821838376517197,1.2956827253018617,0.9788090332013881,0.285088211570537,0.7212108608356627
0.059000000000000004,1.7137920011748187,1.0,2702.174793402424,0.4850883766026422,1.295061700181891,0.9790214657342671,0.2850322640493424,0.7223807177479972
0.059500000000000004,1.7124599173368527,1.0,2704.5271710030684,0.4879766244601481,1.294438628544219,0.9792288834514281,0.2849763165281478,0.7235519579751255
0.06,1.7111278334988864,1.0,2707.088324356153,0.49084867154405937,1.2938136606797948,0.9794314471276134,0.2849203690069532,0.7247242755036303
0.0605,1.7097957496609202,1.0,2709.84207364408,0.4937046081741982,1.2931869468795663,0.9796293113571933,0.28486442148575863,0.7258973666436174
0.061,1.708463665822954,1.0,2712.7722270465083,0.49654452467038657,1.2925586374344822,0.9798226248432527,0.28480847396456405,0.727070930046171
0.0615,1.7071315819849877,1.0,2715.8625751732816,0.4993685113524466,1.2919288826354904,0.9800115306710647,0.28475252644336946,0.7282446667193687
0.062,1.7057994981470215,1.0,2719.10532144144,0.5021766525194896,1.2912977559520664,0.9801961620817758,0.2846965789221749,0.7294184227592168
0.0625,1.7044674143090552,1.0,2722.4762746379492,0.5049690457708726,1.290665480009488,0.9803766561174011,0.28464063140098034,0.7305917689121616
0.063,1.7031353304710892,1.0,2725.963833450633,0.5077457797704987,1.2900321624613615,0.9805531381891315,0.28458468387978575,0.7317644921491913
0.0635,1.701803246633123,1.0,2729.560301771128,0.5105069402849105,1.289397875259823,0.9807257270901724,0.28452873635859116,0.7329364470507014
0.064,1.7004711627951568,1.0,2733.25796919877,0.5132526130806507,1.2887626903570097,0.9808945373071961,0.2844727888373966,0.7341074893424162
0.0645,1.6991390789571905,1.0,2737.049109551311,0.5159828839242617,1.2881266797050581,0.98105967920991,0.284416841316202,0.7352774758996774
0.065,1.6978069951192243,1.0,2740.9259794899554,0.5186978385822862,1.2874899152561048,0.9812212592309667,0.2843608937950074,0.7364462647513956
0.0655,1.696474911281258,1.0,2744.88081725964,0.5213975628212669,1.2868524689622867,0.9813793800367787,0.28430494627381286,0.7376137150836747
0.066,1.6951428274432918,1.0,2748.9058415437426,0.5240821424077463,1.2862144127757404,0.9815341406897545,0.2842489987526182,0.738779687243106
0.0665,1.6938107436053256,1.0,2752.9932504340945,0.526751663108267,1.2855758186486028,0.9816856368024484,0.2841930512314237,0.7399440427397331
0.067,1.6924786597673593,1.0,2757.135220514861,0.5294062106893717,1.2849367585330103,0.9818339606840804,0.2841371037102291,0.7411066442496843
0.0675,1.6911465759293933,1.0,2761.331216602654,0.5320458589282323,1.284297238315117,0.9819791975183176,0.2840811561890345,0.7422674754030536
0.068,1.689814492091427,1.0,2765.568611901316,0.534670706837763,1.2836573730650263,0.982121436437098,0.2840252086678399,0.7434263224038538
0.0685,1.6884824082534609,1.0,2769.8429495984506,0.5372808375315273,1.2830172037900358,0.9822607590338694,0.28396926114664534,0.7445831070117007
0.069,1.6871503244154946,1.0,2774.1514328785843,0.5398763310331084,1.2823767564101838,0.9823972432613526,0.2839133136254508,0.7457377788241828
0.0695,1.6858182405775284,1.0,2778.4912565405216,0.5424572673660893,1.2817360568455085,0.9825309644776433,0.28385736610425616,0.7468902878607921
0.07,1.6844861567395621,1.0,2782.8596068458305,0.5450237265540535,1.2810951310160488,0.9826619955510523,0.2838014185830616,0.7480405845633622
0.07050000000000001,1.683154072901596,1.0,2787.2536613806683,0.5475757886205838,1.280454004841843,0.9827904069600324,0.28374547106186704,0.7491886197964654
0.07100000000000001,1.6818219890636297,1.0,2791.670588933529,0.5501135335892635,1.279812704242929,0.9829162668884528,0.28368952354067245,0.7503343448477651
0.07150000000000001,1.6804899052256634,1.0,2796.107549387489,0.5526370414836759,1.2791712551393457,0.9830396413164684,0.28363357601947786,0.7514777114283239
0.07200000000000001,1.6791578213876974,1.0,2800.5616936275173,0.5551463923274038,1.2785296834511313,0.983160594107214,0.2835776284982833,0.7526186716728719
0.0725,1.6778257375497312,1.0,2805.0301634623115,0.5576416661440308,1.2778880150983243,0.9832791870895448,0.2835216809770887,0.7537571781400303
0.073,1.676493653711765,1.0,2809.510091561599,0.5601229429571397,1.277246276000963,0.9833954801370238,0.2834657334558941,0.754893183812493
