Time [s],Phi [rad],STIM [ ],Fsee [N],Gamma [ ],Lcerel [ ],q [ ],Lmtc [m],fisomrel [ ]
0.0,1.8,1.0,19.975240816245847,0.0014481557726011552,1.3791207312582376,0.0055368203334645785,0.288653,0.5416692319203418
0.0005,1.79999375,1.0,20.686054588045327,0.0070492420726738095,1.3790430427523936,0.017409589210714577,0.2886527375,0.5418570527455584
0.001,1.799975,1.0,25.10656188107492,0.01261891070742522,1.3785953526767751,0.043489596066982265,0.28865195,0.5429386445521309
0.0015,1.79994375,1.0,37.07525846153808,0.018157337904855596,1.3775571046135464,0.08113289216942977,0.2886506375,0.5454420687367206
0.002,1.7999,1.0,64.44184721971568,0.02366469890503572,1.3756961057462054,0.12702581285298947,0.2886488,0.5499121049972452
0.0025,1.79984375,1.0,113.63708664646396,0.029141167964506727,1.373170437488796,0.17786047033819957,0.28864643749999996,0.5559433181901166
0.003,1.7997750000000001,1.0,181.38373375086823,0.03458691836291056,1.3704726237785407,0.23091794712326988,0.28864354999999997,0.562340672929349
0.0035,1.79969375,1.0,260.1938983588494,0.040002122406289434,1.3679070322854137,0.2841283311173543,0.2886401375,0.5683814272797819
0.004,1.7996,1.0,345.08665214794894,0.04538695143428441,1.3655415797907111,0.33596793650382295,0.2886362,0.5739137546049464
0.0045000000000000005,1.7994937500000001,1.0,433.5079702471521,0.050741575841155656,1.3633619885540607,0.38540046695700714,0.2886317375,0.5789797999809907
0.005,1.799375,1.0,523.9682189575921,0.05606616498259529,1.361342817382067,0.4318008250123641,0.28862675,0.5836459449183362
0.0055,1.79924375,1.0,615.4558606734075,0.061360887516216794,1.3594618596012102,0.4748595592467622,0.2886212375,0.5879692968496169
0.006,1.7991000000000001,1.0,707.0905132078551,0.06662591072863315,1.3577037032863222,0.5144938066064267,0.2886152,0.5919899893343457
0.006500000000000001,1.79894375,1.0,798.2235631492628,0.07186140136510528,1.3560549317695145,0.5507700119867108,0.2886086375,0.5957426197787192
0.007,1.798775,1.0,888.2709729579112,0.07706752502627268,1.3545056090984728,0.5838484311711835,0.28860155,0.5992531030539566
0.0075,1.79859375,1.0,976.7696224835655,0.08224444638283938,1.3530471243163051,0.6139411451420888,0.2885939375,0.6025437755484292
0.008,1.7984,1.0,1063.354902042378,0.08739232953701097,1.3516719205927445,0.6412840043603862,0.2885858,0.6056341207481198
0.0085,1.79819375,1.0,1147.7123109270688,0.0925113369142862,1.3503737292295586,0.6661184359027947,0.2885771375,0.6085403375821811
0.009000000000000001,1.797975,1.0,1229.6208824274643,0.09760163048432781,1.349146569840074,0.6886794109225427,0.28856795,0.611277655513107
0.0095,1.79774375,1.0,1308.9361656137444,0.10266337209636849,1.3479847842686106,0.7091888350608132,0.2885582375,0.6138602994819151
0.01,1.7975,1.0,1385.5219786558764,0.10769672124287535,1.3468837373966374,0.7278524667072566,0.288548,0.6162999768167754
0.0105,1.79724375,1.0,1459.2967612366667,0.11270183694594654,1.3458390034222036,0.7448580968588336,0.2885372375,0.6186077286732685
0.011,1.796975,1.0,1530.2245271242,0.11767887772253266,1.344846371211182,0.7603755088842481,0.28852595000000003,0.6207939421635194
0.0115,1.79669375,1.0,1598.3071131712209,0.12262800185705491,1.3439018436072252,0.7745572104220844,0.2885141375,0.6228683736082641
0.012,1.7964,1.0,1663.5402628315255,0.12754936527435562,1.3430020670582816,0.7875397707922914,0.28850180000000003,0.6248392282963842
0.0125,1.79609375,1.0,1725.945725092324,0.13244312335587524,1.3421438534953323,0.7994449438812948,0.2884889375,0.6267142331484841
0.013000000000000001,1.7957750000000001,1.0,1785.5708700167008,0.13730943100986165,1.3413241300050434,0.8103810668516395,0.28847555,0.6285007598096309
0.0135,1.79544375,1.0,1842.485428240539,0.14214844315872566,1.34053993026556,0.8204444512224219,0.2884616375,0.6302058542561464
0.014,1.7951000000000001,1.0,1896.7455832411226,0.14696031253555847,1.3397887467479694,0.82972082329143,0.2884472,0.6318354833655749
0.0145,1.79474375,1.0,1948.4087867813707,0.15174519070453796,1.3390683125899805,0.8382864353235087,0.2884322375,0.6333950235885947
0.015,1.794375,1.0,1997.552927188997,0.1565032292298419,1.338376360929303,0.8462090769745602,0.28841675,0.6348897907023028
0.0155,1.79399375,1.0,2044.2565026884445,0.1612345785165048,1.337710814531918,0.8535491292253842,0.2884007375,0.6363246356766212
0.016,1.7936,1.0,2088.626001327589,0.1659393898393103,1.3370694739287456,0.860360341390386,0.2883842,0.6377046229126233
0.0165,1.7931937500000001,1.0,2130.7292409661263,0.1706178109201128,1.3364506945773205,0.8666908187112425,0.2883671375,0.6390335781837966
0.017,1.792775,1.0,2170.6414655537897,0.17526998919339462,1.335852877052919,0.8725835363324256,0.28834955,0.6403151944364697
0.0175,1.7923437500000001,1.0,2208.4486195302165,0.17989607209363812,1.335274421930818,0.8780769319523276,0.2883314375,0.6415531313742215
0.018000000000000002,1.7919,1.0,2244.2328261958187,0.184496205767518,1.3347138661811317,0.8832054739968285,0.2883128,0.6427507263586717
0.0185,1.79144375,1.0,2278.093267833344,0.1890705376734517,1.334169661792151,0.8880000672849029,0.2882936375,0.6439114704646665
0.019,1.790975,1.0,2310.101734217523,0.19361921157662282,1.333640610609081,0.8924885702957791,0.28827395,0.6450380833941314
0.0195,1.79049375,1.0,2340.3290546847034,0.19814237048759736,1.3331255863677551,0.8966960745468563,0.2882537375,0.646133111311031
0.02,1.79,1.0,2368.8517070858493,0.20264015741694127,1.332623462804007,0.9006452008620627,0.288233,0.6471990816080082
0.0205,1.78949375,1.0,2395.7492834766163,0.2071127149902212,1.3321331336122897,0.9043563802330596,0.2882117375,0.6482384615971968
0.021,1.788975,1.0,2421.0955624723683,0.21156018466647725,1.3316535937502834,0.9078481131819502,0.28818995000000003,0.6492534877312565
0.021500000000000002,1.78844375,1.0,2444.97088994226,0.21598270951769608,1.3311838140780472,0.9111371551984362,0.2881676375,0.6502464326936144
0.022,1.7879,1.0,2467.433363763701,0.22038042775111938,1.330723013991524,0.9142387567180212,0.2881448,0.6512190306644203
0.0225,1.78734375,1.0,2488.54404646914,0.22475347757398895,1.3302704128866574,0.9171667752159525,0.28812143749999997,0.6521730050117247
0.023,1.786775,1.0,2508.366718888351,0.2291019971935466,1.32982523015939,0.9199338217195004,0.28809755,0.6531100687190861
0.0235,1.78619375,1.0,2526.9676473000904,0.233426124817034,1.3293866852056655,0.9225513901750106,0.28807313749999996,0.6540319247743107
0.024,1.7856,1.0,2544.402689961652,0.23772599564091748,1.3289541167411356,0.9250299918520302,0.2880482,0.65494001619598
0.0245,1.78499375,1.0,2560.740735697559,0.2420017501554276,1.3285267590065224,0.927379218878797,0.2880227375,0.6558359968643825
0.025,1.784375,1.0,2576.0309670965958,0.24625352278349844,1.3281040480721693,0.9296078829759469,0.28799675,0.6567210894089783
0.025500000000000002,1.78374375,1.0,2590.3183274636935,0.25048144632631275,1.3276854730701357,0.9317240685470374,0.2879702375,0.6575963990395451
0.026000000000000002,1.7831000000000001,1.0,2603.6490240038274,0.25468565358505324,1.3272705231324817,0.9337351951413413,0.2879432,0.6584630251549481
0.0265,1.78244375,1.0,2616.070419927639,0.2588662773609027,1.326858687391267,0.9356480810936356,0.2879156375,0.6593220614695725
0.027,1.781775,1.0,2627.630932343763,0.26302345045504383,1.3264494549785515,0.9374690002965289,0.28788755,0.660174596123108
0.0275,1.7810937500000001,1.0,2638.376676066727,0.26715730452179537,1.3260423451647232,0.9392037369672764,0.2878589375,0.6610216491055086
0.028,1.7804,1.0,2648.347002514277,0.2712679694922615,1.3256369474051377,0.9408576361908714,0.2878298,0.6618640895556875
0.0285,1.77969375,1.0,2657.596156882931,0.2753555809498121,1.325232720489055,0.9424356176395228,0.2878001375,0.6627030533268119
0.029,1.778975,1.0,2666.155072566693,0.2794202657487465,1.3248293443658785,0.9439422576999794,0.28776995,0.6635392124962803
0.029500000000000002,1.7782437500000001,1.0,2674.0551966873973,0.2834621507433639,1.3244264989850114,0.9453817921939827,0.2877392375,0.6643732358301289
0.03,1.7775,1.0,2681.328445134707,0.28748136278796355,1.3240238642958568,0.9467581460724328,0.287708,0.6652057887971305
0.0305,1.77674375,1.0,2688.007159877669,0.2914780287368447,1.323621120247818,0.9480749601683355,0.2876762375,0.6660375335763624
0.031,1.775975,1.0,2694.1240685469966,0.29545227544430663,1.3232179467902985,0.9493356153318026,0.28764395,0.6668691290582391
0.0315,1.7751937500000001,1.0,2699.7122462886646,0.29940422976464853,1.3228140238727009,0.9505432542316563,0.2876111375,0.6677012308390158
0.032,1.7744,1.0,2704.7983912902173,0.3033340148215482,1.3224090925182002,0.9517008073653128,0.2875778,0.6685343656300722
0.0325,1.77359375,1.0,2709.415656537083,0.30724175934360903,1.3220028371893742,0.9528109990531561,0.2875439375,0.6693691736032953
0.033,1.772775,1.0,2713.589767056284,0.31112758720618433,1.3215950123281766,0.9538763758807693,0.28750955,0.6702061481047192
0.0335,1.7719437500000002,1.0,2717.3419131916758,0.31499161931887165,1.3211854154905875,0.9548993182430181,0.2874746375,0.6710456915693197
0.034,1.7711000000000001,1.0,2720.69345002817,0.3188339765912686,1.320773844232587,0.9558820493567033,0.2874392,0.6718882042609952
0.0345,1.7702437500000001,1.0,2723.665880461254,0.32265477993297276,1.3203600961101547,0.9568266474896292,0.2874032375,0.6727340842483815
0.035,1.7693750000000001,1.0,2726.2808391752747,0.3264541502535818,1.319943968679271,0.9577350571018184,0.28736675,0.6735837273780536
0.035500000000000004,1.76849375,1.0,2728.5600775305907,0.3302322084626934,1.3195252594959157,0.9586090990070051,0.2873297375,0.674437527245114
0.036000000000000004,1.7676,1.0,2730.5241318145204,0.3339890738988362,1.3191037780898003,0.9594504805197086,0.2872922,0.6752958507934168
0.0365,1.76669375,1.0,2732.187570508308,0.33772485906836286,1.3186793890045445,0.9602608070401905,0.2872541375,0.6761589509683998
0.037,1.765775,1.0,2733.580199070081,0.3414396977001898,1.3182518190215742,0.9610415765333958,0.28721555,0.6770273587036326
0.0375,1.76484375,1.0,2734.714535015147,0.34513370389905623,1.3178209525868143,0.9617942073368329,0.2871764375,0.6779012821964603
0.038,1.7639,1.0,2735.60314434136,0.34880699176970165,1.3173866741461904,0.962520032849522,0.28713679999999997,0.678780928170982
0.0385,1.76294375,1.0,2736.2586356604243,0.35245967541686546,1.3169488681456274,0.9632203075460162,0.28709663750000003,0.6796665018533345
0.039,1.761975,1.0,2736.6936546237007,0.3560918689452871,1.3165074190310506,0.9638962125017533,0.28705595,0.6805582069461191
0.0395,1.7609937500000001,1.0,2736.9208786458416,0.35970368645970585,1.316062211248385,0.9645488604742793,0.2870147375,0.6814562456019809
0.04,1.76,1.0,2736.9530119227315,0.36329524206486125,1.3156131292435562,0.9651793005804172,0.286973,0.6823608183963338
0.0405,1.7589937500000001,1.0,2736.8027807468948,0.36686664986549267,1.315160057462489,0.9657885226054519,0.2869307375,0.6832721242992366
0.041,1.757975,1.0,2736.482929118062,0.37041802396633944,1.314702880351109,0.9663774609768548,0.28688795,0.6841903606464146
0.0415,1.75694375,1.0,2736.006214650023,0.37394947847214105,1.314241482355341,0.9669469984318955,0.2868446375,0.6851157231094321
0.042,1.7559,1.0,2735.3598592294916,0.37746112536030596,1.3137759798710653,0.9674979884342247,0.28680079999999997,0.6860479415049516
0.0425,1.75484375,1.0,2734.603486306967,0.38095307624759595,1.313305831992779,0.9680311839792386,0.2867564375,0.6869880600743383
0.043000000000000003,1.753775,1.0,2733.741928966451,0.38442544109609533,1.3128309952384818,0.968547338057456,0.28671155,0.6879361237822098
0.043500000000000004,1.752695034335948,1.0,2732.8131888532853,0.3878783285786894,1.3123517048706317,0.9690471857722409,0.2866661914421098,0.6888916213788578
0.044,1.751613200763279,1.0,2732.2560596022718,0.39131184736826335,1.3118681961516871,0.9695314235114459,0.2866207544320577,0.6898540440978724
0.0445,1.75053136719061,1.0,2732.13738299986,0.3947261061377025,1.3113807043441061,0.9700007113749064,0.2865753174220056,0.6908228857212002
0.045,1.749449533617941,1.0,2732.4312339912763,0.398121213559892,1.3108894647103466,0.97045567542709,0.2865298804119535,0.6917976426406701
0.0455,1.748367700045272,1.0,2733.1116747844917,0.40149727628843446,1.3103947134632616,0.9708969095775266,0.28648444340190143,0.6927778120346292
0.046,1.747285866472603,1.0,2734.1329606916993,0.4048544037413799,1.3098968673618157,0.9713249915337684,0.2864390063918493,0.6937625369876698
0.0465,1.746204032899934,1.0,2735.469958126538,0.4081927010491972,1.3093961563446295,0.9717404558151844,0.2863935693817972,0.6947513343085765
0.047,1.745122199327265,1.0,2737.099396720066,0.41151227282639447,1.308892793736296,0.9721438092592414,0.2863481323717451,0.6957437563067159
0.0475,1.744040365754596,1.0,2738.998027492595,0.4148132236874798,1.3083869928614078,0.9725355339183938,0.28630269536169306,0.6967393578887054
0.048,1.742958532181927,1.0,2741.142610816441,0.4180956582469613,1.3078789670445583,0.9729160885091347,0.28625725835164095,0.6977376965930351
0.0485,1.741876698609258,1.0,2743.510332938001,0.42135968090488884,1.3073689257340129,0.9732859094681946,0.28621182134158885,0.6987383402204046
0.049,1.740794865036589,1.0,2746.0827263288807,0.4246053944434023,1.3068570388932097,0.9736454096257214,0.28616638433153674,0.6997409364849847
0.0495,1.73971303146392,1.0,2748.8381766706893,0.42783290388071693,1.3063435048879568,0.9739949846182145,0.28612094732148463,0.700745079760722
0.05,1.738631197891251,1.0,2751.7633417077236,0.43104230992452347,1.305828446978565,0.9743350061617037,0.2860755103114325,0.7017505134524205
0.0505,1.737549364318582,1.0,2754.8448665423766,0.4342337132825125,1.305311988425345,0.9746658288783246,0.2860300733013804,0.7027569825375064
0.051000000000000004,1.736467530745913,1.0,2758.0693796387413,0.43740721466237453,1.3047942524886074,0.974987791237812,0.2859846362913283,0.7037642335775225
0.051500000000000004,1.735385697173244,1.0,2761.4234891635274,0.4405629147718003,1.304275362428663,0.9753012164391589,0.28593919928127626,0.7047720147286538
0.052000000000000005,1.734303863600575,1.0,2764.897490223583,0.4437009106274259,1.3037554079948122,0.9756064107091154,0.28589376227122415,0.7057801406693406
0.0525,1.733222030027906,1.0,2768.4792917191508,0.44682130259338787,1.3032345003193713,0.9759036684289283,0.28584832526117204,0.7067883858930524
0.053,1.732140196455237,1.0,2772.151144683916,0.4499241977779402,1.3027128013368752,0.9761932749228021,0.28580288825111994,0.7077964282741759
0.0535,1.731058362882568,1.0,2775.9069620738364,0.453009691629664,1.3021903674834312,0.9764754954241184,0.2857574512410679,0.7088041511486889
0.054,1.729976529309899,1.0,2779.740643678546,0.45607787959714063,1.3016672551951454,0.9767505837660765,0.2857120142310158,0.7098114385938362
0.0545,1.72889469573723,1.0,2783.646075237401,0.4591288571289515,1.301143520908125,0.9770187829693764,0.28566657722096367,0.7108181754306686
0.055,1.727812862164561,1.0,2787.61712762575,0.46216271967367784,1.3006192210584762,0.977280325794875,0.28562114021091156,0.7118242472263874
0.0555,1.726731028591892,1.0,2791.6476561118197,0.46517956267990096,1.3000944120823061,0.9775354352635662,0.28557570320085945,0.7128295402964766
0.056,1.7256491950192228,1.0,2795.7314996847463,0.46817948159620215,1.299569150415721,0.9777843251460832,0.28553026619080735,0.7138339417066427
0.0565,1.724567361446554,1.0,2799.8624804522647,0.47116257187116284,1.299043492494828,0.978027200423737,0.28548482918075524,0.7148373392745402
0.057,1.7234855278738848,1.0,2804.034403110075,0.4741289289533642,1.2985174947557332,0.9782642577229674,0.28543939217070313,0.7158396215713037
0.0575,1.722403694301216,1.0,2808.241054481062,0.4770786482913877,1.297991213634544,0.9784956857249434,0.2853939551606511,0.7168406779228687
0.058,1.7213218607285468,1.0,2812.483432338166,0.48001180854300246,1.2974646408331827,0.978721660479828,0.285348518150599,0.7178405212180664
0.0585,1.7202400271558778,1.0,2816.7499643374676,0.4829285249441134,1.2969378805575449,0.9789423604206453,0.28530308114054687,0.7188389511798253
0.059000000000000004,1.7191581935832088,1.0,2821.037806686318,0.4858288884587729,1.2964109586595773,0.9791579505831584,0.28525764413049476,0.7198359170488213
0.059500000000000004,1.7180763600105398,1.0,2825.3449474096124,0.4887129878348614,1.2958838934828438,0.9793685889751825,0.28521220712044265,0.7208313825811006
0.06,1.7169945264378708,1.0,2829.669368418829,0.4915809118202592,1.2953567033709086,0.9795744274958288,0.2851667701103906,0.7218253117789194
0.0605,1.715912692865202,1.0,2834.009045457119,0.49443274916284696,1.2948294066673356,0.9797756122195221,0.2851213331003385,0.7228176688909019
0.061,1.7148308592925328,1.0,2838.361948052727,0.497268588610505,1.2943020217156893,0.9799722836647115,0.2850758960902864,0.7238084184121746
0.0615,1.7137490257198638,1.0,2842.726039479101,0.5000885189111138,1.2937745668595335,0.9801645770482085,0.2850304590802343,0.7247975250844818
0.062,1.7126671921471948,1.0,2847.099276722701,0.5028926288125538,1.2932470604424324,0.9803526225260233,0.28498502207018217,0.7257849538962767
0.0625,1.7115853585745258,1.0,2851.4796104584293,0.5056810070627054,1.2927195208079503,0.980536545421517,0.28493958506013006,0.7267706700827933
0.063,1.7105035250018568,1.0,2855.864985032259,0.5084537424094491,1.2921919662996508,0.9807164664416204,0.28489414805007796,0.7277546391260961
0.0635,1.7094216914291878,1.0,2860.2533384515536,0.5112109236006653,1.2916644152610983,0.9808925018818363,0.28484871104002585,0.7287368267551071
0.064,1.7083398578565188,1.0,2864.642602382885,0.5139526393842345,1.291136886035857,0.9810647638206791,0.2848032740299738,0.7297171989456137
0.0645,1.7072580242838498,1.0,2869.030702156532,0.5166789785080371,1.290609396967491,0.9812333603041725,0.2847578370199217,0.7306957219202527
0.065,1.7061761907111808,1.0,2873.4193167991934,0.5193900012173676,1.2900819330893005,0.981398391884227,0.2847124000098696,0.7316724237728782
0.0655,1.7050943571385118,1.0,2877.8037147159775,0.5220858298316164,1.289554536229142,0.9815599626463886,0.2846669629998175,0.7326472275163471
0.066,1.7040125235658428,1.0,2882.1831192268137,0.5247665484770366,1.289027213104109,0.9817181686713927,0.2846215259897654,0.7336201214453826
0.0665,1.7029306899931738,1.0,2886.5570778439123,0.5274322383949501,1.2884999675456912,0.9818731023594901,0.2845760889797133,0.7345910992542575
0.067,1.7018488564205048,1.0,2890.925136804057,0.5300829808266787,1.2879728033853801,0.9820248529184826,0.2845306519696612,0.7355601546886645
0.0675,1.7007670228478358,1.0,2895.286841075457,0.5327188570135443,1.287445724454666,0.9821735064967656,0.2844852149596091,0.7365272815457022
0.068,1.6996851892751668,1.0,2899.6417343644894,0.5353399481968685,1.28691873458504,0.9823191463099342,0.284439777949557,0.7374924736738502
0.0685,1.6986033557024978,1.0,2903.98935912347,0.5379463356179736,1.2863918376079921,0.9824618527613023,0.2843943409395049,0.7384557249729511
0.069,1.6975215221298288,1.0,2908.3292565581155,0.540538100518181,1.2858650373550138,0.9826017035566662,0.2843489039294528,0.7394170293941855
0.0695,1.6964396885571598,1.0,2912.6609666357626,0.5431153241388129,1.2853383376575955,0.9827387738136325,0.2843034669194007,0.740376380940051
0.07,1.6953578549844908,1.0,2916.984028093616,0.545678087721191,1.2848117423472278,0.9828731361657934,0.2842580299093486,0.7413337736643377
0.07050000000000001,1.6942760214118218,1.0,2921.2979784475174,0.5482264725066373,1.2842852552554014,0.9830048608620311,0.2842125928992965,0.7422892016721023
0.07100000000000001,1.6931941878391528,1.0,2925.602354001012,0.5507605597364733,1.2837588802136073,0.9831340158612125,0.2841671558892444,0.7432426591196418
0.07150000000000001,1.6921123542664838,1.0,2929.8966898547383,0.5532804306520214,1.2832326210533358,0.9832606669225096,0.2841217188791923,0.7441941402144691
0.07200000000000001,1.6910305206938148,1.0,2934.1805199159726,0.555786166494603,1.282706481606078,0.9833848776915843,0.28407628186914025,0.7451436392152815
