Time [s],Phi [rad],STIM [ ],Fsee [N],Gamma [ ],Lcerel [ ],q [ ],Lmtc [m],fisomrel [ ]
0.0,1.8,1.0,17.967873913715824,1.0117169280303023e-05,1.3793396660330157,0.005000027277472228,0.288653,0.5411397250445156
0.0005,1.79999375,1.0,18.277179108244333,0.00561926972875586,1.3793023394739605,0.012940838358878961,0.2886527375,0.5412300231810601
0.001,1.799975,1.0,21.61884659468793,0.011196959377294938,1.3789382546172806,0.035609184167508814,0.28865195,0.5421103290421208
0.0015,1.79994375,1.0,31.06979023729988,0.0167433625978112,1.378046156510435,0.07060253582452239,0.2886506375,0.5442637230474737
0.002,1.7999,1.0,53.58305537907783,0.022258654881569386,1.3763680883805665,0.11471882017139054,0.2886488,0.5483005805126215
0.0025,1.79984375,1.0,97.11969386860007,0.027743010735744825,1.3739351308190932,0.16457574462294755,0.28864643749999996,0.5541215495513636
0.003,1.7997750000000001,1.0,160.9591007110038,0.03319660369114411,1.3712143087999258,0.21728133299638372,0.28864354999999997,0.560586533616688
0.0035,1.79969375,1.0,237.68435198893675,0.03861960630179418,1.3685847028007527,0.27061376294066025,0.2886401375,0.5667899134607168
0.004,1.7996,1.0,321.46785047780344,0.044012190155725134,1.366156063813922,0.32291664860670904,0.2886362,0.5724800284830837
0.0045000000000000005,1.7994937500000001,1.0,409.26888335833786,0.04937452588015463,1.363922787580884,0.3730353120015985,0.2886317375,0.5776792241050984
0.005,1.799375,1.0,499.41466081015756,0.05470678313257474,1.3618583177682728,0.4202482141052925,0.28862675,0.5824571360392721
0.0055,1.79924375,1.0,590.79159447046,0.06000913064824091,1.359938812035785,0.4641743965591271,0.2886212375,0.5868751645097828
0.006,1.7991000000000001,1.0,682.5192895644708,0.06528173618327537,1.3581463932756734,0.5046806048585898,0.2886152,0.5909794674222789
0.006500000000000001,1.79894375,1.0,773.8825156275507,0.07052476657031775,1.3564672321463853,0.5418013483285471,0.2886086375,0.5948058431310429
0.007,1.798775,1.0,864.2870044200688,0.07573838770210865,1.3548903757221071,0.5756773187067525,0.28860155,0.598382720726472
0.0075,1.79859375,1.0,953.2444767804354,0.08092276454122818,1.3534067597899804,0.6065104055082982,0.2885939375,0.6017336165011069
0.008,1.7984,1.0,1040.3455840630368,0.08607806070154839,1.3520088358377855,0.6345326272520567,0.2885858,0.604878123380507
0.0085,1.79819375,1.0,1125.3155232454167,0.09120444031996297,1.3506892231557055,0.6599848422604507,0.2885771375,0.607835040696581
0.009000000000000001,1.797975,1.0,1207.9017453779643,0.09630206534562308,1.3494420136694985,0.6831045632750444,0.28856795,0.6106195123807592
0.0095,1.79774375,1.0,1287.8942256421844,0.10137109627287952,1.3482620970744654,0.7041178119551526,0.2885582375,0.6132446165219887
0.01,1.7975,1.0,1365.1687775679554,0.10641169359608312,1.347144363065908,0.7232345336173324,0.288548,0.6157231861975929
0.0105,1.79724375,1.0,1439.6601158102537,0.1114240172955013,1.346083938670004,0.7406469459399517,0.2885372375,0.618067306743166
0.011,1.796975,1.0,1511.322739779326,0.11640822615447469,1.3450765472226898,0.7565293899224295,0.28852595000000003,0.6202875527961313
0.0115,1.79669375,1.0,1580.1218587590085,0.12136447735059314,1.3441184729483715,0.7710388475211524,0.2885141375,0.6223931013255131
0.012,1.7964,1.0,1646.0586460806046,0.126292927547894,1.3432061458165725,0.7843158035205424,0.28850180000000003,0.6243926705157321
0.0125,1.79609375,1.0,1709.1752225449168,0.1311937334893933,1.3423360204599817,0.7964855246299944,0.2884889375,0.6262947994120631
0.013000000000000001,1.7957750000000001,1.0,1769.5075818623047,0.1360670500948848,1.3415050611534831,0.8076596763780868,0.28847555,0.6281068023168233
0.0135,1.79544375,1.0,1827.0921202216418,0.14091303085439588,1.3407105885029662,0.8179376375128569,0.2884616375,0.6298351239858496
0.014,1.7951000000000001,1.0,1881.9928810875451,0.145731829257954,1.3399499231143208,0.8274076900992108,0.2884472,0.6314861281076766
0.0145,1.79474375,1.0,1934.2813094924288,0.15052359766853876,1.3392205780323074,0.836148335520188,0.2884322375,0.6330656869879695
0.015,1.794375,1.0,1984.0552896117536,0.15528848912654677,1.3385200194865623,0.8442293382464583,0.28841675,0.6345797079299027
0.0155,1.79399375,1.0,2031.3748116718996,0.1600266532407666,1.337846326717839,0.8517129612869526,0.2884007375,0.6360327153165279
0.016,1.7936,1.0,2076.3130238319377,0.16473823945288538,1.337197607111004,0.8586546573384433,0.2883842,0.637429125505781
0.0165,1.7931937500000001,1.0,2118.957478707556,0.16942339720459038,1.3365719680509247,0.8651038672397336,0.2883671375,0.638773310976809
0.017,1.792775,1.0,2159.3912777401556,0.17408227437998422,1.335967696889619,0.8711047835678145,0.28834955,0.640069217623358
0.0175,1.7923437500000001,1.0,2197.721178586091,0.1787150203968402,1.3353829565321627,0.8766968854517719,0.2883314375,0.6413210218996988
0.018000000000000002,1.7919,1.0,2234.0149267796755,0.18332178044951633,1.334816410173851,0.8819156586297582,0.2883128,0.6425317968057893
0.0185,1.79144375,1.0,2268.3470469294466,0.18790269960135236,1.3342667358376679,0.886792930887634,0.2882936375,0.6437045577564757
0.019,1.790975,1.0,2300.7996006600492,0.1924579229156881,1.3337326115465964,0.89135729191486,0.28827395,0.6448422958873998
0.0195,1.79049375,1.0,2331.4532657562677,0.19698759436859542,1.3332127967597025,0.8956344837606763,0.2882537375,0.6459478063634477
0.02,1.79,1.0,2360.3972883248503,0.20149185892433719,1.3327060267069393,0.8996477000584371,0.288233,0.6470239151558719
0.0205,1.78949375,1.0,2387.7071204948957,0.20597085925874278,1.3322112252425695,0.9034179183227254,0.2882117375,0.6480730287717817
0.021,1.788975,1.0,2413.445739458181,0.21042473572044976,1.3317274821502065,0.9069641388812244,0.28818995000000003,0.6490971861807538
0.021500000000000002,1.78844375,1.0,2437.680061270115,0.21485362865809568,1.3312538872134632,0.9103035662855659,0.2881676375,0.6500984126465887
0.022,1.7879,1.0,2460.4806129425883,0.21925767842031804,1.3307895302159531,0.9134518037925901,0.2881448,0.6510787203428221
0.0225,1.78734375,1.0,2481.915537981161,0.22363702419429163,1.3303335551311852,0.9164230346776308,0.28812143749999997,0.6520399947525262
0.023,1.786775,1.0,2502.054575304749,0.2279918058030198,1.3298851184902558,0.9192301647186392,0.28809755,0.6529840835416769
0.0235,1.78619375,1.0,2520.9652350063075,0.23232216255073196,1.329443422874706,0.9218849606841939,0.28807313749999996,0.653912726800375
0.024,1.7856,1.0,2538.6982076331337,0.23662822967062389,1.3290078513779875,0.9243981896508616,0.2880482,0.6548272759299748
0.0245,1.78499375,1.0,2555.306054110296,0.24091014239589126,1.3285777870935518,0.9267796893153432,0.2880227375,0.6557290747088793
0.025,1.784375,1.0,2570.843048982129,0.24516803595972994,1.3281526131148502,0.9290384609654514,0.28799675,0.6566194595213503
0.025500000000000002,1.78374375,1.0,2585.3650320920688,0.2494020455953356,1.3277317125353345,0.9311827520201253,0.2879702375,0.6574997595620435
0.026000000000000002,1.7831000000000001,1.0,2598.921213451126,0.2536123045239886,1.3273145434844171,0.9332201407453222,0.2879432,0.658371140381338
0.0265,1.78244375,1.0,2611.5650707675127,0.25779894807652265,1.326900535729905,0.9351575855832407,0.2879156375,0.6592348205978988
0.027,1.781775,1.0,2623.349374806794,0.2619621105968511,1.3264891361058773,0.937001489605584,0.28788755,0.6600919770562435
0.0275,1.7810937500000001,1.0,2634.311123224892,0.266101921741213,1.3260799467356859,0.9387577717318941,0.2878589375,0.6609434577067994
0.028,1.7804,1.0,2644.4880965857847,0.2702185111658476,1.3256725697426825,0.9404318897926294,0.2878298,0.6617901062410637
0.0285,1.77969375,1.0,2653.918790819827,0.27431200852699394,1.3252666072502197,0.9420288824985567,0.2878001375,0.6626327621426381
0.029,1.778975,1.0,2662.6423531919536,0.27838254348089114,1.3248616613816493,0.9435534070839205,0.28776995,0.6634722607281717
0.029500000000000002,1.7782437500000001,1.0,2670.698521779472,0.28243024568377834,1.3244573342603234,0.9450097731164295,0.2877392375,0.664309433178204
0.03,1.7775,1.0,2678.120996102903,0.28645524225465274,1.324053288320125,0.9464019800846631,0.287708,0.6651449819161797
0.0305,1.77674375,1.0,2684.9490151119835,0.2904576634326192,1.3236491393222198,0.9477337319463591,0.2876762375,0.6659797022193442
0.031,1.775975,1.0,2691.215911048937,0.2944376365021585,1.3232445610108718,0.9490084737713969,0.28764395,0.666814265870181
0.0315,1.7751937500000001,1.0,2696.9477353429875,0.29839528550661804,1.3228392969529232,0.9502294147922002,0.2876111375,0.6676491975221372
0.032,1.7744,1.0,2702.1708280688244,0.3023307344893454,1.3224330907152169,0.95139954030769,0.2875778,0.668485019170385
0.0325,1.77359375,1.0,2706.911790479041,0.30624410749368813,1.322025685864595,0.9525216300517033,0.2875439375,0.6693222501385117
0.033,1.772775,1.0,2711.1974589938372,0.3101355285629937,1.3216168259679002,0.9535982748433074,0.28750955,0.6701614070610121
0.0335,1.7719437500000002,1.0,2715.054880649559,0.3140051217406097,1.3212062545919752,0.9546318916980834,0.2874746375,0.671003003861592
0.034,1.7711000000000001,1.0,2718.5010712062294,0.3178530058206785,1.3207938083763024,0.9556247466028395,0.2874392,0.671847361311952
0.0345,1.7702437500000001,1.0,2721.5709432751814,0.321679309407831,1.320379162347863,0.9565789420610723,0.2874032375,0.672695128613781
0.035,1.7693750000000001,1.0,2724.2878532477166,0.3254841542680473,1.3199620981742597,0.9574964546379203,0.28736675,0.673546733839048
0.035500000000000004,1.76849375,1.0,2726.668233999444,0.32926765837786076,1.3195424615825706,0.9583791406742311,0.2873297375,0.6744024720846664
0.036000000000000004,1.7676,1.0,2728.7286129867825,0.3330299397138049,1.3191200982998736,0.9592287395159255,0.2872922,0.675262636674359
0.0365,1.76669375,1.0,2730.48560200112,0.336771116252413,1.3186948540532468,0.9600468822173059,0.2872541375,0.6761275191325884
0.037,1.765775,1.0,2731.955887449742,0.34049130597021865,1.3182665745697677,0.9608350995027252,0.28721555,0.6769974091569723
0.0375,1.76484375,1.0,2733.1562211651344,0.34419062684375523,1.317835105576514,0.9615948290573739,0.2871764375,0.6778725945891778
0.038,1.7639,1.0,2734.1034117414447,0.34786919684955614,1.3174002928005644,0.9623274222105218,0.28713679999999997,0.6787533613842985
0.0385,1.76294375,1.0,2734.814284558168,0.3515271336007045,1.3169619822581364,0.9630341500219353,0.28709663750000003,0.6796399929942373
0.039,1.761975,1.0,2735.306018659682,0.35516454838549966,1.3165200171265197,0.963716207463129,0.28705595,0.6805327766525118
0.0395,1.7609937500000001,1.0,2735.5929462491413,0.3587815654822128,1.3160742667396204,0.9643747251142594,0.2870147375,0.6814319448501637
0.04,1.76,1.0,2735.685666725304,0.3623782966521252,1.3156246345691767,0.9650107693589045,0.286973,0.6823376596080156
0.0405,1.7589937500000001,1.0,2735.5948016657558,0.36595485365651803,1.3151710240869274,0.9656253461064038,0.2869307375,0.6832500815561142
0.041,1.757975,1.0,2735.3309911563942,0.36951134825667276,1.314713338764611,0.9662194048530541,0.28688795,0.6841693699095381
0.0415,1.75694375,1.0,2734.9048903270086,0.37304789221387064,1.3142514820739661,0.9667938424297187,0.2868446375,0.685095682443609
0.042,1.7559,1.0,2734.3271660941996,0.3765645972893929,1.3137853574867309,0.9673495064630613,0.28680079999999997,0.6860291754685093
0.0425,1.75484375,1.0,2733.608494110401,0.38006157524452094,1.3133148684746443,0.9678871985750125,0.2867564375,0.6869700038033046
0.043000000000000003,1.753775,1.0,2732.7595559192496,0.38353893784053594,1.3128399185094446,0.968407677342732,0.28671155,0.6879183207493753
0.043500000000000004,1.75269375,1.0,2731.7870683967835,0.3869967896196721,1.3123604471146655,0.9689116628084289,0.28666613750000003,0.6888742062446629
0.044,1.7516,1.0,2730.7006707122323,0.39043524438794797,1.311876367293208,0.9693998364933992,0.2866202,0.6898377918494646
0.0445,1.75049375,1.0,2729.5125626735025,0.3938544203834851,1.311387568772326,0.9698728432828755,0.2865737375,0.6908092538713647
0.045,1.7493750000000001,1.0,2728.2281944153397,0.39725442244764736,1.3108940026057698,0.9703312975834366,0.28652675,0.691788645228838
0.0455,1.74824375,1.0,2726.8530163218247,0.4006353554217987,1.3103956198472888,0.970775782499627,0.2864792375,0.6927760177921473
0.046,1.7471,1.0,2725.392478100743,0.40399732414730294,1.3098923715506328,0.9712068517273748,0.2864312,0.693771422368382
0.0465,1.7459437500000001,1.0,2723.8520279107724,0.40734043346552407,1.3093842087695513,0.9716250313153327,0.28638263750000004,0.694774908686348
0.047,1.744775,1.0,2722.2371115419837,0.410664788217826,1.3088710825577947,0.9720308213045293,0.28633355,0.6957865253813009
0.0475,1.74359375,1.0,2720.5531716498876,0.41397049324557256,1.308352943969112,0.9724246972558068,0.28628393750000003,0.6968063199795336
0.048,1.7424,1.0,2718.805647041448,0.4172576533901277,1.3078297440572535,0.9728071116737141,0.2862338,0.6978343388827992
0.0485,1.74119375,1.0,2716.999972015756,0.4205263734928554,1.3073014338759685,0.9731784953347672,0.2861831375,0.6988706273525949
0.049,1.739975,1.0,2715.1415757561804,0.4237767583951195,1.3067679644790071,0.9735392585273296,0.28613195,0.6999152294942814
0.0495,1.73874375,1.0,2713.2358817769796,0.4270089129382839,1.3062292869201189,0.9738897922097506,0.2860802375,0.7009681882410572
0.05,1.7375,1.0,2711.284037059462,0.43022293179106647,1.3056853911992006,0.9742304705225536,0.286028,0.7020294694113256
0.0505,1.73624375,1.0,2709.2953900820785,0.433418928425609,1.305136192486962,0.9745616475222693,0.2859752375,0.7030991837836724
0.051000000000000004,1.734975,1.0,2707.2732338906353,0.436597002652762,1.3045816611050356,0.9748836630994853,0.28592195,0.7041773332860244
0.051500000000000004,1.73369375,1.0,2705.2201156952797,0.4397572525660104,1.3040217741467528,0.9751968419777337,0.2858681375,0.7052639057546584
0.052000000000000005,1.7324,1.0,2703.1385794867047,0.4428997762588389,1.3034565087054457,0.9755014942893031,0.2858138,0.7063588881514724
0.0525,1.73109375,1.0,2701.031165895652,0.4460246718247323,1.3028858418744462,0.9757979163553018,0.28575893750000003,0.7074622665561479
0.053,1.729775,1.0,2698.9004120626328,0.4491320373571756,1.302309750747086,0.9760863914174827,0.28570355000000003,0.708574026158274
0.0535,1.72844375,1.0,2696.748851520329,0.45222197094965355,1.301728212416697,0.9763671903252009,0.2856476375,0.7096941512494408
0.054,1.7271,1.0,2694.57901408708,0.4552945706956509,1.3011412039766106,0.9766405721806171,0.2855912,0.7108226252152978
0.0545,1.7257437500000001,1.0,2692.3934257722226,0.4583499346886525,1.3005487025201594,0.9769067849450124,0.2855342375,0.7119594305275789
0.055,1.724375,1.0,2690.1946086928415,0.46138816102214314,1.2999506851406748,0.9771660660088688,0.28547675,0.7131045487360963
0.0555,1.72299375,1.0,2687.9830476497937,0.4644093418466822,1.2993471475560814,0.977418643268344,0.2854187375,0.7142579249044567
0.056,1.7216,1.0,2685.761793256277,0.46741357779109016,1.2987380619668205,0.9776647344936598,0.2853602,0.7154195482535335
0.0565,1.72019375,1.0,2683.5341425784336,0.47040096757019756,1.2981233982687743,0.977904548087595,0.28530113749999997,0.7165894113669572
0.057,1.718775,1.0,2681.3013284553786,0.47337160321459865,1.2975031452391408,0.9781382843425511,0.28524155,0.7177674699388352
0.0575,1.71734375,1.0,2679.0645817119926,0.4763255767548876,1.2968772916551172,0.9783661353758046,0.2851814375,0.7189536788887834
0.058,1.7159,1.0,2676.8251311471095,0.47926298022165875,1.2962458262939014,0.9785882855267177,0.2851208,0.7201479923579197
0.0585,1.71444375,1.0,2674.584203523356,0.4821839056455063,1.2956087379326906,0.9788049117315776,0.2850596375,0.7213503637048528
0.059000000000000004,1.7129750000000001,1.0,2672.3430235603714,0.48508844505702453,1.2949660153486824,0.9790161838774907,0.28499795,0.7225607455016609
0.059500000000000004,1.71149375,1.0,2670.1028139307564,0.4879766904868077,1.2943176473190745,0.9792222651366567,0.2849357375,0.7237790895298625
0.06,1.71,1.0,2667.8647952586143,0.4908487339654499,1.2936636226210643,0.9794233122822581,0.284873,0.7250053467763813
0.0605,1.7084937500000001,1.0,2665.630186121152,0.4937046675235457,1.2930039300318497,0.979619475987105,0.2848097375,0.7262394674294992
0.061,1.7069750000000001,1.0,2663.3997167884304,0.4965445742743891,1.2923385628030977,0.9798109006370198,0.28474595,0.7274813925325871
0.0615,1.7054437500000001,1.0,2661.1739212785997,0.4993685277511293,1.2916675159818283,0.9799977244463083,0.2846816375,0.7287310590592793
0.062,1.7039,1.0,2658.9559690001347,0.5021766590618959,1.2909907603364459,0.9801800835671457,0.2846168,0.7299884483380648
0.0625,1.70234375,1.0,2656.746109736525,0.504969052558283,1.2903082934859615,0.980358106792634,0.2845514375,0.7312534908586379
0.063,1.7007750000000001,1.0,2654.5445928700146,0.5077457925918845,1.2896201130493856,0.9805319181045189,0.28448555,0.7325261164453478
0.0635,1.69919375,1.0,2652.3516673848917,0.5105069635142944,1.2889262166457292,0.9807016368869658,0.28441913750000003,0.7338062542563304
0.064,1.6976,1.0,2650.167581870905,0.5132526496771065,1.2882266018940027,0.9808673781293058,0.2843522,0.7350938327826405
0.0645,1.69599375,1.0,2647.9925845276794,0.515982935431915,1.287521266413217,0.9810292526183949,0.2842847375,0.7363887798473849
0.065,1.694375,1.0,2645.82692316809,0.5186979051303137,1.2868102078223824,0.981187367121192,0.28421675,0.7376910226048528
0.0655,1.69274375,1.0,2643.6708452225125,0.5213976431238967,1.28609342374051,0.9813418245581186,0.2841482375,0.7390004875396461
0.066,1.6911,1.0,2641.5245977429977,0.5240822337642579,1.2853709117866101,0.9814927241677265,0.2840792,0.7403171004658124
0.0665,1.6894437500000001,1.0,2639.3884274076727,0.5267517614029912,1.2846426695796938,0.981640161663174,0.2840096375,0.7416407865259735
0.067,1.687775,1.0,2637.2625805249113,0.5294063103916907,1.2839086947387712,0.9817842293809647,0.28393955,0.7429714701904567
0.0675,1.68609375,1.0,2635.1473030382144,0.5320459650819502,1.2831689848828536,0.9819250164223893,0.2838689375,0.744309075256423
0.068,1.6844000000000001,1.0,2633.0428405306607,0.5346708098253639,1.2824235376309514,0.9820626087880744,0.2837978,0.745653524846998
0.0685,1.68269375,1.0,2630.949438229747,0.5372809289735256,1.281672350602075,0.9821970895060198,0.2837261375,0.7470047414104009
0.069,1.680975,1.0,2628.867341012385,0.5398764068780293,1.2809154214152356,0.9823285387534815,0.28365395,0.7483626467190707
0.0695,1.67924375,1.0,2626.796793409895,0.542457327890469,1.2801527476894436,0.9824570339730363,0.28358123749999997,0.7497271618687976
0.07,1.6775,1.0,2624.738039613283,0.5450237763624386,1.2793843270437097,0.9825826499831452,0.283508,0.7510982072778489
0.07050000000000001,1.67574375,1.0,2622.692954526247,0.5475757791279923,1.2786101419725664,0.9827054548285721,0.2834342375,0.7524757295600332
0.07100000000000001,1.673975,1.0,2620.660860898552,0.5501134837896712,1.2778301986189688,0.9828255227828853,0.28335995,0.7538596324468888
0.07150000000000001,1.67219375,1.0,2618.641384658605,0.5526369747157238,1.277044500322714,0.9829429216574935,0.2832851375,0.7552498241101331
0.07200000000000001,1.6704,1.0,2616.634327927211,0.5551463270876691,1.276253048793813,0.9830577164036646,0.2832098,0.7566462150259029
0.0725,1.66859375,1.0,2614.6394931860737,0.5576416160870258,1.275455845742278,0.9831699698487931,0.2831339375,0.7580487150714489
0.073,1.6667750000000001,1.0,2612.6566832738636,0.5601229168953132,1.2746528928781207,0.983279742778369,0.28305755,0.759457233525764
0.0735,1.66494375,1.0,2610.685701382311,0.56259030469405,1.2738441919113528,0.9833870940142541,0.2829806375,0.760871679070211
0.074,1.6631,1.0,2608.7263510520456,0.5650438546647554,1.2730297445519858,0.9834920804894587,0.2829032,0.7622919597891498
0.0745,1.6612437500000001,1.0,2606.7784361689214,0.5674836419889482,1.2722095525100319,0.9835947573195917,0.2828252375,0.7637179831705618
0.075,1.659375,1.0,2604.841760960274,0.5699097418481474,1.2713836174955022,0.9836951778711577,0.28274675,0.7651496561066803
0.0755,1.65749375,1.0,2602.91612999076,0.5723222294238719,1.2705519412184092,0.9837933938268547,0.2826677375,0.7665868848946125
