Time [s],Phi [rad],STIM [ ],Fsee [N],Gamma [ ],Lcerel [ ],q [ ],Lmtc [m],fisomrel [ ]
0.0,1.8,1.0,20.198362101257093,0.001526608348998032,1.3790970897781873,0.005596239570442376,0.288653,0.5417263919697353
0.0005,1.79999375,1.0,20.927135037357026,0.00712725459213257,1.379017944083609,0.01768037097476751,0.2886527375,0.5419177234140122
0.001,1.799975,1.0,25.408481875316095,0.012696485638271499,1.3785668237244695,0.04394117574948265,0.28865195,0.5430075254310155
0.0015,1.79994375,1.0,37.529478403081214,0.018234477701759608,1.3775217873225427,0.08172242571034244,0.2886506375,0.5455271049004873
0.002,1.7999,1.0,65.17433226530112,0.023741406008470183,1.3756528968408566,0.12770584334902232,0.2886488,0.5500156284919413
0.0025,1.79984375,1.0,114.66542257198299,0.029217444802199982,1.3731247304439387,0.17858879490796276,0.28864643749999996,0.5560520903416394
0.003,1.7997750000000001,1.0,182.60368539667408,0.0346627673474882,1.3704296797862197,0.23166165977657505,0.28864354999999997,0.5624421311654297
0.0035,1.79969375,1.0,261.50798189203914,0.04007754593857022,1.3678683942983698,0.2848626371240738,0.2886401375,0.5684720806005712
0.004,1.7996,1.0,346.4487493664411,0.04546195190098023,1.365506793871521,0.3366750968052775,0.2886362,0.573994845770923
0.0045000000000000005,1.7994937500000001,1.0,434.89536875516137,0.05081615560952845,1.3633303699279367,0.38606907217354863,0.2886317375,0.5790530685204998
0.005,1.799375,1.0,525.3771108804641,0.0561403264674498,1.361313608096403,0.4324244202056997,0.28862675,0.5837132544781853
0.0055,1.79924375,1.0,616.8508866222487,0.061434632940777195,1.3594351710303638,0.4754358931305123,0.2886212375,0.5880304777626695
0.006,1.7991000000000001,1.0,708.4818568702171,0.06669924250625725,1.3576788679066407,0.5150226543265198,0.2886152,0.5920466436639792
0.006500000000000001,1.79894375,1.0,799.5975690898886,0.07193432184548805,1.3560318469254053,0.5512531230624643,0.2886086375,0.5957950381852193
0.007,1.798775,1.0,889.6137291456525,0.07714003639683091,1.3544842222017257,0.5842885360955081,0.28860155,0.5993014547513953
0.0075,1.79859375,1.0,978.0888879790759,0.08231655118236703,1.3530270852750272,0.6143412755496765,0.2885939375,0.6025888936932993
0.008,1.7984,1.0,1064.6360226294212,0.08746402974171381,1.351653269360927,0.6416476033404053,0.2885858,0.6056759507263119
0.0085,1.79819375,1.0,1148.9549622762934,0.09258263483678544,1.3503563150649016,0.6664488031111724,0.2885771375,0.608579249024692
0.009000000000000001,1.797975,1.0,1230.8402974444532,0.09767252890953795,1.3491300598934353,0.688979601463008,0.28856795,0.6113144173431324
0.0095,1.79774375,1.0,1310.1136903933786,0.10273387263886016,1.3479693317043204,0.7094619585840657,0.2885582375,0.6138945924529613
0.01,1.7975,1.0,1386.6513110093015,0.10776682604144822,1.346869332373252,0.7281012912236173,0.288548,0.616331843937929
0.0105,1.79724375,1.0,1460.3901640253293,0.11277154852257433,1.3458254135798693,0.7450850238531807,0.2885372375,0.6186377019206389
0.011,1.796975,1.0,1531.2958053296704,0.11774819889796825,1.3448333684352698,0.7605827041221213,0.28852595000000003,0.6208225383086272
0.0115,1.79669375,1.0,1599.3350986703813,0.12269693391559436,1.3438896347662805,0.7747468073003724,0.2885141375,0.6228951501923283
0.012,1.7964,1.0,1664.5179237193647,0.12761791012032328,1.3429906856719223,0.7877135975050755,0.28850180000000003,0.6248641248160225
0.0125,1.79609375,1.0,1726.8846622163105,0.13251128356099365,1.3421331222217217,0.7996045406240277,0.2884889375,0.6267376488482669
0.013000000000000001,1.7957750000000001,1.0,1786.4879819197765,0.1373772099326371,1.3413138245919112,0.8105277859284,0.28847555,0.6285231924185016
0.0135,1.79544375,1.0,1843.3619344306735,0.14221584204739254,1.340530234352932,0.820579646734577,0.2884616375,0.6302269116439325
0.014,1.7951000000000001,1.0,1897.5668143282026,0.14702733271739885,1.339779793075225,0.8298456791442473,0.2884472,0.6318548858984605
0.0145,1.79474375,1.0,1949.1820099634854,0.151811834378228,1.3390599947775306,0.8384019201702896,0.2884322375,0.6334130100174138
0.015,1.794375,1.0,1998.292736661656,0.15656949896309014,1.338368501013157,0.8463160285799951,0.28841675,0.6349067523026442
0.0155,1.79399375,1.0,2044.985980056054,0.16130047792165025,1.3377031534030466,0.853648268707492,0.2884007375,0.6363411357832858
0.016,1.7936,1.0,2089.325364393617,0.16600491963616668,1.3370622074604932,0.8604524505329094,0.2883842,0.6377202433095008
0.0165,1.7931937500000001,1.0,2131.3879231651817,0.17068297248889786,1.3364439186987904,0.8667765658614365,0.2883671375,0.6390481172531942
0.017,1.792775,1.0,2171.262970693607,0.1753347848621022,1.3358465426312318,0.8726634777262607,0.28834955,0.6403287621257915
0.0175,1.7923437500000001,1.0,2209.0342759739774,0.1799605036037608,1.3352685041637786,0.8781515715667705,0.2883314375,0.6415657848079794
0.018000000000000002,1.7919,1.0,2244.802621270923,0.18456027725783258,1.33470815475518,0.8832752162198252,0.2883128,0.6427629181772401
0.0185,1.79144375,1.0,2278.6393545690516,0.18913425027220135,1.3341642288230955,0.888065345687107,0.2882936375,0.6439230490276335
0.019,1.790975,1.0,2310.6162373782013,0.1936825663760759,1.3336355274266942,0.8925497746197488,0.28827395,0.6450488993581365
0.0195,1.79049375,1.0,2340.8114130725457,0.1982053692986649,1.3331208516251456,0.8967535389059855,0.2882537375,0.6461431703205922
0.02,1.79,1.0,2369.3088680613496,0.20270280276917704,1.3326190024776186,0.900699210288996,0.288233,0.647208543337991
0.0205,1.78949375,1.0,2396.178869131893,0.20717500813426434,1.332128965907027,0.9044072121805786,0.2882117375,0.6482472895584468
0.021,1.788975,1.0,2421.5137799262557,0.2116221301561084,1.331649557623385,0.907895982072374,0.28818995000000003,0.6492620246435363
0.021500000000000002,1.78844375,1.0,2445.3726352796675,0.21604430786808054,1.3311799558886996,0.911182296438208,0.2881676375,0.6502545816886447
0.022,1.7879,1.0,2467.8163180491124,0.22044168008643097,1.3307193530335328,0.9142813789873088,0.2881448,0.6512267523248771
0.0225,1.78734375,1.0,2488.9087316734503,0.22481438562740994,1.3302669413884465,0.917207063334468,0.28812143749999997,0.6521803170469402
0.023,1.786775,1.0,2508.716545169922,0.2291625633072676,1.329821913284003,0.9199719391810043,0.28809755,0.6531170456558661
0.0235,1.78619375,1.0,2527.301248865816,0.23348635004106774,1.3293835338219633,0.9225874938978258,0.28807313749999996,0.6540385447925879
0.024,1.7856,1.0,2544.7287638326634,0.23778588519927685,1.3289510470368473,0.9250642103636613,0.2880482,0.6549464561650571
0.0245,1.78499375,1.0,2561.0546902475917,0.242061305134553,1.3285238128348893,0.9274116896253759,0.2880227375,0.6558421696442176
0.025,1.784375,1.0,2576.3264273976856,0.24631274342335557,1.3281012836872064,0.9296387342662996,0.28799675,0.6567268738609928
0.025500000000000002,1.78374375,1.0,2590.592807750769,0.2505403336421439,1.3276829120649154,0.9317534123714776,0.2879702375,0.6576017510862785
0.026000000000000002,1.7831000000000001,1.0,2603.9039746317844,0.25474420936737735,1.3272681504391333,0.9337631287771587,0.2879432,0.6584679773856787
0.0265,1.78244375,1.0,2616.311266545885,0.2589245041755152,1.3268564512809764,0.9356746885394166,0.2879156375,0.6593267227551234
0.027,1.781775,1.0,2627.8582894616966,0.26308134919154563,1.3264473487555248,0.9374943650796184,0.28788755,0.6601789811558952
0.0275,1.7810937500000001,1.0,2638.5925946830857,0.26721487832263024,1.3260403489825083,0.9392279350927202,0.2878589375,0.6610257998576664
0.028,1.7804,1.0,2648.564019896594,0.27132522498077977,1.3256349448450424,0.9408807250447302,0.2878298,0.6618682483921117
0.0285,1.77969375,1.0,2657.805604239331,0.27541251692841573,1.325230791147088,0.9424576751129462,0.2878001375,0.662707055133416
0.029,1.778975,1.0,2666.3509747779203,0.2794768819279597,1.3248275426926068,0.9439633527694624,0.28776995,0.6635429448605954
0.029500000000000002,1.7782437500000001,1.0,2674.234295053945,0.2835184477418333,1.3244248542855601,0.9454019857003753,0.2877392375,0.664376638781228
0.03,1.7775,1.0,2681.4902162711355,0.28753734213245813,1.3240223807299094,0.9467774914247828,0.287708,0.6652088545475818
0.0305,1.77674375,1.0,2688.1538311248755,0.2915336928622557,1.323619776829616,0.9480935039803212,0.2876762375,0.6660403062651451
0.031,1.775975,1.0,2694.2606302734744,0.2955076276936477,1.3232166973886417,0.9493533979976506,0.28764395,0.6668717044935563
0.0315,1.7751937500000001,1.0,2699.8394712944278,0.2994592691764082,1.3228128610968528,0.9505603167482509,0.2876111375,0.6677036247144899
0.032,1.7744,1.0,2704.9263028845794,0.3033887491120644,1.3224079245669762,0.9517171802998399,0.2875778,0.6685367671441804
0.0325,1.77359375,1.0,2709.543865596375,0.3072961896847795,1.3220016675199533,0.9528267202023449,0.2875439375,0.6693715756198007
0.033,1.772775,1.0,2713.714683999132,0.3111817127302627,1.3215938735696793,0.9538914833323067,0.28750955,0.6702084836812792
0.0335,1.7719437500000002,1.0,2717.461471962208,0.315045440084223,1.32118432633005,0.9549138462659953,0.2874746375,0.6710479225762498
0.034,1.7711000000000001,1.0,2720.8071134642305,0.3188874935823697,1.3207728094149611,0.9558960286905224,0.2874392,0.6718903212373503
0.0345,1.7702437500000001,1.0,2723.77464444056,0.3227079950604118,1.3203591064383084,0.9568401056081092,0.2874032375,0.6727361062565325
0.035,1.7693750000000001,1.0,2726.387235668792,0.32650706635405846,1.3199430010139872,0.9577480184547956,0.28736675,0.6735857018563896
0.035500000000000004,1.76849375,1.0,2728.6580511062275,0.33028482053290936,1.3195243688077591,0.9586215928100605,0.2873297375,0.6744393422767957
0.036000000000000004,1.7676,1.0,2730.615489281176,0.3340413853469897,1.3191029478476388,0.9594625288315562,0.2872922,0.675297540417561
0.0365,1.76669375,1.0,2732.2856701369806,0.33777688708616044,1.3186784977626613,0.9602724230405227,0.2872541375,0.6761607623205786
0.037,1.765775,1.0,2733.6815903382058,0.3414914404295116,1.318250898109863,0.9610527834334509,0.28721555,0.6770292278452346
0.0375,1.76484375,1.0,2734.8163028842196,0.3451851600561331,1.3178200284462804,0.9618050266404141,0.2871764375,0.6779031553520584
0.038,1.7639,1.0,2735.702910605831,0.3488581606451147,1.3173857683289492,0.9625304844676272,0.28713679999999997,0.6787827616780696
0.0385,1.76294375,1.0,2736.3545599833733,0.3525105568755465,1.316947997314906,0.9632304099025937,0.28709663750000003,0.6796682621111936
0.039,1.761975,1.0,2736.7844352863076,0.3561424634265183,1.316506594961187,0.9639059826313295,0.28705595,0.6805598703637601
0.0395,1.7609937500000001,1.0,2737.005753035387,0.35975399497711996,1.3160614408248283,0.9645583141121525,0.2870147375,0.6814577985450687
0.04,1.76,1.0,2737.0317567850348,0.36334526620644153,1.3156124144628663,0.9651884522460288,0.286973,0.6823622571330356
0.0405,1.7589937500000001,1.0,2736.875712228504,0.36691639179357277,1.315159395432337,0.9657973856795039,0.2869307375,0.6832734549449101
0.041,1.757975,1.0,2736.550902624079,0.37046748641760374,1.3147022632902767,0.9663860477726869,0.28688795,0.6841915991070706
0.0415,1.75694375,1.0,2736.068835056161,0.3739986617537547,1.3142409138399413,0.9669553211294103,0.2868446375,0.6851168624650464
0.042,1.7559,1.0,2735.4372849238825,0.37751002436672104,1.31377527685997,0.9675060420676364,0.28680079999999997,0.6860493483145702
0.0425,1.75484375,1.0,2734.673833362846,0.3810016995259575,1.313305193165681,0.968038997375253,0.2867564375,0.6869893365287479
0.043000000000000003,1.753775,1.0,2733.7851316521524,0.38447379431135836,1.3128306028487349,0.9685549368234052,0.28671155,0.6879369066367893
0.043500000000000004,1.75269375,1.0,2732.777835715555,0.38792641580281784,1.312351446000792,0.9690545704711097,0.28666613750000003,0.6888921370574439
0.044,1.7516,1.0,2731.658604648513,0.39135967108023023,1.3118676627135122,0.9695385711604597,0.2866202,0.6898551050816677
0.0445,1.75049375,1.0,2730.434099325577,0.39477366722348994,1.3113791930785563,0.9700075768312207,0.2865737375,0.6908258868550611
0.045,1.7493750000000001,1.0,2729.110981086914,0.39816851131249115,1.3108859771875843,0.9704621926695431,0.28652675,0.6918045573600793
0.0455,1.74824375,1.0,2727.6959105043165,0.40154431042712824,1.3103879551322568,0.9709029931041817,0.2864792375,0.6927911903980106
0.046,1.7471,1.0,2726.195546227567,0.40490117164729544,1.309885067004234,0.9713305236624192,0.2864312,0.6937858585707317
0.0465,1.7459437500000001,1.0,2724.616543909327,0.4082392020528871,1.3093772528951757,0.9717453026968069,0.28638263750000004,0.6947886332622274
0.047,1.744775,1.0,2722.9655552100635,0.4115585087237975,1.308864452896743,0.9721478229928587,0.28633355,0.695799584619884
0.0475,1.74359375,1.0,2721.2486031667395,0.41485919648449443,1.308346612778532,0.9725385533821571,0.28628393750000003,0.6968187703699174
0.048,1.7424,1.0,2719.467866329394,0.41814135515449735,1.307823713274565,0.97291794060145,0.2862338,0.6978461783987833
0.0485,1.74119375,1.0,2717.6360004723792,0.4214051159796162,1.3072956396731374,0.9732864085195198,0.2861831375,0.6988819829013944
0.049,1.739975,1.0,2715.7561446894297,0.42465057822963315,1.306762363845332,0.9736443628796696,0.28613195,0.69992618663273
0.0495,1.73874375,1.0,2713.8314351637628,0.4278778411743302,1.306223857662231,0.9739921903773352,0.2860802375,0.7009787914491765
0.05,1.7375,1.0,2711.8650049004787,0.4310870040834895,1.3056800929949162,0.9743302597233511,0.286028,0.7020397982991691
0.0505,1.73624375,1.0,2709.859983476374,0.4342781662268931,1.3051310417144701,0.9746589226386371,0.2859752375,0.7031092072137828
0.051000000000000004,1.734975,1.0,2707.819496807945,0.43745142687432303,1.304576675691975,0.9749785147853007,0.28592195,0.7041870172972752
0.051500000000000004,1.73369375,1.0,2705.7466669362925,0.4406068852955615,1.3040169667985129,0.975289356638747,0.2858681375,0.7052732267175763
0.052000000000000005,1.7324,1.0,2703.6446118297176,0.44374464076039055,1.3034518869051663,0.9755917543050209,0.2858138,0.7063678326967289
0.0525,1.73109375,1.0,2701.5164452043996,0.4468647925385922,1.3028814078830175,0.9758860002872644,0.28575893750000003,0.7074708315012792
0.053,1.729775,1.0,2699.3652763617843,0.44996743989994864,1.3023055016031484,0.9761723742048755,0.28570355000000003,0.7085822184326176
0.0535,1.72844375,1.0,2697.194210043987,0.45305268211424193,1.3017241399366415,0.9764511434686642,0.2856476375,0.709701987817264
0.054,1.7271,1.0,2695.006346306953,0.4561206184512541,1.3011372947545787,0.9767225639150529,0.2855912,0.710830132997111
0.0545,1.7257437500000001,1.0,2692.8047804103912,0.4591713481807673,1.3005449379280427,0.9769868804021293,0.2855342375,0.7119666463196077
0.055,1.724375,1.0,2690.58334461299,0.4622049429431737,1.2999471260872006,0.9772443297767751,0.28547675,0.7131113569898883
0.0555,1.72299375,1.0,2688.3514719272416,0.4652215264433816,1.2993437730712902,0.9774951354446574,0.2854187375,0.7142643671028186
0.056,1.7216,1.0,2686.114721764241,0.46822120442816306,1.2987348280703988,0.9777395118031884,0.2853602,0.715425709495374
0.0565,1.72019375,1.0,2683.8739910937793,0.4712040674959085,1.2981202829288332,0.9779776654253189,0.28530113749999997,0.7165953345230627
0.057,1.718775,1.0,2681.6301754159063,0.47417020624500816,1.2975001294909,0.9782097944056578,0.28524155,0.717773191814087
0.0575,1.71734375,1.0,2679.3841687527447,0.47711971127385244,1.2968743596009062,0.9784360887747539,0.2851814375,0.7189592302664279
0.058,1.7159,1.0,2677.1368636433103,0.48005267318083167,1.2962429651031584,0.9786567308899184,0.2851208,0.7201533980449263
0.0585,1.71444375,1.0,2674.8891511387646,0.4829691825643362,1.2956059378419633,0.9788718958040948,0.2850596375,0.7213556425783588
0.059000000000000004,1.7129750000000001,1.0,2672.6419207992412,0.4858693300227563,1.2949632696616278,0.9790817516141693,0.28499795,0.722565910556511
0.059500000000000004,1.71149375,1.0,2670.396060692797,0.4887532061544823,1.2943149524064586,0.9792864597900238,0.2849357375,0.7237841479272451
0.06,1.71,1.0,2668.1524573948927,0.4916209015579046,1.2936609779207624,0.9794861754855334,0.284873,0.7250102998935635
0.0605,1.7084937500000001,1.0,2665.9119959901977,0.4944725068314136,1.293001338048846,0.9796810478326353,0.2848097375,0.7262443109106691
0.061,1.7069750000000001,1.0,2663.675560075411,0.49730811257339946,1.2923360246350162,0.9798712202195088,0.28474595,0.7274861246830204
0.0615,1.7054437500000001,1.0,2661.4440317633976,0.5001278093822527,1.2916650295235796,0.9800568305538431,0.2846816375,0.7287356841613821
0.062,1.7039,1.0,2659.218291689639,0.5029316878563634,1.290988344558843,0.9802380115120962,0.2846168,0.7299929315398725
0.0625,1.70234375,1.0,2656.999219018899,0.5057198385941222,1.2903059615851131,0.980414890775593,0.2845514375,0.7312578082530066
0.063,1.7007750000000001,1.0,2654.787691454463,0.5084923521939192,1.289617872446697,0.9805875912542462,0.28448555,0.7325302549727322
0.0635,1.69919375,1.0,2652.584845789192,0.5112493121221149,1.2889240665855954,0.9807562306517323,0.28441913750000003,0.733810216032023
0.064,1.6976,1.0,2650.392585401527,0.5139907880983884,1.2882245263553553,0.98092092099062,0.2843522,0.735097647982242
0.0645,1.69599375,1.0,2648.2100946816513,0.5167169026940571,1.2875192591717817,0.9810817752606075,0.2842847375,0.7363924604761156
0.065,1.694375,1.0,2646.037580804025,0.5194277379715583,1.2868082630211362,0.9812388989849271,0.28421675,0.737694579919639
0.0655,1.69274375,1.0,2643.875250630742,0.5221233759933287,1.2860915358896805,0.9813923938958664,0.2841482375,0.7390039320544759
0.066,1.6911,1.0,2641.723310715775,0.5248038988218056,1.2853690757636766,0.9815423580965267,0.2840792,0.7403204419572225
0.0665,1.6894437500000001,1.0,2639.5819673086203,0.5274693885194258,1.284640880629386,0.9816888862145587,0.2840096375,0.7416440340386722
0.067,1.687775,1.0,2637.451426358073,0.5301199271486264,1.2839069484730703,0.9818320695483225,0.28393955,0.7429746320430786
0.0675,1.68609375,1.0,2635.3318935166726,0.5327555967718446,1.2831672772809914,0.9819719962058974,0.2838689375,0.7443121590474174
0.068,1.6844000000000001,1.0,2633.223574144587,0.5353764794515171,1.2824218650394112,0.9821087512373395,0.2837978,0.7456565374606524
0.0685,1.68269375,1.0,2631.126673313885,0.5379826572500811,1.281670709734591,0.9822424167605553,0.2837261375,0.7470076890229969
0.069,1.680975,1.0,2629.0413958129557,0.5405742122299736,1.2809138093527925,0.9823730720811484,0.28365395,0.7483655348051752
0.0695,1.67924375,1.0,2626.9679461507676,0.5431512264536317,1.2801511618802779,0.9825007938065579,0.28358123749999997,0.749729995207686
0.07,1.6775,1.0,2624.906528561595,0.5457137819834922,1.2793827653033085,0.9826256559548042,0.283508,0.7511009899600651
0.07050000000000001,1.67574375,1.0,2622.857347009457,0.5482619608819924,1.278608617608146,0.9827477300581285,0.2834342375,0.7524784381201465
0.07100000000000001,1.673975,1.0,2620.82060519264,0.5507958452115691,1.2778287167810523,0.9828670852617984,0.28335995,0.7538622580733223
0.07150000000000001,1.67219375,1.0,2618.796506548861,0.5533155170346594,1.277043060808289,0.9829837884183357,0.2832851375,0.755252367531807
0.07200000000000001,1.6704,1.0,2616.785254260003,0.5558210584137004,1.2762516476761179,0.983097904177408,0.2832098,0.7566486835338968
0.0725,1.66859375,1.0,2614.783500098656,0.5583125143181692,1.2754545083499444,0.9832094943702423,0.2831339375,0.7580510645079414
0.073,1.6667750000000001,1.0,2612.7916200499526,0.5607899844293066,1.2746516392436422,0.9833186204949759,0.28305755,0.7594594294029982
0.0735,1.66494375,1.0,2610.8125484074776,0.563253580637733,1.2738430129892935,0.9834253416950876,0.2829806375,0.7608737380004644
0.074,1.6631,1.0,2608.8460432101583,0.5657033761052424,1.2730286317091568,0.9835297142791143,0.2829032,0.7622938975351582
0.0745,1.6612437500000001,1.0,2606.8918629223695,0.5681394439936284,1.2722084975254915,0.9836317927627473,0.2828252375,0.7637198146521509
0.075,1.659375,1.0,2604.94976642888,0.5705618574646849,1.2713826125605558,0.983731629935979,0.28274675,0.7651513954075486
0.0755,1.65749375,1.0,2603.019513029576,0.5729706896802057,1.270550978936609,0.9838292769273097,0.2826677375,0.7665885452692685
