Time [s],Phi [rad],STIM [ ],Fsee [N],Gamma [ ],Lcerel [ ],q [ ],Lmtc [m],fisomrel [ ]
0.0,1.8,1.0,19.97875802544986,0.0014491136755544365,1.3791203575605153,0.005537527045315667,0.288653,0.5416701354693464
0.0005,1.79999375,1.0,20.68972334231738,0.007050194602548732,1.3790426597090548,0.01741287627926135,0.2886527375,0.5418579787011661
0.001,1.799975,1.0,25.110931797595583,0.012619857894359095,1.3785949385359924,0.04349508994630017,0.28865195,0.5429396444991332
0.0015,1.79994375,1.0,37.08147372375912,0.018158279778821607,1.377556619898456,0.08114007086024283,0.2886506375,0.5454432358764443
0.002,1.7999,1.0,64.45142821107487,0.0236656354958278,1.375695538988159,0.12703409920747247,0.2886488,0.5499134629604484
0.0025,1.79984375,1.0,113.65031355608022,0.029142099301774485,1.3731698482747634,0.17786934896456746,0.28864643749999996,0.5559447204674428
0.003,1.7997750000000001,1.0,181.39936760823213,0.034587844476102275,1.3704720725331174,0.23092701548371578,0.28864354999999997,0.5623419753603845
0.0035,1.79969375,1.0,260.2105614646851,0.040003043324821644,1.3679065417302814,0.2841372887746215,0.2886401375,0.5683825782910228
0.004,1.7996,1.0,345.104147501723,0.04538786718819253,1.3655411325508318,0.33597656083392174,0.2886362,0.5739147972367834
0.0045000000000000005,1.7994937500000001,1.0,433.5255581285634,0.05074248645733022,1.363361587412224,0.38540862489274835,0.2886317375,0.5789807295703722
0.005,1.799375,1.0,523.981511084322,0.05606707047056042,1.361342541625017,0.4318084934152259,0.28862675,0.5836465803953214
0.0055,1.79924375,1.0,615.4746869150566,0.061361787951936086,1.3594614992307121,0.4748665781169783,0.2886212375,0.5879701229936503
0.006,1.7991000000000001,1.0,707.1132186843658,0.06662680611732624,1.357703297799255,0.5145002020759603,0.2886152,0.5919909143607703
0.006500000000000001,1.79894375,1.0,798.2431164150461,0.07186229171383521,1.3560546031133744,0.5507758845175845,0.2886086375,0.5957433660770963
0.007,1.798775,1.0,888.2922717184874,0.07706841038953867,1.3545052697340032,0.5838537592288436,0.28860155,0.59925387031512
0.0075,1.79859375,1.0,976.7900854492879,0.08224532679256832,1.3530468133898983,0.6139459933667231,0.2885939375,0.6025444756225713
0.008,1.7984,1.0,1063.3722710559384,0.08739320497253088,1.3516716676503415,0.6412884316178906,0.2885858,0.6056346880485579
0.0085,1.79819375,1.0,1147.728439272339,0.09251220744633272,1.3503735031511204,0.6661224644318702,0.2885771375,0.6085408427602419
0.009000000000000001,1.797975,1.0,1229.6392538291116,0.09760249618278155,1.3491463210446242,0.6886830524682871,0.28856795,0.6112782095057533
0.0095,1.79774375,1.0,1308.958535739567,0.10266423295582439,1.3479844906424705,0.7091921160517949,0.2885582375,0.6138609511234068
0.01,1.7975,1.0,1385.5449556022475,0.10769757719523718,1.3468834442592732,0.7278554463509628,0.288548,0.6163006253151266
0.0105,1.79724375,1.0,1459.3197310315763,0.11270268809217547,1.345838717879559,0.7448608101649863,0.2885372375,0.6186083584675472
0.011,1.796975,1.0,1530.2490323836166,0.11767972412196656,1.344846073724612,0.760377974501308,0.28852595000000003,0.6207945964181107
0.0115,1.79669375,1.0,1598.3343299508279,0.12262884358880927,1.3439015203173157,0.7745594478128696,0.2885141375,0.6228690826640271
0.012,1.7964,1.0,1663.565751606778,0.1275502022240693,1.3430017702896297,0.7875418257383409,0.28850180000000003,0.6248398774814417
0.0125,1.79609375,1.0,1725.969216415804,0.13244395556621053,1.3421435849733663,0.7994468361576634,0.2884889375,0.6267148190738931
0.013000000000000001,1.7957750000000001,1.0,1785.590102699833,0.13731025841901945,1.3413239138638533,0.810382822712242,0.28847555,0.6285012303082298
0.0135,1.79544375,1.0,1842.504452922727,0.14214926605627437,1.3405397197900182,0.8204460673680606,0.2884616375,0.6302063113690558
0.014,1.7951000000000001,1.0,1896.7642317588504,0.14696113091975757,1.3397885434064392,0.8297223140404569,0.2884472,0.6318359240106199
0.0145,1.79474375,1.0,1948.4268065055714,0.15174600453435858,1.3390681187271838,0.8382878136359226,0.2884322375,0.6333954428023227
0.015,1.794375,1.0,1997.569977494342,0.1565040384249669,1.3383761797663192,0.8462103546077092,0.28841675,0.6348901816541825
0.0155,1.79399375,1.0,2044.2741595861025,0.16123538314856498,1.3377106290792242,0.8535503102777405,0.2884007375,0.6363250350985798
0.016,1.7936,1.0,2088.641056270405,0.16594018982705008,1.337069317493227,0.8603614451147856,0.2883842,0.6377049591985016
0.0165,1.7931937500000001,1.0,2130.743612557289,0.17061860647785881,1.336450546725265,0.8666918463983089,0.2883671375,0.6390338954345354
0.017,1.792775,1.0,2170.6558928861295,0.17527078039209926,1.3358527299983083,0.8725844926282726,0.28834955,0.6403155094154447
0.0175,1.7923437500000001,1.0,2208.4626119401364,0.17989685886087947,1.3352742805353273,0.8780778243935222,0.2883314375,0.6415534337101999
0.018000000000000002,1.7919,1.0,2244.2487886470403,0.1844969881516704,1.3347137061692493,0.8832063016045129,0.2883128,0.6427510679287163
0.0185,1.79144375,1.0,2278.1083929820206,0.18907131545673345,1.3341695113046053,0.8880008425854282,0.2882936375,0.6439117911812542
0.019,1.790975,1.0,2310.1164768821677,0.1936199850158642,1.333640464946796,0.8924892967610039,0.28827395,0.6450383933357331
0.0195,1.79049375,1.0,2340.34318126362,0.19814313970501007,1.3331254476968786,0.8966967568299142,0.2882537375,0.6461334059207724
0.02,1.79,1.0,2368.8642773078514,0.2026409224001184,1.3326233401559104,0.9006458446446163,0.288233,0.6471993417842012
0.0205,1.78949375,1.0,2395.760692061476,0.2071134759771366,1.3321330229249486,0.9043569878798217,0.2882117375,0.6482386960546416
0.021,1.788975,1.0,2421.099820750258,0.21156094077096868,1.3316535526528008,0.90784869948234,0.28818995000000003,0.6492535746580863
0.021500000000000002,1.78844375,1.0,2444.9746158807666,0.21598346120553108,1.331183778294281,0.9111377086650926,0.2881676375,0.650246508273994
0.022,1.7879,1.0,2467.441409561339,0.22038117541984353,1.3307229370725624,0.914239270531297,0.2881448,0.6512191929020981
0.0225,1.78734375,1.0,2488.558347679797,0.22475422138185217,1.3302702767462984,0.9171672486739656,0.28812143749999997,0.6521732917663376
0.023,1.786775,1.0,2508.38623893201,0.22910273705950296,1.3298250450741427,0.9199342595300674,0.28809755,0.6531104580415809
0.0235,1.78619375,1.0,2526.9883304996356,0.23342686042074196,1.329386489814749,0.9225518018285043,0.28807313749999996,0.6540323352280558
0.024,1.7856,1.0,2544.4235303060586,0.23772672807164444,1.328953920541382,0.9250303815354051,0.2880482,0.6549404278075706
0.0245,1.78499375,1.0,2560.753738262659,0.24200247741140976,1.3285266369859496,0.927379600280165,0.2880227375,0.6558362525213715
0.025,1.784375,1.0,2576.040927507392,0.24625424544146687,1.3281039548780158,0.9296082493295577,0.28799675,0.6567212844177455
0.025500000000000002,1.78374375,1.0,2590.328569973126,0.2504821648107089,1.3276853775011996,0.931724415912636,0.2879702375,0.6575965987624244
0.026000000000000002,1.7831000000000001,1.0,2603.661379981852,0.254686368168029,1.32727040813912,0.9337355221159711,0.2879432,0.6584632651672635
0.0265,1.78244375,1.0,2616.0852096045924,0.25886698816232023,1.3268585500753958,0.9356483885536657,0.2879156375,0.6593223477124044
0.027,1.781775,1.0,2627.6469494918374,0.2630241574424758,1.326449306593646,0.9374692911667247,0.28788755,0.6601749050527032
0.0275,1.7810937500000001,1.0,2638.3931807665926,0.2671580081043521,1.3260421925747734,0.9392040134767555,0.2878589375,0.6610219663936046
0.028,1.7804,1.0,2648.3643895264386,0.2712686695807019,1.3256367869608798,0.9408578986465242,0.2878298,0.6618644227608246
0.0285,1.77969375,1.0,2657.6111634915187,0.27535627701755727,1.3252325822518873,0.942435870977125,0.2878001375,0.6627033400566624
0.029,1.778975,1.0,2666.165450401085,0.27942095746670426,1.324829248921361,0.9439425052550866,0.28776995,0.663539410220614
0.029500000000000002,1.7782437500000001,1.0,2674.059720315754,0.283462837979929,1.3244264574428652,0.9453820358457379,0.2877392375,0.6643733217827574
0.03,1.7775,1.0,2681.3269192110943,0.28748204560901747,1.3240238782899652,0.9467583863735497,0.287708,0.6652057598786029
0.0305,1.77674375,1.0,2688.0004249781173,0.2914787074057558,1.3236211819362258,0.9480751964626288,0.2876762375,0.666037406257016
0.031,1.775975,1.0,2694.114005832298,0.2954529504219301,1.323218038855212,0.9493358458604797,0.28764395,0.6668689392812204
0.0315,1.7751937500000001,1.0,2699.6992745017733,0.2994048999842249,1.3228141424301827,0.9505434785345732,0.2876111375,0.6677009867572249
0.032,1.7744,1.0,2704.781370720916,0.3033346779225862,1.3224092479338305,0.9517010263631164,0.2875778,0.6685340460674165
0.0325,1.77359375,1.0,2709.4020069182193,0.3072424195558016,1.3220029617184117,0.9528112062714152,0.2875439375,0.669368917871719
0.033,1.772775,1.0,2713.581358813446,0.31112824538324657,1.321595088979713,0.9538765701594335,0.28750955,0.6702059908932732
0.0335,1.7719437500000002,1.0,2717.3397811312875,0.3149922759042963,1.321185434913521,0.9548994992440899,0.2874746375,0.6710456517838405
0.034,1.7711000000000001,1.0,2720.6977904922796,0.31883463161832626,1.320773804715623,0.9558822175032368,0.2874392,0.6718882851028807
0.0345,1.7702437500000001,1.0,2723.6760491453574,0.3226554330247118,1.3203600035818055,0.9568268039097811,0.2874032375,0.6727342732942142
0.035,1.7693750000000001,1.0,2726.295349541429,0.3264548006228282,1.3199438367078553,0.9577352035775377,0.28736675,0.673583996660259
0.035500000000000004,1.76849375,1.0,2728.5765997487274,0.33023285491205095,1.3195251092895592,0.958609237926974,0.2873297375,0.6744378333338497
0.036000000000000004,1.7676,1.0,2730.540809709109,0.33398971639175534,1.319103626522704,0.9594506139672178,0.2872922,0.6752961592476359
0.0365,1.76669375,1.0,2732.2090783362596,0.33772550556131664,1.3186791936030768,0.9602609327802719,0.2872541375,0.6761593481010608
0.037,1.765775,1.0,2733.5881584658237,0.3414403337764025,1.3182517467277415,0.9610417082815486,0.28721555,0.677027505436038
0.0375,1.76484375,1.0,2734.70960076617,0.34513432961153895,1.317820997394512,0.961794344385903,0.2871764375,0.6779011913748647
0.038,1.7639,1.0,2735.590836341283,0.3488076105122822,1.3173867858965191,0.9625201709923792,0.28713679999999997,0.678780701971547
0.0385,1.76294375,1.0,2736.2433835908237,0.3524602898453342,1.3169490066100469,0.9632204435586903,0.28709663750000003,0.6796662219671699
0.039,1.761975,1.0,2736.678796165762,0.35609248097739676,1.316507553911379,0.9638963440830479,0.28705595,0.6805579346844244
0.0395,1.7609937500000001,1.0,2736.9086582277155,0.3597042972751717,1.3160623221768,0.9645489861897462,0.2870147375,0.6814560220032165
0.04,1.76,1.0,2736.9445799546825,0.3632958521053609,1.315613205782593,0.965179419810367,0.286973,0.6823606643355693
0.0405,1.7589937500000001,1.0,2736.798193294784,0.36686725883466625,1.3151600991050427,0.9657886354967149,0.2869307375,0.6832720405998076
0.041,1.757975,1.0,2736.4811479668742,0.3704186308297896,1.3147028965204328,0.9663775683980204,0.28688795,0.6841903281940362
0.0415,1.75694375,1.0,2736.0051077090548,0.37395008145743275,1.314241492405047,0.9669471019317795,0.2868446375,0.6851157029689057
0.042,1.7559,1.0,2735.381746773988,0.3774617240842976,1.3137757811351694,0.967498071174758,0.28680079999999997,0.686048339199663
0.0425,1.75484375,1.0,2734.6158900874125,0.38095366491706917,1.3133057193524853,0.9680312699615514,0.2867564375,0.6869882851435642
0.043000000000000003,1.753775,1.0,2733.7220382758715,0.3844260213599923,1.3128311758973448,0.9685474442775932,0.28671155,0.6879357633503972
0.043500000000000004,1.75269375,1.0,2732.712119221365,0.38787890621023835,1.3123520429841335,0.9690473017164627,0.28666613750000003,0.6888909478432335
0.044,1.7516,1.0,2731.5924437437734,0.39131242594225535,1.3118682638571186,0.9695315158276263,0.2866202,0.6898539094347789
0.0445,1.75049375,1.0,2730.3693244392825,0.3947266870304914,1.311379781760566,0.9700007252189493,0.2865737375,0.6908247178276223
0.045,1.7493750000000001,1.0,2729.0490744580725,0.39812179594939445,1.3108865399387422,0.9704555357079965,0.28652675,0.6918034415973116
0.0455,1.74824375,1.0,2727.638006355032,0.4014978591734125,1.310388481635914,0.9708965223206553,0.2864792375,0.6927901481752294
0.046,1.7471,1.0,2726.142431011044,0.40485498317699364,1.3098855500963473,0.971324231149289,0.2864312,0.6937849038312635
0.0465,1.7459437500000001,1.0,2724.568656625949,0.4081932744345859,1.3093776885643094,0.9717391810815498,0.28638263750000004,0.6947877736562666
0.047,1.744775,1.0,2722.9229877827947,0.41151283942063727,1.308864840284066,0.9721418654100015,0.28633355,0.6957988215443192
0.0475,1.74359375,1.0,2721.2117245839036,0.4148137846095957,1.308346948499884,0.9725327533318178,0.28628393750000003,0.6968181101747766
0.048,1.7424,1.0,2719.439575384632,0.4180962084898532,1.307823970903117,0.9729122913600822,0.2862338,0.6978456726321334
0.0485,1.74119375,1.0,2717.6119797205306,0.4213602197382268,1.3072958584892465,0.9732809054343947,0.2861831375,0.6988815540668272
0.049,1.739975,1.0,2715.734734476721,0.42460593083579945,1.3067625589482796,0.9736390014994484,0.28613195,0.6999258049346405
0.0495,1.73874375,1.0,2713.811263836852,0.42783344118897026,1.3062240415408437,0.9739869663066861,0.2860802375,0.70097843234181
0.05,1.7375,1.0,2711.84498848006,0.4310428502041387,1.3056802755275667,0.9743251686182938,0.286028,0.7020394424534149
0.0505,1.73624375,1.0,2709.8393253001914,0.4342342572877039,1.305131230169076,0.9746539602021871,0.2859752375,0.7031088404831196
0.051000000000000004,1.734975,1.0,2707.7976871463106,0.4374077618460652,1.3045768747259994,0.974973676763388,0.28592195,0.7041866306828536
0.051500000000000004,1.73369375,1.0,2705.723482583491,0.4405634632856219,1.3040171784589645,0.9752846388163836,0.2858681375,0.7052728163324303
0.052000000000000005,1.7324,1.0,2703.620115675089,0.4437014610127733,1.3034521106285992,0.9755871525026963,0.2858138,0.7063673997291084
0.0525,1.73109375,1.0,2701.490985785932,0.44682185443391864,1.3028816404955308,0.9758815103575506,0.28575893750000003,0.707470382177092
0.053,1.729775,1.0,2699.3394874059654,0.44992474295545726,1.3023057373203872,0.9761679920292212,0.28570355000000003,0.7085817639769676
0.0535,1.72844375,1.0,2697.16900999567,0.45301022598378843,1.301724370363796,0.976446864954365,0.2856476375,0.7097015444150858
0.054,1.7271,1.0,2694.982937851706,0.45607840292531143,1.3011375088863848,0.9767183849923777,0.2855912,0.710829721752878
0.0545,1.7257437500000001,1.0,2692.78017954634,0.45912934733365135,1.3005451630595588,0.9769827969654901,0.2855342375,0.7119662148007118
0.055,1.724375,1.0,2690.5642344606413,0.4621631723029119,1.2999473010432943,0.977240336631883,0.28547675,0.7131110223113629
0.0555,1.72299375,1.0,2688.3407726258265,0.46517999867990967,1.2993438710654537,0.9774912293191569,0.2854187375,0.7142641800240722
0.056,1.7216,1.0,2686.1108332273466,0.4681799171186827,1.2987348637000424,0.9777356905501353,0.2853602,0.7154256416138938
0.0565,1.72019375,1.0,2683.875453776799,0.4711630182732689,1.2981202695210656,0.9779739269275213,0.28530113749999997,0.7165953600149464
0.057,1.718775,1.0,2681.6356700984215,0.47412939279770633,1.2975000791025288,0.9782061365733964,0.28524155,0.717773287417057
0.0575,1.71734375,1.0,2679.3925163178837,0.4770791313460329,1.2968742830184374,0.9784325095436289,0.2851814375,0.7189593752624003
0.058,1.7159,1.0,2677.1470248530472,0.48001232457228665,1.2962428718427967,0.9786532282188174,0.2851208,0.7201535742421311
0.0585,1.71444375,1.0,2674.900226407088,0.4829290631305056,1.2956058361496117,0.9788684676732674,0.2850596375,0.7213558342930132
0.059000000000000004,1.7129750000000001,1.0,2672.653149962417,0.48582943767472764,1.294963166512888,0.9790783960234054,0.28499795,0.7225661045940379
0.059500000000000004,1.71149375,1.0,2670.4068227781604,0.4887135388589908,1.294314853506631,0.9792831747569232,0.2849357375,0.7237843335630434
0.06,1.71,1.0,2668.1622703883163,0.49158145733733305,1.2936608877048454,0.9794829590438641,0.284873,0.7250104688533232
0.0605,1.7084937500000001,1.0,2665.9205166024926,0.4944332837637924,1.2930012596815375,0.9796778980307703,0.2848097375,0.7262444573502305
0.061,1.7069750000000001,1.0,2663.6825835085233,0.4972691087924069,1.292335960010712,0.9798681351189379,0.28474595,0.7274862451677786
0.0615,1.7054437500000001,1.0,2661.4494914768197,0.5000890230772144,1.2916649792663744,0.9800538082277527,0.2846816375,0.7287357776452341
0.062,1.7039,1.0,2659.2222591673813,0.5028931172722529,1.2909883080225297,0.9802350500440143,0.2846168,0.7299929993437033
0.0625,1.70234375,1.0,2657.0019035376654,0.5056814820315605,1.2903059368531837,0.980411988258091,0.2845514375,0.7312578540427146
0.063,1.7007750000000001,1.0,2654.789439853409,0.5084542080091751,1.2896178563323415,0.9805847457876968,0.28448555,0.732530284736796
0.0635,1.69919375,1.0,2652.5858817011535,0.5112113858591346,1.2889240570340086,0.9807534409900256,0.28441913750000003,0.7338102336320439
0.064,1.6976,1.0,2650.3918722761573,0.5139530647996802,1.2882245329334208,0.9809181850290536,0.2843522,0.7350976358906616
0.0645,1.69599375,1.0,2648.207842879702,0.5166793739703963,1.2875192799515858,0.9810790908743929,0.2842847375,0.7363924223728369
0.065,1.694375,1.0,2646.0340165226726,0.519390408866738,1.286808295926106,0.981236265066831,0.28421675,0.7376945197320255
0.0655,1.69274375,1.0,2643.8705498067934,0.5220862507608655,1.286091579304808,0.981389809342112,0.2841482375,0.7390038528408187
0.066,1.6911,1.0,2641.717599108952,0.5247669809249391,1.2853691285355184,0.9815398218076166,0.2840792,0.740320345914792
0.0665,1.6894437500000001,1.0,2639.5753205846527,0.5274326806311194,1.2846409420660632,0.9816863970960141,0.2840096375,0.7416439225119391
0.067,1.687775,1.0,2637.443870170296,0.5300834311515664,1.2839070183442691,0.9818296265113445,0.28393955,0.7429745055321009
0.0675,1.68609375,1.0,2635.3234035873256,0.5327193137584408,1.2831673558179622,0.9819695981679579,0.2838689375,0.7443120172164019
0.068,1.6844000000000001,1.0,2633.21407634452,0.5353404097239028,1.282421952934969,0.9821063971227065,0.2837978,0.7456563791466779
0.0685,1.68269375,1.0,2631.1160437417548,0.537946800320113,1.2816708081431158,0.9822401055007589,0.2837261375,0.7470075122449108
0.069,1.680975,1.0,2629.029460873245,0.5405385668192314,1.2809139198902293,0.9823708026153912,0.28365395,0.7483653367726589
0.0695,1.67924375,1.0,2626.954482630707,0.5431157904934187,1.2801512866241356,0.9824985650820747,0.28358123749999997,0.7497297723304892
0.07,1.6775,1.0,2624.8912637070225,0.5456785526148352,1.2793829067926612,0.9826234669271758,0.283508,0.7511007378574082
0.07050000000000001,1.67574375,1.0,2622.839958599513,0.5482269344556412,1.2786087788436322,0.9827455796915527,0.2834342375,0.7524781516302934
0.07100000000000001,1.673975,1.0,2620.8007216135175,0.5507610172879971,1.2778289012248754,0.9828649725293215,0.28335995,0.7538619312633241
0.07150000000000001,1.67219375,1.0,2618.773706865932,0.5532808823840634,1.2770432723842169,0.9829817123020484,0.2832851375,0.7552519937074127
0.07200000000000001,1.6704,1.0,2616.7590682889268,0.5557866110160001,1.2762518907694833,0.9830958636686092,0.2832098,0.7566482552496347
0.0725,1.66859375,1.0,2614.75695963353,0.5582782844559679,1.2754547548285007,0.9832074891709386,0.2831339375,0.7580506315126614
0.073,1.6667750000000001,1.0,2612.7675344734525,0.5607559839761272,1.2746518630090957,0.9833166493158884,0.28305755,0.7594590374541866
0.0735,1.66494375,1.0,2610.790946208677,0.5632197908486384,1.2738432137590947,0.9834234026533915,0.2829806375,0.7608733873663609
0.074,1.6631,1.0,2608.8288798375015,0.5656697257995219,1.2730287912847615,0.9835278017673807,0.2829032,0.7622936196734124
0.0745,1.6612437500000001,1.0,2606.8791198303647,0.5681059355079212,1.2722086160481048,0.9836299062930556,0.2828252375,0.7637196088940545
0.075,1.659375,1.0,2604.941170251204,0.5705285012332432,1.2713826925427738,0.9837297695912505,0.28274675,0.765151256977788
0.0755,1.65749375,1.0,2603.0147888810475,0.5729374950086162,1.270551022908223,0.9838274427275748,0.2826677375,0.7665884693983231
