Time [s],Phi [rad],STIM [ ],Fsee [N],Gamma [ ],Lcerel [ ],q [ ],Lmtc [m],fisomrel [ ]
0.0,1.8,1.0,17.9674033366838,1.239637778824067e-05,1.3793397187526761,0.0050000408864552875,0.288653,0.5411395975020428
0.0005,1.79999375,1.0,18.27751992820331,0.005621536152707544,1.379302301616124,0.012947168199996445,0.2886527375,0.5412301147599198
0.001,1.799975,1.0,21.62091174972149,0.011199213088399973,1.3789380436993957,0.035621065066446904,0.28865195,0.5421108387668205
0.0015,1.79994375,1.0,31.075463834480928,0.016745603667380097,1.3780456731658133,0.07061880019463893,0.2886506375,0.544264888394793
0.002,1.7999,1.0,53.59592075928797,0.022260883380507836,1.3763672537962868,0.11473808307469184,0.2886488,0.5483025837686271
0.0025,1.79984375,1.0,97.14174235766345,0.02774522673456777,1.373934068419459,0.16459670121285902,0.28864643749999996,0.5541240831481868
0.003,1.7997750000000001,1.0,160.98802376177775,0.03319880725996549,1.3712132262343797,0.21730295289507826,0.28864354999999997,0.560589096519972
0.0035,1.79969375,1.0,237.717164535626,0.0386217975103352,1.3685836921245653,0.2706352664208776,0.2886401375,0.5667922892213765
0.004,1.7996,1.0,321.50284467631946,0.04401436907331789,1.3661551369780431,0.32293746994722866,0.2886362,0.5724821928080054
0.0045000000000000005,1.7994937500000001,1.0,409.305180747165,0.04937669257574698,1.3639219355628842,0.37305507697566975,0.2886317375,0.5776812015821555
0.005,1.799375,1.0,499.4517432934032,0.054708937674742025,1.3618575297841227,0.42026670571257724,0.28862675,0.5824589545233827
0.0055,1.79924375,1.0,590.8290465707269,0.06001127310508939,1.3599380803248944,0.4641915168116137,0.2886212375,0.5868768441710137
0.006,1.7991000000000001,1.0,682.5568243474389,0.06528386662261869,1.3581457110031978,0.5046963380476708,0.2886152,0.5909810257972383
0.006500000000000001,1.79894375,1.0,773.9221782546651,0.07052688506131621,1.3564665550885424,0.541815708299564,0.2886086375,0.5948073823447295
0.007,1.798775,1.0,864.3260324204451,0.07574049430504917,1.354889745302395,0.5756904065253311,0.28860155,0.5983841475739837
0.0075,1.79859375,1.0,953.282335383186,0.0809248593320528,1.3534061774917119,0.6065223137088697,0.2885939375,0.6017349289244154
0.008,1.7984,1.0,1040.3979134040662,0.08608014416700999,1.3520080653985909,0.6345433148914322,0.2885858,0.6048798529794049
0.0085,1.79819375,1.0,1125.3527848568333,0.0912065117858322,1.350688695672957,0.6599946629431938,0.2885771375,0.6078362204311232
0.009000000000000001,1.797975,1.0,1207.9213962034262,0.09630412481501097,1.3494417451655938,0.6831136133455501,0.28856795,0.6106201107641078
0.0095,1.79774375,1.0,1287.9125334260941,0.10137314424852324,1.3482618548145762,0.7041260479918617,0.2885582375,0.6132451545953798
0.01,1.7975,1.0,1365.1912734243506,0.1064137302663595,1.3471440739347162,0.7232420006137681,0.288548,0.6157238263138018
0.0105,1.79724375,1.0,1439.6819806104909,0.11142604250328132,1.346083665016347,0.7406537522392664,0.2885372375,0.6180679107425157
0.011,1.796975,1.0,1511.3472793785425,0.11641024008679424,1.3450762474621432,0.7565355842066549,0.28852595000000003,0.6202882124918551
0.0115,1.79669375,1.0,1580.1467603488938,0.12136648003087742,1.3441181754617408,0.7710445054309571,0.2885141375,0.6223937541992428
0.012,1.7964,1.0,1646.083527741438,0.12629491915106744,1.343205854582321,0.7843209821712432,0.28850180000000003,0.6243933079732743
0.0125,1.79609375,1.0,1709.192123733603,0.13119571351774664,1.3423358263221117,0.7964903098779692,0.2884889375,0.6262952232664445
0.013000000000000001,1.7957750000000001,1.0,1769.521686811215,0.13606901908943164,1.3415049019209455,0.8076640846839017,0.28847555,0.6281071491197876
0.0135,1.79544375,1.0,1827.1056503355155,0.14091498901211047,1.3407104381860686,0.8179416968658755,0.2884616375,0.6298354506092383
0.014,1.7951000000000001,1.0,1882.004865636259,0.1457337764317712,1.339949791924728,0.8274114382334933,0.2884472,0.6314864125329531
0.0145,1.79474375,1.0,1934.2932547115497,0.15052553368096624,1.3392204490527118,0.8361517962337158,0.2884322375,0.6330659660219279
0.015,1.794375,1.0,1984.0621760497197,0.15529041381423855,1.3385199460681896,0.8442325569544719,0.28841675,0.6345798664349172
0.0155,1.79399375,1.0,2031.3861972596549,0.1600285675223358,1.3378462067548735,0.8517159287160148,0.2884007375,0.6360329737925486
0.016,1.7936,1.0,2076.3307085079864,0.16474014356360528,1.3371974228059909,0.8586573910489513,0.2883842,0.6374295218526718
0.0165,1.7931937500000001,1.0,2118.975133833219,0.16942529069639437,1.336571785914769,0.8651064077610252,0.2883671375,0.6387737019328537
0.017,1.792775,1.0,2159.411740532132,0.17408415767905036,1.3359674877744354,0.8711071401238585,0.28834955,0.6400696656841027
0.0175,1.7923437500000001,1.0,2197.7212997101697,0.17871689151074555,1.3353829553051992,0.8766991381139345,0.2883314375,0.6413210245240776
0.018000000000000002,1.7919,1.0,2234.0106896980274,0.18332364098643175,1.334816452744609,0.8819177743041183,0.2883128,0.6425317059040723
0.0185,1.79144375,1.0,2268.3478677007047,0.18790455047353297,1.334266727653873,0.8867948973831807,0.2882936375,0.6437045752027151
0.019,1.790975,1.0,2300.804954758038,0.19245976406836293,1.3337325585394963,0.8913591228303086,0.28827395,0.6448424087075308
0.0195,1.79049375,1.0,2331.460673161936,0.19698942586723528,1.3332127239079832,0.8956361961556942,0.2882537375,0.64594796117928
0.02,1.79,1.0,2360.3968809744733,0.20149367953713604,1.3327060306885883,0.8996493251446878,0.288233,0.6470239067074113
0.0205,1.78949375,1.0,2387.692325172453,0.20597266784711815,1.3322113690303428,0.9034194766790311,0.2882117375,0.6480727241294177
0.021,1.788975,1.0,2413.4305177384113,0.21042653422362717,1.3317276292909737,0.9069656074206641,0.28818995000000003,0.6490968748883621
0.021500000000000002,1.78844375,1.0,2437.6710026751866,0.21485541801103467,1.3312539743419698,0.9103049389321296,0.2881676375,0.6500982285798776
0.022,1.7879,1.0,2460.4767649990445,0.21925945855371223,1.33078956705482,0.9134530894779698,0.2881448,0.6510786426265458
0.0225,1.78734375,1.0,2481.913946554269,0.22363879519603153,1.3303335703010128,0.9164242454533004,0.28812143749999997,0.6520399627939599
0.023,1.786775,1.0,2502.0504399334063,0.22799356707220825,1.3298851577505622,0.9192313144604927,0.28809755,0.6529840009435164
0.0235,1.78619375,1.0,2520.943094847963,0.23232391081128667,1.3294436322790206,0.921886079403353,0.28807313749999996,0.6539122868329255
0.024,1.7856,1.0,2538.6741201576297,0.23662996753641066,1.329008078403234,0.9243992534247397,0.2880482,0.6548267995708271
0.0245,1.78499375,1.0,2555.289565385094,0.24091187144375714,1.3285779419943646,0.9267806867996073,0.2880227375,0.6557287501108034
0.025,1.784375,1.0,2570.837090272145,0.2451697567295029,1.3281526689235748,0.9290393920677791,0.28799675,0.6566193427242817
0.025500000000000002,1.78374375,1.0,2585.3658322698325,0.24940375758982483,1.3277317050620268,0.9311836267154768,0.2879702375,0.6574997751821962
0.026000000000000002,1.7831000000000001,1.0,2598.9262808362078,0.25361400822089986,1.3273144962808827,0.9332209666894811,0.2879432,0.6583712389170664
0.0265,1.78244375,1.0,2611.5701585421393,0.2578006428189047,1.3269004884513051,0.9351583718567269,0.2879156375,0.6592349191654915
0.027,1.781775,1.0,2623.343455577401,0.2619637916670465,1.32648919098722,0.9370022525035158,0.28788755,0.6600918627822403
0.0275,1.7810937500000001,1.0,2634.3000877443305,0.26610359185965327,1.3260800488403428,0.9387585057740211,0.2878589375,0.6609432453707897
0.028,1.7804,1.0,2644.4760771493443,0.27022017231928824,1.3256726807371084,0.9404325919979415,0.2878298,0.6617898757063312
0.0285,1.77969375,1.0,2653.9077537139087,0.27431366176075056,1.3252667089919747,0.942029552600063,0.2878001375,0.6626325510890626
0.029,1.778975,1.0,2662.632080745536,0.2783841888988394,1.3248617559193996,0.9435540472914874,0.28776995,0.6634720648627693
0.029500000000000002,1.7782437500000001,1.0,2670.686597554252,0.282431882448354,1.3244574438338401,0.9450103879012993,0.2877392375,0.664309206443911
0.03,1.7775,1.0,2678.1093652316104,0.2864568711240934,1.3240533950497546,0.9464025688052303,0.287708,0.6651447613416062
0.0305,1.77674375,1.0,2684.930863766932,0.2904592793176749,1.3236493056745557,0.9477343025111152,0.2876762375,0.6659793588532461
0.031,1.775975,1.0,2691.1848798583774,0.29443923545350137,1.3232448450726473,0.949009033428929,0.28764395,0.666813680274108
0.0315,1.7751937500000001,1.0,2696.915685612572,0.298396874075306,1.3228395900265804,0.9502299528298103,0.2876111375,0.6676485941054513
0.032,1.7744,1.0,2702.1457161018684,0.3023323171474828,1.3224333201254137,0.9514000503972447,0.2875778,0.6684845474263472
0.0325,1.77359375,1.0,2706.897647078089,0.30624568663442586,1.3220258149582051,0.9525221099143698,0.2875439375,0.6693219850143617
0.033,1.772775,1.0,2711.194372883144,0.31013710450052906,1.3216168541140132,0.9535987259422813,0.28750955,0.6701613493297371
0.0335,1.7719437500000002,1.0,2715.0589854374143,0.31400669271018655,1.3212062171818961,0.9546323189569897,0.2874746375,0.6710030804964815
0.034,1.7711000000000001,1.0,2718.514754304793,0.3178545732277923,1.3207936837509118,0.9556251491038446,0.2874392,0.6718476162803572
0.0345,1.7702437500000001,1.0,2721.5851078350365,0.32168086801774043,1.3203790334101189,0.9565793287103261,0.2874032375,0.6726953920637689
0.035,1.7693750000000001,1.0,2724.2936153830983,0.3254856990444249,1.3199620457485752,0.9574968336823477,0.28736675,0.6735468408175596
0.035500000000000004,1.76849375,1.0,2726.6639706059677,0.32926918827223983,1.3195425003553394,0.958379513895384,0.2873297375,0.6744023930697001
0.036000000000000004,1.7676,1.0,2728.7125135613705,0.3330314526919476,1.3191202446584656,0.9592291085410806,0.2872922,0.6752623388045953
0.0365,1.76669375,1.0,2730.4603951360864,0.3367726145377643,1.3186950831332975,0.9600472453666962,0.2872541375,0.6761270535288921
0.037,1.765775,1.0,2731.931914127196,0.3404927970129711,1.318266792380722,0.9608354494270553,0.28721555,0.6769969670525713
0.0375,1.76484375,1.0,2733.1400606679495,0.3441921149713549,1.3178352523712595,0.9615951614376543,0.2871764375,0.6778722970347506
0.038,1.7639,1.0,2734.0978760639186,0.3478706832667025,1.3174003430754293,0.9623277355723501,0.28713679999999997,0.6787532596160708
0.0385,1.76294375,1.0,2734.8184465764116,0.35152861675280095,1.316961944463752,0.9630344456090664,0.28709663750000003,0.6796400693933592
0.039,1.761975,1.0,2735.314897525747,0.3551660302834371,1.3165199365067468,0.9637164905746877,0.28705595,0.6805329393933832
0.0395,1.7609937500000001,1.0,2735.600387713691,0.35878303871239775,1.3160741991749345,0.9643749999349146,0.2870147375,0.6814320810456755
0.04,1.76,1.0,2735.6881041653546,0.3623797568934699,1.3156246124388344,0.9650110383702518,0.286973,0.6823377041544502
0.0405,1.7589937500000001,1.0,2735.5912571906465,0.3659562996804404,1.315171056268967,0.9656256101751779,0.2869307375,0.683250016869591
0.041,1.757975,1.0,2735.3230757650244,0.3695127819270962,1.3147134106358516,0.966219663313896,0.28688795,0.684169225656728
0.0415,1.75694375,1.0,2734.89450905518,0.37304930966845823,1.3142515763426055,0.9667940934278103,0.2868446375,0.685095493514629
0.042,1.7559,1.0,2734.3188316365067,0.3765660060358548,1.3137854331769594,0.9673497481597492,0.28680079999999997,0.6860290239985586
0.0425,1.75484375,1.0,2733.604227787087,0.38006298047745635,1.3133149072247736,0.9678874306710595,0.2867564375,0.6869699263735061
0.043000000000000003,1.753775,1.0,2732.7585650277797,0.3835403412373355,1.3128399275109015,0.968407901046995,0.28671155,0.6879183027900954
0.043500000000000004,1.75269375,1.0,2731.789715872157,0.38699819655956486,1.312360423060196,0.9689118789988262,0.28666613750000003,0.6888742541634421
0.044,1.7516,1.0,2730.70555600674,0.390436654688217,1.31187632289751,0.9694000464076015,0.2866202,0.6898378801528318
0.0445,1.75049375,1.0,2729.513962584241,0.39385582386736445,1.3113875560476973,0.9698730496832638,0.2865737375,0.6908092791410784
0.045,1.7493750000000001,1.0,2728.22281262777,0.3972558123410799,1.3108940515356102,0.9703315019542186,0.28652675,0.691788548213563
0.0455,1.74824375,1.0,2726.8399815466955,0.4006367283534358,1.3103957383861022,0.9707759851010784,0.2864792375,0.6927757831369463
0.046,1.7471,1.0,2725.373341764983,0.4039986801485047,1.3098925456240265,0.9712070516470813,0.2864312,0.6937710783375659
0.0465,1.7459437500000001,1.0,2723.816997649246,0.4073417749141776,1.3093845275123623,0.9716252355758459,0.28638263750000004,0.6947742797702561
0.047,1.744775,1.0,2722.196056467491,0.41066611854088003,1.308871456231798,0.9720310238068728,0.28633355,0.6957857893024506
0.0475,1.74359375,1.0,2720.5348429158958,0.41397181652524606,1.3083531108443773,0.9724248799182525,0.28628393750000003,0.6968059918131223
0.048,1.7424,1.0,2718.8153852531213,0.4172589722124242,1.3078296553667508,0.9728072719530569,0.2862338,0.6978345129999599
0.0485,1.7411943000073244,1.0,2717.047000424127,0.420527688947563,1.3073012538155684,0.9731786454253768,0.28618316060030763,0.6988709802403688
0.049,1.7399855081312587,1.0,2715.6507142025857,0.4237780700758109,1.3067680702074802,0.9735394246157915,0.28613239134151286,0.6999150226440641
0.0495,1.7387767162551928,1.0,2714.761446018721,0.42701021894231656,1.3062302685591367,0.9738900137811091,0.2860816220827181,0.7009662711039509
0.05,1.737567924379127,1.0,2714.3578475914755,0.4302242373618697,1.3056880411894076,0.9742308000050892,0.2860308528239233,0.702024303168951
0.0505,1.7363591325030614,1.0,2714.380820863246,0.43342022904717775,1.3051419257813055,0.9745621755543226,0.2859800835651286,0.7030880265640187
0.051000000000000004,1.7351503406269955,1.0,2714.796772364292,0.4365982945506936,1.304592228560954,0.9748844991567952,0.28592931430633384,0.7041568058044375
0.051500000000000004,1.7339415487509298,1.0,2715.577677293905,0.43975853340683674,1.3040392057377976,0.9751981099066348,0.28587854504753907,0.7052301064232436
0.052000000000000005,1.732732756874864,1.0,2716.695572166897,0.4429010451500269,1.303483113521281,0.9755033316612008,0.2858277757887443,0.7063073973451188
0.0525,1.7315239649987981,1.0,2718.1225366498566,0.4460259293146834,1.3029242081208485,0.9758004738655852,0.28577700652994953,0.7073881509386379
0.053,1.7303151731227324,1.0,2719.830691544484,0.4491332854297391,1.302362745612169,0.9760898323167978,0.28572623727115476,0.7084718433222922
0.0535,1.7291063812466667,1.0,2721.7963133010658,0.45222321186046593,1.301798944346263,0.9763716874491873,0.28567546801236,0.70955802675855
0.054,1.7278975893706008,1.0,2723.9972993369342,0.4552958068366332,1.3012330079625878,0.9766463066628325,0.2856246987535652,0.710646284801695
0.0545,1.726688797494535,1.0,2726.4158042953636,0.45835116685342003,1.3006651013472728,0.9769139433957202,0.28557392949477045,0.7117362781627367
0.055,1.7254800056184691,1.0,2729.0339779685105,0.4613893884060056,1.300095389386446,0.9771748403401486,0.2855231602359757,0.7128276698628743
0.0555,1.7242712137424034,1.0,2731.837763673347,0.4644105654550065,1.2995240023924934,0.9774292277064627,0.2854723909771809,0.7139201912971351
0.056,1.7230624218663377,1.0,2734.810225754058,0.467414794164688,1.2989510967323386,0.9776773278579441,0.2854216217183862,0.715013526028482
0.0565,1.7218536299902718,1.0,2737.9271511298844,0.470402176482062,1.2983768946294865,0.9779193583303014,0.28537085245959143,0.7161072345384705
0.057,1.720644838114206,1.0,2741.179311494019,0.47337280453905983,1.2978014819999688,0.9781555190500614,0.28532008320079666,0.717201139408872
0.0575,1.7194360462381404,1.0,2744.5574662812223,0.4763267704676129,1.2972249447598172,0.9783860018502335,0.2852693139420019,0.7182950644532002
0.058,1.7182272543620745,1.0,2748.0523604438304,0.47926416639965264,1.2966473688250633,0.9786109908651589,0.2852185446832071,0.7193888347231088
0.0585,1.7170184624860088,1.0,2751.6547223914595,0.48218508446711034,1.2960688401117388,0.9788306629030841,0.28516777542441235,0.7204822765143164
0.059000000000000004,1.7158096706099428,1.0,2755.3552620940427,0.4850896168019174,1.2954894445358756,0.9790451877978857,0.2851170061656176,0.7215752173720655
0.059500000000000004,1.7146008787338771,1.0,2759.144669348955,0.4879778555360052,1.294909268013505,0.9792547287412628,0.28506623690682287,0.7226674860961054
0.06,1.7133920868578114,1.0,2763.0136122111703,0.49084989280130514,1.2943283964606591,0.9794594425966284,0.2850154676480281,0.7237589127452075
0.0605,1.7121832949817455,1.0,2766.9527355880696,0.49370582072974856,1.2937469157933692,0.9796594801958387,0.28496469838923333,0.7248493286412094
0.061,1.7109745031056798,1.0,2770.957150874562,0.49654572575255096,1.2931648714137824,0.9798549840143752,0.28491392913043856,0.7259386421203458
0.0615,1.709765711229614,1.0,2775.017192562858,0.49936970413482684,1.2925823516756385,0.9800460941764281,0.2848631598716438,0.7270266820406664
0.062,1.7085569193535481,1.0,2779.1268856721626,0.5021778459116298,1.2919994114449642,0.9802329433171041,0.284812390612849,0.7281133409304672
0.0625,1.7073481274774824,1.0,2783.282388441875,0.5049702378906037,1.2914160862352329,0.9804156578921625,0.28476162135405425,0.729198548097383
0.063,1.7061393356014167,1.0,2787.4798483751592,0.5077469668793917,1.2908324115599177,0.9805943596947836,0.2847108520952595,0.7302822333744983
0.0635,1.7049305437253508,1.0,2791.7154019500636,0.5105081196856375,1.2902484229324918,0.9807691660631593,0.2846600828364647,0.7313643271211779
0.064,1.703721751849285,1.0,2795.98517435804,0.5132537831169844,1.2896641558664281,0.9809401900773705,0.28460931357766994,0.732444760223819
0.0645,1.7025129599732192,1.0,2800.285279270986,0.5159840439810762,1.2890796458751999,0.9811075407461802,0.2845585443188752,0.7335234640965212
0.065,1.7013041680971535,1.0,2804.6118186356925,0.5186989890855562,1.2884949284722806,0.981271323184324,0.28450777506008046,0.7346003706816763
0.0655,1.7000953762210878,1.0,2808.960882496779,0.521398705238068,1.287910039171143,0.9814316387808563,0.2844570058012857,0.735675412450481
0.066,1.6988865843450218,1.0,2813.3293461592675,0.5240832761231237,1.287325006346787,0.9815885847957139,0.2844062365424909,0.7367485354841163
0.0665,1.6976777924689561,1.0,2817.7178444055653,0.5267527731069719,1.2867398246544781,0.981742252627498,0.28435546728369615,0.7378197479499973
0.067,1.6964690005928904,1.0,2822.117203136876,0.5294073084671431,1.2861545764511306,0.9818927374764244,0.2843046980249014,0.7388888978828891
0.0675,1.6952602087168245,1.0,2826.526199963188,0.5320469626231662,1.2855692728108996,0.9820401257426121,0.2842539287661066,0.7399559643694325
0.068,1.6940514168407588,1.0,2830.943608648794,0.5346718159945696,1.2849839248079398,0.9821845008823442,0.2842031595073119,0.7410209266615515
0.0685,1.6928426249646928,1.0,2835.368199099705,0.537281949000882,1.284398543516406,0.982325943529285,0.28415239024851713,0.7420837641764888
0.069,1.6916338330886271,1.0,2839.7987373542524,0.5398774420616318,1.2838131400104535,0.9824645316099053,0.28410162098972236,0.7431444564968326
0.0695,1.6904250412125614,1.0,2844.2339855763375,0.5424583755963478,1.2832277253642372,0.9826003404534241,0.2840508517309276,0.7442029833705364
0.07,1.6892162493364955,1.0,2848.6727020512762,0.5450248300245584,1.282642310651912,0.9827334428965673,0.2840000824721328,0.7452593247109314
0.07050000000000001,1.6880074574604298,1.0,2853.113641184348,0.5475768857657922,1.282056906947633,0.9828639093834188,0.28394931321333805,0.7463134605967292
0.07100000000000001,1.686798665584364,1.0,2857.5555535023145,0.550114623239578,1.281471525325555,0.9829918080606267,0.2838985439545433,0.7473653712720199
0.07150000000000001,1.6855898737082982,1.0,2861.997185657275,0.5526381228654442,1.2808861768598332,0.9831172048682095,0.2838477746957485,0.748415037146258
0.07200000000000001,1.6843810818322325,1.0,2866.4372804336203,0.5551474650629193,1.280300872624622,0.9832401636261939,0.28379700543695374,0.7494624387942455
0.0725,1.6831722899561667,1.0,2870.87457675736,0.5576427302515321,1.2797156236940772,0.9833607461173025,0.283746236178159,0.7505075569561014
