Time [s],Phi [rad],STIM [ ],Fsee [N],Gamma [ ],Lcerel [ ],q [ ],Lmtc [m],fisomrel [ ]
0.0,1.8,1.0,17.968061231993556,1.4068591230723262e-05,1.379339645047577,0.00500005260866993,0.288653,0.5411397758137064
0.0005,1.79999375,1.0,18.27868070052215,0.005623198986355422,1.3793021726816976,0.012951811817335422,0.2886527375,0.5412304266547947
0.001,1.799975,1.0,21.623283276599327,0.011200866594865938,1.3789378015036453,0.03562977657691099,0.28865195,0.5421114240803058
0.0015,1.79994375,1.0,31.080477207574525,0.0167472478989827,1.3780452461036663,0.07063072275425315,0.2886506375,0.544265918043426
0.002,1.7999,1.0,53.606227988785584,0.022262518389269986,1.3763665852329183,0.11475220256328764,0.2886488,0.5483041885207667
0.0025,1.79984375,1.0,97.1587715689145,0.02774685257222445,1.3739332479546946,0.16461206298678827,0.28864643749999996,0.5541260397769544
0.003,1.7997750000000001,1.0,161.01003166215236,0.03320042397795829,1.3712124025622652,0.21731880254416575,0.28864354999999997,0.5605910465049451
0.0035,1.79969375,1.0,237.7419430293725,0.038623405159817485,1.368582928955614,0.27065103223718895,0.2886401375,0.5667940831712399
0.004,1.7996,1.0,321.52914499787033,0.04401596770515722,1.3661544404363055,0.3229527367887862,0.2886362,0.5724838193519644
0.0045000000000000005,1.7994937500000001,1.0,409.33236855185237,0.049378282240528384,1.3639212974012567,0.37306957010842207,0.2886317375,0.5776826827097771
0.005,1.799375,1.0,499.47944367468483,0.05471051842277112,1.3618569411840156,0.420280265818508,0.28862675,0.5824603128729207
0.0055,1.79924375,1.0,590.8569693357484,0.060012844986353814,1.35993753480606,0.46420407175690365,0.2886212375,0.586878096421353
0.006,1.7991000000000001,1.0,682.5847567498976,0.06528542968686482,1.3581452032860646,0.5047078762749476,0.2886152,0.5909821854693351
0.006500000000000001,1.79894375,1.0,773.9500034300678,0.07052843935781329,1.3564660801113686,0.5418262575104167,0.2886086375,0.5948084621493475
0.007,1.798775,1.0,864.3537400847096,0.07574203988448995,1.3548892977488336,0.5757000179582804,0.28860155,0.5983851605336089
0.0075,1.79859375,1.0,953.3089716221643,0.08092639624201038,1.3534057678100972,0.6065310610571073,0.2885939375,0.6017358522913127
0.008,1.7984,1.0,1040.4240699174852,0.0860816724536579,1.352007680306352,0.6345512622095454,0.2885858,0.6048807174915212
0.0085,1.79819375,1.0,1125.380445498662,0.09120803151524128,1.3506883041090822,0.6600018649906549,0.2885771375,0.6078370961769639
0.009000000000000001,1.797975,1.0,1207.9472348542301,0.09630563590403948,1.349441392116134,0.6831201659600099,0.28856795,0.610620897563579
0.0095,1.79774375,1.0,1287.9448311879412,0.10137464699864492,1.3482614274348679,0.704131956403533,0.2885582375,0.6132461038298096
0.01,1.7975,1.0,1365.2264184275577,0.10641522463212438,1.347143622233335,0.723247354805205,0.288548,0.6157248263479578
0.0105,1.79724375,1.0,1439.7126439665556,0.11142752836430206,1.3460832812459536,0.7406586544835048,0.2885372375,0.6180687577870989
0.011,1.796975,1.0,1511.3714610411405,0.11641171746537854,1.3450759520763091,0.7565400919346078,0.28852595000000003,0.6202888625594031
0.0115,1.79669375,1.0,1580.1748851074626,0.12136794936927173,1.344117839472372,0.7710486023873191,0.2885141375,0.6223944915716415
0.012,1.7964,1.0,1646.1143986459977,0.1262963803733299,1.343205493248376,0.7843247165864573,0.28850180000000003,0.6243940988652392
0.0125,1.79609375,1.0,1709.217857291229,0.13119716643786042,1.3423355307318423,0.7964937564889448,0.2884889375,0.6262958686178184
0.013000000000000001,1.7957750000000001,1.0,1769.5401452314115,0.1360704633793067,1.341504693542483,0.8076672810855862,0.28847555,0.6281076029606338
0.0135,1.79544375,1.0,1827.1317181762686,0.14091642547310365,1.3407101485790667,0.8179446049984532,0.2884616375,0.6298360798955049
0.014,1.7951000000000001,1.0,1882.0385908041612,0.1457352051789648,1.3399494227523645,0.8274140866875319,0.2884472,0.6314872129156064
0.0145,1.79474375,1.0,1934.3308632993476,0.15052695495660368,1.3392200429731478,0.836154225395525,0.2884322375,0.6330668445321932
0.015,1.794375,1.0,1984.0852918342846,0.1552918263200565,1.3385196996248345,0.8442348529257352,0.28841675,0.6345803984882392
0.0155,1.79399375,1.0,2031.4003062162262,0.16002997160047283,1.337846058097905,0.8517180851751287,0.2884007375,0.6360332940934534
0.016,1.7936,1.0,2076.347443356496,0.16474153999729857,1.337197248400552,0.8586593833934574,0.2883842,0.6374298969103839
0.0165,1.7931937500000001,1.0,2118.9983190518346,0.1694266797182355,1.3365715467294854,0.8651082391585,0.2883671375,0.6387742153447762
0.017,1.792775,1.0,2159.437035285302,0.17408553897098542,1.3359672292814142,0.8711088375965788,0.28834955,0.6400702195439084
0.0175,1.7923437500000001,1.0,2197.7524212551416,0.17871826525437146,1.3353826400511448,0.8767007029854924,0.2883314375,0.6413216988275645
0.018000000000000002,1.7919,1.0,2234.0376989051724,0.18332500626315604,1.334816181378706,0.881919244233847,0.2883128,0.6425322853538948
0.0185,1.79144375,1.0,2268.375820613193,0.18790590808182422,1.3342664489401987,0.8867962680377431,0.2882936375,0.6437051693651452
0.019,1.790975,1.0,2300.835923065346,0.1924611143999013,1.3337322519456154,0.8913603976719521,0.28827395,0.6448430612605494
0.0195,1.79049375,1.0,2331.4936477377496,0.19699076890691242,1.333212399604948,0.8956373854394551,0.2882537375,0.6459486503492105
0.02,1.79,1.0,2360.43059741423,0.2014950152923828,1.3327057011281886,0.8996504386856821,0.288233,0.6470246059846952
0.0205,1.78949375,1.0,2387.720370487112,0.20597399540122027,1.3322110964734069,0.903420533966797,0.2882117375,0.6480733015941862
0.021,1.788975,1.0,2413.4538824136444,0.2104278537481562,1.3317274034365114,0.9069666109028052,0.28818995000000003,0.6490973527081314
0.021500000000000002,1.78844375,1.0,2437.6959811600173,0.21485673044116693,1.3312537340911872,0.9103058804936056,0.2881676375,0.6500987361308834
0.022,1.7879,1.0,2460.5062330223745,0.21926076428258717,1.3307892849389948,0.9134539683181451,0.2881448,0.6510792377855501
0.0225,1.78734375,1.0,2481.9472882746763,0.22364009407475177,1.3303332524814944,0.9164250672404485,0.28812143749999997,0.652040632350119
0.023,1.786775,1.0,2502.084623502764,0.22799485861999547,1.329884833220246,0.9192320886103936,0.28809755,0.6529846837093447
0.0235,1.78619375,1.0,2520.981732693883,0.23232519587921868,1.329443266838165,0.9218868033783174,0.28807313749999996,0.6539130546396607
0.024,1.7856,1.0,2538.699511552305,0.23663124318281392,1.3290078390885371,0.9243999596412684,0.2880482,0.65482730171649
0.0245,1.78499375,1.0,2555.3094974779215,0.2409131394108899,1.3285777547454232,0.9267813645697164,0.2880227375,0.6557291424950783
0.025,1.784375,1.0,2570.856793203618,0.24517101810970815,1.3281524843879948,0.9290400354741007,0.28799675,0.6566197289221518
0.025500000000000002,1.78374375,1.0,2585.38793899262,0.2494050128255301,1.3277314985954236,0.9311842341304111,0.2879702375,0.6575002067232074
0.026000000000000002,1.7831000000000001,1.0,2598.950792975346,0.25361525710461724,1.3273142679468815,0.9332215403434587,0.2879432,0.6583717155561133
0.0265,1.78244375,1.0,2611.5944177010165,0.2578018844932311,1.3269002630215396,0.9351589174506847,0.2879156375,0.6592353891468374
0.027,1.781775,1.0,2623.36906837767,0.2619650280845561,1.3264889535133642,0.9370027703941892,0.28788755,0.6600923572504731
0.0275,1.7810970631269372,1.0,2634.479409713237,0.266104818379353,1.3260798859595109,0.9387590088020122,0.28785907665133137,0.6609435840964043
0.028,1.7804186641254225,1.0,2645.3581074427484,0.2702213909476584,1.3256729651890697,0.9404331371110481,0.28783058389326777,0.6617892849010172
0.0285,1.7797402651239078,1.0,2656.0284568210113,0.27431487385883946,1.3252681707352438,0.9420302436286441,0.2878020911352041,0.6626295188346565
0.029,1.7790618661223934,1.0,2666.4912913998696,0.27838539518226324,1.3248654821312367,0.9435550303205259,0.2877735983771405,0.6634643447692575
0.029500000000000002,1.7783834671208787,1.0,2676.7474919018673,0.28243308298729686,1.324464878910251,0.9450118471232467,0.2877451056190769,0.66429382128111
0.03,1.777705068119364,1.0,2686.7979852695303,0.2864580653433075,1.3240663406054904,0.9464047228024631,0.2877166128610133,0.6651180066535914
0.0305,1.7770266691178493,1.0,2696.6437437235713,0.29046047031966227,1.3236698467501582,0.947737392742112,0.28768812010294964,0.665936958879876
0.031,1.7763482701163347,1.0,2706.286549795508,0.29444040369639257,1.3232753698853317,0.9490133158145847,0.28765962734488604,0.6667507500813201
0.0315,1.77566987111482,1.0,2715.7292504237007,0.2983980014303443,1.3228828732968818,0.9502357146840077,0.28763113458682243,0.6675594710827479
0.032,1.7749914721133053,1.0,2724.97486967453,0.3023334212568932,1.3224923191546665,0.9514075930121835,0.28760264182875883,0.6683632145607294
0.0325,1.7743130731117907,1.0,2734.0274946332283,0.3062467819038284,1.322103660461525,0.9525317340475585,0.28757414907069523,0.6691620915729802
0.033,1.773634674110276,1.0,2742.891270978122,0.31013820209893894,1.3217168502202974,0.9536107317674392,0.28754565631263157,0.6699562126413607
0.0335,1.7729562751087613,1.0,2751.570401030164,0.31400780057001376,1.3213318414338227,0.9546470060308173,0.28751716355456797,0.6707456877574893
0.034,1.7722778761072466,1.0,2760.0691418509728,0.317855696044842,1.3209485871049407,0.9556428163468752,0.28748867079650436,0.6715306263882089
0.0345,1.771599477105732,1.0,2768.391803390504,0.32168200725121254,1.3205670402364909,0.956600274400264,0.2874601780384407,0.6723111374809185
0.035,1.7709210781042173,1.0,2776.5427466835554,0.32548685291691454,1.3201871538313128,0.957521355458472,0.2874316852803771,0.6730873294687604
0.035500000000000004,1.7702426791027026,1.0,2784.5263820945606,0.329270351769737,1.319808880892246,0.9584079087727507,0.2874031925223135,0.6738593102756674
0.036000000000000004,1.769564280101188,1.0,2792.347167612331,0.33303262253746896,1.3194321744221296,0.9592616670718608,0.2873746997642499,0.6746271873212697
0.0365,1.7688858810996733,1.0,2800.0096071930197,0.33677378394789936,1.3190569874238036,0.9600842552371406,0.2873462070061863,0.6753910675256596
0.037,1.7682074820981586,1.0,2807.5182491526125,0.3404939547288174,1.3186832729001075,0.9608771982379136,0.2873177142481227,0.6761510573140168
0.0375,1.767529083096644,1.0,2814.8776846078276,0.34419325360801195,1.3183109838538807,0.9616419283978521,0.28728922149005903,0.6769072626210922
0.038,1.7668506840951292,1.0,2822.0925459667533,0.34787179931327217,1.3179400732879627,0.9623797920555056,0.28726072873199543,0.6776597888955513
0.0385,1.7661722850936146,1.0,2829.1675054674542,0.3515297105723871,1.317570494205193,0.9630920556756101,0.2872322359739318,0.6784087411041759
0.039,1.7654938860921001,1.0,2836.1072737662516,0.3551671061131456,1.3172021996084111,0.9637799114619751,0.28720374321586817,0.6791542237359238
0.0395,1.7648154870905854,1.0,2842.9162988794155,0.3587841028413926,1.3168351451696856,0.9644444824134589,0.28717525045780457,0.6798963354123222
0.04,1.7641370880890708,1.0,2849.5885805656176,0.3623807508309942,1.3164693798144531,0.9650868231549933,0.28714675769974096,0.6806349860964778
0.0405,1.763458689087556,1.0,2856.1434878582095,0.3659572546127734,1.3161047269077037,0.9657079371321856,0.28711826494167736,0.6813705409011672
0.041,1.7627802900860414,1.0,2862.58379289799,0.3695137207783488,1.3157411580168945,0.9663087665312149,0.28708977218361376,0.682103064841041
0.0415,1.7621018910845268,1.0,2868.912290202369,0.3730502559193389,1.3153786447094826,0.9668902014384256,0.28706127942555015,0.6828326226441643
0.042,1.761423492083012,1.0,2875.1317959910043,0.3765669666273623,1.3150171585529247,0.9674530832606573,0.2870327866674865,0.6835592787539589
0.0425,1.7607450930814974,1.0,2881.245147529569,0.3800639594940375,1.314656671114678,0.9679982078872361,0.2870042939094229,0.6842830973310884
0.043000000000000003,1.7600666940799827,1.0,2887.2552024908027,0.38354134111098304,1.3142971539621997,0.9685263286155846,0.2869758011513593,0.6850041422552977
0.043500000000000004,1.759388295078468,1.0,2893.1648383340885,0.3869992180698176,1.3139385786629465,0.9690381588603351,0.28694730839329563,0.6857224771271969
0.044,1.7587098960769534,1.0,2898.9769517028903,0.39043769696215946,1.3135809167843755,0.9695343746639895,0.286918815635232,0.6864381652699955
0.0445,1.7580314970754387,1.0,2904.694457839741,0.39385688437962746,1.3132241398939437,0.9700156170254933,0.2868903228771684,0.6871512697311837
0.045,1.757353098073924,1.0,2910.3202900195593,0.39725688691384,1.3128682195591082,0.9704824940616023,0.2868618301191048,0.6878618532841636
0.0455,1.7566746990724094,1.0,2915.8573990005207,0.40063781115641567,1.312513127347326,0.9709355830145764,0.2868333373610412,0.6885699784298277
0.046,1.7559963000708947,1.0,2921.3087524932525,0.403999763698973,1.3121588348260542,0.971375432118515,0.28680484460297756,0.6892757073980873
0.0465,1.75531790106938,1.0,2926.67733464786,0.40734285113313057,1.3118053135627497,0.9718025623355557,0.28677635184491396,0.6899791021493475
0.047,1.7546395020678653,1.0,2931.966145558393,0.41066718005050684,1.3114525351248694,0.9722174689721764,0.28674785908685035,0.6906802243759311
0.0475,1.7539611030663507,1.0,2937.178200785816,0.4139728570427205,1.3111004710798704,0.972620623184937,0.2867193663287867,0.6913791355034526
0.048,1.753282704064836,1.0,2942.316530898836,0.41725998870139,1.31074909299521,0.9730124733842007,0.2866908735707231,0.6920758966921376
0.0485,1.7526043050633213,1.0,2947.384181032312,0.42052868161813395,1.3103983724383448,0.9733934465436345,0.2866623808126595,0.6927705688380951
0.049,1.7519259060618069,1.0,2952.384210463793,0.42377904238457076,1.310048280976732,0.9737639494226329,0.2866338880545959,0.6934632125745327
0.0495,1.7512475070602922,1.0,2957.3196922081816,0.4270111775923192,1.3096987901778285,0.9741243697082017,0.2866053952965323,0.6941538882729252
0.05,1.7505691080587775,1.0,2962.190176274242,0.43022516292435703,1.3093499024648838,0.9744750755683549,0.2865769025384687,0.6948425951688995
0.0505,1.7498907090572628,1.0,2966.9995664836474,0.4334211232041717,1.309001582316634,0.9748164214095849,0.286548409780405,0.6955294072889554
0.051000000000000004,1.7492123100557482,1.0,2971.7512991922085,0.43659917392755926,1.3086537984186144,0.9751487446548216,0.2865199170223414,0.696214390056637
0.051500000000000004,1.7485339110542335,1.0,2976.4467916142953,0.4397594109140447,1.3083065371491676,0.975472366455204,0.2864914242642778,0.6968975738236256
0.052000000000000005,1.7478555120527188,1.0,2981.087467752461,0.44290192998315264,1.3079597848866362,0.975787593630255,0.28646293150621416,0.6975789888156146
0.0525,1.7471771130512042,1.0,2985.6747582417925,0.446026826954408,1.3076135280093635,0.9760947194321394,0.28643443874815055,0.6982586651327569
0.053,1.7464987140496895,1.0,2990.2101001980404,0.44913419764733553,1.3072677528956917,0.9763940242627762,0.28640594599008695,0.6989366327501024
0.0535,1.7458203150481748,1.0,2994.694937070022,0.4522241378814601,1.3069224459239643,0.9766857763470905,0.28637745323202335,0.6996129215180205
0.054,1.7451419160466601,1.0,2999.1307184964962,0.4552967434763065,1.3065775934725237,0.9769702323654454,0.28634896047395975,0.7002875611626149
0.0545,1.7444635170451455,1.0,3003.5189001663475,0.45835211025139955,1.3062331819197128,0.9772476380480493,0.2863204677158961,0.7009605812861227
0.055,1.7437851180436308,1.0,3007.860943684031,0.461390334026264,1.3058891976438745,0.9775182287339309,0.2862919749578325,0.7016320113673047
0.0555,1.7431067190421161,1.0,3012.158316437712,0.4644115106204247,1.3055456270233516,0.9777822298968725,0.2862634821997689,0.7023018807618204
0.056,1.7424283200406014,1.0,3016.4124914728313,0.4674157358534064,1.3052024564364868,0.9780398576405086,0.2862349894417052,0.7029702187025968
0.0565,1.7417499210390868,1.0,3020.624947369132,0.47040310554473397,1.304859672261623,0.9782913191646462,0.2862064966836416,0.703637054300178
0.057,1.741071522037572,1.0,3024.797168121724,0.47337371551393226,1.3045172608771032,0.9785368132046915,0.286178003925578,0.7043024165430686
0.0575,1.7403931230360574,1.0,3028.93064302655,0.476327661580526,1.3041752086612701,0.9787765304459481,0.2861495111675144,0.7049663342980637
0.058,1.7397147240345427,1.0,3033.0268665698827,0.47926503956403993,1.3038335019924663,0.9790106539144108,0.2861210184094508,0.7056288363105676
0.0585,1.739036325033028,1.0,3037.0873383218773,0.482185945283999,1.303492127249035,0.979239359345568,0.2860925256513872,0.7062899512048966
0.059000000000000004,1.7383579260315134,1.0,3041.111101614094,0.4850904313350059,1.3031510920037417,0.9794628131031767,0.28606403289332355,0.7069496665080961
0.059500000000000004,1.737679527029999,1.0,3045.101124662132,0.487978629242444,1.3028103700394114,0.9796811797366147,0.28603554013525995,0.7076080350656722
0.06,1.7370011280284843,1.0,3049.059307152373,0.49085064783288423,1.302469944402969,0.9798946159989521,0.28600704737719634,0.7082650916226557
0.0605,1.7363227290269696,1.0,3052.986321857939,0.4937065729771623,1.3021298087353672,0.9801032713218351,0.28597855461913274,0.708920850362023
0.061,1.735644330025455,1.0,3056.8828440236557,0.4965464905461139,1.3017899566775588,0.9803072894423016,0.2859500618610691,0.70957532540994
0.0615,1.7349659310239403,1.0,3060.7495513254466,0.49937048641057463,1.3014503818704963,0.9805068086632469,0.2859215691030055,0.7102285308358799
0.062,1.7342875320224256,1.0,3064.58712383083,0.5021786464413802,1.301111077955133,0.9807019621000697,0.2858930763449419,0.7108804806527356
0.0625,1.733609133020911,1.0,3068.396243960207,0.5049710565093661,1.300772038572421,0.9808928779143279,0.2858645835868783,0.7115311888169326
0.063,1.7329307340193962,1.0,3072.177596449256,0.5077478024853682,1.3004332573633133,0.9810796795351827,0.28583609082881467,0.7121806692285368
0.0635,1.7322523350178816,1.0,3075.931868311981,0.5105089702402221,1.3000947279687627,0.9812624858693519,0.285807598070751,0.7128289357313595
0.064,1.7315739360163669,1.0,3079.659748804865,0.5132546456447633,1.2997564440297216,0.9814414115002529,0.2857791053126874,0.7134760021130625
0.0645,1.7308955370148522,1.0,3083.361929391745,0.5159849145698276,1.299418399187143,0.9816165668769649,0.2857506125546238,0.7141218821052572
0.065,1.7302171380133375,1.0,3087.0391037094073,0.5186998628862508,1.2990805870819797,0.9817880584936026,0.28572211979656015,0.7147665893836045
0.0655,1.7295387390118229,1.0,3090.691967534992,0.5213995764648682,1.2987430013551842,0.9819559890596521,0.28569362703849654,0.7154101375679096
0.066,1.7288603400103082,1.0,3094.3212187529275,0.5240841411765157,1.2984056356477092,0.9821204576617891,0.28566513428043294,0.7160525402222151
0.0665,1.7281819410087935,1.0,3097.9275573237414,0.526753642892029,1.2980684836005074,0.9822815599176589,0.28563664152236934,0.7166938108548917
0.067,1.7275035420072788,1.0,3101.5116852535243,0.5294081674822435,1.2977315388545319,0.9824393881220762,0.28560814876430574,0.7173339629187258
0.0675,1.7268251430057642,1.0,3105.074306564217,0.5320478008179951,1.297394795050735,0.9825940313860668,0.2855796560062421,0.7179730098110055
0.068,1.7261467440042495,1.0,3108.6161272650434,0.5346726287701193,1.2970582458300695,0.9827455757691497,0.2855511632481785,0.7186109648736034
0.0685,1.7254683450027348,1.0,3112.1378553240334,0.5372827372094519,1.2967218848334883,0.9828941044052315,0.28552267049011487,0.7192478413930552
0.069,1.7247899460012204,1.0,3115.6399608363267,0.5398782030447816,1.2963857077421437,0.9830396971625966,0.28549417773205127,0.719883648744224
0.0695,1.7241115469997057,1.0,3119.1220021268045,0.5424590768231689,1.2960497180016,0.9831824299881993,0.2854656849739876,0.7205183816045062
0.07,1.723433147998191,1.0,3122.585795605535,0.5450254953457351,1.2957138998618873,0.9833223806647992,0.285437192215924,0.7211520708816125
0.07050000000000001,1.7227547489966764,1.0,3126.031658415326,0.5475775351136456,1.2953782503438784,0.9834596213399834,0.2854086994578604,0.7217847232901438
