Time [s],Phi [rad],STIM [ ],Fsee [N],Gamma [ ],Lcerel [ ],q [ ],Lmtc [m],fisomrel [ ]
0.0,1.8,1.0,19.423106822993244,0.0012322484623104155,1.379179808270126,0.005389294213487889,0.288653,0.5415263807405307
0.0005,1.79999375,1.0,20.082468273651386,0.006834545831707834,1.3791065306831107,0.016678605032172656,0.2886527375,0.5417035663055345
0.001,1.799975,1.0,24.337432296137276,0.012405418742502913,1.3786688139171286,0.04225811698935241,0.28865195,0.5427612543577649
0.0015,1.79994375,1.0,35.894546524109124,0.017945043461130433,1.377649934742119,0.07951821529443465,0.2886506375,0.5452185165474277
0.002,1.7999,1.0,62.498797021715674,0.0234535952653605,1.3758119298018123,0.1251587453026285,0.2886488,0.5496345453400437
0.0025,1.79984375,1.0,110.86766170079613,0.028931248449227252,1.3732945705517186,0.17585792555966281,0.28864643749999996,0.5556478431014287
0.003,1.7997750000000001,1.0,178.0822418897918,0.03437817633006604,1.370589570564741,0.2288709465742514,0.28864354999999997,0.562064318203574
0.0035,1.79969375,1.0,256.62095965505637,0.03979455125161268,1.3680125834527754,0.282105816891678,0.2886401375,0.5681337322079529
0.004,1.7996,1.0,341.3764951374894,0.04518054459025251,1.3656366813498633,0.33401913815969936,0.2886362,0.573692019296743
0.0045000000000000005,1.7994937500000001,1.0,429.72668292740593,0.05053632677458645,1.363448421370097,0.38355715864382767,0.2886317375,0.5787794802410218
0.005,1.799375,1.0,520.156998008743,0.05586206719891275,1.3614220293738648,0.4300806956660147,0.28862675,0.5834633822808585
0.0055,1.79924375,1.0,611.6473154475732,0.06115793456685729,1.3595348761792867,0.4732698681896521,0.2886212375,0.5878018903403859
0.006,1.7991000000000001,1.0,703.3068259072313,0.06642409618104798,1.3577713656654016,0.5130346977770898,0.2886152,0.5918356183351834
0.006500000000000001,1.79894375,1.0,794.4862785627257,0.07166071883647787,1.356117823060936,0.5494369600601735,0.2886086375,0.595599796231951
0.007,1.798775,1.0,884.59704601277,0.07686796816846189,1.354564208735018,0.5826341833264823,0.28860155,0.5991206054978016
0.0075,1.79859375,1.0,973.1738536174983,0.08204600889406276,1.353101811217756,0.6128370201501382,0.2885939375,0.6024206342944523
0.008,1.7984,1.0,1059.845875294587,0.08719500510971062,1.3517230644725264,0.6402808200285353,0.2885858,0.605519406626451
0.0085,1.79819375,1.0,1144.2986271461107,0.0923151193152716,1.3504216162087934,0.6652070228659329,0.2885771375,0.608433325553626
0.009000000000000001,1.797975,1.0,1226.3108910763901,0.09740651350603208,1.3491914259063296,0.6878509667595109,0.28856795,0.6111777680915318
0.0095,1.79774375,1.0,1305.7359959477492,0.10246934960477509,1.34802681498961,0.7084351357193032,0.2885582375,0.6137670154597825
0.01,1.7975,1.0,1382.4324340346236,0.10750378705541043,1.3469231756296778,0.7271659786863334,0.288548,0.6162127238871804
0.0105,1.79724375,1.0,1456.3183636555282,0.11250998495311768,1.3458760476039102,0.7442319674396133,0.2885372375,0.6185260194320716
0.011,1.796975,1.0,1527.3566862560342,0.1174881018448233,1.3448812024140213,0.7598035606152678,0.28852595000000003,0.620717334889856
0.0115,1.79669375,1.0,1595.5508705201569,0.12243829609756486,1.3439345974352648,0.7740338914406778,0.2885141375,0.6227965328030688
0.012,1.7964,1.0,1660.8949345525639,0.1273607236383215,1.3430328792824642,0.787060128361917,0.28850180000000003,0.6247718231223928
0.0125,1.79609375,1.0,1723.4087150829312,0.13225553985347374,1.3421728640260957,0.7990045715323285,0.2884889375,0.6266509283296525
0.013000000000000001,1.7957750000000001,1.0,1783.1398900130769,0.13712289971659242,1.3413514592801508,0.8099760399835041,0.28847555,0.6284412667324987
0.0135,1.79544375,1.0,1840.1567770486122,0.14196295809826617,1.3405657010165795,0.8200712840041264,0.2884616375,0.6301498829435135
0.014,1.7951000000000001,1.0,1894.5171677418334,0.14677586790711608,1.3398130523634562,0.8293764085980256,0.2884472,0.6317828107252265
0.0145,1.79474375,1.0,1946.2779222899946,0.15156178069174384,1.3390912435353823,0.8379680108115839,0.2884322375,0.63334543545162
0.015,1.794375,1.0,1995.516424897804,0.15632084800075105,1.3383980047469601,0.8459141848532112,0.28841675,0.6348430815793251
0.0155,1.79399375,1.0,2042.3089139532478,0.16105322024974372,1.337731275228469,0.8532755868408785,0.2884007375,0.6362805667492097
0.016,1.7936,1.0,2086.764387335048,0.16575904882707823,1.337088822258376,0.8601061928680207,0.2883842,0.6376630290448371
0.0165,1.7931937500000001,1.0,2128.952107009613,0.17043848154048935,1.3364689812206552,0.866454312559198,0.2883671375,0.6389943388913725
0.017,1.792775,1.0,2168.9462710512034,0.17509166577314333,1.3358701591994413,0.8723631090127284,0.28834955,0.6402781765285139
0.0175,1.7923437500000001,1.0,2206.831788476149,0.17971874890820627,1.3352907632788695,0.8778711856993242,0.2883314375,0.6415181889664321
0.018000000000000002,1.7919,1.0,2242.6935627958383,0.18431987729866325,1.3347292988434298,0.8830131474053343,0.2883128,0.6427177821931946
0.0185,1.79144375,1.0,2276.625413013286,0.1888951981138242,1.3341842685794667,0.8878200405947789,0.2882936375,0.6438803400319096
0.019,1.790975,1.0,2308.7018161894475,0.19344485549668491,1.333654444369237,0.8923198292777034,0.28827395,0.6450086471704581
0.0195,1.79049375,1.0,2338.9938698397195,0.19796899243624513,1.3331386948456456,0.8965377043004176,0.2882537375,0.6461052614685581
0.02,1.79,1.0,2367.578353963711,0.20246775192150462,1.3326358886415959,0.900496374655754,0.288233,0.6471727218992852
0.0205,1.78949375,1.0,2394.5350408644517,0.2069412765849427,1.3321449158343437,0.9042163500817004,0.2882117375,0.6482135040988417
0.021,1.788975,1.0,2419.9356923315404,0.2113897076793379,1.3316647892324895,0.9077162057806628,0.28818995000000003,0.6492298073449244
0.021500000000000002,1.78844375,1.0,2443.8663271683513,0.21581318878436337,1.3311944234577484,0.9110127485097688,0.2881676375,0.6502240238217144
0.022,1.7879,1.0,2466.3837739703704,0.22021185803388066,1.330733049293662,0.9141212882380948,0.2881448,0.6511978638549623
0.0225,1.78734375,1.0,2487.54780977142,0.2245858535617514,1.3302798975237717,0.9170557356415616,0.28812143749999997,0.6521530270780831
0.023,1.786775,1.0,2507.420916977091,0.2289353135018371,1.3298341989316194,0.9198287493593214,0.28809755,0.6530912028543908
0.0235,1.78619375,1.0,2526.068053417576,0.2332603759879993,1.3293951843007459,0.9224518660110611,0.28807313749999996,0.6540140706615998
0.024,1.7856,1.0,2543.547560505442,0.23756117707897867,1.3289621679819368,0.9249356292076989,0.2880482,0.6549231251167857
0.0245,1.78499375,1.0,2559.9242042937162,0.24183785561495041,1.3285344222405706,0.9272896698462205,0.2880227375,0.6558199406985155
0.025,1.784375,1.0,2575.252138614832,0.24609054726879515,1.3281113357051588,0.9295228214012341,0.28799675,0.6567058398653589
0.025500000000000002,1.78374375,1.0,2589.576199235677,0.2503193848354955,1.3276923980875468,0.9316431953720026,0.2879702375,0.6575819267717882
0.026000000000000002,1.7831000000000001,1.0,2602.9424884716764,0.2545245011100341,1.327277099099579,0.9336582357925806,0.2879432,0.6584492997607281
0.0265,1.78244375,1.0,2615.3982672644674,0.25870602888739364,1.3268649284531007,0.9355747831548845,0.2879156375,0.6593090514902723
0.027,1.781775,1.0,2626.991853033265,0.26286410096255675,1.3264553758599569,0.9373991314305505,0.28788755,0.6601622690437956
0.0275,1.7810937500000001,1.0,2637.765365136172,0.2669988486857873,1.3260479972186714,0.9391370883647885,0.2878589375,0.6610098963957056
0.028,1.7804,1.0,2647.7636647972986,0.2711104030609907,1.325642330647196,0.9407940080350936,0.2878298,0.6618529097278771
0.0285,1.7796990191347415,1.0,2657.28482987506,0.2751988985231113,1.3252379680537496,0.9423748438564755,0.2878003588036592,0.6626921688018755
0.029,1.7789979964327045,1.0,2666.676819558383,0.27926446207901595,1.3248349315959664,0.9438842325552583,0.28777091585017356,0.6635276378030734
0.029500000000000002,1.7782969737306675,1.0,2675.9385049636458,0.2833072207355715,1.3244332434314814,0.9453264646035561,0.28774147289668806,0.6643592811113812
0.03,1.7775959510286308,1.0,2685.066705166536,0.2873273014996448,1.3240329257179286,0.9467055144917077,0.2877120299432025,0.6651870632993602
0.0305,1.7768949283265938,1.0,2694.0582351487747,0.29132483137810283,1.323634000612943,0.9480250679979256,0.28768258698971694,0.6660109491302986
0.031,1.7761939056245568,1.0,2702.909906476527,0.2952999373778124,1.3232364902741591,0.9492885467853737,0.2876531440362314,0.666830903556261
0.0315,1.7754928829225198,1.0,2711.6185279901824,0.2992527465056404,1.3228404168592114,0.9504991306173526,0.2876237010827458,0.6676468917161054
0.032,1.774791860220483,1.0,2720.1836014101923,0.30318338222819646,1.3224457779881449,0.9516597733948287,0.2875942581292603,0.6684589293929208
0.0325,1.774090837518446,1.0,2728.6040806201895,0.3070919729376557,1.3220525764010018,0.9527732278495935,0.2875648151757747,0.6692670217904237
0.033,1.7733898148164091,1.0,2736.881260554125,0.3109786407518302,1.3216607936949465,0.9538420554700968,0.2875353722222892,0.6700712174730137
0.0335,1.7726887921143724,1.0,2745.0167245608545,0.31484350721490306,1.3212704090866372,0.9548686457030813,0.28750592926880364,0.6708715696597729
0.034,1.7719877694123354,1.0,2753.0120827222113,0.3186866938710574,1.3208814017927324,0.9558552299695459,0.2874764863153181,0.6716681313250352
0.0345,1.7712867467102984,1.0,2760.868971213491,0.32250832226447645,1.3204937510298904,0.9568038939849831,0.2874470433618325,0.6724609552002252
0.035,1.7705857240082616,1.0,2768.589051673446,0.3263085139393433,1.320107436014769,0.9577165889821123,0.28741760040834696,0.6732500937756714
0.035500000000000004,1.7698847013062247,1.0,2776.1740252587656,0.3300873756829706,1.3197224358317658,0.958595138397402,0.28738815745486146,0.6740355995720739
0.036000000000000004,1.7691836786041877,1.0,2783.6264466735474,0.33384503524799114,1.3193387221014738,0.9594412552944089,0.2873587145013759,0.6748175400720589
0.0365,1.768482655902151,1.0,2790.9491777051985,0.33758163232773514,1.3189562639363948,0.9602565486622556,0.28732927154789034,0.6755959875501815
0.037,1.767781633200114,1.0,2798.144980242696,0.34129728040168705,1.3185750316035383,0.961042522897673,0.2872998285944048,0.676371011603331
0.0375,1.767080610498077,1.0,2805.2166433787397,0.34499209294933125,1.318194995369915,0.9618005912825532,0.2872703856409192,0.677142681510012
0.038,1.7663795877960402,1.0,2812.1669826116513,0.34866618345015205,1.3178161255025345,0.9625320825140474,0.2872409426874337,0.6779110662326444
0.0385,1.7656785650940032,1.0,2818.998839066246,0.35231966538363385,1.317438392268407,0.9632382466979116,0.2872114997339481,0.6786762344197991
0.039,1.7649775423919662,1.0,2825.715078735531,0.35595265222926104,1.3170617659345423,0.9639202608545788,0.2871820567804626,0.679438254408385
0.0395,1.7642765196899295,1.0,2832.3185917401115,0.359565257466518,1.3166862167679505,0.9645792339824154,0.28715261382697704,0.6801971942257738
0.04,1.7635754969878925,1.0,2838.8122916093926,0.3631575945748891,1.3163117150356416,0.9652162117181339,0.2871231708734915,0.680953121591872
0.0405,1.7628744742858555,1.0,2845.1991145805187,0.3667297770338588,1.3159382310046255,0.965832180630359,0.2870937279200059,0.681706103921135
0.041,1.7621734515838188,1.0,2851.4820189180095,0.3702819183229113,1.3155657349419125,0.9664280721787933,0.28706428496652037,0.6824562083245236
0.0415,1.7614724288817818,1.0,2857.663984252738,0.3738141319215312,1.3151941971145122,0.9670047663682495,0.28703484201303486,0.6832035016114095
0.042,1.7607714061797448,1.0,2863.748010939894,0.3773265313092027,1.3148235877894348,0.9675630951239993,0.28700539905954925,0.683948050291416
0.0425,1.760070383477708,1.0,2869.737119438038,0.38081922996541023,1.3144538772336904,0.9681038454123406,0.28697595610606375,0.6846899205762089
0.043000000000000003,1.759369360775671,1.0,2875.6343204516143,0.38429234109107924,1.3140850359733542,0.9686277621050705,0.2869465131525782,0.6854291778622984
0.043500000000000004,1.758668338073634,1.0,2881.4354689350967,0.38774590693411715,1.3137170980057908,0.9691355448223963,0.2869170701990926,0.6861657602641105
0.044,1.7579673153715973,1.0,2887.1533418590657,0.3911801310206527,1.3133499476818564,0.9696278694810666,0.28688762724560707,0.6868999052543937
0.0445,1.7572662926695604,1.0,2892.7898016515273,0.3945951155856978,1.3129835662187965,0.9701053690918324,0.2868581842921215,0.6876316558576665
0.045,1.7565652699675234,1.0,2898.3467230311467,0.3979909628642644,1.3126179348338567,0.9705686442943032,0.286828741338636,0.6883610549113983
0.0455,1.7558642472654866,1.0,2903.825992690938,0.40136777509136434,1.3122530347442825,0.9710182653272763,0.28679929838515045,0.6890881450669195
0.046,1.7551632245634496,1.0,2909.229508990216,0.4047256545020094,1.3118888471673196,0.9714547738607775,0.2867698554316649,0.6898129687903074
0.0465,1.7544622018614127,1.0,2914.5591816535607,0.4080647033312116,1.3115253533202134,0.9718786847007629,0.28674041247817933,0.6905355683632532
0.047,1.753761179159376,1.0,2919.816931478142,0.41138502381398273,1.3111625344202096,0.9722904873764614,0.28671096952469377,0.6912559858839027
0.0475,1.753060156457339,1.0,2925.004690048734,0.4146867181853347,1.310800371684554,0.9726906476194765,0.2866815265712082,0.6919742632676757
0.048,1.752359133755302,1.0,2930.124399460549,0.41796988868027934,1.3104388463304917,0.9730796087429743,0.28665208361772265,0.6926904422480656
0.0485,1.7516581110532652,1.0,2935.1780120500284,0.4212346375338286,1.3100779395752684,0.9734577929285794,0.28662264066423715,0.6934045643774114
0.049,1.7509570883512282,1.0,2940.167490132916,0.4244810669809943,1.30971763263613,0.9738256024279501,0.2865931977107516,0.6941166710276507
0.0495,1.7502560656491912,1.0,2945.0948057509986,0.42770927925678837,1.3093579067303216,0.9741834206854224,0.28656375475726603,0.6948268033910512
0.05,1.7495550429471542,1.0,2949.9619404260593,0.43091937659622265,1.3089987430750891,0.9745316133875813,0.2865343118037805,0.6955350024809155
0.0505,1.7488540202451175,1.0,2954.770884921821,0.434111461234309,1.308640122887678,0.9748705294451312,0.2865048688502949,0.6962413091322672
0.051000000000000004,1.7481529975430805,1.0,2959.523639013748,0.4372856354060593,1.3082820273853337,0.9752005019120046,0.2864754258968094,0.6969457640025138
0.051500000000000004,1.7474519748410435,1.0,2964.2222112663235,0.4404420013464855,1.307924437785302,0.9755218488462415,0.2864459829433238,0.6976484075720844
0.052000000000000005,1.7467509521390068,1.0,2968.8686188192155,0.44358066129059937,1.3075673353048285,0.9758348741168101,0.2864165399898383,0.6983492801450485
0.0525,1.7460499294369698,1.0,2973.4648871796194,0.4467017174734128,1.3072107011611587,0.9761398681602131,0.28638709703635273,0.6990484218497106
0.053,1.7453489067349328,1.0,2978.0130500238547,0.44980527212993776,1.306854516571538,0.9764371086904086,0.2863576540828672,0.6997458726391829
0.0535,1.744647884032896,1.0,2982.5137249745753,0.45289140729901245,1.306498775135923,0.9767268600977608,0.2863282111293816,0.7004416480873054
0.054,1.743946861330859,1.0,2986.967256923377,0.45596020918179997,1.3061434728548105,0.9770093760096108,0.28629876817589606,0.7011357590191196
0.0545,1.743245838628822,1.0,2991.3779782420506,0.45901182037744354,1.3057885711299655,0.9772849026616699,0.28626932522241055,0.7018282836935397
0.055,1.7425448159267853,1.0,2995.7468255058434,0.4620463321287961,1.305434060949775,0.9775536726416929,0.286239882268925,0.7025192423843404
0.0555,1.7418437932247484,1.0,3000.074739356516,0.4650638356787107,1.3050799333026253,0.9778159088208284,0.28621043931543944,0.7032086552808219
0.056,1.7411427705227114,1.0,3004.3626644242936,0.4680644222700404,1.3047261791769031,0.9780718248395879,0.2861809963619539,0.7038965424880291
0.0565,1.7404417478206746,1.0,3008.6115492527406,0.47104818314563834,1.3043727895609951,0.9783216255656626,0.2861515534084683,0.7045829240269712
0.057,1.7397407251186376,1.0,3012.8223462249016,0.4740152095483574,1.304019755443288,0.9785655075254327,0.28612211045498276,0.7052678198348322
0.0575,1.7390397024166007,1.0,3016.9960114912283,0.47696559272105077,1.3036670678121685,0.9788036593108841,0.2860926675014972,0.7059512497651783
0.058,1.738338679714564,1.0,3021.133504899834,0.47989942390657137,1.3033147176560231,0.979036261963517,0.2860632245480117,0.70663323358816
0.0585,1.737637657012527,1.0,3025.2357899275758,0.48281679434777225,1.3029626959632388,0.9792634893367249,0.28603378159452614,0.7073137909907083
0.059000000000000004,1.73693663431049,1.0,3029.3038336141863,0.48571779528750647,1.3026109937222017,0.9794855084380107,0.2860043386410406,0.7079929415767271
0.059500000000000004,1.7362356116084532,1.0,3033.338606497093,0.48860251796862714,1.3022596019212989,0.9797024797523107,0.285974895687555,0.7086707048672767
0.06,1.7355345889064162,1.0,3037.3410825486358,0.49147105363398713,1.3019085115489168,0.9799145575476114,0.28594545273406946,0.7093471003007574
0.0605,1.7348335662043792,1.0,3041.312239115074,0.4943234935264397,1.3015577135934422,0.9801218901639565,0.28591600978058396,0.7100221472330852
0.061,1.7341325435023425,1.0,3045.253056856849,0.4971599288888377,1.3012071990432617,0.9803246202868706,0.2858865668270984,0.7106958649378603
0.0615,1.7334315208003055,1.0,3049.164519691576,0.4999804509640343,1.300856958886762,0.9805228852061494,0.28585712387361284,0.7113682726065345
0.062,1.7327304980982685,1.0,3053.047614738011,0.5027851509948824,1.3005069841123296,0.9807168170609091,0.2858276809201273,0.7120393893485718
0.0625,1.7320294753962318,1.0,3056.903332262124,0.5055741202242352,1.3001572657083513,0.9809065430717173,0.2857982379666417,0.7127092341916014
0.063,1.7313284526941948,1.0,3060.732665625186,0.5083474498949457,1.2998077946632138,0.9810921857605858,0.28576879501315616,0.7133778260815695
0.0635,1.7306274299921578,1.0,3064.535725096628,0.5111052077959163,1.299458569566915,0.9812738618546042,0.2857393520596706,0.7140451693652332
0.064,1.729926407290121,1.0,3068.3130927124016,0.5138474832809464,1.299109584971916,0.9814516851977698,0.2857099091061851,0.7147112760775769
0.0645,1.729225384588084,1.0,3072.0665805899284,0.5165743967301767,1.2987608249082727,0.9816257671762283,0.28568046615269954,0.7153761782529605
0.065,1.728524361886047,1.0,3075.7966449979476,0.5192860297236732,1.2984122850577338,0.9817962130417967,0.285651023199214,0.7160398856078503
0.0655,1.7278233391840103,1.0,3079.5037437553815,0.5219824638415019,1.298063961102049,0.9819631243196313,0.2856215802457284,0.7167024078193757
0.066,1.7271223164819733,1.0,3083.1883362106664,0.5246637806637289,1.2977158487229676,0.982126598966958,0.28559213729224286,0.7173637545253924
0.0665,1.7264212937799364,1.0,3086.8508832212206,0.5273300617704199,1.2973679436022387,0.9822867315239484,0.2855626943387573,0.7180239353245401
0.067,1.7257202710778996,1.0,3090.4918471334977,0.5299813887416409,1.2970202414216119,0.9824436132571883,0.28553325138527175,0.7186829597762991
0.0675,1.7250192483758626,1.0,3094.111691763352,0.532617843157458,1.2966727378628364,0.9825973322961469,0.28550380843178624,0.7193408374010484
0.068,1.7243182256738256,1.0,3097.710882376429,0.5352395065979372,1.2963254286076618,0.9827479737630385,0.2854743654783007,0.7199975776801197
0.0685,1.7236172029717887,1.0,3101.2898856700185,0.5378464606431442,1.295978309337837,0.982895619896437,0.2854449225248151,0.7206531900558536
0.069,1.722916180269752,1.0,3104.849169754104,0.5404387868731454,1.2956313757351117,0.9830403501689873,0.28541547957132957,0.7213076839316493
0.0695,1.722215157567715,1.0,3108.389204133724,0.5430165668680064,1.295284623481235,0.983182241399533,0.285386036617844,0.7219610686720195
0.07,1.7215141348656782,1.0,3111.9104596912302,0.5455798822077934,1.2949380482579562,0.9833213678599613,0.2853565936643585,0.7226133536026387
0.07050000000000001,1.7208131121636412,1.0,3115.413408668993,0.5481288144725722,1.294591645747025,0.9834578013770472,0.28532715071087295,0.7232645480103933
