Time [s],Phi [rad],STIM [ ],Fsee [N],Gamma [ ],Lcerel [ ],q [ ],Lmtc [m],fisomrel [ ]
0.0,1.8,1.0,17.99721472249191,0.00017883664927985856,1.3793363802874878,0.00500833198359879,0.288653,0.5411476740764873
0.0005,1.79999375,1.0,18.36194574558283,0.005787042825937327,1.3792929345546086,0.013415883488515811,0.2886527375,0.541252773587224
0.001,1.799975,1.0,21.829034446672587,0.011363791400065017,1.3789168391794413,0.03649380661970647,0.28865195,0.5421620822265989
0.0015,1.79994375,1.0,31.549916521527614,0.01690925882490392,1.3780054085820295,0.0718099290252016,0.2886506375,0.5443619613607557
0.002,1.7999,1.0,54.600678083341606,0.022423620561866836,1.3763023811769342,0.11614650269392375,0.2886488,0.548458284185489
0.0025,1.79984375,1.0,98.81561543148575,0.02790705108911582,1.3738537624049523,0.16612752977803366,0.28864643749999996,0.5543155750499411
0.003,1.7997750000000001,1.0,163.15618876633826,0.03335972390780797,1.371132348682066,0.21888133897917939,0.28864354999999997,0.5607805477096093
0.0035,1.79969375,1.0,240.16150634500121,0.03878181154292381,1.3685085978357043,0.27220453204124323,0.2886401375,0.5669687924781988
0.004,1.7996,1.0,324.100176565869,0.044173485553653226,1.3660864858108777,0.3244565140441158,0.2886362,0.572642490135976
0.0045000000000000005,1.7994937500000001,1.0,411.9925999973892,0.04953491653870621,1.3638589576801052,0.37449674740457284,0.2886317375,0.5778273562370771
0.005,1.799375,1.0,502.19225490750864,0.054866274128179834,1.3617993760331137,0.42161529221253025,0.28862675,0.5825931489223519
0.0055,1.79924375,1.0,593.5923451431162,0.06016772702252342,1.359884156913091,0.46543996773819246,0.2886212375,0.5870006173563573
0.006,1.7991000000000001,1.0,685.3211972546585,0.06543944295681252,1.3580955142601108,0.5058435833628907,0.2886152,0.5910956717690905
0.006500000000000001,1.79894375,1.0,776.666051909555,0.07068158872361303,1.3564197580452895,0.542864660465916,0.2886086375,0.5949137629940604
0.007,1.798775,1.0,867.0361574900659,0.07589433022425464,1.3548460033787648,0.5766463022319381,0.28860155,0.5984831437695077
0.0075,1.79859375,1.0,955.9429022212914,0.08107783228872467,1.3533652845765354,0.6073917229234601,0.2885939375,0.6018270907402556
0.008,1.7984,1.0,1043.0058459563825,0.08623225915377983,1.3519696936054573,0.6353332431869917,0.2885858,0.604965991018114
0.0085,1.79819375,1.0,1127.9016635137168,0.09135777364407076,1.3506526339487603,0.6607122197213471,0.2885771375,0.6079168695943773
0.009000000000000001,1.797975,1.0,1210.393928774035,0.09645453797193619,1.3494079785145356,0.6837657551691909,0.28856795,0.6106953588979139
0.0095,1.79774375,1.0,1290.3156723179775,0.10152271376084357,1.348230069931553,0.7047191351735518,0.2885582375,0.6133157474345208
0.01,1.7975,1.0,1367.5231187479512,0.10656246088891519,1.3471141164716383,0.7237819734272117,0.288548,0.6157901471495981
0.0105,1.79724375,1.0,1441.9304877476766,0.11157393870978859,1.3460555344230374,0.7411460891959016,0.2885372375,0.6181299971147514
0.011,1.796975,1.0,1513.5111583810553,0.11655730665234676,1.3450498244180769,0.7569851682962803,0.28852595000000003,0.6203463605518315
0.0115,1.79669375,1.0,1582.2351918583527,0.12151272193920593,1.3440932343691163,0.7714556651443328,0.2885141375,0.6224484887162003
0.012,1.7964,1.0,1648.0949843379378,0.12644034086828562,1.3431823182115517,0.7846976464361366,0.28850180000000003,0.6244448229175552
0.0125,1.79609375,1.0,1711.1202331266875,0.1313403194561536,1.3423136851208926,0.7968360058871541,0.2884889375,0.6263435617951354
0.013000000000000001,1.7957750000000001,1.0,1771.3651736672132,0.13621281339583954,1.3414840960255385,0.8079819273707458,0.28847555,0.6281524622500663
0.0135,1.79544375,1.0,1828.8810984117724,0.1410579769848226,1.3406907181339724,0.8182343824792324,0.2884616375,0.6298782990349431
0.014,1.7951000000000001,1.0,1883.714385036025,0.14587596267862282,1.339931082843894,0.8276814259989631,0.2884472,0.6315269735860258
0.0145,1.79474375,1.0,1935.9354069387539,0.1506669229327603,1.3392027215530034,0.8364012881122811,0.2884322375,0.633104316616823
0.015,1.794375,1.0,1985.619006336849,0.15543100917742073,1.3385033515043623,0.8444635702958055,0.28841675,0.6346156920290631
0.0155,1.79399375,1.0,2032.8670509645754,0.1601683738196407,1.33783060677067,0.8519301659837425,0.2884007375,0.636066585232656
0.016,1.7936,1.0,2077.7493411226405,0.1648791658812803,1.337182640748338,0.8588563574488918,0.2883842,0.6374613098787538
0.0165,1.7931937500000001,1.0,2120.3377705336716,0.1695635335933508,1.3365577307893042,0.8652914717713035,0.2883671375,0.6388038706822521
0.017,1.792775,1.0,2160.7166820692046,0.17422162518686346,1.335954154245507,0.8712795490427157,0.28834955,0.6400982342002111
0.0175,1.7923437500000001,1.0,2198.9745104578046,0.17885358812460941,1.3353702623343897,0.8768599872181819,0.2883314375,0.6413481732836819
0.018000000000000002,1.7919,1.0,2235.204957115599,0.1834595701938186,1.3348044553122969,0.8820680812282855,0.2883128,0.6425573236703961
0.0185,1.79144375,1.0,2269.4886983183187,0.18803971719367274,1.3342553540231796,0.8869355437533096,0.2882936375,0.6437288211315015
0.019,1.790975,1.0,2301.895708457629,0.19259417286891484,1.333721761052047,0.8914909069887895,0.28827395,0.644865389669389
0.0195,1.79049375,1.0,2332.5024721243462,0.1971230809642877,1.3332024789839085,0.895759842580114,0.2882537375,0.6459697321395982
0.02,1.79,1.0,2361.3914384105356,0.20162658522453428,1.3326963104037735,0.8997654863490315,0.288233,0.6470445313894007
0.0205,1.78949375,1.0,2388.634635145188,0.2061048272746687,1.3322022121162211,0.9035287564480513,0.2882117375,0.6480921245697998
0.021,1.788975,1.0,2414.3255386289557,0.2105579519840345,1.3317189783591123,0.9070685320201544,0.28818995000000003,0.6491151766466414
0.021500000000000002,1.78844375,1.0,2438.52583809647,0.21498609894630516,1.3312457529704795,0.9104019813805397,0.2881676375,0.6501155967443242
0.022,1.7879,1.0,2461.2957872702123,0.21938940703767307,1.3307817266710888,0.9135446845522195,0.2881448,0.651095182718409
0.0225,1.78734375,1.0,2482.6987281929464,0.22376801513433073,1.3303260901817064,0.9165107936939717,0.28812143749999997,0.6520557211264897
0.023,1.786775,1.0,2502.8008321383722,0.2281220621124706,1.3298780342230987,0.9193131837297139,0.28809755,0.6529989876820923
0.0235,1.78619375,1.0,2521.6647055361345,0.2324516855754693,1.329436807670587,0.9219635955239096,0.28807313749999996,0.6539266254840967
0.024,1.7856,1.0,2539.3549939920886,0.23675702380266986,1.3290016615600146,0.9244727428489021,0.2880482,0.6548402636822372
0.0245,1.78499375,1.0,2555.93562113361,0.2410382146487923,1.3285718730960026,0.9268504200644395,0.2880227375,0.6557414675069656
0.025,1.784375,1.0,2571.4527816037225,0.24529539173430837,1.3281469027576054,0.9291056190676681,0.28799675,0.6566314101103019
0.025500000000000002,1.78374375,1.0,2585.9541202816713,0.2495286886796898,1.327726211023878,0.9312465787260812,0.2879702375,0.6575112583161118
0.026000000000000002,1.7831000000000001,1.0,2599.4886103479002,0.2537382391054084,1.3273092583738744,0.9332808581654455,0.2879432,0.6583821727766083
0.0265,1.78244375,1.0,2612.1064378025812,0.2579241766319358,1.3268955052866493,0.9352154020312031,0.2879156375,0.6592453081102877
0.027,1.781775,1.0,2623.854426288468,0.26208663367355456,1.3264844536460543,0.9370566045811474,0.28788755,0.6601017268094307
0.0275,1.7810937500000001,1.0,2634.7754925263025,0.26622574214532735,1.3260756503999778,0.9388103618027974,0.2878589375,0.6609523922711463
0.028,1.7804,1.0,2644.9249897161894,0.2703416366901129,1.3256685353901103,0.9404820960162861,0.2878298,0.661798485512948
0.0285,1.77969375,1.0,2654.3365555639293,0.27443444533823996,1.3252627563855228,0.9420768410042696,0.2878001375,0.6626407503459568
0.029,1.778975,1.0,2663.0444343551017,0.27850429612003735,1.3248579611552853,0.9435992495117388,0.28776995,0.663479926894232
0.029500000000000002,1.7782437500000001,1.0,2671.0834238111697,0.28255131706583386,1.3244537974684685,0.9450536270073043,0.2877392375,0.6643167516208228
0.03,1.7775,1.0,2678.48882469595,0.28657563620595816,1.324049913094143,0.9464439620499103,0.287708,0.6651519573459133
0.0305,1.77674375,1.0,2685.296393173536,0.2905773815707391,1.3236459558013793,0.9477739536392272,0.2876762375,0.6659862732570524
0.031,1.775975,1.0,2691.5380606155763,0.2945566796870093,1.3232416121270523,0.9490470403405108,0.28764395,0.6668203449920418
0.0315,1.7751937500000001,1.0,2697.2434263946648,0.2985136572614607,1.3228365931353185,0.9502664208458864,0.2876111375,0.6676547644540205
0.032,1.7744,1.0,2702.4488275113576,0.3024484422106799,1.3224305511244883,0.95143506394844,0.2875778,0.6684902413952767
0.0325,1.77359375,1.0,2707.1776888685645,0.30636115697972366,1.3220232589451102,0.952555747001424,0.2875439375,0.669327234369804
0.033,1.772775,1.0,2711.453655374164,0.3102519240136488,1.3216144894477333,0.9536310586493892,0.28750955,0.6701661995448783
0.0335,1.7719437500000002,1.0,2715.300570378862,0.3141208657575122,1.3212040154829066,0.9546634139184645,0.2874746375,0.6710075906813033
0.034,1.7711000000000001,1.0,2718.7424552577004,0.31796810465637054,1.3207916099011785,0.9556550679287961,0.2874392,0.6718518591103639
0.0345,1.7702437500000001,1.0,2721.8034901360047,0.3217937631552806,1.320377045553098,0.9566081283695235,0.2874032375,0.6726994537074876
0.035,1.7693750000000001,1.0,2724.503100946558,0.3255979601105184,1.3199601398219702,0.95752457076113,0.28736675,0.6735507299907693
0.035500000000000004,1.76849375,1.0,2726.8632944766746,0.329380818153172,1.319540687667823,0.9584062431951713,0.2873297375,0.6744060871325726
0.036000000000000004,1.7676,1.0,2728.9103075325925,0.33314246262228675,1.3191184465591859,0.9592548740919334,0.2872922,0.6752659982960842
0.0365,1.76669375,1.0,2730.6590579105596,0.3368830097682093,1.3186932777141906,0.960072092797092,0.2872541375,0.676130723022276
0.037,1.765775,1.0,2732.124533801868,0.34060257584128634,1.3182650423509694,0.960859428470117,0.28721555,0.6770005191879325
0.0375,1.76484375,1.0,2733.3217856449423,0.3443012770918646,1.3178336016876542,0.9616183173616323,0.2871764375,0.6778756429791251
0.038,1.7639,1.0,2734.2659184044287,0.3479792297702907,1.3173988169423771,0.9623501094846733,0.28713679999999997,0.6787563488634547
0.0385,1.76294375,1.0,2734.972084277182,0.3516365501269115,1.3169605493332703,0.9630560747364184,0.28709663750000003,0.6796428895610699
0.039,1.761975,1.0,2735.4554758251606,0.3552733544120735,1.3165186600784655,0.9637374085211525,0.28705595,0.6805355160144542
0.0395,1.7609937500000001,1.0,2735.7313195360975,0.35888975887612357,1.3160730103960947,0.9643952369200548,0.2870147375,0.681434477356984
0.04,1.76,1.0,2735.811679541548,0.36248587521516873,1.3156234904691462,0.9650306231984961,0.286973,0.6823399625767628
0.0405,1.7589937500000001,1.0,2735.7072024235163,0.3660618152873906,1.3151700035557636,0.9656445715364914,0.2869307375,0.6832521328401147
0.041,1.757975,1.0,2735.438089912887,0.3696177060178955,1.3147123663250637,0.9662380249616398,0.28688795,0.6841713216903027
0.0415,1.75694375,1.0,2735.012381592091,0.37315365640630654,1.3142505059945122,0.9668118805042925,0.2868446375,0.6850976386549523
0.042,1.7559,1.0,2734.438128470134,0.37666977545224706,1.3137843497815749,0.9673669860012272,0.28680079999999997,0.6860311920668185
0.0425,1.75484375,1.0,2733.723390746705,0.38016617215534027,1.3133138249037173,0.9679041432932765,0.2867564375,0.6869720890440141
0.043000000000000003,1.753775,1.0,2732.876235693144,0.38364295551520944,1.312838858578405,0.9684241111837558,0.28671155,0.6879204354699002
0.043500000000000004,1.75269375,1.0,2731.904735651878,0.3871002345314778,1.312359378023104,0.9689276081778194,0.28666613750000003,0.6888763359726391
0.044,1.7516,1.0,2730.816966151962,0.3905381182037685,1.31187531045528,0.9694153150210066,0.2866202,0.6898398939044091
0.0445,1.75049375,1.0,2729.6210041436684,0.39395671553170497,1.3113865830923987,0.9698878770535445,0.2865737375,0.6908112113202827
0.045,1.7493750000000001,1.0,2728.3249263490275,0.3973561355149104,1.3108931231519256,0.970345906395472,0.28652675,0.6917903889567654
0.0455,1.74824375,1.0,2726.936807730696,0.40073648715300797,1.3103948578513267,0.9707899839762762,0.2864792375,0.6927775262099958
0.046,1.7471,1.0,2725.4647200781424,0.4040978794456209,1.3098917144080675,0.9712206614215113,0.2864312,0.693772721113612
0.0465,1.7459437500000001,1.0,2723.9143069046154,0.40744041870253644,1.309383642093671,0.9716384640650426,0.28638263750000004,0.6947760268011965
0.047,1.744775,1.0,2722.294215159414,0.41076420979434264,1.308870562818268,0.9720438890974828,0.28633355,0.6957875491847143
0.0475,1.74359375,1.0,2720.608686967382,0.4140693570345173,1.3083524385293768,0.97243741217543,0.28628393750000003,0.6968073139444737
0.048,1.7424,1.0,2718.8616183097265,0.41735596461296093,1.3078292343025884,0.972819486105175,0.2862338,0.6978353396322774
0.0485,1.74119375,1.0,2717.056902455934,0.4206241367195739,1.3073009152134938,0.9731905419557141,0.2861831375,0.6988716438423122
0.049,1.739975,1.0,2715.1680341094966,0.42387397521567666,1.3067677233480934,0.9735510090595401,0.28613195,0.6999157012494504
0.0495,1.73874375,1.0,2713.270740624024,0.4271055868465359,1.3062289691191435,0.9739012338166498,0.2860802375,0.700968808903784
0.05,1.7375,1.0,2711.3574066645124,0.43031907293453453,1.3056847220651775,0.9742415968434499,0.286028,0.7020307739028546
0.0505,1.73624375,1.0,2709.405434506323,0.4335145338638519,1.3051351885121165,0.9745724700993955,0.2859752375,0.7031011375372294
0.051000000000000004,1.7349762717887631,1.0,2707.4551917036024,0.4366920700186675,1.3045805747858825,0.9748942084816725,0.2859220034151281,0.7041794434410122
0.051500000000000004,1.733706910469378,1.0,2705.946357049387,0.43985178178316064,1.304021087212397,0.9752071507640984,0.2858686902397139,0.7052652376600514
0.052000000000000005,1.732437549149993,1.0,2704.9491042375976,0.4429937695415109,1.3034569321175815,0.9755116204765666,0.2858153770642997,0.7063580687174283
0.0525,1.731168187830608,1.0,2704.4424519336153,0.44611813306718495,1.3028882985137307,0.9758079255710006,0.28576206388888553,0.7074575211207181
0.053,1.7298988265112227,1.0,2704.38536140575,0.44922497090759084,1.3023155598956084,0.9760963718045451,0.28570875071347135,0.7085628260363673
0.0535,1.7286294651918377,1.0,2704.7237404321804,0.4523143840998817,1.3017392100554648,0.9763772592458352,0.28565543753805717,0.7096729882496942
0.054,1.7273601038724526,1.0,2705.4313454741277,0.4553864688075658,1.301159489272924,0.9766508589805477,0.285602124362643,0.710787506444106
0.0545,1.7260907425530676,1.0,2706.481998527057,0.4584413211941514,1.30057663782761,0.9769174304779707,0.28554881118722886,0.7119058826283475
0.055,1.7248213812336826,1.0,2707.849569802017,0.46147903742314683,1.2999908959991477,0.977177222192834,0.2854954980118147,0.7130276221863154
0.0555,1.7235520199142975,1.0,2709.5079616881176,0.4644997136580604,1.2994025040671613,0.977430472131212,0.2854421848364005,0.7141522339231934
0.056,1.7222826585949123,1.0,2711.431093994178,0.46750344606240035,1.2988117023112744,0.9776774083829208,0.2853888716609863,0.7152792301079028
0.0565,1.7210132972755272,1.0,2713.600501380803,0.4704903272374226,1.29821866162839,0.9779182452746662,0.2853355584855721,0.7164082584712113
0.057,1.7197439359561422,1.0,2715.988357829304,0.47346045573538037,1.297623638258445,0.9781531938057645,0.285282245310158,0.7175388072379028
0.0575,1.7184745746367571,1.0,2718.5726302370936,0.47641392760970563,1.2970268354897483,0.9783824531899843,0.28522893213474376,0.7186704687466391
0.058,1.717205213317372,1.0,2721.340599043363,0.47935083430757647,1.2964283716479132,0.9786062094579407,0.28517561895932964,0.7198029989865007
0.0585,1.715935851997987,1.0,2724.279537493221,0.48227126727617087,1.2958283650585531,0.9788246412387502,0.28512230578391545,0.7209361556976512
0.059000000000000004,1.7146664906786018,1.0,2727.3767074361663,0.48517531796266683,1.2952269340472813,0.979037920116142,0.28506899260850127,0.7220696983834255
0.059500000000000004,1.7133971293592167,1.0,2730.619355433279,0.48806307781424235,1.294624196939711,0.9792462109647797,0.2850156794330871,0.7232033883215255
0.06,1.7121277680398317,1.0,2733.9947091759477,0.4909346382780755,1.2940202720614558,0.9794496722680266,0.2849623662576729,0.7243369885743225
0.0605,1.7108584067204466,1.0,2737.489974214361,0.49379009080134423,1.293415277738129,0.9796484564183218,0.2849090530822588,0.7254702639982675
0.061,1.7095890454010616,1.0,2741.0923309966893,0.49662952683122663,1.2928093322953436,0.9798427100012355,0.2848557399068446,0.7266029812524077
0.0615,1.7083196840816766,1.0,2744.795508256465,0.4994530316102922,1.2922024944517576,0.9800325704362006,0.2848024267314304,0.727735019885748
0.062,1.7070503227622913,1.0,2748.5845486645603,0.5022607019640577,1.2915949014961845,0.9802181749954202,0.28474911355601623,0.7288661142265003
0.0625,1.7057809614429063,1.0,2752.450890153425,0.505052627518731,1.290986632490243,0.9803996522817074,0.28469580038060205,0.7299961087754727
0.063,1.7045116001235212,1.0,2756.389148260327,0.5078288944825174,1.290377737561276,0.9805771244152739,0.2846424872051879,0.731124902834167
0.0635,1.7032422388041362,1.0,2760.393925431071,0.510589589063622,1.2897682668366255,0.9807507090523693,0.2845891740297737,0.732252396474803
0.064,1.7019728774847511,1.0,2764.4598103529975,0.5133347974702498,1.2891582704436342,0.9809205195827548,0.28453586085435956,0.7333784905422389
0.0645,1.700703516165366,1.0,2768.581377341513,0.516064605910606,1.2885477985096452,0.9810866653170552,0.2844825476789454,0.7345030866557309
0.065,1.699434154845981,1.0,2772.753185785107,0.5187791005928958,1.2879369011620003,0.9812492516645833,0.2844292345035312,0.7356260872105371
0.0655,1.6981647935265958,1.0,2776.969779643796,0.5214783677253243,1.2873256285280428,0.9814083803021809,0.284375921328117,0.7367473953793533
0.066,1.6968954322072107,1.0,2781.2256870046754,0.5241624935160967,1.2867140307351148,0.9815641493345961,0.2843226081527028,0.7378669151135958
0.0665,1.6956260708878257,1.0,2785.51541969235,0.526831564173418,1.2861021579105592,0.9817166534468773,0.2842692949772887,0.7389845511445201
0.067,1.6943567095684406,1.0,2789.839228668169,0.5294856513832661,1.2854900084331153,0.9818659805822831,0.2842159818018745,0.7401003032042721
0.0675,1.6930873482490556,1.0,2794.1876679248708,0.5321248569098385,1.2848776678065574,0.982012221828561,0.28416266862646034,0.7412140127075788
0.068,1.6918179869296703,1.0,2798.556860376531,0.5347492665402794,1.2842651712806368,0.9821554617316675,0.28410935545104615,0.742325613510173
0.0685,1.6905486256102853,1.0,2802.944975544526,0.5373589603851304,1.283652535639225,0.9822957807414866,0.28405604227563197,0.7434350734229535
0.069,1.6892792642909003,1.0,2807.350177228984,0.5399540185549329,1.2830397776661935,0.9824332566090412,0.2840027291002178,0.7445423605187238
0.0695,1.6880099029715152,1.0,2811.7706234600414,0.5425345211602284,1.2824269141454143,0.9825679644961357,0.2839494159248036,0.7456474431323303
0.07,1.6867405416521302,1.0,2816.2044664555065,0.5451005483115584,1.2818139618607587,0.9826999770798266,0.2838961027493895,0.7467502898607872
0.07050000000000001,1.6854711803327451,1.0,2820.6498525843763,0.5476521801194644,1.2812009375960984,0.9828293646520018,0.2838427895739753,0.7478508695633774
0.07100000000000001,1.68420181901336,1.0,2825.1049223374926,0.5501894966944877,1.2805878581353052,0.9829561952143284,0.2837894763985611,0.7489491513617406
0.07150000000000001,1.6829324576939748,1.0,2829.5678103033797,0.55271257814717,1.2799747402622508,0.9830805345688094,0.28373616322314693,0.7500451046399401
0.07200000000000001,1.6816630963745898,1.0,2834.036645151228,0.5552215045880527,1.2793616007608064,0.9832024464041881,0.28368285004773275,0.7511386990445148
0.0725,1.6803937350552047,1.0,2838.5095496193894,0.5577163561276773,1.2787484564148441,0.9833219923784103,0.2836295368723186,0.7522299044845081
0.073,1.6791243737358197,1.0,2842.9846405104827,0.5601972128765853,1.2781353240082356,0.9834392321973515,0.28357622369690444,0.7533186911314853
