Time [s],Phi [rad],STIM [ ],Fsee [N],Gamma [ ],Lcerel [ ],q [ ],Lmtc [m],fisomrel [ ]
0.0,1.8,1.0,19.44444835713357,0.0012408758095366881,1.3791775092942402,0.005394738228800098,0.288653,0.5415319401958432
0.0005,1.79999375,1.0,20.105824598162947,0.006843124786337986,1.3791040563559884,0.016707409666771703,0.2886527375,0.5417095486429706
0.001,1.799975,1.0,24.365794042919276,0.012413949577295604,1.3786660845842709,0.04230701106694122,0.28865195,0.5427678456174039
0.0015,1.79994375,1.0,35.94016101191276,0.01795352644336508,1.3776463203269484,0.079582510062661,0.2886506375,0.5452272217586602
0.002,1.7999,1.0,62.57292208600093,0.0234620306645368,1.375807478491016,0.12523324848607142,0.2886488,0.5496452139994408
0.0025,1.79984375,1.0,110.97547300251735,0.028939636532934354,1.3732897093495628,0.17593790964605766,0.28864643749999996,0.5556594161151751
0.003,1.7997750000000001,1.0,178.21229296753035,0.034386517363163366,1.3705849434341333,0.22895275264945597,0.28864354999999997,0.5620752541451539
0.0035,1.79969375,1.0,256.76327436126064,0.03980284549789848,1.3680083652165507,0.282186667797665,0.2886401375,0.5681436324318938
0.004,1.7996,1.0,341.5236236181668,0.04518879231181655,1.3656329002292196,0.3340970838937608,0.2886362,0.5737008363200561
0.0045000000000000005,1.7994937500000001,1.0,429.87784219627287,0.050544528231351527,1.3634449588857902,0.38363089078558194,0.2886317375,0.5787875059327369
0.005,1.799375,1.0,520.3202742561158,0.055870222698533166,1.361418629920494,0.43014937342830156,0.28862675,0.5834712179413042
0.0055,1.79924375,1.0,611.7979757708379,0.06116604424635648,1.3595319834419919,0.4733334984865049,0.2886212375,0.5878085232215156
0.006,1.7991000000000001,1.0,703.4637805753407,0.06643216037974879,1.3577685552858894,0.5130930242588092,0.2886152,0.591842030767371
0.006500000000000001,1.79894375,1.0,794.6420216312107,0.07166873783897178,1.3561151992555305,0.5494902434139801,0.2886086375,0.5956057552907967
0.007,1.798775,1.0,884.743539919166,0.07687594211164109,1.3545618698104462,0.5826827854063747,0.28860155,0.5991258943766588
0.0075,1.79859375,1.0,973.3220719669663,0.08205393825256135,1.3530995550177323,0.6128811712180321,0.2885939375,0.6024257150710443
0.008,1.7984,1.0,1059.9868617839145,0.08720288986001316,1.3517210079708155,0.6403209661577912,0.2885858,0.6055240196173264
0.0085,1.79819375,1.0,1144.43408752806,0.09232295974639831,1.350419714617706,0.6652435096282263,0.2885771375,0.6084375752782065
0.009000000000000001,1.797975,1.0,1226.4562035399242,0.09741431039754009,1.3491894554033945,0.6878840282257652,0.28856795,0.6111821563618647
0.0095,1.79774375,1.0,1305.8719267697293,0.10247710251842401,1.3480250286405309,0.7084652456019855,0.2885582375,0.6137709803563702
0.01,1.7975,1.0,1382.555599264422,0.10751149617297356,1.3469216025748154,0.7271934552928251,0.288548,0.6162162042950314
0.0105,1.79724375,1.0,1456.4435795442225,0.11251765090653634,1.345874489453708,0.7442569879223875,0.2885372375,0.6185294564577067
0.011,1.796975,1.0,1527.4963204279945,0.11749572542700806,1.3448795057379648,0.7598263078253782,0.28852595000000003,0.6207210667153608
0.0115,1.79669375,1.0,1595.681934749289,0.12244587659500629,1.3439330392922768,0.7740547219006498,0.2885141375,0.6227999505203354
0.012,1.7964,1.0,1661.009936820837,0.12736826093623635,1.3430315392504115,0.7870792743993168,0.28850180000000003,0.6247747547177722
0.0125,1.79609375,1.0,1723.5231027348348,0.13226303488319827,1.342171555551863,0.7990221306148972,0.2884889375,0.6266537837092423
0.013000000000000001,1.7957750000000001,1.0,1783.266371671246,0.13713035373871174,1.3413500369038103,0.8099921164152558,0.28847555,0.6284443632199215
0.0135,1.79544375,1.0,1840.27551369658,0.14197037045588154,1.3405643865857282,0.820086108212914,0.2884616375,0.6301527378491285
0.014,1.7951000000000001,1.0,1894.6129026125795,0.14678323798781248,1.3398120078770925,0.8293901628572344,0.2884472,0.6317850743065652
0.0145,1.79474375,1.0,1946.3574600893803,0.15156910872120452,1.3390903873770572,0.8379807718039027,0.2884322375,0.6333472869530525
0.015,1.794375,1.0,1995.5967280668503,0.1563281350520861,1.3383971510808514,0.8459259866881973,0.28841675,0.6348449239169751
0.0155,1.79399375,1.0,2042.4098933508017,0.1610604678815972,1.3377302141339558,0.8532864529486728,0.2884007375,0.6362828522354349
0.016,1.7936,1.0,2086.8623685289695,0.16576625576131457,1.3370878036944307,0.8601162850243518,0.2883842,0.6376652187514826
0.0165,1.7931937500000001,1.0,2129.033169904869,0.17044564724281494,1.3364681469203372,0.8664637432785249,0.2883671375,0.6389961291709004
0.017,1.792775,1.0,2169.0137663945607,0.17509879087767508,1.3358694709697363,0.8723719277347624,0.28834955,0.640279650735043
0.0175,1.7923437500000001,1.0,2206.8850888074944,0.17972583338261083,1.335290224475815,0.877879447466927,0.2883314375,0.6415193411063701
0.018000000000000002,1.7919,1.0,2242.754195295147,0.18432692353338587,1.334728690841518,0.8830208441636294,0.2883128,0.6427190801260316
0.0185,1.79144375,1.0,2276.6878249134757,0.18890220542217231,1.3341836474158397,0.8878272335760166,0.2882936375,0.6438816639025693
0.019,1.790975,1.0,2308.75792142034,0.19345182296853058,1.3336538898658907,0.8923265793804694,0.28827395,0.6450098270961737
0.0195,1.79049375,1.0,2339.042854787949,0.19797592009202103,1.3331382138587813,0.8965440495270797,0.2882537375,0.6461062833768525
0.02,1.79,1.0,2367.6244319422485,0.2024746403232271,1.3326354389378525,0.900502338225315,0.288233,0.6471736759012188
0.0205,1.78949375,1.0,2394.5797582729733,0.20694812606767235,1.3321444818726662,0.9042219588470859,0.2882117375,0.6482144233467415
0.021,1.788975,1.0,2419.992715914361,0.21139652090372338,1.331664238757733,0.9077214602201774,0.28818995000000003,0.6492309717131806
0.021500000000000002,1.78844375,1.0,2443.92260748922,0.2158199639266195,1.3311938828245398,0.9110177007019141,0.2881676375,0.6502251657512916
0.022,1.7879,1.0,2466.4320883931427,0.22021859423160015,1.3307325873045726,0.9141259743621732,0.2881448,0.6511988383125743
0.0225,1.78734375,1.0,2487.5868896533557,0.22459255091390473,1.3302795254293178,0.9170601777672153,0.28812143749999997,0.652153810848803
0.023,1.786775,1.0,2507.4555559425457,0.22894197306877262,1.3298338704302621,0.919832957034788,0.28809755,0.6530918938679626
0.0235,1.78619375,1.0,2526.0956045044104,0.23326699667871106,1.3293949239838203,0.9224558599285158,0.28807313749999996,0.6540146175181545
0.024,1.7856,1.0,2543.582587986527,0.2375677631470384,1.3289618381635533,0.9249394017815394,0.2880482,0.6549238170665057
0.0245,1.78499375,1.0,2559.964664335574,0.24184440683562025,1.3285340424899987,0.927293239423872,0.2880227375,0.6558207363685578
0.025,1.784375,1.0,2575.289563814501,0.2460970615978599,1.328110985485881,0.9295262141762041,0.28799675,0.6567065727151913
0.025500000000000002,1.78374375,1.0,2589.606462368061,0.25032586128716067,1.3276921156739254,0.9316464290711196,0.2879702375,0.6575825169806974
0.026000000000000002,1.7831000000000001,1.0,2602.965858030456,0.25453093975692587,1.3272768815768565,0.9336613205204256,0.2879432,0.6584497537797457
0.0265,1.78244375,1.0,2615.419454075619,0.2587124308605588,1.3268647317173992,0.9355777221510128,0.2879156375,0.6593094616049511
0.027,1.781775,1.0,2627.0091466470644,0.26287046483856275,1.3264552156302434,0.9374019357587291,0.28788755,0.6601626026397045
0.0275,1.7810937500000001,1.0,2637.7909628087937,0.2670051781677291,1.3260477605347674,0.9391397510616196,0.2878589375,0.6610103885531347
0.028,1.7804,1.0,2647.805285368752,0.27111670151351264,1.325641946538534,0.9407965286097075,0.2878298,0.6618537074444979
0.0285,1.77969375,1.0,2657.0860167546975,0.27520516294380293,1.3252374200059398,0.9423772270884867,0.2878001375,0.6626933055735966
0.029,1.778975,1.0,2665.6676586050585,0.2792706905264895,1.3248338273013804,0.9438864308315674,0.28776995,0.6635299255125541
0.029500000000000002,1.7782437500000001,1.0,2673.5852587989216,0.2833134123294621,1.3244308147892525,0.9453283829069123,0.2877392375,0.6643643061708602
0.03,1.7775,1.0,2680.874361258878,0.2873334564206102,1.3240280288339525,0.9467070148839906,0.287708,0.6651971828124466
0.0305,1.77674375,1.0,2687.570958527018,0.29133095086782346,1.3236251157998766,0.9480259736509205,0.2876762375,0.6660292870647846
0.031,1.775975,1.0,2693.705905411749,0.29530602149219765,1.3232217727569346,0.9492886513218085,0.28764395,0.6668612423975271
0.0315,1.7751937500000001,1.0,2699.311192329202,0.29925879593200966,1.3228176894938546,0.950498200564348,0.2876111375,0.6676936841513051
0.032,1.7744,1.0,2704.4205708669347,0.30318940145961126,1.3224125425295636,0.951657553017986,0.2875778,0.6685272717462447
0.0325,1.77359375,1.0,2709.0573188375542,0.3070979603173927,1.3220061065017732,0.9527694493102108,0.2875439375,0.6693624597435227
0.033,1.772775,1.0,2713.2449293237155,0.31098459474774415,1.321598156048194,0.9538364443127639,0.28750955,0.6701997003392904
0.0335,1.7719437500000002,1.0,2717.0070894753035,0.31484942699305585,1.3211884658065371,0.9548609219608478,0.2874746375,0.6710394433445246
0.034,1.7711000000000001,1.0,2720.3676604328684,0.3186925792957179,1.320776810414514,0.9558451087222629,0.2874392,0.6718821361616423
0.0345,1.7702437500000001,1.0,2723.3506583769745,0.3225141738981206,1.320362964509835,0.9567910858537396,0.2874032375,0.6727282237578771
0.035,1.7693750000000001,1.0,2725.9790336195783,0.3263143316464333,1.3199467136728467,0.9577008013942652,0.28736675,0.6735781263072241
0.035500000000000004,1.76849375,1.0,2728.2710568698685,0.33009316872245803,1.319527887106535,0.9585760829392138,0.2873297375,0.6744321727080147
0.036000000000000004,1.7676,1.0,2730.254844364089,0.3338508161607772,1.3191062254122332,0.9594186375733745,0.2872922,0.6752908702269038
0.0365,1.76669375,1.0,2731.9447469371194,0.337587389771916,1.3186815951422344,0.9602300756562355,0.2872541375,0.676154467211738
0.037,1.765775,1.0,2733.3551828727327,0.34130300536639957,1.3182538628488314,0.9610119087508487,0.28721555,0.6770232104011391
0.0375,1.76484375,1.0,2734.5006301817943,0.3449977787547531,1.3178228950843172,0.9617655567846074,0.2871764375,0.6778973448986707
0.038,1.7639,1.0,2735.3956192750134,0.3486718257475017,1.3173885584009848,0.962492354614903,0.28713679999999997,0.6787771141458695
0.0385,1.76294375,1.0,2736.05472603111,0.3523252621551705,1.3169507193511274,0.963193558055099,0.28709663750000003,0.6796627598941418
0.039,1.761975,1.0,2736.4925652587117,0.35595820378828463,1.3165092444870377,0.9638703494105674,0.28705595,0.6805545221755249
0.0395,1.7609937500000001,1.0,2736.723784554756,0.3595707664573693,1.3160640003610085,0.9645238425694763,0.2870147375,0.6814526392723101
0.04,1.76,1.0,2736.7630585559277,0.3631630659729495,1.3156148535253334,0.9651550876885284,0.286973,0.6823573476855306
0.0405,1.7589937500000001,1.0,2736.616061810682,0.3667352044906927,1.3151617524300816,0.9657650802465185,0.2869307375,0.6832687174910713
0.041,1.757975,1.0,2736.3024427762416,0.37028730899284906,1.3147045188362614,0.966354753477581,0.28688795,0.6841870721429758
0.0415,1.75694375,1.0,2735.8368898997164,0.3738194989459433,1.3142430196460477,0.9669249914648357,0.2868446375,0.6851126422312936
0.042,1.7559,1.0,2735.226839530737,0.3773318823399095,1.3137771876887472,0.9674766334731111,0.28680079999999997,0.6860455245093773
0.0425,1.75484375,1.0,2734.4797365768422,0.38082456716468166,1.3133069557936654,0.9680104733328709,0.2867564375,0.6869858145768692
0.043000000000000003,1.753775,1.0,2733.6030325981606,0.3842976614101939,1.312832256790109,0.9685272623564807,0.28671155,0.6879336068609927
0.043500000000000004,1.75269375,1.0,2732.604184003801,0.38775127306638013,1.3123530235073841,0.9690277120389791,0.28666613750000003,0.6888889945975623
0.044,1.7516,1.0,2731.490650346866,0.3911855101231744,1.3118691887747966,0.9695124965612701,0.2866202,0.6898520698117037
0.0445,1.75049375,1.0,2730.2698927203246,0.3946004805705108,1.311380685421653,0.9699822551120162,0.2865737375,0.6908229232982832
0.045,1.7493750000000001,1.0,2728.9493722527195,0.3979962923983234,1.3108874462772593,0.9704375940430138,0.28652675,0.6918016446020543
0.0455,1.74824375,1.0,2727.536548703486,0.4013730535965461,1.3103894041709216,0.9708790888715072,0.2864792375,0.6927883219975135
0.046,1.7471,1.0,2726.038879159031,0.4047308721551131,1.3098864919319464,0.9713072861416914,0.2864312,0.6937830424684686
0.0465,1.7459437500000001,1.0,2724.46381682838,0.4080698560639583,1.3093786423896396,0.9717227051565597,0.28638263750000004,0.6947858916873197
0.047,1.744775,1.0,2722.8188099387075,0.4113901133130158,1.3088657883733077,0.9721258395902841,0.28633355,0.6957969539940533
0.0475,1.74359375,1.0,2721.109676205573,0.41469174779212437,1.3083478775013315,0.9725171595182003,0.28628393750000003,0.6968162832921679
0.048,1.7424,1.0,2719.3418442708435,0.4179748647065565,1.3078248608916716,0.9728971126903906,0.2862338,0.6978439254369357
0.0485,1.74119375,1.0,2717.519240314347,0.4212395667031335,1.3072967033043505,0.9732661260328068,0.2861831375,0.698879898400121
0.049,1.739975,1.0,2715.6456271542943,0.42448595601798833,1.3067633709569397,0.9736246062649813,0.28613195,0.6999242163237722
0.0495,1.73874375,1.0,2713.7247640392884,0.42771413488725385,1.30622483006701,0.973972940991293,0.2860802375,0.7009768923802002
0.05,1.7375,1.0,2711.760406308739,0.43092420554706284,1.305681046852133,0.9743114997691781,0.286028,0.7020379387607911
0.0505,1.73624375,1.0,2709.7563050780627,0.43411627023354815,1.3051319875298797,0.9746406351083583,0.2859752375,0.7031073666647492
0.051000000000000004,1.734975,1.0,2707.7160890013506,0.43729043034077447,1.304577619394235,0.974960683382728,0.28592195,0.7041851841968765
0.051500000000000004,1.73369375,1.0,2705.648006088036,0.44044678630428297,1.3040178675243406,0.9752719629062258,0.2858681375,0.7052714803123485
0.052000000000000005,1.7324,1.0,2703.5501596923423,0.4435854374761219,1.30345274954232,0.9755747834985272,0.2858138,0.7063661632500191
0.0525,1.731094802868964,1.0,2701.471977512276,0.44670648310855937,1.3028822896564405,0.9758694416058235,0.2857589817204965,0.7074691282285462
0.053,1.7297874333391279,1.0,2699.8614279313697,0.44981002207758813,1.3023065819344326,0.9761562249236625,0.28570407220024335,0.7085801355839292
0.0535,1.7284800638092916,1.0,2698.778740805499,0.4528961530171887,1.301726053064617,0.9764354290544973,0.28564916267999024,0.7096983064478568
0.054,1.7271726942794552,1.0,2698.1837666139377,0.45596497310339673,1.3011410672001298,0.9767073328427254,0.28559425315973713,0.7108228879004047
0.0545,1.725865324749619,1.0,2698.0379380732597,0.45901657933592044,1.3005519754656254,0.9769722023777592,0.28553934363948397,0.7119531570271369
0.055,1.7245579552197827,1.0,2698.304307579974,0.46205106839082377,1.2999591153026235,0.9772302916069283,0.28548443411923086,0.7130884220244497
0.0555,1.7232505856899465,1.0,2698.9479356482852,0.4650685367224461,1.299362806647251,0.9774818427480866,0.28542952459897775,0.7142280293248746
0.056,1.7219432161601103,1.0,2699.939951951032,0.46806907937718273,1.2987633145852018,0.9777270845984777,0.28537461507872464,0.7153714344963769
0.0565,1.720635846630274,1.0,2701.2525411230617,0.47105279115330456,1.2981608950196952,0.9779662359669004,0.2853197055584715,0.7165181144166273
0.057,1.7193284771004378,1.0,2702.866299363075,0.4740197634837563,1.297555727323892,0.9781995020384804,0.2852647960382184,0.7176676949513701
0.0575,1.7180211075706013,1.0,2704.7442858473996,0.4769700952839521,1.296948151268577,0.9784270894520444,0.28520988651796525,0.71881950082326
0.058,1.716713738040765,1.0,2706.8621541351213,0.47990388101057596,1.2963383915843913,0.9786491897085948,0.28515497699771214,0.7199730793149743
0.0585,1.7154063685109289,1.0,2709.20432618243,0.48282121163512065,1.2957265929611723,0.9788659819484264,0.28510006747745903,0.7211281320649781
0.059000000000000004,1.7140989989810926,1.0,2711.7552255254477,0.485722178129079,1.295112900088757,0.9790776382560693,0.28504515795720586,0.7222843628864903
0.059500000000000004,1.7127916294512564,1.0,2714.4992709714743,0.48860687146394366,1.2944974576569825,0.9792843239973336,0.28499024843695275,0.7234414777856306
0.06,1.7114842599214202,1.0,2717.420870753877,0.49147538261120743,1.2938804103556865,0.979486198137763,0.28493533891669964,0.7245991849782313
0.0605,1.710176890391584,1.0,2720.5044171522527,0.49432780254236314,1.2932619028747057,0.9796834135436618,0.28488042939644653,0.7257571949053148
0.061,1.7088695208617475,1.0,2723.734281575581,0.49716422222890355,1.2926420799038776,0.97987611726677,0.2848255198761934,0.7269152202472338
0.0615,1.7075621513319112,1.0,2727.0958044307017,0.49998473182574743,1.2920210770910585,0.9800644502738306,0.28477061035594026,0.7280729927760781
0.062,1.706254781802075,1.0,2730.5815322974636,0.5027894170697284,1.2913989643523116,0.9802485444906867,0.28471570083568715,0.729230368540817
0.0625,1.7049474122722388,1.0,2734.1717080516228,0.5055783751269173,1.2907759232432088,0.9804285335929214,0.28466079131543404,0.7303869976468736
0.063,1.7036400427424025,1.0,2737.8594956557913,0.5083516919694033,1.2901520176336705,0.9806045394640333,0.28460588179518087,0.7315427508389993
0.0635,1.7023326732125663,1.0,2741.63804533315,0.5111094535692755,1.2895273113936172,0.9807766795400579,0.28455097227492776,0.7326974998634675
0.064,1.70102530368273,1.0,2745.5004923877664,0.513851745898623,1.2889018683929696,0.9809450670063034,0.28449606275467465,0.7338511174714646
0.0645,1.6997179341528939,1.0,2749.439956116644,0.5165786549295348,1.288275752501648,0.9811098109840112,0.28444115323442154,0.7350034774222214
0.065,1.6984105646230574,1.0,2753.4495388112587,0.5192902666341002,1.2876490275895731,0.9812710167075284,0.28438624371416843,0.7361544544858833
0.0655,1.6971031950932212,1.0,2757.5223248501084,0.521986666984408,1.2870217575266654,0.9814287856925386,0.2843313341939153,0.7373039244461228
0.066,1.695795825563385,1.0,2761.6513798814026,0.5246679419525475,1.2863940061828454,0.9815832158958616,0.28427642467366215,0.7384517641024884
0.0665,1.6944884560335487,1.0,2765.829750096372,0.5273341775106077,1.2857658374280339,0.9817344018673049,0.28422151515340904,0.7395978512724953
0.067,1.6931810865037125,1.0,2770.056159085366,0.5299854487093956,1.285137263724582,0.9818824316876833,0.28416660563315593,0.7407421582769713
0.0675,1.6918737169738762,1.0,2774.3204986491755,0.5326218519233441,1.284508377133327,0.9820273956364213,0.28411169611290277,0.7418845132045937
0.068,1.6905663474440398,1.0,2778.6170871825248,0.5352434740388694,1.2838792295605246,0.9821693783962487,0.28405678659264966,0.7430248183167187
0.0685,1.6892589779142035,1.0,2782.943439113621,0.5378503952657245,1.283249843986187,0.982308459999364,0.28400187707239655,0.7441630289598238
0.069,1.6879516083843673,1.0,2787.297061332797,0.5404426958136626,1.2826202433903273,0.9824447177978184,0.28394696755214344,0.7452991008481893
0.0695,1.686644238854531,1.0,2791.675453076972,0.5430204558924365,1.281990450752958,0.9825782265723569,0.2838920580318903,0.7464329900642332
0.07,1.6853368693246948,1.0,2796.0761058259504,0.5455837557117994,1.2813604890540917,0.9827090586361303,0.28383714851163716,0.7475646530588085
0.07050000000000001,1.6840294997948586,1.0,2800.496503210597,0.5481326754815044,1.280730381273741,0.9828372839335532,0.28378223899138405,0.7486940466514669
0.07100000000000001,1.6827221302650224,1.0,2804.934120932122,0.5506672954113043,1.2801001503919185,0.9829629701345696,0.28372732947113094,0.7498211280306908
0.07150000000000001,1.6814147607351861,1.0,2809.3864266938735,0.5531876957109525,1.279469819388637,0.9830861827245627,0.28367241995087783,0.7509458547540901
0.07200000000000001,1.6801073912053497,1.0,2813.8508801443368,0.5556939565902017,1.278839411243909,0.9832069850901444,0.28361751043062466,0.7520681847485657
0.0725,1.6788000216755135,1.0,2818.324932832175,0.5581861582588051,1.2782089489377473,0.9833254386010336,0.28356260091037155,0.7531880763104398
0.073,1.6774926521456772,1.0,2822.8060281724506,0.5606643809265158,1.2775784554501644,0.9834416026882301,0.28350769139011844,0.7543054881055521
