Time [s],Phi [rad],STIM [ ],Fsee [N],Gamma [ ],Lcerel [ ],q [ ],Lmtc [m],fisomrel [ ]
0.0,1.8,1.0,19.18945487654882,0.0011286712164787847,1.3792050610654862,0.0053268679392868825,0.288653,0.5414653114232171
0.0005,1.79999375,1.0,19.823320172772217,0.006731549572322171,1.3791340815169746,0.016335372163946166,0.2886527375,0.5416369522713013
0.001,1.799975,1.0,23.999527778439727,0.012303000210653581,1.3787014546093252,0.041673275611888654,0.28865195,0.5426824243519808
0.0015,1.79994375,1.0,35.36346437262756,0.017843199416299787,1.377692187031907,0.07874770020871223,0.2886506375,0.5451167469867826
0.002,1.7999,1.0,61.60447883775636,0.023352322484986112,1.375865844308227,0.12426539782203103,0.2886488,0.5495053159517336
0.0025,1.79984375,1.0,109.57479281437021,0.028830543729159424,1.3733530510559104,0.17489817309405883,0.28864643749999996,0.5555086073572791
0.003,1.7997750000000001,1.0,176.5271609068599,0.0342780364838135,1.370645030748824,0.22788883694836426,0.28864354999999997,0.5619332308074084
0.0035,1.79969375,1.0,254.9273191555216,0.03969497311218141,1.3680628733661313,0.28113474657170495,0.2886401375,0.5680156927597806
0.004,1.7996,1.0,339.615082598715,0.04508152500863893,1.365682012104847,0.3330828982154557,0.2886362,0.5735863074711434
0.0045000000000000005,1.7994937500000001,1.0,427.9291267344522,0.050437862605489076,1.3634896433239798,0.3826712160067814,0.2886317375,0.5786839260083099
0.005,1.799375,1.0,518.353475903331,0.055764155387366024,1.3614596147212745,0.4292535679428484,0.28862675,0.5833767440227927
0.0055,1.79924375,1.0,609.8284127325342,0.06106057188304134,1.3595698279792947,0.4725054783772753,0.2886212375,0.5877217436445804
0.006,1.7991000000000001,1.0,701.509848430143,0.06632727965929798,1.3578035641380957,0.5123328638002872,0.2886152,0.5917621476086596
0.006500000000000001,1.79894375,1.0,792.7076776579263,0.07156444535636318,1.3561478054304614,0.5487957252664641,0.2886086375,0.5955316986194713
0.007,1.798775,1.0,882.8517340119818,0.0767722347566543,1.3545920893330643,0.5820500235250736,0.28860155,0.5990575579796306
0.0075,1.79859375,1.0,971.4575894145509,0.08195081240035612,1.3531279489503552,0.6123058931066557,0.2885939375,0.6023617719072556
0.008,1.7984,1.0,1058.169596890728,0.08710034255064376,1.3517475260238259,0.6397982543663752,0.2885858,0.60546453423507
0.0085,1.79819375,1.0,1142.6762138644858,0.09222098789051059,1.3504444003782847,0.6647685372975092,0.2885771375,0.6083824051132158
0.009000000000000001,1.797975,1.0,1224.7401186805898,0.09731291027373219,1.3492127337491209,0.6874523883622663,0.28856795,0.611130314373296
0.0095,1.79774375,1.0,1304.2074238870857,0.10237627099188805,1.348046909284229,0.7080725972288574,0.2885582375,0.6137224137043865
0.01,1.7975,1.0,1380.9622557942816,0.10741123061394045,1.3469419580226383,0.7268357452215395,0.288548,0.6161711663374296
0.0105,1.79724375,1.0,1454.9073237406533,0.11241794781625283,1.345893610808097,0.7439307441913136,0.2885372375,0.6184872767925278
0.011,1.796975,1.0,1525.999888375862,0.11739658090211438,1.3448976927225276,0.7595284056434058,0.28852595000000003,0.6206810636309852
0.0115,1.79669375,1.0,1594.2448536969055,0.12234728822773093,1.3439501273732144,0.7737821544266789,0.2885141375,0.6227624677294311
0.012,1.7964,1.0,1659.6492212670476,0.1272702265167042,1.3430473975852604,0.7868293750804405,0.28850180000000003,0.6247400606185596
0.0125,1.79609375,1.0,1722.2206439030342,0.13216555062963695,1.342186456877325,0.798792691948961,0.2884889375,0.6266212650820875
0.013000000000000001,1.7957750000000001,1.0,1782.0019257636632,0.13703341542713193,1.3413642587680688,0.8097811766050917,0.28847555,0.6284134018996397
0.0135,1.79544375,1.0,1839.052411671669,0.141873975007207,1.340577928523654,0.8198918191864283,0.2884616375,0.6301233246254361
0.014,1.7951000000000001,1.0,1893.454775548175,0.1466873837788167,1.3398246450441589,0.829210802707144,0.2884472,0.6317576869279702
0.0145,1.79474375,1.0,1945.2690083244147,0.1514737934182846,1.3391021051747,0.837814884009832,0.2884322375,0.6333219460015518
0.015,1.794375,1.0,1994.5578575477834,0.15623335460021526,1.3384081961627627,0.8457723622230925,0.28841675,0.6348210866386005
0.0155,1.79399375,1.0,2041.4020977541625,0.16096621799921343,1.337740805255832,0.8531440058684995,0.2884007375,0.6362600397485403
0.016,1.7936,1.0,2085.886127329273,0.16567253335792992,1.337097953282263,0.859983984039823,0.2883842,0.6376433988932053
0.0165,1.7931937500000001,1.0,2128.109002528377,0.17035245105446184,1.3364776594042433,0.8663406074142233,0.2883671375,0.6389757165875065
0.017,1.792775,1.0,2168.146573611964,0.1750061184947489,1.3358783142887871,0.8722571265812646,0.28834955,0.6402607078779424
0.0175,1.7923437500000001,1.0,2206.0728175083295,0.17963368205286562,1.3352984362801623,0.8777722570281193,0.2883314375,0.6415017813395343
0.018000000000000002,1.7919,1.0,2241.9711361422374,0.18423528810288664,1.3347365437226375,0.8829206763454573,0.2883128,0.6427023159968839
0.0185,1.79144375,1.0,2275.9270922590326,0.18881108224149878,1.3341912193002858,0.8877335110780461,0.2882936375,0.643865525964886
0.019,1.790975,1.0,2308.030568545204,0.19336121041044316,1.3336610790159351,0.8922387397035919,0.28827395,0.6449945291770469
0.0195,1.79049375,1.0,2338.3632228680904,0.19788581714562636,1.3331448876652285,0.8964615790001739,0.2882537375,0.6460921040259
0.02,1.79,1.0,2366.9906671636136,0.20238504423514264,1.332641624627652,0.9004248094331335,0.288233,0.6471605534600646
0.0205,1.78949375,1.0,2393.9834312544895,0.2068590334670862,1.3321502692826914,0.9041489992908739,0.2882117375,0.6482021639522819
0.021,1.788975,1.0,2419.4165541048555,0.21130792662955122,1.3316698010098325,0.9076527496591587,0.28818995000000003,0.6492192063077109
0.021500000000000002,1.78844375,1.0,2443.3623979088597,0.21573186416575116,1.331199264519467,0.9109529225159642,0.2881676375,0.6502137984112377
0.022,1.7879,1.0,2465.897175457093,0.22013098785967247,1.3307377024672122,0.9140648160470064,0.2881448,0.6511880490009878
0.0225,1.78734375,1.0,2487.088094688701,0.22450543761538014,1.3302842748657697,0.9170023529762469,0.28812143749999997,0.6521438066849257
0.023,1.786775,1.0,2506.9902839985457,0.2288553502025534,1.329838283062862,0.9197782282620423,0.28809755,0.6530826116905083
0.0235,1.78619375,1.0,2525.661223434778,0.23318086239087152,1.3293990284062112,0.9224040109862118,0.28807313749999996,0.6540059951691457
0.024,1.7856,1.0,2543.1605474840126,0.2374821109500138,1.3289658122435395,0.9248902597485402,0.2880482,0.6549154795119526
0.0245,1.78499375,1.0,2559.549858678054,0.2417592326496596,1.3285379359225695,0.9272466248426082,0.2880227375,0.6558125786343674
0.025,1.784375,1.0,2574.8799459704487,0.24601236114768224,1.3281148187653402,0.9294819575577584,0.28799675,0.6566985513602932
0.025500000000000002,1.78374375,1.0,2589.216114597941,0.25024163542462025,1.3276957585010583,0.9316043522921315,0.2879702375,0.657574903891633
0.026000000000000002,1.7831000000000001,1.0,2602.605428049537,0.25444718885900314,1.327280236550293,0.9336212650143165,0.2879432,0.6584427511593888
0.0265,1.78244375,1.0,2615.0884333939143,0.25862915266055975,1.32686780558795,0.9355395573357808,0.2879156375,0.6593030537950197
0.027,1.781775,1.0,2626.7066635404917,0.2627876580390189,1.3264580182889343,0.9373655423267072,0.28788755,0.6601567675218809
0.0275,1.7810937500000001,1.0,2637.5025528135684,0.26692283620410934,1.3260504273281517,0.9391050356649394,0.2878589375,0.6610048432370206
0.028,1.7804,1.0,2647.519356963112,0.27103481836555987,1.3256445853805074,0.9407634013946736,0.2878298,0.6618482270802213
0.0285,1.77969375,1.0,2656.801077611956,0.2751237357330993,1.325240045120907,0.942345592921405,0.2878001375,0.6626878604902755
0.029,1.778975,1.0,2665.382947371304,0.2791897145688216,1.3248364460907949,0.9438562000618873,0.28776995,0.6635245002905042
0.029500000000000002,1.7782437500000001,1.0,2673.3142751194537,0.2832328903643134,1.3244333036150484,0.9452994573479623,0.2877392375,0.6643591565861793
0.03,1.7775,1.0,2680.625013616123,0.28725338940375456,1.3240303158252555,0.9466793096443059,0.287708,0.6651924567161516
0.0305,1.77674375,1.0,2687.3435638052674,0.2912513369422622,1.3236271988368309,0.9479994179930045,0.2876762375,0.6660249877966401
0.031,1.775975,1.0,2693.498691178774,0.2952268582349537,1.3232236687651893,0.9492631817559837,0.28764395,0.6668573340241429
0.0315,1.7751937500000001,1.0,2699.1194919513136,0.2991800785369463,1.3228194417257453,0.9504737605770515,0.2876111375,0.6676900766705298
0.032,1.7744,1.0,2704.2353610222667,0.3031111231033573,1.3224142338339138,0.9516340942448341,0.2875778,0.6685237940729922
0.0325,1.77359375,1.0,2708.875961724913,0.307020117189304,1.3220077612051093,0.9527469206798296,0.2875439375,0.6693590616188563
0.033,1.772775,1.0,2713.0656508009574,0.31090718191701955,1.3215997905233257,0.9538147969651087,0.28750955,0.6701963480081412
0.0335,1.7719437500000002,1.0,2716.8308376904765,0.3147724413280192,1.3211900715736506,0.9548401079612509,0.2874746375,0.6710361540896466
0.034,1.7711000000000001,1.0,2720.2057806849048,0.31861602658158056,1.3207782843299156,0.9558250750552837,0.2874392,0.671879120862104
0.0345,1.7702437500000001,1.0,2723.207994627732,0.322438056082018,1.3203642627496277,0.9567717883229068,0.2874032375,0.6727255712783402
0.035,1.7693750000000001,1.0,2725.8551145584497,0.3262386482336458,1.319947840790294,0.957682203156618,0.28736675,0.6735758264465199
0.035500000000000004,1.76849375,1.0,2728.164883461497,0.3300179214407784,1.3195288524094215,0.9585581505012913,0.2873297375,0.6744302056056062
0.036000000000000004,1.7676,1.0,2730.1551406262897,0.3337759941077301,1.3191071315645175,0.9594013461995432,0.2872922,0.6752890260990616
0.0365,1.76669375,1.0,2731.8438106193,0.3375129846388153,1.3186825122130887,0.9602133995334986,0.2872541375,0.6761526033467938
0.037,1.765775,1.0,2733.248892866094,0.3412290114383484,1.3182548283126427,0.9609958210402932,0.28721555,0.677021250815339
0.0375,1.76484375,1.0,2734.3884518460595,0.34492419291064363,1.3178239138206862,0.9617500296704643,0.2871764375,0.6778952799862916
0.038,1.7639,1.0,2735.280607897345,0.34859864746001556,1.3173896026947265,0.9624773593511349,0.28713679999999997,0.6787750003229709
0.0385,1.76294375,1.0,2735.940043501226,0.3522524892308184,1.316951760533493,0.9631790671307857,0.28709663750000003,0.6796606552765283
0.039,1.761975,1.0,2736.3805964017297,0.3558858347480676,1.3165102609508674,0.9638563376837108,0.28705595,0.6805524703852481
0.0395,1.7609937500000001,1.0,2736.6205022821914,0.3594988064666891,1.316064937926853,0.9645102846241466,0.2870147375,0.6814507494046383
0.04,1.76,1.0,2736.6697742107285,0.36309151570244513,1.3156157003261084,0.9651419624331734,0.286973,0.6823556432004468
0.0405,1.7589937500000001,1.0,2736.5384462554675,0.3666640737710982,1.3151624570132918,0.9657523659242179,0.2869307375,0.6832673013053093
0.041,1.757975,1.0,2736.236570079557,0.37021659198841084,1.3147051168530623,0.9663424342415362,0.28688795,0.6841858718957283
0.0415,1.75694375,1.0,2735.7742117206903,0.3737491816701453,1.3142435887100778,0.9669130545506069,0.2868446375,0.6851115017685314
0.042,1.7559,1.0,2735.161448554542,0.3772619541320642,1.3137777814489975,0.967465065447113,0.28680079999999997,0.6860443363167895
0.0425,1.75484375,1.0,2734.4083664427226,0.3807550206899299,1.3133076039344793,0.9679992601086412,0.2867564375,0.6869845195052151
0.043000000000000003,1.753775,1.0,2733.5250570640874,0.38422849265950476,1.3128329650311823,0.9685163892109447,0.28671155,0.6879321938450226
0.043500000000000004,1.75269375,1.0,2732.5216154314135,0.38768248135655126,1.312353773603765,0.9690171636285544,0.28666613750000003,0.6888875003682652
0.044,1.7516,1.0,2731.402731951326,0.39111708883875657,1.3118699876349647,0.9695022594076954,0.2866202,0.6898504809074203
0.0445,1.75049375,1.0,2730.176066545345,0.394532425821447,1.311381538153202,0.9699723167062817,0.2865737375,0.6908212299022515
0.045,1.7493750000000001,1.0,2728.8579707012473,0.3979286169650596,1.3108882771735932,0.9704279387386257,0.28652675,0.6917999971812343
0.0455,1.74824375,1.0,2727.453276588737,0.40130576578127586,1.3103901613611444,0.970869702890665,0.2864792375,0.692786823119269
0.046,1.7471,1.0,2725.966815779872,0.4046639757817773,1.3098871473808607,0.9712981574918578,0.2864312,0.6937817470923239
0.0465,1.7459437500000001,1.0,2724.403418510696,0.40800335047824554,1.3093791918977478,0.9717138235517384,0.28638263750000004,0.6947848074639559
0.047,1.744775,1.0,2722.7679129838853,0.411323993382362,1.3088662515768115,0.9721171963767552,0.28633355,0.695796041571715
0.0475,1.74359375,1.0,2721.065124714278,0.4146260080058082,1.3083482830830568,0.9725087470766949,0.28628393750000003,0.6968154857134281
0.048,1.7424,1.0,2719.299875914333,0.4179094978602657,1.30782524308149,0.9728889239692077,0.2862338,0.6978431751333596
0.0485,1.74119375,1.0,2717.47698492306,0.421174566457416,1.3072970882371162,0.9732581538901961,0.2861831375,0.698879144008259
0.049,1.739975,1.0,2715.6012656748244,0.4244213173089407,1.306763775214941,0.9736168434171991,0.28613195,0.6999234254332818
0.0495,1.73874375,1.0,2713.677527211183,0.4276498539265213,1.3062252606799702,0.9739653800122873,0.2860802375,0.7009760514077943
0.05,1.7375,1.0,2711.7105732337163,0.4308602798218392,1.3056815012972092,0.9743041330904452,0.286028,0.7020370528210597
0.0505,1.73624375,1.0,2709.7052016983544,0.4340526985065761,1.3051324537316635,0.9746334550189346,0.2859752375,0.7031064594378005
0.051000000000000004,1.734975,1.0,2707.6654133697493,0.4372272101683213,1.3045780818679111,0.9749536821541991,0.28592195,0.7041842858598981
0.051500000000000004,1.73369375,1.0,2705.5915914121524,0.4403839014127156,1.3040183825704266,0.9752651362684105,0.2858681375,0.7052704816940745
0.052000000000000005,1.7324,1.0,2703.4930332283134,0.4435228987659274,1.303453271289127,0.9755681238188871,0.2858138,0.7063651535201771
0.0525,1.73109375,1.0,2701.3716409352114,0.4466442975910248,1.3028827309162596,0.9758629385288762,0.28575893750000003,0.7074682758696068
0.053,1.729775,1.0,2699.22931403718,0.4497481932510763,1.3023067443440715,0.976149861188825,0.28570355000000003,0.708579822462016
0.0535,1.72844375,1.0,2697.0679493471634,0.45283468110915,1.3017252944648094,0.9764291603340376,0.2856476375,0.7096997661993751
0.054,1.7271,1.0,2694.889440914691,0.45590385652831417,1.301138364170721,0.976701092881245,0.2855912,0.7108280791600198
0.0545,1.7257437500000001,1.0,2692.69567995975,0.4589558148716371,1.3005459363540532,0.9769659047269054,0.2855342375,0.711964732592683
0.055,1.724375,1.0,2690.4885548139655,0.461990651502187,1.2999479939070528,0.9772238313098367,0.28547675,0.7131096969105057
0.0555,1.72299375,1.0,2688.2699508675855,0.4650084617830321,1.2993445197219673,0.9774750981405879,0.2854187375,0.7142629416850279
0.056,1.7216,1.0,2686.0417505231144,0.4680093410772408,1.2987354966910436,0.9777199212997733,0.2853602,0.7154244356401642
0.0565,1.72019375,1.0,2683.805833155897,0.47099338474788116,1.298120907706529,0.9779585079074284,0.28530113749999997,0.7165941466461583
0.057,1.718775,1.0,2681.564075080695,0.47396068815802156,1.29750073566067,0.9781910565652967,0.28524155,0.7177720417135208
0.0575,1.71734375,1.0,2679.3183495246335,0.4769113466707302,1.2968749634457144,0.9784177577738129,0.2851814375,0.7189580869869443
0.058,1.7159,1.0,2677.0705266070477,0.4798454556490753,1.296243573953909,0.9786387943254233,0.2851208,0.7201522477392054
0.0585,1.71444375,1.0,2674.8209422973255,0.48276309578408155,1.2956065641354926,0.9788543412052433,0.2850596375,0.7213544618622734
0.059000000000000004,1.7129750000000001,1.0,2672.570620014536,0.4856643543495256,1.2949639246207514,0.9790645666661558,0.28499795,0.7225646784831751
0.059500000000000004,1.71149375,1.0,2670.324189809886,0.48854935694050816,1.2943156128800248,0.979269633689722,0.2849357375,0.7237829082112734
0.06,1.71,1.0,2668.082108786588,0.49141819029204353,1.2936616246767083,0.9794696977153229,0.284873,0.7250090886232019
0.0605,1.7084937500000001,1.0,2665.844833279536,0.4942709411391462,1.293001955774197,0.9796649081545734,0.2848097375,0.7262431566087231
0.061,1.7069750000000001,1.0,2663.6128188582807,0.4971076962168306,1.2923366019358862,0.9798554086695197,0.28474595,0.7274850483691939
0.0615,1.7054437500000001,1.0,2661.38652033063,0.499928542260111,1.2916655589251713,0.9800413374359396,0.2846816375,0.7287346994160313
0.062,1.7039,1.0,2659.1663917469127,0.5027335660040019,1.2909888225054478,0.9802228273926505,0.2846168,0.7299920445691741
0.0625,1.70234375,1.0,2656.952886403886,0.5055228541835176,1.290306388440111,0.9804000064776646,0.2845514375,0.7312570179555467
0.063,1.7007750000000001,1.0,2654.7464568495016,0.5082964935336726,1.2896182524925561,0.9805729978519817,0.28448555,0.7325295530075191
0.0635,1.69919375,1.0,2652.5475548885825,0.5110545707894812,1.2889244104261786,0.9807419201117509,0.28441913750000003,0.7338095824613684
0.064,1.6976,1.0,2650.356631587349,0.5137971726859578,1.2882248580043738,0.9809068874894873,0.2843522,0.7350970383557351
0.0645,1.69599375,1.0,2648.1741372804427,0.5165243859581169,1.2875195909905373,0.9810680100449852,0.2842847375,0.7363918520300834
0.065,1.694375,1.0,2646.000521576441,0.5192362973409729,1.286808605148064,0.9812253938465251,0.28421675,0.7376939541231565
0.0655,1.69274375,1.0,2643.836233364931,0.5219329935695399,1.2860918962403498,0.9813791411429327,0.2841482375,0.7390032745714316
0.066,1.6911,1.0,2641.681720823634,0.5246145613788327,1.2853694600307894,0.9815293505270187,0.2840792,0.7403197426075755
0.0665,1.6894437500000001,1.0,2639.5374314257847,0.5272810875038655,1.2846412922827788,0.9816761170908833,0.2840096375,0.7416432867588958
0.067,1.687775,1.0,2637.403811948086,0.5299326586796527,1.283907388759713,0.98181953257355,0.28393955,0.7429738348457946
0.0675,1.68609375,1.0,2635.2812310035765,0.532569358163753,1.2831677459416897,0.9819596853053677,0.2838689375,0.7443113126859142
0.068,1.6844000000000001,1.0,2633.1698329413766,0.5351912217661361,1.2824223623790931,0.9820966575416363,0.2837978,0.745655641671595
0.0685,1.68269375,1.0,2631.071982627065,0.5377984021954758,1.2816712160628112,0.982230535326841,0.2837261375,0.7470067794696975
0.069,1.680975,1.0,2628.9874795605815,0.5403909769941811,1.2809143087091577,0.9823613980013705,0.28365395,0.7483646401864033
0.0695,1.67924375,1.0,2626.9161236257414,0.5429690237046614,1.280151642034446,0.9824893222109737,0.28358123749999997,0.7497291373259043
0.07,1.6775,1.0,2624.857715086054,0.5455326198693258,1.27938321775499,0.9826143820151636,0.283508,0.7511001837910327
0.07050000000000001,1.67574375,1.0,2622.812054580282,0.5480818430305837,1.2786090375871035,0.9827366489905442,0.2834342375,0.7524776918838901
0.07100000000000001,1.673975,1.0,2620.778943118324,0.5506167707308443,1.2778291032471,0.9828561923293297,0.28335995,0.7538615733064803
0.07150000000000001,1.67219375,1.0,2618.7581820768396,0.5531374805125167,1.2770434164512936,0.9829730789333058,0.2832851375,0.7552517391613365
0.07200000000000001,1.6704,1.0,2616.7495731955532,0.5556440499180103,1.2762519789159976,0.9830873735034796,0.2832098,0.7566480999521531
0.0725,1.66859375,1.0,2614.7529185725284,0.5581365564897343,1.2754547923575261,0.9831991386256357,0.2831339375,0.7580505655844139
0.073,1.6667750000000001,1.0,2612.768020660954,0.5606150777700979,1.2746518584921924,0.9833084348520162,0.28305755,0.7594590453660227
0.0735,1.66494375,1.0,2610.7946822645804,0.5630796913015104,1.2738431790363105,0.9834153207793199,0.2829806375,0.7608734480079311
0.074,1.6631,1.0,2608.8327065341578,0.5655304746263811,1.2730287557061941,0.9835198531232138,0.2829032,0.7622936816247685
0.0745,1.6612437500000001,1.0,2606.881896963613,0.5679675052871191,1.2722085902181568,0.9836220867895287,0.2828252375,0.7637196537354707
0.075,1.659375,1.0,2604.942057386453,0.5703908608261338,1.2713826842885125,0.9837220749423099,0.28274675,0.7651512712639079
0.0755,1.65749375,1.0,2603.012991971916,0.5728006187858343,1.2705510396335746,0.9838198690688817,0.2826677375,0.7665884405395151
