Time [s],Phi [rad],STIM [ ],Fsee [N],Gamma [ ],Lcerel [ ],q [ ],Lmtc [m],fisomrel [ ]
0.0,1.8,1.0,20.03474402432112,0.0014693978824711013,1.3791144135628304,0.005552603258503328,0.288653,0.5416845071074976
0.0005,1.79999375,1.0,20.750437614134317,0.007070365031099127,1.3790363256433182,0.017482634912447705,0.2886527375,0.5418732903150907
0.001,1.799975,1.0,25.18741247051788,0.012639915182722745,1.378587696221875,0.04361164973510423,0.28865195,0.5429571309611393
0.0015,1.79994375,1.0,37.19715310451165,0.01817822456169538,1.3775476057121583,0.08129236563635442,0.2886506375,0.545464940755793
0.002,1.7999,1.0,64.63980737911488,0.023685468404307197,1.3756844040710803,0.12720984003963115,0.2886488,0.5499401420209098
0.0025,1.79984375,1.0,113.9151589142146,0.02916182096322399,1.3731580575193505,0.17805762635325462,0.28864643749999996,0.5559727809578607
0.003,1.7997750000000001,1.0,181.71268126431266,0.03460745551465532,1.3704610301856024,0.23111932748789707,0.28864354999999997,0.5623680647762188
0.0035,1.79969375,1.0,260.54866526625864,0.04002254436089259,1.3678965914808898,0.28432718954379277,0.2886401375,0.5684059246707376
0.004,1.7996,1.0,345.45379566451317,0.04540725883692226,1.365532196747993,0.33615947398771884,0.2886362,0.5739356286370745
0.0045000000000000005,1.7994937500000001,1.0,433.8821981539554,0.05076176933478892,1.3633534549731845,0.3855815733279756,0.2886317375,0.5789995751245216
0.005,1.799375,1.0,524.3532324660536,0.05608624524009711,1.361334831348815,0.43196968518907847,0.28862675,0.5836643483868733
0.0055,1.79924375,1.0,615.8320399842665,0.06138085508726271,1.359454659850132,0.4750156895307553,0.2886212375,0.5879858020153887
0.006,1.7991000000000001,1.0,707.4672949579023,0.06664576628778844,1.3576969753497488,0.5146370589283035,0.2886152,0.5920053374542131
0.006500000000000001,1.79894375,1.0,798.595131749489,0.0718811455965175,1.3560486870407338,0.5509008837016459,0.2886086375,0.5957567999252857
0.007,1.798775,1.0,888.6297792628725,0.07708715845578056,1.3544998925899099,0.5839676970913323,0.28860155,0.5992660272759642
0.0075,1.79859375,1.0,977.1253405257825,0.08226396979473602,1.3530417197896336,0.6140495499682188,0.2885939375,0.6025559441580925
0.008,1.7984,1.0,1063.6973940625655,0.08741174331459338,1.3516669333127531,0.6413825371569014,0.2885858,0.6056453061683791
0.0085,1.79819375,1.0,1148.0434020720022,0.09253064165708975,1.3503690884909658,0.6662079713436042,0.2885771375,0.6085507073661026
0.009000000000000001,1.797975,1.0,1229.9564166296395,0.09762082734617324,1.3491420261475475,0.6887606892652975,0.28856795,0.6112877728877081
0.0095,1.79774375,1.0,1309.2598816177958,0.10268246119266423,1.3479805354766552,0.7092627867515878,0.2885582375,0.6138697287288913
0.01,1.7975,1.0,1385.8272224161035,0.10771570297894857,1.346879843328509,0.7279198727128483,0.288548,0.6163085914935877
0.0105,1.79724375,1.0,1459.5870648345751,0.11272071199180672,1.3458353947586803,0.7449196017433143,0.2885372375,0.6186156879212621
0.011,1.796975,1.0,1530.5182355886723,0.11769764751469784,1.3448428058344695,0.7604316135790445,0.28852595000000003,0.6208017833680178
0.0115,1.79669375,1.0,1598.5922575074405,0.12264666637721953,1.3438984567051282,0.7746085320989762,0.2885141375,0.6228758018999716
0.012,1.7964,1.0,1663.8082725707102,0.1275679247448954,1.342998946704728,0.7875868396701046,0.28850180000000003,0.6248460540798697
0.0125,1.79609375,1.0,1726.2002277186143,0.13246157845772327,1.3421409444528063,0.7994881726829763,0.2884889375,0.6267205807683092
0.013000000000000001,1.7957750000000001,1.0,1785.8251247690189,0.13732778308730992,1.3413212727273434,0.8104207821832933,0.28847555,0.6285069795401355
0.0135,1.79544375,1.0,1842.734163070148,0.1421666925576432,1.3405371785262186,0.8204810235032374,0.2884616375,0.6302118304891657
0.014,1.7951000000000001,1.0,1896.9761601188634,0.14697845919346175,1.3397862326314982,0.8297546096232964,0.2884472,0.6318409314862672
0.0145,1.79474375,1.0,1948.6232080754253,0.1517632353195042,1.3390660058252477,0.8383176966770436,0.2884322375,0.6334000117784219
0.015,1.794375,1.0,1997.7486148851076,0.15652117216475406,1.3383742817539668,0.8462380619984172,0.28841675,0.6348942775748951
0.0155,1.79399375,1.0,2044.458997663038,0.1612524219304605,1.3377086877489226,0.8535759654413799,0.2884007375,0.6363292162592498
0.016,1.7936,1.0,2088.822118040121,0.1659571332706355,1.3370674361292607,0.8603852683142797,0.2883842,0.6377090035116286
0.0165,1.7931937500000001,1.0,2130.9108754731146,0.1706354543414896,1.3364488259945095,0.8667140336375052,0.2883671375,0.6390375876496055
0.017,1.792775,1.0,2170.8102751896063,0.17528753329923344,1.3358511564441973,0.872605186914208,0.28834955,0.6403188798312989
0.0175,1.7923437500000001,1.0,2208.6066921916135,0.17991351733175617,1.3352728246079013,0.8780971490674067,0.2883314375,0.6415565468094371
0.018000000000000002,1.7919,1.0,2244.394759737452,0.18451355431252622,1.3347122429423757,0.8832243432705973,0.2883128,0.6427541914046049
0.0185,1.79144375,1.0,2278.2503976261955,0.18908778923492073,1.3341680984548974,0.8880177242857323,0.2882936375,0.6439148022163202
0.019,1.790975,1.0,2310.245851246291,0.1936363658629009,1.3336391867062565,0.8925051353917433,0.28827395,0.6450411131823589
0.0195,1.79049375,1.0,2340.459768415674,0.1981594279604277,1.3331243032572435,0.8967116378739068,0.2882537375,0.6461358373066839
0.02,1.79,1.0,2368.974120665379,0.20265711887322815,1.3326222684242672,0.9006598314831915,0.288233,0.6472016152687969
0.0205,1.78949375,1.0,2395.8644067186806,0.20712958085797492,1.3321320166860626,0.9043701495092952,0.2882117375,0.648240827461891
0.021,1.788975,1.0,2421.2156022984104,0.21157695792071332,1.3316524352360162,0.9078610640555771,0.28818995000000003,0.6492559381441968
0.021500000000000002,1.78844375,1.0,2445.0868956492723,0.21599938900617316,1.331182699976607,0.911149367046692,0.2881676375,0.6502487858297346
0.022,1.7879,1.0,2467.5408089918274,0.22039701305908416,1.3307219868103146,0.9142502932505332,0.2881448,0.6512211971946368
0.0225,1.78734375,1.0,2488.6429230009803,0.2247699690241762,1.3302694716396186,0.9171776862128982,0.28812143749999997,0.6521749875729821
0.023,1.786775,1.0,2508.4616163424143,0.22911839584617907,1.3298243303669979,0.9199441445721739,0.28809755,0.6531119614093159
0.0235,1.78619375,1.0,2527.057226485677,0.23344242997126496,1.3293858389710271,0.9225611685269506,0.28807313749999996,0.6540337024405376
0.024,1.7856,1.0,2544.4975391528055,0.23774221176181906,1.3289532237975141,0.9250392481154199,0.2880482,0.6549418895192047
0.0245,1.78499375,1.0,2560.8353833833835,0.24201787685878884,1.3285258708069498,0.9273879976337293,0.2880227375,0.655837857814207
0.025,1.784375,1.0,2576.118148552256,0.24626955885450658,1.3281032323687554,0.9296162274632739,0.28799675,0.6567227962665003
0.025500000000000002,1.78374375,1.0,2590.3946592110196,0.2504973913413045,1.3276847608523523,0.931732012724368,0.2879702375,0.6575978874526043
0.026000000000000002,1.7831000000000001,1.0,2603.715052627164,0.2547015079115149,1.3272699086271615,0.9337427646097194,0.2879432,0.6584643077396981
0.0265,1.78244375,1.0,2616.1306629722076,0.25888204215747007,1.3268581280626046,0.9356552939268891,0.2879156375,0.6593232274215879
0.027,1.781775,1.0,2627.685575072865,0.26303912556241504,1.326448948763191,0.9374758787751302,0.28788755,0.660175650036376
0.0275,1.7810937500000001,1.0,2638.4246834288297,0.2671728911242544,1.3260419013263518,0.9392103039191397,0.2878589375,0.6610225720009486
0.028,1.7804,1.0,2648.402659691486,0.27128347314321605,1.325636433812454,0.9408638937195353,0.2878298,0.6618651561667962
0.0285,1.77969375,1.0,2657.6520929246203,0.2753709993141547,1.3252322052220544,0.9424415931121866,0.2878001375,0.6627041220867331
0.029,1.778975,1.0,2666.2061559694203,0.2794355973319252,1.324828874555709,0.9439479739031016,0.28776995,0.6635401857617074
0.029500000000000002,1.7782437500000001,1.0,2674.098554686506,0.2834773948913823,1.3244261008139748,0.9453872677301747,0.2877392375,0.6643740596640326
0.03,1.7775,1.0,2681.363479776174,0.28749651968738077,1.3240235429974079,0.9467633957200556,0.287708,0.6652064527532111
0.0305,1.77674375,1.0,2688.0355611768873,0.2914930994147755,1.3236208601065649,0.9480799952074482,0.2876762375,0.666038070484334
0.031,1.775975,1.0,2694.1498250418526,0.29546726176842125,1.323217711142002,0.9493404438397244,0.28764395,0.6668696148090731
0.0315,1.7751937500000001,1.0,2699.734420236147,0.2994191297663551,1.3228138212114295,0.9505478880962301,0.2876111375,0.6677016480703929
0.032,1.7744,1.0,2704.825699362166,0.3033488344179007,1.3224088431679144,0.9517052493585314,0.2875778,0.6685348783390535
0.0325,1.77359375,1.0,2709.4477281866843,0.3072564987750927,1.3220025445925734,0.9528152598896019,0.2875439375,0.6693697744767468
0.033,1.772775,1.0,2713.6229077611047,0.3111422445708223,1.3215947102108059,0.9538804684817523,0.28750955,0.6702067677437111
0.0335,1.7719437500000002,1.0,2717.3738281788733,0.3150061935379807,1.3211851247480118,0.9549032534765718,0.2874746375,0.6710462871192734
0.034,1.7711000000000001,1.0,2720.723249475268,0.3188484674094592,1.3207735729295909,0.9558858361895268,0.2874392,0.6718887592792873
0.0345,1.7702437500000001,1.0,2723.6940835550113,0.32266918791814914,1.320359839480943,0.9568302931263731,0.2874032375,0.6727346085706136
0.035,1.7693750000000001,1.0,2726.309377147087,0.3264684767969417,1.319943709127468,0.9577385671128117,0.28736675,0.6735842569826473
0.035500000000000004,1.76849375,1.0,2728.586833439155,0.3302464505080687,1.3195250162535288,0.9586124813995432,0.2873297375,0.6744380229214992
0.036000000000000004,1.7676,1.0,2730.5474444129977,0.3340032299374851,1.3191035662272843,0.9594537427674635,0.2872922,0.6752962819548125
0.0365,1.76669375,1.0,2732.2199906236697,0.33773894496653556,1.3186790944637936,0.9602639470366745,0.2872541375,0.6761595495909966
0.037,1.765775,1.0,2733.617673545158,0.3414537103377719,1.318251478648233,0.9610446029657272,0.28721555,0.6770280495478738
0.0375,1.76484375,1.0,2734.753751422482,0.3451476407937458,1.3178205964657794,0.9617971278913372,0.2871764375,0.677902004024669
0.038,1.7639,1.0,2735.641532654416,0.34882085107700916,1.3173863256016092,0.9625228542755522,0.28713679999999997,0.6787816336770068
0.0385,1.76294375,1.0,2736.294369508676,0.3524734559301136,1.3169485437408985,0.9632230357150651,0.28709663750000003,0.6796671575909559
0.039,1.761975,1.0,2736.7256521677887,0.35610557009561095,1.3165071285688241,0.963898852462219,0.28705595,0.6805587932561156
0.0395,1.7609937500000001,1.0,2736.9488031080855,0.3597173083160529,1.3160619577705626,0.964551416502222,0.2870147375,0.6814567565377524
0.04,1.76,1.0,2736.9772718090194,0.3633087853339913,1.3156129090312902,0.9651817762266047,0.286973,0.6823612616479799
0.0405,1.7589937500000001,1.0,2736.824529795009,0.3668801158919779,1.3151598600361838,0.9657909207389825,0.2869307375,0.6832725211159856
0.041,1.757975,1.0,2736.504066008791,0.37043141473256436,1.3147026884704196,0.9663797838256113,0.28688795,0.6841907457573024
0.0415,1.75694375,1.0,2736.0281818654357,0.3739627957578678,1.3142412829196073,0.9669492484024128,0.2868446375,0.6851161227966815
0.042,1.7559,1.0,2735.4049961260316,0.37747436959207054,1.313775570035119,0.967500151710565,0.28680079999999997,0.6860487616362759
0.0425,1.75484375,1.0,2734.643788790603,0.3809662465539172,1.3133054660017782,0.9680332847587202,0.2867564375,0.6869887913692876
0.043000000000000003,1.753775,1.0,2733.7534667678024,0.3844385365289141,1.3128308904457358,0.9685493964103034,0.28671155,0.6879363328537247
0.043500000000000004,1.75269375,1.0,2732.742940797571,0.3878913494025674,1.3123517629931432,0.9690491958524884,0.28666613750000003,0.6888915055965412
0.044,1.7516,1.0,2731.6190870536784,0.39132479486123384,1.3118680217728638,0.969533356513834,0.2866202,0.6898543909294661
0.0445,1.75049375,1.0,2730.391032899512,0.3947389815455567,1.3113795844706726,0.9700025151341002,0.2865737375,0.6908251096137477
0.045,1.7493751615680473,1.0,2729.0717380995907,0.39813401726092923,1.3108864068844293,0.9704572785485814,0.286526756785858,0.6918037054033453
0.0455,1.748252171344448,1.0,2728.050494729706,0.40151000951873883,1.310388534322549,0.970898229431583,0.2864795911964668,0.6927900438810581
0.046,1.747129181120849,1.0,2727.510535842221,0.4048670651835893,1.3098862870162955,0.9713259414043927,0.28643242560707566,0.6937834474466011
0.0465,1.7460061908972497,1.0,2727.4136117169196,0.4082052903310459,1.3093800114738714,0.9717409611903973,0.2863852600176845,0.6947831903712602
0.047,1.7448832006736505,1.0,2727.7230355559705,0.4115247907582188,1.3088700410571723,0.972143807436237,0.28633809442829333,0.695788576968561
0.0475,1.7437602104500514,1.0,2728.4061468495706,0.41482567138835885,1.308356673325143,0.9725349706956948,0.28629092883890217,0.6967989860199331
0.048,1.7426372202264522,1.0,2729.439622566808,0.41810803384419637,1.3078401215529252,0.9729149113896334,0.286243763249511,0.6978139654409448
0.0485,1.741514230002853,1.0,2730.7845224962357,0.42137198585760793,1.3073207414159294,0.9732840785009119,0.28619659766011984,0.6988327866567714
0.049,1.7403912397792538,1.0,2732.4096106401353,0.4246176329226209,1.3067988187746116,0.9736428945912693,0.2861494320707286,0.6998548622401246
0.0495,1.7392682495556546,1.0,2734.2965687553265,0.42784507570876107,1.3062745222562564,0.9739917538377751,0.2861022664813375,0.7008798374257077
0.05,1.7381452593320554,1.0,2736.427092287004,0.4310544148855541,1.305748020488148,0.9743310320936865,0.2860551008919463,0.7019073595904944
0.0505,1.7370222691084563,1.0,2738.7828818096223,0.43424575112252606,1.3052194820975707,0.9746610879090253,0.2860079353025552,0.7029370782783506
0.051000000000000004,1.7358992788848568,1.0,2741.345635096383,0.4374191850892025,1.3046890757118088,0.9749822634856289,0.285960769713164,0.7039686452228433
0.051500000000000004,1.7347762886612577,1.0,2744.097039821052,0.4405748174551094,1.3041569699581466,0.9752948855714244,0.2859136041237728,0.705001714368237
0.052000000000000005,1.7336532984376585,1.0,2747.018766888448,0.44371274888977247,1.3036233334638683,0.9755992662982863,0.28586643853438165,0.7060359418886756
0.0525,1.7325303082140593,1.0,2750.09478166009,0.4468330784184481,1.3030883138722205,0.9758957024741187,0.2858192729449905,0.7070710267668826
0.053,1.73140731799046,1.0,2753.3120861895068,0.44993590467151173,1.3025520311372851,0.9761844761217416,0.2857721073555993,0.7081067233887222
0.0535,1.730284327766861,1.0,2756.653246901625,0.4530213301292395,1.3020146451543593,0.9764658598565708,0.28572494176620816,0.70914271081724
0.054,1.7291613375432617,1.0,2760.109721695714,0.45608945036436266,1.3014762351412221,0.9767401089474383,0.285677776176817,0.7101788253988346
0.0545,1.7280383473196625,1.0,2763.672953862745,0.4591403609496127,1.3009368803156527,0.9770074677846403,0.28563061058742584,0.7112149045468193
0.055,1.7269153570960634,1.0,2767.3343703562114,0.4621741574577209,1.3003966598954304,0.9772681704367141,0.2855834449980347,0.7122507867463939
0.0555,1.7257923668724642,1.0,2771.085380202514,0.46519093546141865,1.299855653098334,0.977522441174273,0.2855362794086435,0.7132863115592205
0.056,1.724669376648865,1.0,2774.9173730500193,0.4681907905334374,1.2993139391421429,0.9777704949631073,0.28548911381925235,0.7143213196275944
0.0565,1.7235463864252658,1.0,2778.821717857486,0.47117381824650845,1.298771597244636,0.9780125379285888,0.28544194822986113,0.7153556526782174
0.057,1.7224233962016666,1.0,2782.789914012296,0.47414011391644295,1.2982287052526487,0.9782487676919905,0.28539478264047,0.7163891561330638
0.0575,1.7213004059780674,1.0,2786.8218233984235,0.4770897601290327,1.2976852655848239,0.9784793685041777,0.2853476170510788,0.7174218196865207
0.058,1.7201774157544683,1.0,2790.900461404467,0.4800228699454493,1.2971414321050518,0.9787045283762669,0.28530045146168764,0.7184533460668332
0.0585,1.719054425530869,1.0,2795.0225130681997,0.4829395330128896,1.2965972354527562,0.9789244189909924,0.2852532858722965,0.7194836732199692
0.059000000000000004,1.7179314353072699,1.0,2799.184654291464,0.48583983897855054,1.2960527062673606,0.9791392052804256,0.2852061202829053,0.7205127395145788
0.059500000000000004,1.7168084450836707,1.0,2803.383551603565,0.4887238774896289,1.295507875188289,0.9793490457452396,0.28515895469351416,0.7215404837426743
0.06,1.7156854548600715,1.0,2807.6158619461485,0.49159173819332164,1.2949627728549649,0.9795540927564791,0.285111789104123,0.72256684512025
0.0605,1.7145624646364723,1.0,2811.8782324782555,0.4944435107368255,1.294417429906812,0.9797544928409241,0.28506462351473183,0.7235917632878425
0.061,1.7134394744128731,1.0,2816.167300402399,0.49727928476733757,1.2938718769832542,0.9799503869510586,0.28501745792534067,0.7246151783110303
0.0615,1.712316484189274,1.0,2820.47969281191,0.5000991499320545,1.2933261447237148,0.9801419107205889,0.2849702923359495,0.7256370306808748
0.062,1.7111934939656748,1.0,2824.812026558173,0.5029031958781733,1.2927802637676178,0.9803291947063818,0.28492312674655834,0.726657261314299
0.0625,1.7100705037420756,1.0,2829.160908139574,0.5056915122528908,1.2922342647543867,0.9805123646176503,0.2848759611571672,0.7276758115544101
0.063,1.7089475135184764,1.0,2833.522933610892,0.5084641887034038,1.2916881783234453,0.9806915415331424,0.284828795567776,0.7286926231707589
0.0635,1.707824523294877,1.0,2837.895855383001,0.511221308999604,1.2911420247123433,0.9808668411507732,0.28478162997838485,0.7297076576734607
0.064,1.7067015330712778,1.0,2842.2799354782537,0.5139629493726982,1.2905958017423442,0.9810383733126165,0.28473446438899364,0.7307209183983552
0.0645,1.7055785428476786,1.0,2846.6682618026193,0.5166892246002048,1.29004957109556,0.9812062498427292,0.28468729879960253,0.7317322905206687
0.065,1.7044555526240794,1.0,2851.059931693296,0.5194002171452907,1.2895033408177774,0.9813705736295288,0.2846401332102113,0.7327417591050569
0.0655,1.7033325624004803,1.0,2855.45403969967,0.5220960094711226,1.2889571189547842,0.9815314439243418,0.28459296762082015,0.7337493093282867
0.066,1.702209572176881,1.0,2859.8496775838944,0.5247766840408673,1.2884109135523678,0.9816889564964381,0.284545802031429,0.7347549264792367
0.0665,1.7010865819532819,1.0,2864.245934323177,0.5274423233176915,1.2878647326563155,0.9818432037803925,0.2844986364420378,0.7357585959588904
0.067,1.6999635917296827,1.0,2868.6418961134364,0.5300930097647621,1.2873185843124149,0.9819942750162058,0.28445147085264666,0.7367603032803245
0.0675,1.6988406015060835,1.0,2873.036646374388,0.5327288258452457,1.286772476566453,0.982142256382589,0.2844043052632555,0.7377600340686963
0.068,1.6977176112824843,1.0,2877.4292657560695,0.5353498540223093,1.2862264174642177,0.9822872311237912,0.28435713967386433,0.7387577740612224
0.0685,1.6965946210588851,1.0,2881.8188321468015,0.5379561767591194,1.2856804150514962,0.9824292796703241,0.28430997408447317,0.7397535091071583
0.069,1.695471630835286,1.0,2886.2044206825803,0.540547876518843,1.2851344773740758,0.9825684797539178,0.284262808495082,0.7407472251677699
0.0695,1.6943486406116868,1.0,2890.5851037579805,0.5431250357646467,1.2845886124777441,0.9827049065170248,0.28421564290569085,0.7417389083163022
0.07,1.6932256503880876,1.0,2894.9599510382127,0.5456877369596972,1.2840428284082885,0.9828386326171601,0.2841684773162997,0.742728544737945
0.07050000000000001,1.6921026601644884,1.0,2899.328029473063,0.5482360625671615,1.2834971332114962,0.9829697283263588,0.2841213117269085,0.7437161207297933
0.07100000000000001,1.6909796699408892,1.0,2903.6884033118613,0.5507700950502062,1.2829515349331548,0.9830982616260101,0.28407414613751736,0.7447016227008025
0.07150000000000001,1.68985667971729,1.0,2908.040134120219,0.5532899168719981,1.282406041619052,0.9832242982973103,0.2840269805481262,0.7456850371717421
0.07200000000000001,1.6887336894936908,1.0,2912.3847043444216,0.5557955663150541,1.281860639988726,0.9833478984672205,0.28397981495873503,0.7466663891107965
