Time [s],Phi [rad],STIM [ ],Fsee [N],Gamma [ ],Lcerel [ ],q [ ],Lmtc [m],fisomrel [ ]
0.0,1.8,1.0,17.967877003132983,1.0209305167784053e-05,1.3793396656869048,0.005000027774572971,0.288653,0.5411397258818473
0.0005,1.79999375,1.0,18.277212944587372,0.005619361347833909,1.379302335715448,0.012941094147446552,0.2886527375,0.5412300322729773
0.001,1.799975,1.0,21.61894892307939,0.011197050482462396,1.3789382441660663,0.035609664261617276,0.28865195,0.5421103542995496
0.0015,1.79994375,1.0,31.07003827262024,0.016743453191950745,1.3780461353789082,0.07060319302507809,0.2886506375,0.5442637739957661
0.002,1.7999,1.0,53.58359447106189,0.02225874496754736,1.3763680534073626,0.1147195985378346,0.2886488,0.5483006644590328
0.0025,1.79984375,1.0,97.12060384644533,0.02774310031641175,1.3739350869697062,0.16457659146408393,0.28864643749999996,0.5541216541229536
0.003,1.7997750000000001,1.0,160.96028720012174,0.03319669276933431,1.3712142643887197,0.21728220669036638,0.28864354999999997,0.5605866387574672
0.0035,1.79969375,1.0,237.68569391025844,0.038619694880326114,1.3685846614661734,0.2706146319724066,0.2886401375,0.5667900106245738
0.004,1.7996,1.0,321.46927887050913,0.0440122782374015,1.3661560259813605,0.32291749010266996,0.2886362,0.5724801168288814
0.0045000000000000005,1.7994937500000001,1.0,409.2703629275882,0.04937461346776262,1.3639227528498334,0.3730361108277313,0.2886317375,0.5776793047136449
0.005,1.799375,1.0,499.41617072315995,0.05470687022888631,1.3618582856828083,0.4202489614852283,0.28862675,0.5824572100851375
0.0055,1.79924375,1.0,590.7931182594942,0.060009217256009655,1.3599387822646913,0.4641750885249934,0.2886212375,0.5868752328501631
0.006,1.7991000000000001,1.0,682.5208155818632,0.06528182230524246,1.3581463655367785,0.5046812407737444,0.2886152,0.5909795307806003
0.006500000000000001,1.79894375,1.0,773.8840338783845,0.07052485220920866,1.3564672062288812,0.5418019297599959,0.2886086375,0.5948059020515826
0.007,1.798775,1.0,864.2885025676184,0.07573847286063431,1.3548903515222508,0.5756778485938886,0.28860155,0.5983827754987668
0.0075,1.79859375,1.0,953.2459481648375,0.08092284922208408,1.3534067371585912,0.6065108874587253,0.2885939375,0.6017336675093063
0.008,1.7984,1.0,1040.3472533465704,0.08607814491774689,1.3520088112608066,0.6345330632000549,0.2885858,0.6048781785546997
0.0085,1.79819375,1.0,1125.3172293056846,0.0912045240665661,1.3506891990041878,0.6599852376644357,0.2885771375,0.6078350947123761
0.009000000000000001,1.797975,1.0,1207.9030434252516,0.0963021486080076,1.3494419959332415,0.6831049253105809,0.28856795,0.6106195519075013
0.0095,1.79774375,1.0,1287.8951125107048,0.1013711790552405,1.3482620853388345,0.7041181438251877,0.2885582375,0.6132446425875202
0.01,1.7975,1.0,1365.1697543340524,0.1064117759214339,1.3471443505118332,0.7232348349998694,0.288548,0.6157232139914461
0.0105,1.79724375,1.0,1439.6617538044247,0.1114240991691937,1.34608391816926,0.7406472163977692,0.2885372375,0.6180673519917503
0.011,1.796975,1.0,1511.3244961261069,0.11640830757040169,1.3450765257681645,0.7565296358700119,0.28852595000000003,0.6202876000120322
0.0115,1.79669375,1.0,1580.1232568737014,0.12136455830246273,1.3441184562457442,0.7710390740799852,0.2885141375,0.6223931379816512
0.012,1.7964,1.0,1646.0594394671984,0.1262930080132275,1.3432061365301269,0.7843160138451537,0.28850180000000003,0.6243926908420405
0.0125,1.79609375,1.0,1709.1762124958702,0.13119381352142861,1.3423360090887446,0.7964857165632667,0.2884889375,0.6262948242384916
0.013000000000000001,1.7957750000000001,1.0,1769.5088073372465,0.13606712970695284,1.3415050473189176,0.8076598516269268,0.28847555,0.6281068324480352
0.0135,1.79544375,1.0,1827.0935912003524,0.14091311003579104,1.3407105721606558,0.8179377976764227,0.2884616375,0.6298351594960414
0.014,1.7951000000000001,1.0,1881.9945766270523,0.14573190797393423,1.339949904553969,0.8274078366831585,0.2884472,0.6314861683474089
0.0145,1.79474375,1.0,1934.2813105941912,0.15052367592227067,1.339220578020411,0.836148477264792,0.2884322375,0.6330656870137064
0.015,1.794375,1.0,1984.0539410890246,0.15528856691137494,1.338520033863581,0.8442294742874924,0.28841675,0.6345796768909439
0.0155,1.79399375,1.0,2031.3740140438356,0.1600267306223435,1.33784633512197,0.8517130856161689,0.2884007375,0.6360326972087166
0.016,1.7936,1.0,2076.3136290386624,0.1647383164372188,1.3371976008036868,0.8586547682285609,0.2883842,0.6374291390696349
0.0165,1.7931937500000001,1.0,2118.959236507553,0.16942347373804345,1.3365719499168405,0.865103966638674,0.2883671375,0.6387733499017088
0.017,1.792775,1.0,2159.3925800234324,0.17408235056247798,1.3359676835811805,0.8711048774706499,0.28834955,0.6400692461386984
0.0175,1.7923437500000001,1.0,2197.720790518689,0.17871509607377853,1.3353829604632097,0.8766969776880728,0.2883314375,0.641321013491496
0.018000000000000002,1.7919,1.0,2234.0137635081146,0.1833218556453996,1.3348164218614555,0.8819157468569366,0.2883128,0.6425317718491449
0.0185,1.79144375,1.0,2268.3458797190588,0.18790277435487843,1.334266747475761,0.8867930134601557,0.2882936375,0.6437045329463515
0.019,1.790975,1.0,2300.79904922446,0.1924579972797525,1.3337326170059696,0.8913573677955076,0.28827395,0.6448422842676876
0.0195,1.79049375,1.0,2331.4535261974893,0.19698766838209447,1.333212794198265,0.8956345530555958,0.2882537375,0.6459478118067115
0.02,1.79,1.0,2360.3987104289554,0.20149193273481034,1.3327060128065762,0.8996477626126366,0.288233,0.647023944650352
0.0205,1.78949375,1.0,2387.7070464634066,0.2059709325765513,1.332211225962041,0.9034179803273029,0.2882117375,0.648073027247442
0.021,1.788975,1.0,2413.4430834376562,0.210424808422738,1.3317275078245976,0.906964202614992,0.28818995000000003,0.6490971318637805
0.021500000000000002,1.78844375,1.0,2437.6753472742407,0.21485370078879118,1.3312539325541857,0.9103036305869566,0.2881676375,0.6500983168602903
0.022,1.7879,1.0,2460.4760070937627,0.21925775019013144,1.3307895743107439,0.9134518644764218,0.2881448,0.6510786273192503
0.0225,1.78734375,1.0,2481.9107236532595,0.22363709511937144,1.3303336010224212,0.9164230922804117,0.28812143749999997,0.6520398980725761
0.023,1.786775,1.0,2502.055213390037,0.22799187716207922,1.3298851124324176,0.9192302098091457,0.28809755,0.6529840962865154
0.0235,1.78619375,1.0,2520.9678216966863,0.2323222337435909,1.3294433984095333,0.9218849999946586,0.28807313749999996,0.6539127782027345
0.024,1.7856,1.0,2538.70044101245,0.23662830031974175,1.3290078303283688,0.9243982273315021,0.2880482,0.6548273200976381
0.0245,1.78499375,1.0,2555.306855660429,0.24091021234636703,1.3285777795635243,0.9267797272070277,0.2880227375,0.6557290904882145
0.025,1.784375,1.0,2570.842581888816,0.24516810527930208,1.3281526174896006,0.9290384988432909,0.28799675,0.6566194503658288
0.025500000000000002,1.78374375,1.0,2585.3647166743704,0.24940211457438222,1.3277317154811976,0.9311827878110432,0.2879702375,0.6574997534048194
0.026000000000000002,1.7831000000000001,1.0,2598.919944936037,0.25361237233667566,1.3273145553008532,0.9332201758681733,0.2879432,0.6583711157149386
0.0265,1.78244375,1.0,2611.5695116078205,0.2577990164679603,1.3269004944629974,0.9351576110276737,0.2879156375,0.6592349066321678
0.027,1.781775,1.0,2623.3571587835827,0.26196217903927926,1.3264890639352434,0.9370015090949304,0.28788755,0.6600921273300019
0.0275,1.7810937500000001,1.0,2634.320391950114,0.2661019898563049,1.3260798609779179,0.9387577880458874,0.2878589375,0.6609436360479011
0.028,1.7804,1.0,2644.4975059501407,0.2702185787247094,1.3256724828513475,0.9404319048536037,0.2878298,0.6617902867137715
0.0285,1.77969375,1.0,2653.927516482245,0.27431207545016495,1.3252665268158592,0.9420288974493835,0.2878001375,0.6626329289960076
0.029,1.778975,1.0,2662.6500951965886,0.27838260983834384,1.3248615901317802,0.9435534223584753,0.28776995,0.6634724083451891
0.029500000000000002,1.7782437500000001,1.0,2670.705508387269,0.28243031169491833,1.3244572700594368,0.9450097885033149,0.2877392375,0.6643095660254391
0.03,1.7775,1.0,2678.126038012594,0.28645530641332984,1.3240532420535727,0.9464019965175715,0.287708,0.6651450775337011
0.0305,1.77674375,1.0,2684.9538005798286,0.2904577270497775,1.323649095464751,0.94773374781862,0.2876762375,0.6659797927450525
0.031,1.775975,1.0,2691.219617903848,0.2944377002768362,1.323244527078162,0.9490084903103296,0.28764395,0.666814335822753
0.0315,1.7751937500000001,1.0,2696.9495590844626,0.2983953498326244,1.3228392802760622,0.9502294330137155,0.2876111375,0.6676492318585272
0.032,1.7744,1.0,2702.1699824101297,0.3023307994552605,1.3224330984407084,0.9513995610396825,0.2875778,0.6684850032841978
0.0325,1.77359375,1.0,2706.9075078294627,0.306244172882863,1.3220257249543577,0.9525216539547824,0.2875439375,0.6693221698584835
0.033,1.772775,1.0,2711.188990882174,0.31013559385355033,1.3216169031992666,0.953598302429186,0.28750955,0.6701612486495969
0.0335,1.7719437500000002,1.0,2715.041498090562,0.3140051861054409,1.3212063765576922,0.9546319233458984,0.2874746375,0.6710027540136416
0.034,1.7711000000000001,1.0,2718.4922838107905,0.3178530733766532,1.3207938884118915,0.9556247735298105,0.2874392,0.6718471975688103
0.0345,1.7702437500000001,1.0,2721.5519969092547,0.32167936930342256,1.3203793348141541,0.956578976415458,0.2874032375,0.6726947762246178
0.035,1.7693750000000001,1.0,2724.26113742425,0.32548420892274316,1.319962341243784,0.9574964944260415,0.28736675,0.6735462378373608
0.035500000000000004,1.76849375,1.0,2726.639084812357,0.32926771185852083,1.319542726675923,0.9583791815681444,0.2873297375,0.6744019318511365
0.036000000000000004,1.7676,1.0,2728.701110664936,0.33302999490752505,1.3191203483215486,0.9592287783154847,0.2872922,0.6752621278288697
0.0365,1.76669375,1.0,2730.462567408642,0.3367711748665252,1.318695063391638,0.9600469167802762,0.2872541375,0.6761270936536987
0.037,1.765775,1.0,2731.938879409094,0.3404913685322907,1.3182667290971677,0.9608351286797674,0.28721555,0.6769970955031572
0.0375,1.76484375,1.0,2733.1455345273134,0.34419069270159086,1.3178352026491151,0.9615948526315814,0.2871764375,0.6778723978220533
0.038,1.7639,1.0,2734.0980761274222,0.3478692641711952,1.3174003412584574,0.9623274408412094,0.28713679999999997,0.6787532632940523
0.0385,1.76294375,1.0,2734.8120955372465,0.3515271997378731,1.3169620021361716,0.9630341652384159,0.28709663750000003,0.6796399528119564
0.039,1.761975,1.0,2735.303224960078,0.3551646161983939,1.3165200424932348,0.9637162231134834,0.28705595,0.6805327254466863
0.0395,1.7609937500000001,1.0,2735.5871308395353,0.35878163034952704,1.3160743195406241,0.964374742299025,0.2870147375,0.6814318384149599
0.04,1.76,1.0,2735.670871403666,0.36237835129717566,1.3156247689011138,0.9650107915378268,0.286973,0.6823373892095617
0.0405,1.7589937500000001,1.0,2735.5733069201156,0.36595490043372064,1.3151712192486562,0.9656253717547878,0.2869307375,0.683249689277154
0.041,1.757975,1.0,2735.309419259602,0.3695113937570639,1.3147135346362804,0.9662194298357983,0.28688795,0.684168976775315
0.0415,1.75694375,1.0,2734.887667773536,0.3730479409211005,1.3142516384659504,0.9667938641155829,0.2868446375,0.6850953690097756
0.042,1.7559,1.0,2734.31652338186,0.3765646515797258,1.3137854541396303,0.9673495236446477,0.28680079999999997,0.6860289820484247
0.0425,1.75484375,1.0,2733.604466203766,0.3800616353868349,1.3133149050592836,0.9678872113939991,0.2867564375,0.6869699307005488
0.043000000000000003,1.753775,1.0,2732.7599833174595,0.38353900199632307,1.3128399146268743,0.9684076872200327,0.28671155,0.6879183284956951
0.043500000000000004,1.75269375,1.0,2731.7915666514473,0.38699686106208553,1.3123604062443663,0.968911670609784,0.28666613750000003,0.6888742876621634
0.044,1.7516,1.0,2730.707711004471,0.3904353222380174,1.3118763033137235,0.9693998432248506,0.2866202,0.6898379191051223
0.0445,1.75049375,1.0,2729.5169121968024,0.39385449517801396,1.3113875292369095,0.9698728512606117,0.2865737375,0.6908093323843523
0.045,1.7493750000000001,1.0,2728.22766535071,0.3972544895359705,1.3108940074158886,0.9703313076358451,0.28652675,0.6917886356916116
0.0455,1.74824375,1.0,2726.8466023500932,0.40063541013612053,1.310395678176192,0.970775794623953,0.2864792375,0.6927759023263451
0.046,1.7471,1.0,2725.380649577414,0.4039973660708299,1.3098924791485471,0.9712068655233772,0.2864312,0.6937712097167325
0.0465,1.7459437500000001,1.0,2723.837965430582,0.40734047019728487,1.3093843367248006,0.9716250456685463,0.28638263750000004,0.6947746562160562
0.047,1.744775,1.0,2722.223232180011,0.41066482546333916,1.308871208884293,0.9720308353717102,0.28633355,0.6957862765381231
0.0475,1.74359375,1.0,2720.5411296424113,0.41397053481684654,1.3083530536063643,0.9724247104595788,0.28628393750000003,0.6968061043738221
0.048,1.7424,1.0,2718.796334584583,0.4172577012056607,1.3078298288703545,0.9728071236971447,0.2862338,0.6978341723777051
0.0485,1.74119375,1.0,2716.9935201686344,0.4205264275776355,1.307301492655604,0.9731785061159224,0.2861831375,0.6988705121544574
0.049,1.739975,1.0,2715.1373554342103,0.4237768168806245,1.3067680029414523,0.9735392682538431,0.28613195,0.6999151542452586
0.0495,1.73874375,1.0,2713.2325048214448,0.4270089720624816,1.30622931770724,0.973889801313439,0.2860802375,0.7009681281140252
0.05,1.7375,1.0,2711.283627732376,0.4302229960710605,1.305685394932307,0.9742304782443961,0.286028,0.7020294621335442
0.0505,1.73624375,1.0,2709.295378131376,0.43341899185421495,1.3051361925959937,0.9745616547560527,0.2859752375,0.7030991835714945
0.051000000000000004,1.734975,1.0,2707.2712560745344,0.43659705616649996,1.3045816791562874,0.9748836702590643,0.28592195,0.704177298221736
0.051500000000000004,1.73369375,1.0,2705.2127548740486,0.4397572761963261,1.3040218413534632,0.9751968489141892,0.2858681375,0.7052637754465869
0.052000000000000005,1.7324,1.0,2703.129010573783,0.4428997852076558,1.303456596106407,0.975501500839404,0.2858138,0.706358719003549
0.0525,1.73109375,1.0,2701.021867514658,0.44602467825567554,1.3028859268375346,0.9757979224038862,0.28575893750000003,0.7074621024354837
0.053,1.729775,1.0,2698.893167549585,0.449132050395572,1.3023098169692606,0.9760863969058615,0.28570355000000003,0.7085738984821817
0.0535,1.72844375,1.0,2696.7447499651353,0.45222199668253166,1.301728249924001,0.9763671952586299,0.2856476375,0.709694079074616
0.054,1.7271,1.0,2694.578451409694,0.4552946121717411,1.3011412091241705,0.9766405766349316,0.2855912,0.7108226153291856
0.0545,1.7257437500000001,1.0,2692.3961058270847,0.4583499919183869,1.3005486779921847,0.9769067890725122,0.2855342375,0.7119594775419327
0.055,1.724375,1.0,2690.1995443966835,0.46138823097765547,1.2999506399504586,0.9771660700435335,0.28547675,0.7131046351827499
0.0555,1.72299375,1.0,2687.990595479783,0.46440942440473354,1.2993470784214074,0.9774186469902661,0.2854187375,0.7142580568895656
0.056,1.7216,1.0,2685.7710845715355,0.4674136672548076,1.2987379768274465,0.9776647378293296,0.2853602,0.7154197104625128
0.0565,1.72019375,1.0,2683.542834259437,0.4704010545830642,1.2981233185909913,0.9779045514265634,0.28530113749999997,0.7165895628580814
0.057,1.718775,1.0,2681.3076641879106,0.4733716814446899,1.2975030871344566,0.9781382880444701,0.28524155,0.7177675801832524
0.0575,1.71734375,1.0,2679.0673910282317,0.4763256428948712,1.296877265880258,0.9783661397640219,0.2851814375,0.7189537276896127
0.058,1.7159,1.0,2676.823828455815,0.4792630339887947,1.2962458382508106,0.9785882908824924,0.2851208,0.7201479697674571
0.0585,1.71444375,1.0,2674.578787132589,0.482183949781647,1.2956087876685298,0.9788049182888598,0.2850596375,0.7213502699398663
0.059000000000000004,1.7129750000000001,1.0,2672.334074695621,0.48508848532861465,1.2949660975558308,0.9790161918182108,0.28499795,0.7225605908567734
0.059500000000000004,1.71149375,1.0,2670.0847056531534,0.48797668859442017,1.2943178137374454,0.9792222740927777,0.2849357375,0.7237787771581965
0.06,1.71,1.0,2667.8411679954456,0.4908487113591234,1.2936638398510885,0.9794233222215737,0.284873,0.725004939935951
0.0605,1.7084937500000001,1.0,2665.6039774179335,0.4937046408618461,1.293004171096777,0.9796194868044814,0.2848097375,0.726239016963937
0.061,1.7069750000000001,1.0,2663.3734531865034,0.49654456303300076,1.29233880447411,0.9798109126285989,0.28474595,0.7274809419599748
0.0615,1.7054437500000001,1.0,2661.149914038802,0.4993685638029997,1.2916677369826859,0.9799977389451994,0.2846816375,0.7287306479700216
0.062,1.7039,1.0,2658.9336781878737,0.5021767291022555,1.290990965622104,0.980180099721603,0.2846168,0.7299880673670777
0.0625,1.70234375,1.0,2656.7250633259027,0.5049691448611804,1.290308487391963,0.9803581238797445,0.2845514375,0.7312531318500971
0.063,1.7007750000000001,1.0,2654.5243866282167,0.5077458970101869,1.289620299291862,0.9805319355222396,0.28448555,0.7325257724428964
0.0635,1.69919375,1.0,2652.33196475772,0.5105070714796875,1.2889263983213997,0.9807016541466874,0.28441913750000003,0.733805919493061
0.064,1.6976,1.0,2650.148113868714,0.5132527542000945,1.2882267814801749,0.9808673948489083,0.2843522,0.735093502670853
0.0645,1.69599375,1.0,2647.9731496122795,0.5159830311018205,1.2875214457677868,0.9810292685157597,0.2842847375,0.7363884509681174
0.065,1.694375,1.0,2645.8073871405927,0.5186979881152778,1.2868103881838342,0.9811873820081403,0.28421675,0.7376906926971887
0.0655,1.69274375,1.0,2643.6511411118336,0.5213977111708787,1.286093605727916,0.981341838334746,0.2841482375,0.7390001554897951
0.066,1.6911,1.0,2641.504725695776,0.524082286199036,1.285371095399631,0.9814927368171117,0.2840792,0.7403167662959655
0.0665,1.6894437500000001,1.0,2639.3684545790275,0.5267517991301617,1.284642854198578,0.9816401732464282,0.2840096375,0.7416404513829309
0.067,1.687775,1.0,2637.2426409703426,0.5294063358946685,1.283908879124356,0.9817842400326071,0.28393955,0.74297113633403
0.0675,1.68609375,1.0,2635.1275976069705,0.5320459824229686,1.2831691671765642,0.9819250263460225,0.2838689375,0.7443087460476119
0.068,1.6844000000000001,1.0,2633.023636760273,0.5346708246454748,1.282423715354801,0.9820626182523416,0.2837978,0.7456532047359385
0.0685,1.68269375,1.0,2630.931070241921,0.5372809484925991,1.2816725206586657,0.9821970988408234,0.2837261375,0.7470044359240866
0.069,1.680975,1.0,2628.8507903428376,0.5398763942847536,1.2809155747071663,0.9823285451716106,0.28365395,0.7483623720884645
0.0695,1.67924375,1.0,2626.783064948415,0.5424572943906819,1.280152874892216,0.9824570378081188,0.28358123749999997,0.749726934597023
0.07,1.6775,1.0,2624.7277350186423,0.5450237355856449,1.2793844225596236,0.9825826518751641,0.283508,0.7510980370887299
0.07050000000000001,1.67574375,1.0,2622.6846924446136,0.547575794713345,1.2786102185857444,0.9827054593325473,0.2834342375,0.7524755934298588
0.07100000000000001,1.673975,1.0,2620.6538293404005,0.5501135486174846,1.2778302638469343,0.9828255297403827,0.28335995,0.7538595168709913
0.07150000000000001,1.67219375,1.0,2618.6350380411495,0.552637074141766,1.277044559219548,0.9829429303537245,0.2832851375,0.7552497200473416
0.07200000000000001,1.6704,1.0,2616.6282111009486,0.5551464481298914,1.2762531055799415,0.9830577262128383,0.2832098,0.7566461149790742
0.0725,1.66859375,1.0,2614.633241290762,0.5576417474255633,1.27545590380447,0.9831699802293531,0.2831339375,0.7580486130716282
0.073,1.6667750000000001,1.0,2612.6500215964243,0.5601230488724839,1.2746529547694887,0.983279753268505,0.28305755,0.759457125116037
0.0735,1.66494375,1.0,2610.6784452168413,0.5625904293143554,1.273844259351353,0.9833871042276733,0.2829806375,0.7608715612892503
0.074,1.6631,1.0,2608.7184055615626,0.5650439655948805,1.2730298184264186,0.9834920901113979,0.2829032,0.7622918311544544
0.0745,1.6612437500000001,1.0,2606.769796249309,0.567483734557761,1.2722096328710406,0.9835947661030615,0.2828252375,0.7637178436613944
0.075,1.659375,1.0,2604.8325111059303,0.5699098130466997,1.2713837035615745,0.983695185633398,0.28274675,0.7651495071466947
0.0755,1.65749375,1.0,2602.9064441621954,0.5723222779053987,1.2705520313743757,0.9837934004459948,0.2826677375,0.7665867293341799
