Time [s],Phi [rad],STIM [ ],Fsee [N],Gamma [ ],Lcerel [ ],q [ ],Lmtc [m],fisomrel [ ]
0.0,1.8,1.0,18.70926096547561,0.0008786465749720715,1.3792574470961942,0.005198535396543479,0.288653,0.5413386123152979
0.0005,1.79999375,1.0,19.27867064229017,0.00648292737136582,1.3791925781147851,0.015526849237876703,0.2886527375,0.5414954996896129
0.001,1.799975,1.0,23.266214519678105,0.01205577258363173,1.3787730906773525,0.040277556725588234,0.28865195,0.5425093934270602
0.0015,1.79994375,1.0,34.175409686060846,0.017597358540820465,1.3777878713636074,0.07689886299547695,0.2886506375,0.5448862380438599
0.002,1.7999,1.0,59.550727372980305,0.02310786058219789,1.375991156931791,0.12211527514742053,0.2886488,0.5492048785366495
0.0025,1.79984375,1.0,106.54563092012553,0.028587453064856636,1.3734914356107712,0.17258408155460775,0.28864643749999996,0.5551790418539704
0.003,1.7997750000000001,1.0,172.84578334715079,0.034036309365970116,1.370777304639941,0.22551800847948006,0.28864354999999997,0.5616205049870548
0.0035,1.79969375,1.0,250.91238383726625,0.03945460189044647,1.3681827619670652,0.2787882954858072,0.2886401375,0.5677342276476511
0.004,1.7996,1.0,335.41995527666086,0.04484250207532293,1.365790451343812,0.3308192557599295,0.2886362,0.5733333727860024
0.0045000000000000005,1.7994937500000001,1.0,423.6376329244451,0.05020018041081309,1.3635884082845553,0.38052819958826145,0.2886317375,0.5784549405647434
0.005,1.799375,1.0,514.0132721612067,0.05552780638445464,1.3615503333440835,0.4272525115103938,0.28862675,0.5831675907486675
0.0055,1.79924375,1.0,605.4844179331474,0.06082554863783981,1.359653513114981,0.47065529725075517,0.2886212375,0.5875298166583298
0.006,1.7991000000000001,1.0,697.1799867779323,0.06609357467178864,1.3578813169683812,0.510634215410897,0.2886152,0.5915847033321973
0.006500000000000001,1.79894375,1.0,788.4250631044882,0.07133205132582994,1.3562201369513245,0.547243517901562,0.2886086375,0.5953673916785065
0.007,1.798775,1.0,878.6267673553324,0.07654114416203929,1.354659695653659,0.5806360870952983,0.28860155,0.5989046565014478
0.0075,1.79859375,1.0,967.3290174581585,0.0817210182375348,1.3531909194986589,0.6110200230534198,0.2885939375,0.602219943825548
0.008,1.7984,1.0,1054.1368639849195,0.08687183725883789,1.3518064542772228,0.6386299355136051,0.2885858,0.6053323301303838
0.0085,1.79819375,1.0,1138.7408095082392,0.09199376408884041,1.3504997340590936,0.6637072019317927,0.2885771375,0.608258725843446
0.009000000000000001,1.797975,1.0,1220.9318646256952,0.09708696128483418,1.3492644502718494,0.6864876481175273,0.28856795,0.6110151268377004
0.0095,1.79774375,1.0,1300.5240373607874,0.1021515895652062,1.3480953787576753,0.7071949613742372,0.2885582375,0.6136148191567302
0.01,1.7975,1.0,1377.3893790733428,0.1071878090733197,1.3469876453426999,0.7260365417938694,0.288548,0.616070070087783
0.0105,1.79724375,1.0,1451.4625143807496,0.11219577947862797,1.3459365241370504,0.7432018742068243,0.2885372375,0.618392606084107
0.011,1.796975,1.0,1522.6988274204766,0.11717565941618167,1.3449378439410062,0.7588625792715561,0.28852595000000003,0.6205927417644452
0.0115,1.79669375,1.0,1591.0676679693513,0.12212760587713398,1.3439879340938723,0.7731730249698767,0.2885141375,0.6226795318808347
0.012,1.7964,1.0,1656.5770968548052,0.1270517753804925,1.3430832253027534,0.7862712550385358,0.28850180000000003,0.6246616725633296
0.0125,1.79609375,1.0,1719.2727201663054,0.13194832472757936,1.3422202046559455,0.7982803266959366,0.2884889375,0.6265476132820242
0.013000000000000001,1.7957750000000001,1.0,1779.1934326397661,0.1368174088611376,1.3413958653749845,0.809309911753723,0.28847555,0.6283445889823518
0.0135,1.79544375,1.0,1836.375281172539,0.14165918088743223,1.3406075848945715,0.8194576156233311,0.2884616375,0.6300589066080589
0.014,1.7951000000000001,1.0,1890.8812360591407,0.1464737939127283,1.3398527406494078,0.8288101431970213,0.2884472,0.6316967942381579
0.0145,1.79474375,1.0,1942.7894361524936,0.15126140037304467,1.3391288114154265,0.8374445662960519,0.2884322375,0.6332641877167096
0.015,1.794375,1.0,1992.187689363117,0.15602215291514213,1.3384334061311087,0.8454294465884259,0.28841675,0.6347666760666327
0.0155,1.79399375,1.0,2039.149533895374,0.160756201999866,1.3377644873479202,0.8528258998614349,0.2884007375,0.6362090276996067
0.016,1.7936,1.0,2083.7438763160876,0.16546369640951547,1.3371202337337762,0.8596884256722956,0.2883842,0.637595497472207
0.0165,1.7931937500000001,1.0,2126.053520247917,0.1701447849263898,1.336498823956592,0.8660656242305986,0.2883671375,0.638930298073439
0.017,1.792775,1.0,2166.1689144788756,0.17479961581647133,1.3358984883607918,0.8720009100224267,0.28834955,0.6402174920820631
0.0175,1.7923437500000001,1.0,2204.180939277423,0.179428337006745,1.3353175684301357,0.8775331404501577,0.2883314375,0.6414608683102718
0.018000000000000002,1.7919,1.0,2240.1805909631607,0.18403109607813012,1.3347545052966097,0.8826971461521625,0.2883128,0.64266397061104
0.0185,1.79144375,1.0,2274.2353159462264,0.18860803721702757,1.334208062782189,0.887524254226836,0.2882936375,0.643829626184236
0.019,1.790975,1.0,2306.4197154336457,0.19315930460983824,1.3336770047088486,0.8920426109741296,0.28827395,0.6449606394404688
0.0195,1.79049375,1.0,2336.814952110609,0.197685042442963,1.333160094898564,0.8962775462977483,0.2882537375,0.6460597932626908
0.02,1.79,1.0,2365.5003227764696,0.20218539380102726,1.3326561739953493,0.9002519101013987,0.288233,0.6471296871899741
0.0205,1.78949375,1.0,2392.5612826013303,0.2066605025851662,1.3321640742796372,0.9039863316691066,0.2882117375,0.6481729201465295
0.021,1.788975,1.0,2418.0735395324214,0.21111051098588515,1.3316827690115924,0.9074994965658365,0.28818995000000003,0.6491917753214369
0.021500000000000002,1.78844375,1.0,2442.09671761667,0.21553555828022564,1.3312114256431584,0.910808368427009,0.2881676375,0.6501881107252122
0.022,1.7879,1.0,2464.693828946886,0.2199357837452291,1.330749211626279,0.913928335300269,0.2881448,0.651163772348836
0.0225,1.78734375,1.0,2485.9309932572332,0.22431132665793707,1.3302952944128974,0.9168733777756296,0.28812143749999997,0.6521205946705912
0.023,1.786775,1.0,2505.8770267939703,0.22866232626537225,1.3298488428408708,0.9196562174641985,0.28809755,0.6530603982032479
0.0235,1.78619375,1.0,2524.588475474445,0.23298891866095883,1.329409166204599,0.9222884721186603,0.28807313749999996,0.6539846977691035
0.024,1.7856,1.0,2542.1465514457136,0.23729124514766145,1.3289753617305833,0.9247807083142496,0.2880482,0.6548954444331374
0.0245,1.78499375,1.0,2558.597080444658,0.2415694397878076,1.3285468800469427,0.9271426425935533,0.2880227375,0.6557938380466195
0.025,1.784375,1.0,2573.987469420121,0.24582363664372464,1.3281231717817972,0.9293831670333064,0.28799675,0.656681071874532
0.025500000000000002,1.78374375,1.0,2588.366576285129,0.2500539697777401,1.327703687563266,0.9315104304466977,0.2879702375,0.6575583327724406
0.026000000000000002,1.7831000000000001,1.0,2601.784586359629,0.2542605732521813,1.3272878780194688,0.9335319105987997,0.2879432,0.6584268013441114
0.0265,1.78244375,1.0,2614.292895505625,0.2584435811293758,1.3268751937785253,0.9354544785243761,0.2879156375,0.6592876520798838
0.027,1.781775,1.0,2625.9359083090744,0.2626031233315179,1.3264651604548292,0.9372844656633212,0.28788755,0.6601418973507737
0.0275,1.7810937500000001,1.0,2636.7702708993456,0.26673933730982735,1.326057199054345,0.9390276918804619,0.2878589375,0.6609907619414388
0.028,1.7804,1.0,2646.8312034288138,0.2708523518626717,1.3256509369546843,0.9406895518324581,0.2878298,0.6618350359073222
0.0285,1.77969375,1.0,2656.153969390872,0.2749422954954273,1.325246007385199,0.9422750274849603,0.2878001375,0.6626754932397547
0.029,1.778975,1.0,2664.774447436931,0.27900929671347047,1.3248420435752422,0.9437887243813937,0.28776995,0.6635129041003205
0.029500000000000002,1.7782437500000001,1.0,2672.7290761258546,0.2830534840221776,1.3244386787541664,0.9452349049393411,0.2877392375,0.6643480348477385
0.03,1.7775,1.0,2680.0548016562784,0.2870749859269251,1.3240355461513242,0.9466175184040535,0.287708,0.6651816480561641
0.0305,1.77674375,1.0,2686.786932758232,0.2910739295495165,1.323632298197133,0.9479402298652236,0.2876762375,0.6660144628942668
0.031,1.775975,1.0,2692.9525796996795,0.2950504369731145,1.323228666029429,0.9492064507816772,0.28764395,0.666847032706747
0.0315,1.7751937500000001,1.0,2698.599487947371,0.2990046463728234,1.322824195121007,0.9504193338774535,0.2876111375,0.6676802903203892
0.032,1.7744,1.0,2703.74993301204,0.3029366796085944,1.322418666953612,0.9515818362596891,0.2875778,0.6685146785709689
0.0325,1.77359375,1.0,2708.4264261621684,0.30684665854037857,1.3220118630089905,0.9526967117884508,0.2875439375,0.6693506380149207
0.033,1.772775,1.0,2712.6516927252405,0.31073470502812717,1.321603564768888,0.9537665275084624,0.28750955,0.6701886069130858
0.0335,1.7719437500000002,1.0,2716.448651448375,0.3146009409317913,1.3211935537150503,0.9547936785650283,0.2874746375,0.6710290212114065
0.034,1.7711000000000001,1.0,2719.8403949168364,0.3184454881113221,1.3207816113292232,0.9557804017600944,0.2874392,0.6718723145185815
0.0345,1.7702437500000001,1.0,2722.850171031895,0.3222684684266709,1.3203675190931525,0.9567287878867784,0.2874032375,0.6727189180806714
0.035,1.7693750000000001,1.0,2725.501365546953,0.32607000373778866,1.319951058488584,0.9576407929652905,0.28736675,0.6735692607526615
0.035500000000000004,1.76849375,1.0,2727.8174856626315,0.32985021590462665,1.3195320109972637,0.9585182484895826,0.2873297375,0.6744237689669789
0.036000000000000004,1.7676,1.0,2729.8107350690593,0.33360921950740857,1.3191102618039816,0.9593628797926792,0.2872922,0.6752826556485789
0.0365,1.76669375,1.0,2731.508080046451,0.3373471408168112,1.3186855626614713,0.9601762941058184,0.2872541375,0.6761464035431807
0.037,1.765775,1.0,2732.931750558533,0.3410641011230554,1.3182577091223247,0.9609600032576213,0.28721555,0.6770154036486282
0.0375,1.76484375,1.0,2734.0946556636936,0.3447602151026781,1.3178265820004549,0.9617154342889291,0.2871764375,0.6778898717280234
0.038,1.7639,1.0,2735.009754280299,0.34843559743221625,1.3173920621097752,0.9624439286760917,0.28713679999999997,0.6787700220334968
0.0385,1.76294375,1.0,2735.6900490774233,0.3520903627882068,1.3169540302641989,0.9631467483965708,0.28709663750000003,0.6796560672808716
0.039,1.761975,1.0,2736.1485806799005,0.35572462584718684,1.3165123672776387,0.9638250815010904,0.28705595,0.6805482186234222
0.0395,1.7609937500000001,1.0,2736.3984221891565,0.3593385012856933,1.316066953964008,0.9644800472373795,0.2870147375,0.6814466856247248
0.04,1.76,1.0,2736.4526740183032,0.3629321037802631,1.3156176711372196,0.9651127007659941,0.286973,0.6823516762306056
0.0405,1.7589937500000001,1.0,2736.324459042449,0.3665055480074333,1.315164399611187,0.9657240375046934,0.2869307375,0.6832633967401787
0.041,1.757975,1.0,2736.0269180642235,0.37005894864374084,1.3147070201998232,0.9663149971342274,0.28688795,0.6841820517759823
0.0415,1.75694375,1.0,2735.5653906402617,0.37359241338520277,1.3142454846731682,0.9668864721385373,0.2868446375,0.6851077020488701
0.042,1.7559,1.0,2734.9562515123766,0.3771060608853181,1.3137796447161878,0.9674392995600815,0.28680079999999997,0.6860406076587466
0.0425,1.75484375,1.0,2734.2128422403143,0.3806000050125477,1.3133093796115134,0.967974272567148,0.2867564375,0.6869809714523234
0.043000000000000003,1.753775,1.0,2733.342246149134,0.38407435356727027,1.3128346255172347,0.968492145462143,0.28671155,0.687928880986899
0.043500000000000004,1.75269375,1.0,2732.3515513148504,0.38752921434986437,1.312355318591442,0.9689936325437534,0.28666613750000003,0.6888844226646644
0.044,1.7516,1.0,2731.2478489724,0.39096469516070864,1.3118713949922256,0.9694794106236126,0.2866202,0.689847681714296
0.0445,1.75049375,1.0,2730.038232015218,0.3943809038001818,1.3113827908776756,0.9699501213605811,0.2865737375,0.6908187421722887
0.045,1.7493750000000001,1.0,2728.7297935843353,0.3977779480686625,1.3108894424058821,0.9704063734275121,0.28652675,0.6917976868640296
0.0455,1.74824375,1.0,2727.329625748129,0.40115593576652936,1.3103912857349356,0.9708487445240587,0.2864792375,0.6927845973846096
0.046,1.7471,1.0,2725.8448182726074,0.40451497469416103,1.3098882570229258,0.9712777832478382,0.2864312,0.6937795540793785
0.0465,1.7459437500000001,1.0,2724.28245748177,0.40785517265193616,1.309380292427943,0.9716940108351958,0.28638263750000004,0.6947826360242363
0.047,1.744775,1.0,2722.6462373186337,0.4111766364534622,1.3088673589414406,0.9720979248816936,0.28633355,0.6957938602695769
0.0475,1.74359375,1.0,2720.942772480018,0.41447947013424985,1.3083493969535422,0.97248999638935,0.28628393750000003,0.6968132952754682
0.048,1.7424,1.0,2719.1792564816974,0.4177637775267018,1.3078263415330855,0.9728706731663392,0.2862338,0.6978410186809827
0.0485,1.74119375,1.0,2717.3608036646383,0.42102966228230193,1.3072981466257299,0.9732403828487566,0.2861831375,0.6988770697716564
0.049,1.739975,1.0,2715.4906807372763,0.4242772278483773,1.3067647829695088,0.9735995338954861,0.28613195,0.6999214538573666
0.0495,1.7387482404558978,1.0,2713.787563510162,0.42750657744730375,1.3062262855379556,0.9739485198767728,0.2860804260991477,0.7009740498903906
0.05,1.7375213358038128,1.0,2712.610981218065,0.43071781311398544,1.3056829263329293,0.974287731736313,0.28602889610376014,0.7020342747083448
0.0505,1.736294431151728,1.0,2711.9277602632833,0.433911036039249,1.3051350702763902,0.9746175483739654,0.28597736610837254,0.7031013676257092
0.051000000000000004,1.7350675264996431,1.0,2711.69787147419,0.43708634737127383,1.3045830807101066,0.9749383312101234,0.285925836112985,0.704174575717923
0.051500000000000004,1.7338406218475584,1.0,2711.8839727527716,0.44024384775026076,1.304027297633507,0.9752504236972379,0.28587430611759745,0.7052531960894992
0.052000000000000005,1.7326137171954734,1.0,2712.4513389323424,0.44338363741559744,1.3034680380650683,0.9755541523461753,0.28582277612220985,0.7063365748499307
0.0525,1.7313868125433887,1.0,2713.3712060408698,0.4465058151558689,1.3029055653242851,0.9758498256036384,0.2857712461268223,0.7074241661210945
0.053,1.730159907891304,1.0,2714.614863098989,0.4496104797596603,1.3023401427306518,0.9761377383362136,0.28571971613143476,0.7085154275944168
0.0535,1.728933003239219,1.0,2716.1639919859854,0.4526977258291807,1.3017719392237284,0.9764181663072425,0.28566818613604716,0.7096100022230561
0.054,1.7277060985871342,1.0,2717.976858495965,0.4557676581296861,1.3012013373321238,0.9766913874237801,0.2856166561406596,0.7107071249660082
0.0545,1.7264791939350492,1.0,2720.033142792208,0.45882037316755114,1.3006285244753022,0.9769576551013625,0.2855651261452721,0.7118064103054931
0.055,1.7252522892829645,1.0,2722.316803093493,0.46185596571810006,1.3000536491655998,0.9772172095334892,0.2855135961498845,0.7129075498163493
0.0555,1.7240253846308795,1.0,2724.8117999377096,0.46487453055665695,1.2994768599153539,0.9774702808382868,0.28546206615449693,0.7140102371659423
0.056,1.7227984799787948,1.0,2727.502089634714,0.46787616245854613,1.2988983052369014,0.9777170895682306,0.2854105361591094,0.7151141681329978
0.0565,1.72157157532671,1.0,2730.371618209183,0.47086095619909163,1.298318133642579,0.9779578471901001,0.2853590061637218,0.7162190406250266
0.057,1.720344670674625,1.0,2733.4043158321133,0.47382900655361776,1.2977364936447238,0.978192756537129,0.28530747616833424,0.7173245546943411
0.0575,1.7191177660225403,1.0,2736.5840917406217,0.47678040829744855,1.2971535337556728,0.9784220122351739,0.2852559461729467,0.7184304125526666
0.058,1.7178908613704553,1.0,2739.8976270903504,0.47971525406724347,1.2965693771083555,0.978645799493573,0.2852044161775591,0.7195363665866136
0.0585,1.7166639567183706,1.0,2743.3327740417626,0.4826336375706879,1.2959841360134527,0.9788642956515717,0.28515288618217155,0.7206421914169958
0.059000000000000004,1.7154370520662856,1.0,2746.875065261716,0.48553565470028703,1.295397943593025,0.9790776723900096,0.285101356186784,0.72174762411037
0.059500000000000004,1.7142101474142009,1.0,2750.5171261496566,0.4884213953195337,1.29481086846234,0.979286090660449,0.2850498261913964,0.7228525249887782
0.06,1.712983242762116,1.0,2754.251567492419,0.4912909492919206,1.2942229792366662,0.9794897051837246,0.28499829619600886,0.7239567553861617
0.0605,1.7117563381100311,1.0,2758.0709841729526,0.49414440648094055,1.2936343445312712,0.9796886647411724,0.2849467662006213,0.725060177652075
0.061,1.7105294334579464,1.0,2761.9679539842946,0.4969818567500863,1.2930450329614236,0.9798831124501037,0.2848952362052337,0.7261626551550961
0.0615,1.7093025288058614,1.0,2765.935036547923,0.4998033899628508,1.2924551131423911,0.9800731860244937,0.28484370620984617,0.7272640522859413
0.062,1.7080756241537767,1.0,2769.9647723356056,0.5026090959827266,1.291864653689442,0.9802590180217802,0.2847921762144586,0.7283642344602745
0.0625,1.7068487195016917,1.0,2774.049681796821,0.5053990646732067,1.2912737232178442,0.9804407360766146,0.284740646219071,0.7294630681212204
0.063,1.705621814849607,1.0,2778.1895939526416,0.5081733729971452,1.2906823243080547,0.980618458775285,0.2846891162236835,0.730560543159652
0.0635,1.704394910197522,1.0,2782.370515564858,0.5109321266228097,1.2900905839855685,0.9807923088166234,0.28463758622829594,0.7316564192694892
0.064,1.7031680055454372,1.0,2786.5883142114026,0.5136754122038829,1.2894985401950108,0.9809623985692373,0.28458605623290834,0.7327506225285643
0.0645,1.7019411008933525,1.0,2790.840183196023,0.5164033138489511,1.2889062188549956,0.9811288355788451,0.2845345262375208,0.7338431017439713
0.065,1.7007141962412675,1.0,2795.123307579187,0.5191159156666005,1.288313645884138,0.9812917235565602,0.28448299624213325,0.7349338061128695
0.0655,1.6994872915891828,1.0,2799.4348640261683,0.5218133017654174,1.2877208472010524,0.9814511625441114,0.28443146624674565,0.736022685222923
0.066,1.6982603869370978,1.0,2803.7720206701897,0.5244955562539878,1.2871278487243536,0.9816072490708094,0.2843799362513581,0.7371096890526936
0.0665,1.697033482285013,1.0,2808.1319369897337,0.5271627632408982,1.286534676372656,0.9817600763027247,0.28432840625597056,0.738194767971994
0.067,1.695806577632928,1.0,2812.511763701375,0.5298150068347346,1.2859413560645745,0.9819097341845148,0.28427687626058296,0.7392778727421947
0.0675,1.6945796729808433,1.0,2816.908642667511,0.5324523711440834,1.2853479137187236,0.9820563095743154,0.2842253462651954,0.7403589545164919
0.068,1.6933527683287584,1.0,2821.3197068184163,0.5350749402775307,1.2847543752537178,0.9821998863720787,0.28417381626980787,0.7414379648401304
0.0685,1.6921258636766736,1.0,2825.7420800896643,0.5376827983436628,1.2841607665881718,0.9823405456417209,0.28412228627442027,0.7425148556505821
0.069,1.6908989590245886,1.0,2830.172877374634,0.5402760294510659,1.2835671136407003,0.9824783657274186,0.2840707562790327,0.7435895792776854
0.0695,1.689672054372504,1.0,2834.6122418316136,0.5428547005559082,1.2829734152383503,0.9826134200341629,0.2840192262836452,0.7446621373352812
0.07,1.688445149720419,1.0,2839.05691299407,0.545418905974804,1.2823797005468138,0.9827457826411067,0.2839676962882576,0.7457324767828181
0.07050000000000001,1.6872182450683342,1.0,2843.5032751772105,0.5479687406764869,1.2817860018039628,0.9828755253673098,0.28391616629287003,0.7468005395004371
0.07100000000000001,1.6859913404162494,1.0,2847.95058643513,0.5505042817484566,1.2811923255746753,0.9830027154382823,0.2838646362974825,0.7478663138963833
0.07150000000000001,1.6847644357641645,1.0,2852.398102519638,0.5530256062782124,1.2805986784238286,0.9831274179077394,0.2838131063020949,0.748929788478319
0.07200000000000001,1.6835375311120797,1.0,2856.8450768843836,0.5555327913532538,1.2800050669163001,0.9832496957425438,0.28376157630670734,0.7499909518533109
0.0725,1.6823106264599947,1.0,2861.2907606890594,0.5580259140610805,1.279411497616968,0.9833696099037882,0.2837100463113198,0.7510497927278161
