Time [s],Phi [rad],STIM [ ],Fsee [N],Gamma [ ],Lcerel [ ],q [ ],Lmtc [m],fisomrel [ ]
0.0,1.8,1.0,17.967340152443555,1.3987792204009733e-05,1.379339725831382,0.005000052008493314,0.288653,0.5411395803768239
0.0005,1.79999375,1.0,18.27799902263603,0.005623118640547584,1.3793022483995365,0.012951588807789807,0.2886527375,0.5412302434918888
0.001,1.799975,1.0,21.622580630462924,0.011200786699734353,1.3789378732610547,0.0356293601580719,0.28865195,0.5421112506645054
0.0015,1.79994375,1.0,31.07965124951873,0.016747168451999847,1.3780453164601971,0.07063015441113651,0.2886506375,0.5442657484136142
0.002,1.7999,1.0,53.6051349439906,0.022262439387921718,1.3763666561286239,0.11475152991877552,0.2886488,0.5483040183499943
0.0025,1.79984375,1.0,97.15736432540496,0.027746774014011367,1.3739333157527436,0.1646113303505878,0.28864643749999996,0.5541258780936191
0.003,1.7997750000000001,1.0,161.00842799811264,0.03320034586039461,1.371212462579417,0.2173180453442174,0.28864354999999997,0.5605909044187656
0.0035,1.79969375,1.0,237.74026216265466,0.038623327480431416,1.3685829807244643,0.27065027788608054,0.2886401375,0.5667939614804502
0.004,1.7996,1.0,321.527444542738,0.04401589046149101,1.3661544854705578,0.32295200543706537,0.2886362,0.5724837141893848
0.0045000000000000005,1.7994937500000001,1.0,409.3306722674451,0.04937820543013833,1.3639213372164154,0.37306887517806275,0.2886317375,0.5776825903017095
0.005,1.799375,1.0,499.4777661565438,0.054710442043231264,1.3618569768288133,0.4202796151055046,0.28862675,0.5824602306132387
0.0055,1.79924375,1.0,590.8553144369661,0.06001276903523558,1.3599375671369707,0.46420346893150644,0.2886212375,0.586878022205098
0.006,1.7991000000000001,1.0,682.583136279973,0.06528535416176945,1.3581452327404737,0.5047073219293077,0.2886152,0.5909821181928314
0.006500000000000001,1.79894375,1.0,773.9484353712479,0.07052836425609182,1.3564661068779862,0.5418257502283426,0.2886086375,0.5948084012986357
0.007,1.798775,1.0,864.3524570017242,0.0757419652053386,1.3548893184739284,0.5756995529937732,0.28860155,0.5983851136259906
0.0075,1.79859375,1.0,953.307457463512,0.08092632198120038,1.3534057910986281,0.6065306405568317,0.2885939375,0.6017357998021455
0.008,1.7984,1.0,1040.4217681035864,0.08608159860763893,1.3520077141948743,0.6345508873583323,0.2885858,0.6048806414135832
0.0085,1.79819375,1.0,1125.3814041516746,0.09120795817008269,1.3506882905384823,0.6600014985662812,0.2885771375,0.6078371265280518
0.009000000000000001,1.797975,1.0,1207.9470179058926,0.0963055629534388,1.3494413950804174,0.6831198417331835,0.28856795,0.6106208909574351
0.0095,1.79774375,1.0,1287.9359546232154,0.10137457432700239,1.34826154489336,0.7041317229445552,0.2885582375,0.6132458429479919
0.01,1.7975,1.0,1365.2133018188404,0.10641515235137061,1.3471437908139532,0.723247172026347,0.288548,0.6157244531228263
0.0105,1.79724375,1.0,1439.6912861574253,0.11142745623298231,1.3460835485513831,0.7406585405343314,0.2885372375,0.6180681678000077
0.011,1.796975,1.0,1511.3586907417105,0.11641164610065885,1.3450761080688265,0.7565399420269945,0.28852595000000003,0.6202885192604324
0.0115,1.79669375,1.0,1580.1674719758073,0.12136787857779441,1.3441179280322526,0.7710484382283085,0.2885141375,0.6223942972155274
0.012,1.7964,1.0,1646.1072073983207,0.12629630995998933,1.3432055774192997,0.7843245660252419,0.28850180000000003,0.6243939146310111
0.0125,1.79609375,1.0,1709.209632379922,0.13119709654284403,1.3423356252076064,0.7964936245655924,0.2884889375,0.6262956623524147
0.013000000000000001,1.7957750000000001,1.0,1769.5264513515424,0.13607039358497158,1.3415048481335956,0.8076671851288363,0.28847555,0.6281072662667404
0.0135,1.79544375,1.0,1827.1156712349405,0.14091635595496274,1.3407103268562106,0.8179445280430628,0.2884616375,0.6298356925176471
0.014,1.7951000000000001,1.0,1882.0228093272838,0.1457351360737432,1.339949595503802,0.8274140163008865,0.2884472,0.6314868383826573
0.0145,1.79474375,1.0,1934.316579318649,0.15052688630391725,1.3392201972042825,0.8361541562049738,0.2884322375,0.6330665108695398
0.015,1.794375,1.0,1984.0707709765943,0.15529175789473312,1.3385198544352845,0.8442347907776817,0.28841675,0.6345800642637557
0.0155,1.79399375,1.0,2031.3870213452535,0.16002990358762625,1.3378461980720013,0.8517180245389814,0.2884007375,0.6360329925009376
0.016,1.7936,1.0,2076.335487506877,0.16474147251463206,1.3371973730006639,0.8586593239766439,0.2883842,0.6374296289587091
0.0165,1.7931937500000001,1.0,2118.9864997157188,0.1694266127582703,1.336571668660942,0.865108184573475,0.2883671375,0.6387739536185879
0.017,1.792775,1.0,2159.422825681563,0.17408547240106084,1.3359673744925047,0.8711087947950885,0.28834955,0.6400699084075674
0.0175,1.7923437500000001,1.0,2197.7370088628586,0.1787181993455384,1.335382796174836,0.8767006678099281,0.2883314375,0.6413213648914173
0.018000000000000002,1.7919,1.0,2234.0146047729418,0.18332494005928668,1.3348164134091118,0.8819192326523932,0.2883128,0.6425317898975087
0.0185,1.79144375,1.0,2268.3520900605345,0.18790584216582856,1.3342666855533405,0.8867962601663918,0.2882936375,0.6437046649527558
0.019,1.790975,1.0,2300.8155372536125,0.1924610490762638,1.3337324537699478,0.891360383464076,0.28827395,0.6448426316986278
0.0195,1.79049375,1.0,2331.4774181859516,0.196990704201692,1.3332125592213595,0.8956373634339385,0.2882537375,0.6459483111516326
0.02,1.79,1.0,2360.4160756988867,0.2014949509532129,1.3327058430700016,0.8996504149045896,0.288233,0.647024304805738
0.0205,1.78949375,1.0,2387.7097757508736,0.20597393182039478,1.3322111994376136,0.9034205039153341,0.2882117375,0.648073083444586
0.021,1.788975,1.0,2413.4383180212862,0.2104277895958148,1.3317275538894746,0.9069665930072743,0.28818995000000003,0.6490970344085003
0.021500000000000002,1.78844375,1.0,2437.678037965144,0.2148566664736536,1.3312539066742533,0.9103058690927825,0.2881676375,0.650098371533945
0.022,1.7879,1.0,2460.487540057736,0.2192607009379589,1.3307894638982456,0.9134539600028527,0.2881448,0.6510788602484416
0.0225,1.78734375,1.0,2481.928490226199,0.22364003147277856,1.3303334316677478,0.9164250606101845,0.28812143749999997,0.6520402548552597
0.023,1.786775,1.0,2502.06536145649,0.22799479656216018,1.3298850160890558,0.9192320840554035,0.28809755,0.6529842989793475
0.0235,1.78619375,1.0,2520.965193374304,0.23232513469015154,1.3294434232684658,0.9218867952285527,0.28807313749999996,0.6539127259730693
0.024,1.7856,1.0,2538.6861687645137,0.23663118132123617,1.3290079648445845,0.9243999463741623,0.2880482,0.6548270378470173
0.0245,1.78499375,1.0,2555.295391934128,0.24091307707184084,1.3285778872576817,0.9267813532598123,0.2880227375,0.6557288648127495
0.025,1.784375,1.0,2570.8416183224444,0.24517095624582932,1.3281526265142702,0.9290400270049816,0.28799675,0.656619431478909
0.025500000000000002,1.78374375,1.0,2585.371489772969,0.24940495194499873,1.3277316522234706,0.9311842288946988,0.2879702375,0.6574998856214099
0.026000000000000002,1.7831000000000001,1.0,2598.9329674105334,0.2536151972711462,1.3273144339944016,0.9332215383117333,0.2879432,0.658371368937897
0.0265,1.78244375,1.0,2611.5752179680535,0.2578018253260687,1.3269004414361838,0.9351589182309161,0.2879156375,0.6592350171837633
0.027,1.781775,1.0,2623.3485063512294,0.2619649692115636,1.3264891441579363,0.9370027736239954,0.28788755,0.660091960290237
0.0275,1.7810937500000001,1.0,2634.2932622049543,0.26610475929279775,1.326080111993056,0.9387590176255329,0.2878589375,0.6609431140388904
0.028,1.7804,1.0,2644.4550653055535,0.2702213288734459,1.325672874773229,0.9404330981325181,0.2878298,0.6617894726943264
0.0285,1.77969375,1.0,2653.8872478106737,0.2743148116881522,1.3252668980191344,0.9420300357193998,0.2878001375,0.6626321589700574
0.029,1.778975,1.0,2662.6209026617908,0.2783853347766205,1.3248618587919754,0.9435544983317203,0.28776995,0.6634718517290263
0.029500000000000002,1.7782437500000001,1.0,2670.6876510656093,0.2824330251785546,1.3244574341529545,0.9450108053009506,0.2877392375,0.6643092264760243
0.03,1.7775,1.0,2678.1195965181923,0.28645800993365844,1.3240533011632742,0.9464029578423259,0.287708,0.6651449553736744
0.0305,1.77674375,1.0,2684.9492811410687,0.290460416081636,1.3236491368841372,0.9477346665224528,0.2876762375,0.6659797072517635
0.031,1.775975,1.0,2691.2096443293913,0.294440370662191,1.3232446183767463,0.9490093760306756,0.28764395,0.6668141476099223
0.0315,1.7751937500000001,1.0,2696.9339837126468,0.29839800071502737,1.3228394227023041,0.9502302875481146,0.2876111375,0.6676489386136575
0.032,1.7744,1.0,2702.1478132458165,0.3023334298597103,1.3224333009669293,0.9514003869764913,0.2875778,0.668484586822607
0.0325,1.77359375,1.0,2706.8841156897943,0.30624678596172095,1.3220259384659978,0.9525224479892643,0.2875439375,0.669321731361905
0.033,1.772775,1.0,2711.173751993991,0.31013819465448056,1.3216170421821685,0.9535990577055292,0.28750955,0.6701609635777848
0.0335,1.7719437500000002,1.0,2715.037607941705,0.3140077767884831,1.3212064120117148,0.9546326390584676,0.2874746375,0.6710026813857158
0.034,1.7711000000000001,1.0,2718.4967371451157,0.31785565321422243,1.3207938478509105,0.9556254544700171,0.2874392,0.6718472805516802
0.0345,1.7702437500000001,1.0,2721.572344136508,0.3216819447821926,1.3203791495960289,0.9565796183784107,0.2874032375,0.6726951546687672
0.035,1.7693750000000001,1.0,2724.2857683469438,0.3254867723428876,1.3199621171433435,0.9574971086480218,0.28736675,0.6735466951312159
0.035500000000000004,1.76849375,1.0,2726.6584689731785,0.3292702567468014,1.3195425503891278,0.9583797769729221,0.2873297375,0.6744022911059047
0.036000000000000004,1.7676,1.0,2728.712010731894,0.33303251884442797,1.3191202492296552,0.9592293583733692,0.2872922,0.6752623295012843
0.0365,1.76669375,1.0,2730.4632135200454,0.3367736755478144,1.318695057519765,0.9600474834459612,0.2872541375,0.6761271055882454
0.037,1.765775,1.0,2731.932669964603,0.34049384971578345,1.3182667855135046,0.9608356804617285,0.28721555,0.6769969809913929
0.0375,1.76484375,1.0,2733.1373638826535,0.3441931596119482,1.3178352768676962,0.9615953870730704,0.2871764375,0.6778722473802133
0.038,1.7639,1.0,2734.091014682088,0.347871720199123,1.3174004053903734,0.9623279567910074,0.28713679999999997,0.6787531334758503
0.0385,1.76294375,1.0,2734.8073874248,0.3515296464401222,1.3169620448895705,0.9630346627766291,0.28709663750000003,0.6796398663884627
0.039,1.761975,1.0,2735.300286617206,0.35516705329776016,1.3165200691733212,0.9637167034822417,0.28705595,0.6805326715896555
0.0395,1.7609937500000001,1.0,2735.583550354752,0.35878405573485134,1.3160743520496594,0.9643752078377964,0.2870147375,0.6814317728838903
0.04,1.76,1.0,2735.671044818339,0.36238076871421,1.315624767326619,0.9650112400237331,0.286973,0.6823373923788827
0.0405,1.7589937500000001,1.0,2735.5766591248703,0.3659573071986506,1.315171188812234,0.9656258038672705,0.2869307375,0.6832497504549846
0.041,1.757975,1.0,2735.3046834981055,0.369513772870661,1.314713577636845,0.9662198521278575,0.28688795,0.6841688904688059
0.0415,1.75694375,1.0,2734.8765952667186,0.3730502954030392,1.3142517390117718,0.9667942762584175,0.2868446375,0.6850951675002463
0.042,1.7559,1.0,2734.3038397134846,0.3765669888926672,1.3137855693279297,0.967349923780298,0.28680079999999997,0.6860287515355454
0.0425,1.75484375,1.0,2733.5936933331686,0.3800639612092436,1.3133150029071616,0.967887598323301,0.2867564375,0.68696973518267
0.043000000000000003,1.753775,1.0,2732.753439603316,0.38354132022246695,1.3128399740713104,0.968408060374527,0.28671155,0.6879182098949677
0.043500000000000004,1.75269375,1.0,2731.7903672148605,0.3869991738020358,1.312360417142219,0.9689120300250379,0.28666613750000003,0.6888742659526115
0.044,1.7516,1.0,2730.7117683967954,0.3904376298176487,1.3118762664417303,0.9694001895151483,0.2866202,0.6898379924437719
0.0445,1.75049375,1.0,2729.5249373380893,0.39385679613900426,1.3113874562916874,0.9698731855949688,0.2865737375,0.6908094772455118
0.045,1.7493750000000001,1.0,2728.237168704034,0.3972567806358011,1.3108939210139328,0.9703316317153027,0.28652675,0.6917888070044087
0.0455,1.74824375,1.0,2726.8557562487786,0.4006376911777377,1.3103955949303097,0.9707761100626244,0.2864792375,0.6927760671168978
0.046,1.7471,1.0,2725.387991523483,0.4039996356345126,1.3098924123626612,0.9712071734506527,0.2864312,0.6937713417093443
0.0465,1.7459437500000001,1.0,2723.8411626800685,0.40734272187582443,1.3093843076328298,0.9716253470798971,0.28638263750000004,0.6947747136178398
0.047,1.744775,1.0,2722.222553370284,0.4106670577713717,1.3088712150626585,0.9720311301755766,0.28633355,0.69578626436772
0.0475,1.74359375,1.0,2720.533839261827,0.41397273764302794,1.3083531199822334,0.9724249994130659,0.28628393750000003,0.6968059738431838
0.048,1.7424,1.0,2718.786004424386,0.4172598812330179,1.3078299229523478,0.972807405625156,0.2862338,0.6978339876758661
0.0485,1.74119375,1.0,2716.9844376548085,0.4205285939485532,1.3073015754020798,0.9731787797131877,0.2861831375,0.6988703499853313
0.049,1.739975,1.0,2715.132504179909,0.4237789760667576,1.306768047154017,0.9735395327263515,0.28613195,0.6999150677465267
0.0495,1.73874375,1.0,2713.233566209327,0.42701112786475476,1.3062293080307479,0.9738900563637274,0.2860802375,0.7009681470121472
0.05,1.7375,1.0,2711.2909826348214,0.4302251496196684,1.30568532785486,0.9742307240573593,0.286028,0.7020295929026366
0.0505,1.73624375,1.0,2709.3081087497994,0.43342114160862216,1.3051360764489415,0.9745618919852812,0.2859752375,0.703099409596128
0.051000000000000004,1.734975,1.0,2707.288295989095,0.4365992041087398,1.3045815236355807,0.9748839000196148,0.28592195,0.7041776003183298
0.051500000000000004,1.73369375,1.0,2705.2348916887104,0.43975943739714496,1.3040216392373651,0.9751970726144381,0.2858681375,0.7052641673323514
0.052000000000000005,1.7324,1.0,2703.151238866012,0.44290194175096137,1.303456393076883,0.9755017196377471,0.2858138,0.7063591119284703
0.0525,1.73109375,1.0,2701.0406760201527,0.4460268174473126,1.3028857549767223,0.9757981371514906,0.28575893750000003,0.7074624344138423
0.053,1.729775,1.0,2698.9065369522173,0.4491341647633225,1.3023096947594712,0.9760866081433415,0.28570355000000003,0.7085741341021535
0.0535,1.72844375,1.0,2696.7521506061944,0.45222408397611463,1.3017281822477176,0.9763674032135792,0.2856476375,0.7096942093032147
0.054,1.7271,1.0,2694.577115383991,0.4552966510441935,1.30114122134658,0.9766407808764778,0.2855912,0.7108225918555169
0.0545,1.7257437500000001,1.0,2692.3886044007063,0.45835199187187076,1.3005487466455852,0.9769069892976294,0.2855342375,0.7119593459495148
0.055,1.724375,1.0,2690.1891874306607,0.461390206732188,1.2999507347766044,0.9771662660330753,0.28547675,0.7131044537849973
0.0555,1.72299375,1.0,2687.9801547762945,0.4644113878693861,1.2993471740535067,0.9774188385240434,0.2854187375,0.7142578743181746
0.056,1.7216,1.0,2685.7627947103488,0.46741562752770605,1.2987380527901609,0.977664924694325,0.2853602,0.7154195657370633
0.0565,1.72019375,1.0,2683.538393452652,0.4704030179513887,1.2981233593004353,0.9779047334243727,0.28530113749999997,0.7165894854573456
0.057,1.718775,1.0,2681.308235149613,0.473373651384675,1.297503081898199,0.9781384649980358,0.28524155,0.7177675901182192
0.0575,1.71734375,1.0,2679.073601856607,0.4763276200718059,1.2968772088973204,0.978366311523728,0.2851814375,0.7189538355782423
0.058,1.7159,1.0,2676.8357735239156,0.4792650162570223,1.2962457286116686,0.978588457331681,0.2851208,0.7201481769111657
0.0585,1.71444375,1.0,2674.5960279853653,0.4821859321845651,1.2956086293551121,0.9788050793488209,0.2850596375,0.72135056840176
0.059000000000000004,1.7129750000000001,1.0,2672.3556409499624,0.4850904600986753,1.2949658994415194,0.9790163474526948,0.28499795,0.722560963541631
0.059500000000000004,1.71149375,1.0,2670.115885996491,0.48797869224359375,1.2943175271847596,0.979222424805777,0.2849357375,0.7237793150250266
0.06,1.71,1.0,2667.8780345714335,0.4908507208635614,1.2936635008987014,0.979423468171383,0.284873,0.7250055747446378
0.0605,1.7084937500000001,1.0,2665.643355989913,0.4937066382028192,1.2930038088972131,0.9796196282123386,0.2848097375,0.7262396937873898
0.061,1.7069750000000001,1.0,2663.413117439086,0.4965465365056081,1.292338439494164,0.9798110497734744,0.28474595,0.7274816224302203
0.0615,1.7054437500000001,1.0,2661.1885839852075,0.49937050801616895,1.2916673810034223,0.9799978721489322,0.2846816375,0.7287313101358562
0.062,1.7039,1.0,2658.967934435369,0.5021786431483878,1.2909906501419715,0.9801802306825251,0.2846168,0.7299886528378596
0.0625,1.70234375,1.0,2656.753294982635,0.5049710274883725,1.2903082272866144,0.9803582533633096,0.2845514375,0.7312536134237992
0.063,1.7007750000000001,1.0,2654.5471261986713,0.5077477486902342,1.2896200896995516,0.9805320633873191,0.28448555,0.7325261595740553
0.0635,1.69919375,1.0,2652.3505064011447,0.5105088945150057,1.2889262273510085,0.9807017800297058,0.28441913750000003,0.733806234530336
0.064,1.6976,1.0,2650.1619227403653,0.5132545524391496,1.2882266540976268,0.9808675193583729,0.2843522,0.7350937368229815
0.0645,1.69599375,1.0,2647.9825311294294,0.5159848096886447,1.2875213591906376,0.9810293919432035,0.2842847375,0.7363886097231134
0.065,1.694375,1.0,2645.8134593019945,0.5186997522690643,1.2868103321240627,0.9811875042618126,0.28421675,0.737690795238791
0.0655,1.69274375,1.0,2643.6550163334327,0.5213994660132748,1.2860935699362686,0.9813419593131559,0.2841482375,0.7390002207943922
0.066,1.6911,1.0,2641.504473082858,0.5240840364522591,1.285371097733719,0.9814928577690423,0.2840792,0.7403167620479982
0.0665,1.6894496037079203,1.0,2639.642803149666,0.526753548860641,1.284642961928108,0.9816402977545091,0.28400988335573263,0.7416402558188575
0.067,1.6877992009265266,1.0,2638.3526922161477,0.5294080873175575,1.283909544739871,0.9817843901405938,0.28394056643891413,0.7429699311403036
0.0675,1.6861487981451326,1.0,2637.5893764576,0.5320477357700709,1.283171259141057,0.9819252435085918,0.2838712495220956,0.7443049681009835
0.068,1.684498395363739,1.0,2637.3096382287404,0.5346725778451253,1.282428502655767,0.9820629620440442,0.28380193260527703,0.7456445819120583
0.0685,1.6828479925823452,1.0,2637.471824449323,0.537282696908556,1.281681659730665,0.9821976458387848,0.2837326156884585,0.7469880184036283
0.069,1.6811975898009515,1.0,2638.0416119501015,0.539878175159092,1.2809310480882787,0.9823293884765951,0.28366329877164,0.7483346499362922
0.0695,1.6795471870195575,1.0,2638.985332020568,0.5424590946994244,1.2801769801884315,0.982458280229084,0.28359398185482143,0.7496838640704441
0.07,1.6778967842381638,1.0,2640.2807378978973,0.5450255344912105,1.2794196634872268,0.9825844033648851,0.2835246649380029,0.7510352412521841
0.07050000000000001,1.67624638145677,1.0,2641.8792530602263,0.5475775813713247,1.2786595491777093,0.9827078492362726,0.28345534802118433,0.7523879325640173
0.07100000000000001,1.6745959786753764,1.0,2643.7591287452087,0.5501153150022849,1.2778968406661546,0.9828286945167776,0.2833860311043658,0.7537415368232459
0.07150000000000001,1.6729455758939824,1.0,2645.901212676447,0.5526388143290226,1.2771317175343186,0.9829470123118889,0.2833167141875472,0.7550956987770364
0.07200000000000001,1.6712951731125887,1.0,2648.286361850144,0.5551481582964695,1.276364359363957,0.9830628734171245,0.28324739727072873,0.756450066560426
0.0725,1.669644770331195,1.0,2650.8954332782787,0.5576434258495567,1.2755949457368256,0.9831763464108872,0.2831780803539102,0.7578042917229468
0.073,1.6679943675498012,1.0,2653.7092754477685,0.5601246959332162,1.2748236562346797,0.9832874977430476,0.2831087634370917,0.759158029253197
0.0735,1.6663439647684073,1.0,2656.708720493135,0.5625920474923793,1.2740506704392751,0.9833963918194728,0.28303944652027313,0.7605109376013515
0.074,1.6646935619870136,1.0,2659.874577085716,0.5650455594719777,1.2732761679323679,0.9835030910827134,0.2829701296034546,0.7618626786996182
0.0745,1.6630431592056198,1.0,2663.1970448220027,0.5674853062282463,1.2725002416048738,0.9836076520137457,0.282900812686636,0.7632130686393028
