Time [s],Phi [rad],STIM [ ],Fsee [N],Gamma [ ],Lcerel [ ],q [ ],Lmtc [m],fisomrel [ ]
0.0,1.8,1.0,18.902839279194538,0.0009866107845783389,1.3792362490065806,0.005250068008916101,0.288653,0.5413898834165141
0.0005,1.79999375,1.0,19.50053005462773,0.006590285987109046,1.3791686514269004,0.015872499332638165,0.2886527375,0.5415533602522504
0.001,1.799975,1.0,23.568048964514137,0.01216252900310787,1.3787434702321029,0.04087746009212608,0.28865195,0.5425809431012252
0.0015,1.79994375,1.0,34.67271640315545,0.017703516140542833,1.377747619733639,0.07769527045848103,0.2886506375,0.5449832136019457
0.002,1.7999,1.0,60.41897940754479,0.023213422721675137,1.3759379197287782,0.12304262732025038,0.2886488,0.5493325271364755
0.0025,1.79984375,1.0,107.83632717954002,0.028692423084241726,1.3734322338970606,0.17358289468053104,0.28864643749999996,0.5553200468324331
0.003,1.7997750000000001,1.0,174.4234308734317,0.03414069058630609,1.3707204481120163,0.22654177168402295,0.28864354999999997,0.5617549405345211
0.0035,1.79969375,1.0,252.6367930339849,0.039558397615076846,1.3681311533290714,0.27980188439290526,0.2886401375,0.5678554016218358
0.004,1.7996,1.0,337.2231832137234,0.04494571558912403,1.3657437573485358,0.33179733778664317,0.2886362,0.573442295792651
0.0045000000000000005,1.7994937500000001,1.0,425.48437931898553,0.05030281497532997,1.3635458460086411,0.38145432794992423,0.2886317375,0.5785536283477724
0.005,1.799375,1.0,515.8849225743847,0.05562986526691971,1.361511165457262,0.42811737108085185,0.28862675,0.5832578993932784
0.0055,1.79924375,1.0,607.3563439389159,0.06092703502685488,1.3596174146037883,0.47145505168735147,0.2886212375,0.5876126119696654
0.006,1.7991000000000001,1.0,699.0468098636816,0.06619449181326974,1.3578477642546571,0.5113685133164592,0.2886152,0.5916612806694621
0.006500000000000001,1.79894375,1.0,790.2752595284146,0.07143240240421905,1.3561888638869515,0.5479145059919107,0.2886086375,0.5954384350858506
0.007,1.798775,1.0,880.4474383960937,0.07664093233256246,1.3546305420773181,0.581247368836656,0.28860155,0.5989705951082509
0.0075,1.79859375,1.0,969.1135491415721,0.08182024669377917,1.3531636846870991,0.6115758983918549,0.2885939375,0.6022812876856863
0.008,1.7984,1.0,1055.8790075069592,0.08697050912162294,1.3517809834246421,0.6391350057159985,0.2885858,0.605389476086708
0.0085,1.79819375,1.0,1140.436884855516,0.09209188248748319,1.3504758747175194,0.664166054216941,0.2885771375,0.608312057528666
0.009000000000000001,1.797975,1.0,1222.5775975318568,0.09718452930289803,1.3492420911500964,0.6869047024902423,0.28856795,0.6110649291106752
0.0095,1.79774375,1.0,1302.1172917836066,0.10224861029722082,1.3480744048009312,0.7075743461369624,0.2885582375,0.6136613798548389
0.01,1.7975,1.0,1378.9289932018341,0.10728428558056025,1.3469679506326826,0.7263820543620579,0.288548,0.6161136518933557
0.0105,1.79724375,1.0,1452.9480713080795,0.11229171486198596,1.345918011738845,0.743516967475308,0.2885372375,0.6184334475594526
0.011,1.796975,1.0,1524.128832316309,0.11727105667412452,1.3449204452743524,0.7591503764477245,0.28852595000000003,0.6206310154073421
0.0115,1.79669375,1.0,1592.4422430310067,0.12222246802200043,1.3439715727963064,0.7734363198088766,0.2885141375,0.6227154244516431
0.012,1.7964,1.0,1657.897113196609,0.12714610542166072,1.3430678269462484,0.7865125413476943,0.28850180000000003,0.6246953638851371
0.0125,1.79609375,1.0,1720.5399734039297,0.1320421256993323,1.342205693620755,0.7985018241117622,0.2884889375,0.626579283333986
0.013000000000000001,1.7957750000000001,1.0,1780.408359064214,0.13691068365954048,1.3413821896092775,0.809513602639446,0.28847555,0.628374364214207
0.0135,1.79544375,1.0,1837.5391117912977,0.14175193244608275,1.3405946897075909,0.8196452601113318,0.2884616375,0.6300869175477994
0.014,1.7951000000000001,1.0,1891.995962930759,0.1465660252027567,1.33984056871147,0.8289833040017095,0.2884472,0.6317231755671703
0.0145,1.79474375,1.0,1943.8552337212002,0.1513531143172262,1.3391173301518742,0.8376046409291826,0.2884322375,0.633289019102885
0.015,1.794375,1.0,1993.2075010069382,0.15611335253157632,1.338422557207541,0.845577669265286,0.28841675,0.6347900917509842
0.0155,1.79399375,1.0,2040.124560743413,0.16084689002593144,1.3377542349014662,0.8529633761970655,0.2884007375,0.63623111226443
0.016,1.7936,1.0,2084.6760089906156,0.1655538756658492,1.3371105376941685,0.8598161398089355,0.2883842,0.6376163436720299
0.0165,1.7931937500000001,1.0,2126.9453313891977,0.1702344583168871,1.3364896400461672,0.8661844532717893,0.2883671375,0.6389500068290843
0.017,1.792775,1.0,2167.0213140195183,0.1748887861095003,1.3358897919167372,0.8721116433944204,0.28834955,0.6402361214481218
0.0175,1.7923437500000001,1.0,2204.9984653287197,0.17951700748964716,1.3353092999613076,0.8776364755431246,0.2883314375,0.6414785502533731
0.018000000000000002,1.7919,1.0,2240.960199672035,0.1841192691810119,1.3347466838917847,0.8827937284583849,0.2883128,0.6426806684421351
0.0185,1.79144375,1.0,2274.976159690323,0.18869571554944736,1.3342006861023918,0.8876146578434546,0.2882936375,0.6438453488797531
0.019,1.790975,1.0,2307.1232040758487,0.19324649096080646,1.3336700489873523,0.8921273469182632,0.28827395,0.6449754413545215
0.0195,1.79049375,1.0,2337.484804333329,0.19777173978094206,1.33315351494089,0.896357069793296,0.2882537375,0.6460737738601091
0.02,1.79,1.0,2366.1367423876777,0.20227160459559237,1.3326499604393292,0.9003266398351208,0.288233,0.6471428693230636
0.0205,1.78949375,1.0,2393.1714379204136,0.2067462304549774,1.33215815091377,0.9040566317452465,0.2882117375,0.6481854680533965
0.021,1.788975,1.0,2418.655189177007,0.21119575809259455,1.3316771522242858,0.9075657157484188,0.28818995000000003,0.6492036565446043
0.021500000000000002,1.78844375,1.0,2442.64953905806,0.2156203270113014,1.3312061135430462,0.9108708191526436,0.2881676375,0.6501993314786696
0.022,1.7879,1.0,2465.219454661959,0.22002007671395551,1.3307441840422216,0.9139872976231577,0.2881448,0.6511743773030774
0.0225,1.78734375,1.0,2486.43304093198,0.22439514670341446,1.330290512893982,0.9169291028455594,0.28812143749999997,0.6521306667481837
0.023,1.786775,1.0,2506.3554317821227,0.22874567528417455,1.329844304652973,0.9197089403253261,0.28809755,0.6530699447959079
0.0235,1.78619375,1.0,2525.053185566411,0.23307180132436342,1.329404774286829,0.9223383910911964,0.28807313749999996,0.6539939243528168
0.024,1.7856,1.0,2542.591977274726,0.23737366332822385,1.3289711666195427,0.9248280298491838,0.2880482,0.6549042459597483
0.0245,1.78499375,1.0,2559.019868424674,0.2416513955921809,1.3285429109553595,0.9271875518813946,0.2880227375,0.6558021545311823
0.025,1.784375,1.0,2574.386535288227,0.24590513241265968,1.3281194365985232,0.9294258301414541,0.28799675,0.6566888881577415
0.025500000000000002,1.78374375,1.0,2588.7431333528666,0.2501350080860852,1.3277001728532787,0.9315509962207021,0.2879702375,0.6575656782905972
0.026000000000000002,1.7831000000000001,1.0,2602.1421690046022,0.2543411569088825,1.3272845490238703,0.9335705123555302,0.2879432,0.6584337499051081
0.0265,1.78244375,1.0,2614.6186157856805,0.25852371161784615,1.3268721686660299,0.9354912625332498,0.2879156375,0.659293958391475
0.027,1.781775,1.0,2626.2330503301077,0.2626828056216806,1.326462406878595,0.9373195448857101,0.28788755,0.6601476304050851
0.0275,1.781093994609564,1.0,2637.0694918770637,0.26681857338529025,1.3260545423843504,0.9390611476524772,0.28785894777360166,0.660996286321849
0.028,1.780408967510512,1.0,2647.5269807222658,0.2709311436256965,1.3256485648622098,0.9407215124091617,0.2878301766354415,0.6618399623825992
0.0285,1.77972394041146,1.0,2657.8014284784363,0.27502064505992074,1.325244463991087,0.9423056626156017,0.2878014054972813,0.6626786946529035
0.029,1.7790389133124078,1.0,2667.8927752281948,0.2790872064049845,1.3248422294498954,0.9438182411620297,0.28777263435912115,0.6635125190243034
0.029500000000000002,1.7783538862133559,1.0,2677.8009928078855,0.2831309563779092,1.324441850917549,0.9452635440972318,0.28774386322096096,0.6643414712155449
0.03,1.777668859114304,1.0,2687.5260843827446,0.28715202369571624,1.3240433180729616,0.9466455509681655,0.28771509208280077,0.6651655867738056
0.0305,1.7769838320152518,1.0,2697.0683352101637,0.29115053647186123,1.3236466182981625,0.9479679516453834,0.2876863209446406,0.6659849058168479
0.031,1.7762988049161998,1.0,2706.4280712927884,0.2951266215537945,1.3232517388974123,0.94923417110892,0.2876575498064804,0.6667994684304821
0.0315,1.7756137778171477,1.0,2715.606877733862,0.29908040438374117,1.3228586559905184,0.9504473903505762,0.2876287786683202,0.6676093375382528
0.032,1.7749287507180957,1.0,2724.6071597619393,0.3030120092806611,1.3224673385943115,0.9516105673010192,0.28760000753016,0.6684145903695844
0.0325,1.7742437236190438,1.0,2733.4313661011283,0.3069215605635139,1.3220777557256227,0.952726456348316,0.28757123639199983,0.669215303784267
0.033,1.7735586965199917,1.0,2742.082019929255,0.31080917093659255,1.3216898761096292,0.9537976215040697,0.28754246525383964,0.6700115548742711
0.0335,1.7728736694209397,1.0,2750.562122702682,0.31467496797258293,1.3213036645148761,0.9548264587219705,0.28751369411567945,0.6708034284735712
0.034,1.7721886423218876,1.0,2758.8752177946562,0.31851909496606573,1.3209190811971627,0.9558152089836086,0.28748492297751926,0.6715910182511763
0.0345,1.7715036152228356,1.0,2767.024959403505,0.3223416689059665,1.320536085812952,0.9567659597498066,0.2874561518393591,0.6723744186597955
0.035,1.7708185881237837,1.0,2775.015045130826,0.32614280678121077,1.3201546380187064,0.9576806639421662,0.2874273807011989,0.6731537237089003
0.035500000000000004,1.7701335610247315,1.0,2782.8492145788955,0.329922625580724,1.319774697470889,0.9585611501774273,0.28739860956303875,0.6739290269687545
0.036000000000000004,1.7694485339256796,1.0,2790.5312479843305,0.3336812422934318,1.3193962238259627,0.9594091321111725,0.2873698384248785,0.6747004215743482
0.0365,1.7687635068266274,1.0,2798.0649648884623,0.3374187739082597,1.3190191767403903,0.9602262169775859,0.2873410672867184,0.6754680002292208
0.037,1.7680784797275755,1.0,2805.45422284244,0.34113533741413316,1.3186435158706342,0.9610139134026804,0.28731229614855813,0.6762318552091866
0.0375,1.7673934526285235,1.0,2812.702916150179,0.3448310497999778,1.3182692008731576,0.961773638560222,0.287283525010398,0.6769920783659492
0.038,1.7667084255294714,1.0,2819.8149746456693,0.34850602805471914,1.3178961914044234,0.9625067247323066,0.2872547538722378,0.6777487611306193
0.0385,1.7660233984304194,1.0,2826.7943625076305,0.35216038916728265,1.317524447120894,0.9632144253301126,0.2872259827340776,0.6785019945171256
0.039,1.7653383713313673,1.0,2833.6450771096574,0.3557942501265939,1.3171539276790327,0.963897920424658,0.28719721159591743,0.6792518691255194
0.0395,1.7646533442323153,1.0,2840.3711479065164,0.3594077279215784,1.3167845927353021,0.9645583218322973,0.28716844045775725,0.6799984751451811
0.04,1.7639683171332634,1.0,2846.976635356765,0.3630009395411617,1.3164164019461648,0.9651966777952129,0.28713966931959706,0.680741902357918
0.0405,1.7632832900342112,1.0,2853.458630829489,0.3665739514517849,1.31604937718959,0.9658139736803317,0.28711089818143687,0.6814821147259957
0.041,1.7625982629351593,1.0,2859.8279202526696,0.37012692380224704,1.315683418714438,0.9664111460450298,0.2870821270432767,0.6822193212651941
0.0415,1.7619132358361071,1.0,2866.0913946292176,0.3736599929760898,1.3153184618345788,0.966989078269024,0.2870533559051165,0.6829536595225615
0.042,1.7612282087370552,1.0,2872.2515537253134,0.3771732645979048,1.3149544811183569,0.9675486034656624,0.2870245847669563,0.6836851875748297
0.0425,1.7605431816380033,1.0,2878.3109160745007,0.3806668442922834,1.3145914511341161,0.9680905097711935,0.2869958136287961,0.6844139632440402
0.043000000000000003,1.7598581545389511,1.0,2884.2720184345376,0.38414083768381735,1.314229346450201,0.9686155432298783,0.2869670424906359,0.6851400440991056
0.043500000000000004,1.7591731274398992,1.0,2890.1374152583203,0.3875953503970981,1.3138681416349558,0.9691244104660294,0.28693827135247574,0.685863487457332
0.044,1.758488100340847,1.0,2895.9096781795506,0.3910304880567172,1.3135078112567247,0.9696177811606876,0.2869095002143156,0.6865843503858989
0.0445,1.757803073241795,1.0,2901.591395512171,0.39444635628726626,1.3131483298838516,0.9700962903490284,0.28688072907615536,0.6873026897032988
0.045,1.7571180461427431,1.0,2907.1851717649147,0.39784306071333686,1.312789672084681,0.9705605405531147,0.28685195793799523,0.6880185619807326
0.0455,1.756433019043691,1.0,2912.6936271693166,0.4012207069595205,1.3124318124275571,0.9710111037632968,0.286823186799835,0.6887320235434686
0.046,1.755747991944639,1.0,2918.119397222913,0.40457940065040876,1.3120747254808243,0.9714485232803688,0.28679441566167485,0.6894431304721562
0.0465,1.7550629648455869,1.0,2923.4651322458953,0.40791924741059327,1.3117183858128265,0.971873315429512,0.28676564452351466,0.6901519386041002
0.047,1.754377937746535,1.0,2928.7334969531257,0.4112403528646654,1.3113627679919082,0.9722859711560994,0.2867368733853545,0.6908585035344934
0.0475,1.753692910647483,1.0,2933.9271700395393,0.4145428226372169,1.3110078465864135,0.9726869575125374,0.2867081022471943,0.6915628806176082
0.048,1.7530078835484308,1.0,2939.048843780465,0.4178267623528393,1.3106535961646864,0.9730767190445543,0.2866793311090341,0.6922651249679463
0.0485,1.752322856449379,1.0,2944.1012236460138,0.421092277636124,1.3102999912950715,0.9734556790846022,0.2866505599708739,0.6929652914613476
0.049,1.7516378293503267,1.0,2949.0870279301134,0.4243394741116628,1.3099470065459127,0.9738242409594063,0.2866217888327137,0.6936634347360586
0.0495,1.7509528022512748,1.0,2954.008987393406,0.42756845740404703,1.3095946164855545,0.9741827891180952,0.28659301769455353,0.6943596091937577
0.05,1.7502677751522229,1.0,2958.869844920928,0.43077933313786837,1.309242795682341,0.9745316901868142,0.28656424655639334,0.6950538690005419
0.0505,1.7495827480531707,1.0,2963.6716460696452,0.43397219949280236,1.3088915248903998,0.974871293522125,0.28653547541823315,0.695746255902052
0.051000000000000004,1.7488977209541188,1.0,2968.4131648929815,0.43714712702615655,1.3085408134590943,0.975201931414341,0.28650670428007297,0.6964367551977052
0.051500000000000004,1.7482126938550666,1.0,2973.1006819047493,0.440304266947044,1.3081906053499015,0.9755239258440362,0.2864779331419128,0.6971254807846341
0.052000000000000005,1.7475276667560147,1.0,2977.735464874034,0.44344371397050675,1.3078408883401718,0.9758375810258323,0.2864491620037526,0.6978124600316771
0.0525,1.7468426396569627,1.0,2982.318787574906,0.4465655628115867,1.307491650207255,0.9761431877480469,0.28642039086559246,0.6984977201939384
0.053,1.7461576125579106,1.0,2986.851929654676,0.44966990818532604,1.307142878728502,0.9764410240810096,0.2863916197274322,0.6991812884131656
0.0535,1.7454725854588586,1.0,2991.3361765065765,0.45275684480676665,1.3067945616812628,0.9767313560421372,0.2863628485892721,0.6998631917181181
0.054,1.7447875583598065,1.0,2995.772819144055,0.45582646739095056,1.3064466868428877,0.9770144382207596,0.28633407745111183,0.7005434570249272
0.0545,1.7441025312607545,1.0,3000.1631540800786,0.4588788706529198,1.3060992419907271,0.9772905143654486,0.2863053063129517,0.7012221111374435
0.055,1.7434175041617026,1.0,3004.5084832081257,0.46191414930771635,1.3057522149021312,0.977559817936399,0.2862765351747915,0.7018991807475796
0.0555,1.7427324770626504,1.0,3008.8101136881787,0.4649323980703822,1.3054055933544502,0.9778225726252201,0.2862477640366313,0.7025746924356385
0.056,1.7420474499635985,1.0,3013.0693578344803,0.4679337116559594,1.3050593651250346,0.9780789928443051,0.28621899289847114,0.703248672670634
0.0565,1.7413624228645463,1.0,3017.287533007704,0.4709181847794899,1.3047135179912346,0.9783292841878067,0.28619022176031095,0.7039211478106044
0.057,1.7406773957654944,1.0,3021.4659615098853,0.4738859121560157,1.3043680397304003,0.9785736438660745,0.28616145062215076,0.7045921441029129
0.0575,1.7399923686664425,1.0,3025.605970482698,0.4768369885005789,1.3040229181198824,0.9788122611152946,0.28613267948399057,0.7052616876845386
0.058,1.7393073415673903,1.0,3029.70889180939,0.47977150852822137,1.3036781409370308,0.9790453175839268,0.2861039083458304,0.7059298045823623
0.0585,1.7386223144683384,1.0,3033.7760620195504,0.48268956695398524,1.303333695959196,0.9792729876974358,0.2860751372076702,0.7065965207134378
0.059000000000000004,1.7379372873692862,1.0,3037.808822197525,0.4855912584929124,1.3029895709637282,0.979495439002694,0.28604636606951,0.7072618618852548
0.059500000000000004,1.7372522602702343,1.0,3041.808517894157,0.48847667786004495,1.3026457537279779,0.9797128324933425,0.2860175949313498,0.7079258537959955
0.06,1.7365672331711823,1.0,3045.774715849123,0.49134588416016994,1.3023022473732266,0.9799253208856267,0.2859888237931897,0.7085884924524761
0.0605,1.7358822060721302,1.0,3049.709142154278,0.49419898893575487,1.301959036449409,0.9801330542359181,0.28596005265502944,0.7092498096509712
0.061,1.7351971789730782,1.0,3053.6140727820775,0.4970361123807786,1.3016161008259717,0.980336177264908,0.2859312815168693,0.7099098460540092
0.0615,1.734512151874026,1.0,3057.490109371832,0.49985733917538927,1.3012734348079715,0.9805348272019214,0.28590251037870906,0.7105686144100987
0.062,1.7338271247749741,1.0,3061.3378557352903,0.5026627539997351,1.3009310327004657,0.980729136138967,0.28587373924054893,0.7112261274165537
0.0625,1.7331420976759222,1.0,3065.157917822257,0.5054524415339644,1.3005888888085115,0.9809192312616885,0.28584496810238874,0.7118823977195927
0.063,1.73245707057687,1.0,3068.950903688398,0.5082264864582252,1.3002469974371658,0.9811052350682672,0.28581619696422855,0.7125374379144342
0.0635,1.731772043477818,1.0,3072.717423462542,0.5109849734526659,1.2999053528914855,0.9812872655769911,0.28578742582606836,0.7131912605453877
0.064,1.731087016378766,1.0,3076.4580893151906,0.5137279871974345,1.299563949476528,0.9814654365231529,0.2857586546879082,0.7138438781059443
0.0645,1.730401989279714,1.0,3080.1735154278545,0.5164556123726793,1.2992227814973503,0.9816398575459028,0.285729883549748,0.7144953030388679
0.065,1.729716962180662,1.0,3083.8643179628907,0.5191679336585486,1.2988818432590092,0.9818106343656364,0.2857011124115878,0.7151455477362788
0.0655,1.72903193508161,1.0,3087.5311150341754,0.5218650357351904,1.298541129066562,0.981977868952464,0.2856723412734276,0.7157946245397396
0.066,1.728346907982558,1.0,3091.174526678348,0.524547003282753,1.298200633225066,0.9821416596862659,0.2856435701352674,0.716442545740337
0.0665,1.7276618808835058,1.0,3094.7951748269147,0.5272139209813848,1.2978603500395778,0.9823021015088182,0.28561479899710723,0.7170893235787634
0.067,1.7269768537844539,1.0,3098.393683279217,0.5298658735112336,1.2975202738151548,0.9824592860684283,0.28558602785894704,0.7177349702453932
0.0675,1.726291826685402,1.0,3101.970677675691,0.5325029455524478,1.297180398856854,0.9826133018575028,0.2855572567207869,0.7183794978803609
0.068,1.7256067995863498,1.0,3105.526785472132,0.5351252217851757,1.2968407194697322,0.9827642343434417,0.28552848558262667,0.7190229185736343
0.0685,1.7249217724872978,1.0,3109.062635914956,0.5377327868895655,1.296501229958847,0.9829121660932202,0.28549971444446653,0.7196652443650859
0.069,1.7242367453882457,1.0,3112.5788600163387,0.5403257255457653,1.296161924629255,0.9830571768920139,0.2854709433063063,0.7203064872445646
0.0695,1.7235517182891937,1.0,3116.0760905311286,0.5429041224339233,1.2958227977860135,0.9831993438561804,0.28544217216814616,0.7209466591519622
0.07,1.7228666911901418,1.0,3119.5549619335266,0.5454680622341876,1.2954838437341796,0.983338741540913,0.28541340102998597,0.7215857719772798
0.07050000000000001,1.7221816640910896,1.0,3123.015035926884,0.5480175873766657,1.2951450659092958,0.9834754399462544,0.2853846298918258,0.7222238203743541
