Time [s],Phi [rad],STIM [ ],Fsee [N],Gamma [ ],Lcerel [ ],q [ ],Lmtc [m],fisomrel [ ]
0.0,1.8,1.0,18.11720311343191,0.0003921079141809876,1.3793229711175305,0.005039804074169738,0.288653,0.5411801134648249
0.0005,1.79999375,1.0,18.548175646357336,0.005999117807713598,1.379272348153376,0.01403529365001338,0.2886527375,0.5413025699178073
0.001,1.799975,1.0,22.173305975133278,0.011574676808895568,1.378881983871946,0.037627483432700407,0.28865195,0.5422463083458499
0.0015,1.79994375,1.0,32.244577201212145,0.017118961333377255,1.3779469982153816,0.07334709421229542,0.2886506375,0.5445027632014744
0.002,1.7999,1.0,55.98777390207407,0.022632146804955452,1.3762137957076608,0.11795755235893299,0.2886488,0.5486708543342937
0.0025,1.79984375,1.0,101.05678007702694,0.028114407664959755,1.3737472974791451,0.16809179326106868,0.28864643749999996,0.5545693801882506
0.003,1.7997750000000001,1.0,166.0147614053289,0.03356591737717348,1.371026534238624,0.22090387333127726,0.28864354999999997,0.5610309658510049
0.0035,1.79969375,1.0,243.35974184131874,0.03898684842989652,1.3684109174404566,0.27421343069843573,0.2886401375,0.5671983287968146
0.004,1.7996,1.0,327.48441998990654,0.04437737234577809,1.3659974468609506,0.32639972892737124,0.2886362,0.5728503472298012
0.0045000000000000005,1.7994937500000001,1.0,415.48491654941495,0.04973765968738515,1.3637774236622742,0.3763400121323841,0.2886317375,0.5780165370970609
0.005,1.799375,1.0,505.7454463283388,0.05506788004809112,1.36172421291119,0.4233389036509437,0.28862675,0.5827665618424112
0.0055,1.79924375,1.0,597.1711957577303,0.06036820209243891,1.3598145049000494,0.4670351504301482,0.2886212375,0.5871604657638149
0.006,1.7991000000000001,1.0,688.897555484559,0.06563879352020434,1.3580307230901683,0.5073091781139548,0.2886152,0.5912436266694236
0.006500000000000001,1.79894375,1.0,780.2158328961585,0.07087982108427979,1.3563593386486075,0.5442044895440046,0.2886086375,0.5950510897893084
0.007,1.798775,1.0,870.539731447847,0.07609145066470673,1.3547895562318888,0.5778671801097867,0.28860155,0.5986108762397303
0.0075,1.79859375,1.0,959.3838143609908,0.0812738470303516,1.3533124820502678,0.6085020671307191,0.2885939375,0.6019460778937475
0.008,1.7984,1.0,1046.372375804766,0.08642717440774195,1.3519202310609113,0.6363421115283702,0.2885858,0.6050770120217946
0.0085,1.79819375,1.0,1131.1863759755304,0.09155159559435036,1.350606221629533,0.6616287028885901,0.2885771375,0.6080206548299198
0.009000000000000001,1.797975,1.0,1213.58419256223,0.09664727270483987,1.349364460936529,0.6845986750687307,0.28856795,0.610792326002961
0.0095,1.79774375,1.0,1293.4077991174952,0.10171436740196588,1.3481892157294293,0.7054767144669496,0.2885582375,0.6134064733728475
0.01,1.7975,1.0,1370.5164066886189,0.1067530395455448,1.347075698796466,0.7244717820112664,0.288548,0.6158751891101555
0.0105,1.79724375,1.0,1444.8239657846595,0.11176344846850798,1.346019366988974,0.741775029643788,0.2885372375,0.6182098139941
0.011,1.796975,1.0,1516.2986312091311,0.11674575329638656,1.3450158145159423,0.7575595071003213,0.28852595000000003,0.6204211981310614
0.0115,1.79669375,1.0,1584.916545331329,0.12170011148599728,1.3440612364269864,0.7719809944064426,0.2885141375,0.6225187040444304
0.012,1.7964,1.0,1650.672548055691,0.12662667931487537,1.3431521787171081,0.7851789544770986,0.28850180000000003,0.6245107852095086
0.0125,1.79609375,1.0,1713.5944754298184,0.13152561260238993,1.3422852907381138,0.7972777509890735,0.2884889375,0.6264055476540975
0.013000000000000001,1.7957750000000001,1.0,1773.740586473184,0.13639706733090196,1.3414573026830356,0.8083880617024234,0.28847555,0.6282108113661536
0.0135,1.79544375,1.0,1831.158603416459,0.14124119745459168,1.3406654357025034,0.8186084376084255,0.2884616375,0.6299332299669118
0.014,1.7951000000000001,1.0,1885.8956152236572,0.1460581554230962,1.3399072236545777,0.8280265400087665,0.2884472,0.6315786967711636
0.0145,1.79474375,1.0,1938.0226149658486,0.1508480936860524,1.3391802003973194,0.836720250531884,0.2884322375,0.6331530346251092
0.015,1.794375,1.0,1987.6165493067647,0.15561116376248685,1.3384820688219998,0.8447588569609066,0.28841675,0.6346616361160045
0.0155,1.79399375,1.0,2034.7764341152802,0.16034751783452436,1.33781050084684,0.8522039928752252,0.2884007375,0.6361099027984922
0.016,1.7936,1.0,2079.573533206772,0.16505730499124796,1.337163640202569,0.8591106962377396,0.2883842,0.637502167491558
0.0165,1.7931937500000001,1.0,2122.0800883680313,0.16974067345540642,1.3365397659620295,0.8655280821891832,0.2883671375,0.6388424296116786
0.017,1.792775,1.0,2162.3807406618794,0.1743977714497485,1.3359371571980634,0.8715000039660623,0.28834955,0.6401346505538382
0.0175,1.7923437500000001,1.0,2200.5628873092414,0.17902874631497287,1.335354179876413,0.8770656982006145,0.2883314375,0.6413825702787577
0.018000000000000002,1.7919,1.0,2236.721268766489,0.1836337460109251,1.3347892272887756,0.882260311712751,0.2883128,0.6425898383016089
0.0185,1.79144375,1.0,2270.9342794575437,0.18821291602512133,1.3342409462554596,0.8871154343680964,0.2882936375,0.643759533948517
0.019,1.790975,1.0,2303.272629277066,0.19276640013735558,1.3337081344180135,0.8916594820320715,0.28827395,0.6448943910180136
0.0195,1.79049375,1.0,2333.8135333846276,0.19729434212742172,1.3331895894179864,0.8959180233125723,0.2882537375,0.6459971221411788
0.02,1.79,1.0,2362.640165362525,0.2017968857751138,1.332684108896927,0.8999141026435674,0.288233,0.6470704199217399
0.0205,1.78949375,1.0,2389.8235362618548,0.20627417256182506,1.3321906615248527,0.9036685606544758,0.2882117375,0.6481165956494923
0.021,1.788975,1.0,2415.458265809423,0.21072634750950733,1.3317080321471078,0.9072002030508671,0.28818995000000003,0.649138333574915
0.021500000000000002,1.78844375,1.0,2439.6041854857863,0.21515354990020652,1.3312353840299456,0.9105261384606067,0.2881676375,0.6501375011687962
0.022,1.7879,1.0,2462.322018345669,0.21955591864903684,1.3307719045479869,0.9136618891094956,0.2881448,0.6511159029390863
0.0225,1.78734375,1.0,2483.6755724208692,0.22393359267111249,1.330316781075853,0.9166215555019048,0.28812143749999997,0.6520753320780837
0.023,1.786775,1.0,2503.731481139109,0.2282867108815477,1.329869200988164,0.9194179663262928,0.28809755,0.6530175709165504
0.0235,1.78619375,1.0,2522.5519978707175,0.23261541062512578,1.3294284174720192,0.9220628222511591,0.28807313749999996,0.6539442530672226
0.024,1.7856,1.0,2540.202962442268,0.2369198307760391,1.328993671149144,0.9245667987528468,0.2880482,0.6548570291575541
0.0245,1.78499375,1.0,2556.743908267788,0.24120010849603638,1.3285642813134975,0.9269396643745204,0.2880227375,0.6557573757810744
0.025,1.784375,1.0,2572.2218014241435,0.2454563774471082,1.3281397015858747,0.9291903795787326,0.28799675,0.6566464803671337
0.025500000000000002,1.78374375,1.0,2586.685064383233,0.24968877129124503,1.327719385587071,0.9313271548875055,0.2879702375,0.6575255239490838
0.026000000000000002,1.7831000000000001,1.0,2600.1834526655934,0.25389742369043755,1.327302786937881,0.9333575238303963,0.2879432,0.6583956813223726
0.0265,1.78244375,1.0,2612.7679381130274,0.2580824683066762,1.3268893592591002,0.935288407906872,0.2879156375,0.6592581211835935
0.027,1.781775,1.0,2624.4840123876506,0.26224403698274906,1.3264786172253307,0.9371261831856569,0.28788755,0.6601138791283037
0.0275,1.7810937500000001,1.0,2635.3771581978876,0.2663822627197239,1.3260700843639581,0.938876724379631,0.2878589375,0.6609639671010243
0.028,1.7804,1.0,2645.4994767690564,0.27049727950887587,1.3256632309767171,0.9405454417234584,0.2878298,0.6618095025185122
0.0285,1.77969375,1.0,2654.8845717403206,0.2745892153229992,1.3252577053508732,0.942137353890338,0.2878001375,0.6626512280289687
0.029,1.778975,1.0,2663.5666513466476,0.2786581981348881,1.324853155773691,0.9436570998631966,0.28776995,0.6634898826016394
0.029500000000000002,1.7782437500000001,1.0,2671.5804754148808,0.28270435591733684,1.3244492305324354,0.9451089725596631,0.2877392375,0.6643262015526487
0.03,1.7775,1.0,2678.9613051029596,0.28672781664313957,1.3240455779143718,0.9464969490777579,0.287708,0.665160916562949
0.0305,1.77674375,1.0,2685.7448553818563,0.2907287082850905,1.3236418462067652,0.9478247179386727,0.2876762375,0.6659947556883818
0.031,1.775975,1.0,2691.965257979971,0.29470715789916674,1.3232377019317616,0.949095705684273,0.28764395,0.6668284057712808
0.0315,1.7751937500000001,1.0,2697.6502001448653,0.29866329054673524,1.3228328738126878,0.9503131040032505,0.2876111375,0.6676624221487284
0.032,1.7744,1.0,2702.8371099897317,0.30259723590085486,1.322427004290735,0.9514798729646118,0.2875778,0.6684975347707347
0.0325,1.77359375,1.0,2707.548808177761,0.3065091161933129,1.3220198718478715,0.9525987831428208,0.2875439375,0.6693341904817616
0.033,1.772775,1.0,2711.8083320342353,0.3103990536558966,1.321611254966067,0.953672416949794,0.28750955,0.6701728337983146
0.0335,1.7719437500000002,1.0,2715.6389145680755,0.31426717052039327,1.3212009321272906,0.9547031836748028,0.2874746375,0.6710139068895398
0.034,1.7711000000000001,1.0,2719.06396458064,0.31811358901859016,1.320788681813511,0.9556933331517624,0.2874392,0.6718578495546874
0.0345,1.7702437500000001,1.0,2722.1070478628335,0.3219384313822746,1.3203742825066975,0.9566449681936866,0.2874032375,0.672705099197445
0.035,1.7693750000000001,1.0,2724.7918694799237,0.32574181984323397,1.3199575126888192,0.9575600559184841,0.28736675,0.6735560907971432
0.035500000000000004,1.76849375,1.0,2727.1372469271405,0.32952386674823075,1.3195381964025332,0.9584404405005433,0.2873297375,0.6744111640300259
0.036000000000000004,1.7676,1.0,2729.171326674298,0.3332847066952401,1.3191160737942285,0.9592878466133602,0.2872922,0.6752708273155502
0.0365,1.76669375,1.0,2730.908674287425,0.33702445549479926,1.3186910093290738,0.960103899917929,0.2872541375,0.6761353334592354
0.037,1.765775,1.0,2732.3638908625294,0.3407432288998299,1.3182628677786081,0.9608901261810385,0.28721555,0.677004933014465
0.0375,1.76484375,1.0,2733.5516387998,0.3444411426632533,1.3178315139143713,0.9616479585107045,0.2871764375,0.6778798748816928
0.038,1.7639,1.0,2734.4866343065437,0.34811831253799097,1.317396812507902,0.9623787440063623,0.28713679999999997,0.6787604062813255
0.0385,1.76294375,1.0,2735.1836403058956,0.35177485427696426,1.31695862833074,0.963083749861539,0.28709663750000003,0.6796467727254332
0.039,1.761975,1.0,2735.657459750346,0.35541088363309464,1.3165168261544244,0.9637641689695448,0.28705595,0.6805392179882968
0.0395,1.7609937500000001,1.0,2735.922929341771,0.3590265163593035,1.3160712707504945,0.9644211250775926,0.2870147375,0.6814379840757896
0.04,1.76,1.0,2735.99491365575,0.36262186820851233,1.3156218268904898,0.9650556775301702,0.286973,0.6823433111935896
0.0405,1.7589937500000001,1.0,2735.8805773494064,0.36619704570244865,1.3151684294569959,0.9656688301445806,0.2869307375,0.6832552967908503
0.041,1.757975,1.0,2735.5868921037213,0.36975215889411855,1.3147110152566142,0.9662615312900156,0.28688795,0.6841740334060944
0.0415,1.75694375,1.0,2735.144049004498,0.3732873448535997,1.3142493104085602,0.9668346634345851,0.2868446375,0.6851000347823482
0.042,1.7559,1.0,2734.5589327548087,0.37680271097366436,1.3137832527203408,0.967389073389625,0.28680079999999997,0.6860333874752639
0.0425,1.75484375,1.0,2733.8384366008195,0.3802983646470846,1.3133127799994633,0.9679255620506899,0.2867564375,0.6869741769419896
0.043000000000000003,1.753775,1.0,2732.989460592156,0.3837744132666327,1.312837830053435,0.9684448873493156,0.28671155,0.6879224875237825
0.043500000000000004,1.75269375,1.0,2732.018909929314,0.3872309642250808,1.3123583406897628,0.9689477669863495,0.28666613750000003,0.6888784024283741
0.044,1.7516,1.0,2730.933693395279,0.39066812491520103,1.3118742497159541,0.9694348809650417,0.2866202,0.6898420037120877
0.0445,1.75049375,1.0,2729.740721874452,0.39408600272976574,1.311385494939516,0.9699068739404044,0.2865737375,0.6908133722617111
0.045,1.7493750000000001,1.0,2728.446906956013,0.39748470506154693,1.3108920141679556,0.9703643573998528,0.28652675,0.6917925877761214
0.0455,1.74824375,1.0,2727.0591596237336,0.4008643393033169,1.3103937452087804,0.9708079116887731,0.2864792375,0.6927797287476618
0.046,1.7471,1.0,2725.584389031748,0.4042250128478478,1.3098906258694973,0.9712380878934437,0.2864312,0.6937748724432756
0.0465,1.7459437500000001,1.0,2724.02950136522,0.40756683308791175,1.3093825939576136,0.971655409592633,0.28638263750000004,0.6947780948853903
0.047,1.744775,1.0,2722.4013987876283,0.410889907416281,1.3088695872806362,0.9720603744881986,0.28633355,0.6957894708325557
0.0475,1.74359375,1.0,2720.7069784735418,0.4141943432257277,1.3083515436460729,0.9724534559241151,0.28628393750000003,0.6968090737598343
0.048,1.7424,1.0,2718.9509374583645,0.4174802423152619,1.3078284208451512,0.9728351050061158,0.2862338,0.6978369366070807
0.0485,1.74119375,1.0,2717.1338293367594,0.4207476973728384,1.3073002143828865,0.9732057527050638,0.2861831375,0.6988730173476787
0.049,1.739975,1.0,2715.270361720604,0.4239968380300015,1.3067667907859843,0.9735658051546672,0.28613195,0.6999175257361866
0.0495,1.73874375,1.0,2713.3632847533136,0.42722776293247633,1.3062281254231578,0.9739156529944678,0.2860802375,0.7009704566320751
0.05,1.7375,1.0,2711.415345908915,0.43044057072598796,1.3056841936631196,0.974255668664006,0.286028,0.7020318040322973
0.0505,1.73624375,1.0,2709.429289778341,0.43363536005626163,1.3051349708745827,0.9745862074112355,0.2859752375,0.7031015610630342
0.051000000000000004,1.734975,1.0,2707.407857869438,0.4368122295690224,1.30458043242626,0.9749076082363697,0.28592195,0.7041797199714046
0.051500000000000004,1.73369375,1.0,2705.3537884202296,0.4399712779099954,1.3040205536868643,0.9752201947758304,0.2858681375,0.7052662721171317
0.052000000000000005,1.7324,1.0,2703.2698162255033,0.44311260372490585,1.3034553100251087,0.975524276130595,0.2858138,0.7063612079641746
0.0525,1.73109375,1.0,2701.1586724775966,0.44623630565947875,1.302884676809706,0.9758201476428884,0.28575893750000003,0.7074645170723213
0.053,1.729775,1.0,2699.0230846193954,0.44934248235943935,1.3023086294093689,0.9761080916248709,0.28570355000000003,0.70857618808874
0.0535,1.72844375,1.0,2696.8657762118587,0.45243123247051276,1.3017271431928106,0.9763883780426642,0.2856476375,0.7096962087394936
0.054,1.7271,1.0,2694.689466814741,0.4555026546384241,1.3011401935287437,0.976661265158823,0.2855912,0.7108245658210166
0.0545,1.7257437500000001,1.0,2692.496871880266,0.45855684750889847,1.3005477557858813,0.9769270001360951,0.2855342375,0.7119612451915505
0.055,1.724375,1.0,2690.2907026607822,0.46159390972766107,1.2999498053329361,0.9771858196051206,0.28547675,0.7131062317625438
0.0555,1.72299375,1.0,2688.0735952935042,0.4646139370918667,1.2993463181874385,0.9774379499675621,0.2854187375,0.7142595082513548
0.056,1.7216,1.0,2685.8484512129853,0.4676170033631726,1.2987372678972133,0.9776836059539039,0.2853602,0.7154210611266218
0.0565,1.72019375,1.0,2683.618430122695,0.47060324011510507,1.2981226255992093,0.9779229985744129,0.28530113749999997,0.7165908804395207
0.057,1.718775,1.0,2681.3844932596594,0.47357273757739987,1.29750238254437,0.9781563275050645,0.28524155,0.7177689170294114
0.0575,1.71734375,1.0,2679.14760028642,0.4765255859797925,1.296876529983638,0.9783837842812613,0.2851814375,0.7189551209976852
0.058,1.7159,1.0,2676.9087092835634,0.4794618755520187,1.2962450591679566,0.9786055526929193,0.2851208,0.7201494417046361
0.0585,1.71444375,1.0,2674.668776743554,0.4823816965238141,1.2956079613482687,0.9788218091573312,0.2850596375,0.721351827766328
0.059000000000000004,1.7129750000000001,1.0,2672.42875756643,0.4852851391249142,1.294965227775517,0.9790327230712182,0.28499795,0.7225622270514584
0.059500000000000004,1.71149375,1.0,2670.1896050568675,0.4881722935850549,1.2943168497006452,0.9792384571432912,0.2849357375,0.7237805866782138
0.06,1.71,1.0,2667.9522709236303,0.49104325013397154,1.2936628183745955,0.9794391677085379,0.284873,0.7250068530111267
0.0605,1.7084937500000001,1.0,2665.717705279928,0.4938980990014,1.2930031250483114,0.9796350050253791,0.2848097375,0.7262409716579197
0.061,1.7069750000000001,1.0,2663.486856646033,0.4967369304170759,1.292337760972736,0.9798261135567481,0.28474595,0.7274828874663504
0.0615,1.7054437500000001,1.0,2661.2606719531686,0.4995598346107347,1.2916667173988117,0.9800126322360815,0.2846816375,0.7287325445210515
0.062,1.7039,1.0,2659.0400965497706,0.5023669018121122,1.290989985577482,0.9801946947191367,0.2846168,0.7299898861403598
0.0625,1.70234375,1.0,2656.8260742084494,0.505158222250944,1.29030755675969,0.9803724296224963,0.2845514375,0.7312548548731486
0.063,1.7007750000000001,1.0,2654.619547135521,0.5079338861569658,1.2896194221963782,0.9805459607495537,0.28448555,0.7325273924956508
0.0635,1.69919375,1.0,2652.421455982003,0.510693983759913,1.28892557313849,0.9807154073047263,0.28441913750000003,0.7338074400082749
0.064,1.6976,1.0,2650.2298254765915,0.5134385551744173,1.2882260277208233,0.9808808818127985,0.2843522,0.7350948882151633
0.0645,1.69599375,1.0,2648.0480539735227,0.5161677364649021,1.2875207545186165,0.9810424971447134,0.2842847375,0.7363897184982318
0.065,1.694375,1.0,2645.877540939882,0.518881632125999,1.2868097405096557,0.9812003606868662,0.28421675,0.737691877387704
0.0655,1.69274375,1.0,2643.718307445909,0.5215803229655895,1.2860929853816212,0.9813545749060821,0.2841482375,0.7390012873578811
0.066,1.6911,1.0,2641.570374567731,0.5242638897915551,1.2853704888221937,0.9815052386108825,0.2840792,0.7403178702467546
0.0665,1.6894437500000001,1.0,2639.43376338819,0.5269324134117773,1.2846422505190538,0.9816524471065979,0.2840096375,0.7416415472558936
0.067,1.687775,1.0,2637.3084949970234,0.5295859746341378,1.2839082701598814,0.981796292342835,0.28393955,0.742972238950331
0.0675,1.68609375,1.0,2635.1945904922477,0.5322246542665179,1.2831685474323573,0.9819368630537205,0.2838689375,0.7443098652584466
0.068,1.6844000000000001,1.0,2633.092070980248,0.5348485331167994,1.282423082024162,0.9820742448913291,0.2837978,0.7456543454718542
0.0685,1.68269375,1.0,2631.000957576547,0.5374576919928635,1.2816718736229757,0.9822085205526698,0.2837261375,0.7470055982452882
0.069,1.680975,1.0,2628.921271406745,0.540052211702592,1.2809149219164793,0.9823397699005806,0.28365395,0.7483635415964871
0.0695,1.67924375,1.0,2626.853033606965,0.5426321730538664,1.2801522265923528,0.9824680700788675,0.28358123749999997,0.749728092906081
0.07,1.6775,1.0,2624.796265324605,0.5451976568545681,1.279383787338277,0.9825934956219965,0.283508,0.751099168917476
0.07050000000000001,1.67574375,1.0,2622.7509877191133,0.5477487439125787,1.2786096038419321,0.9827161185596319,0.2834342375,0.75247668573674
0.07100000000000001,1.673975,1.0,2620.7172219623526,0.5502855150357798,1.2778296757909986,0.9828360085162945,0.28335995,0.7538605588324891
0.07150000000000001,1.67219375,1.0,2618.694989239706,0.5528080510320529,1.2770440028731571,0.9829532328064011,0.2832851375,0.755250703035772
0.07200000000000001,1.6704,1.0,2616.6843107505415,0.5553164327092794,1.276252584776088,0.983067856524926,0.2832098,0.7566470325399565
0.0725,1.66859375,1.0,2614.685207708868,0.557810740875341,1.2754554211874713,0.9831799426339136,0.2831339375,0.7580494609006148
0.073,1.6667750000000001,1.0,2612.6977013441633,0.5602910563381192,1.2746525117949883,0.9832895520450603,0.28305755,0.7594579010354076
0.0735,1.66494375,1.0,2610.7218129020653,0.5627574599054955,1.2738438562863188,0.9833967436985652,0.2829806375,0.7608722652239732
0.074,1.6631,1.0,2608.75756364475,0.5652100323853515,1.2730294543491436,0.9835015746384427,0.2829032,0.762292465107809
0.0745,1.6612437500000001,1.0,2606.804974852147,0.5676488545855687,1.272209305671143,0.9836041000844784,0.2828252375,0.7637184116901603
0.075,1.659375,1.0,2604.866454918919,0.5700740024109907,1.2713833877291694,0.9837043722537595,0.28274675,0.7651500537775489
0.0755,1.65749375,1.0,2602.9361007798066,0.5724855475196189,1.2705517553302694,0.9838024448382712,0.2826677375,0.7665872056368305
