Time [s],Phi [rad],STIM [ ],Fsee [N],Gamma [ ],Lcerel [ ],q [ ],Lmtc [m],fisomrel [ ]
0.0,1.8,1.0,17.96832954159968,1.840111969334006e-05,1.3793396149887955,0.005000089809956415,0.288653,0.5411398485336492
0.0005,1.79999375,1.0,18.280385883786558,0.005627507212761116,1.3793019832834796,0.012963851969788935,0.2886527375,0.5412308848125604
0.001,1.799975,1.0,21.62820477723144,0.011205150655527745,1.3789372989303657,0.035652361786623905,0.28865195,0.5421126386459143
0.0015,1.79994375,1.0,31.09225547632464,0.01675150792945335,1.3780442429121305,0.07066163285687198,0.2886506375,0.5442683367378639
0.002,1.7999,1.0,53.631702378510575,0.022266754524334364,1.3763649331495629,0.11478880712270957,0.2886488,0.54830815400295
0.0025,1.79984375,1.0,97.20168359088125,0.0277510649459232,1.3739311807789365,0.16465188505434272,0.28864643749999996,0.5541309695193569
0.003,1.7997750000000001,1.0,161.06593153480594,0.03320461272357072,1.3712103106954092,0.21735988566797879,0.28864354999999997,0.5605959988310516
0.0035,1.79969375,1.0,237.80513685467756,0.03862757040987631,1.3685809827879045,0.27069189496886437,0.2886401375,0.5667986579308113
0.004,1.7996,1.0,321.5963928792522,0.04402010959145508,1.3661526595626665,0.3229923039355722,0.2886362,0.5724879779820984
0.0045000000000000005,1.7994937500000001,1.0,409.4020131875687,0.04938240089412678,1.3639196627747645,0.37310713034792414,0.2886317375,0.5776864765494314
0.005,1.799375,1.0,499.5505066546075,0.054714613974016536,1.3618554312549782,0.42031540671802586,0.28862675,0.5824637974211535
0.0055,1.79924375,1.0,590.9286773293403,0.060016917564731584,1.3599361339271678,0.46423660691687896,0.2886212375,0.5868813121605991
0.006,1.7991000000000001,1.0,682.6565616147572,0.06528947942127258,1.3581438981627934,0.504737775892384,0.2886152,0.5909851664820112
0.006500000000000001,1.79894375,1.0,774.0210481763335,0.07053246637316268,1.3564648674126292,0.5418535995438396,0.2886086375,0.5948112190704614
0.007,1.798775,1.0,864.4265307960216,0.07574604431995982,1.3548881220165576,0.5757249088078106,0.28860155,0.5983878215929876
0.0075,1.79859375,1.0,953.3830621143306,0.08093037820909531,1.3534046282832028,0.606553675303981,0.2885939375,0.6017384206250358
0.008,1.7984,1.0,1040.4959227118745,0.08608563208594919,1.352006622470341,0.6345718158710488,0.2885858,0.6048830922736695
0.0085,1.79819375,1.0,1125.454136306379,0.09121196907226299,1.3506872609659497,0.6600205076767359,0.2885771375,0.6078394291970659
0.009000000000000001,1.797975,1.0,1208.0093528611615,0.09630955113318358,1.3494405433748533,0.6831371799399558,0.28856795,0.6106227890493854
0.0095,1.79774375,1.0,1287.9959379808708,0.10137853993413616,1.3482607511758518,0.7041474942974802,0.2885582375,0.613247605836835
0.01,1.7975,1.0,1365.292706565059,0.10641909625691004,1.3471427702804433,0.7232613911518838,0.288548,0.6157267125064394
0.0105,1.79724375,1.0,1439.7876884023347,0.11143137869115972,1.3460823420368226,0.7406713846835191,0.2885372375,0.6180708307726649
0.011,1.796975,1.0,1511.4323923882519,0.11641554582653979,1.3450752077931845,0.7565517824904548,0.28852595000000003,0.6202905005309011
0.0115,1.79669375,1.0,1580.2162689953104,0.12137175562098199,1.3441173450896942,0.7710593874906286,0.2885141375,0.6223955765574629
0.012,1.7964,1.0,1646.1586752258318,0.12630016566411215,1.343204975011256,0.7843345740766869,0.28850180000000003,0.6243952331872549
0.0125,1.79609375,1.0,1709.268655043837,0.13120093114117276,1.3423349472465154,0.7965027637240975,0.2884889375,0.6262971425182575
0.013000000000000001,1.7957750000000001,1.0,1769.5811839709133,0.1360742068128276,1.3415042302570308,0.8076755965339839,0.28847555,0.6281086119788039
0.0135,1.79544375,1.0,1827.1531957202578,0.1409201469164396,1.3407099099706326,0.8179523374741036,0.2884616375,0.6298365983667202
0.014,1.7951000000000001,1.0,1882.0610476024601,0.1457389058061728,1.339949176930981,0.8274212108937264,0.2884472,0.6314877458671829
0.0145,1.79474375,1.0,1934.3666522561748,0.15053063557674023,1.3392196565447552,0.8361607537441347,0.2884322375,0.6330676805282474
0.015,1.794375,1.0,1984.1319455250466,0.1552954870973556,1.3385192022421493,0.8442408516820452,0.28841675,0.6345814723001877
0.0155,1.79399375,1.0,2031.4373823231765,0.1600336112372327,1.3378456674533583,0.8517236731671526,0.2884007375,0.6360341357876111
0.016,1.7936,1.0,2076.363345190143,0.16474515778733284,1.3371970826771884,0.8586646356246866,0.2883842,0.6374302532971727
0.0165,1.7931937500000001,1.0,2119.0152463379186,0.16943027745675282,1.3365713721036332,0.8651131183324434,0.2883671375,0.6387745901794569
0.017,1.792775,1.0,2159.465670953566,0.1740891175284841,1.3359669366486238,0.8711133459226785,0.28834955,0.6400708465527412
0.0175,1.7923437500000001,1.0,2197.7889432245906,0.17872182464981845,1.335382270094886,0.8767048839193261,0.2883314375,0.6413224901339314
0.018000000000000002,1.7919,1.0,2234.06906652838,0.18332854546804753,1.334815866225146,0.8819231605100208,0.2883128,0.6425329583032692
0.0185,1.79144375,1.0,2268.3909663353675,0.18790942570295147,1.3342662979255302,0.886799969571823,0.2882936375,0.643705491298344
0.019,1.790975,1.0,2300.846546202461,0.19246461177811403,1.3337321467744132,0.8913638742830285,0.28827395,0.6448432851063186
0.0195,1.79049375,1.0,2331.5123454941313,0.19699424766256743,1.333212215714621,0.8956406266462471,0.2882537375,0.6459490411305898
0.02,1.79,1.0,2360.4564015518113,0.20149847551934388,1.3327054489079562,0.8996534656234183,0.288233,0.6470251411573833
0.0205,1.78949375,1.0,2387.7518527862267,0.20597743751147568,1.332210790516223,0.9034233669888044,0.2882117375,0.6480739498232977
0.021,1.788975,1.0,2413.4765107169846,0.21043127580199503,1.3317271847012246,0.9069692945387322,0.28818995000000003,0.6490978154661977
0.021500000000000002,1.78844375,1.0,2437.697820129196,0.21486013033204718,1.3312537164034621,0.9103084492067028,0.2881676375,0.6500987734977509
0.022,1.7879,1.0,2460.503955942875,0.21926414461030877,1.3307893067388414,0.9134563996174343,0.2881448,0.6510791917960354
0.0225,1.78734375,1.0,2481.953550611513,0.22364345682814163,1.3303331927879658,0.9164273483314177,0.28812143749999997,0.6520407581074893
0.023,1.786775,1.0,2502.1019510477745,0.2279982041945951,1.3298846687176842,0.9192342258243663,0.28809755,0.6529850297991829
0.0235,1.78619375,1.0,2521.0069116058808,0.2323285239187186,1.3294430286948449,0.9218888123557114,0.28807313749999996,0.6539135549884172
0.024,1.7856,1.0,2538.728392484223,0.2366345532095615,1.3290075668862966,0.9244018561731654,0.2880482,0.654827872868492
0.0245,1.78499375,1.0,2555.327223919557,0.24091642899675492,1.3285775882177417,0.926783179910057,0.2880227375,0.6557294914573092
0.025,1.784375,1.0,2570.8549475775812,0.24517428548621395,1.3281525016739035,0.929041787982563,0.28799675,0.6566196927460419
0.025500000000000002,1.78374375,1.0,2585.382477244884,0.2494082617752391,1.3277315496055482,0.9311859050192646,0.2879702375,0.6575001001056955
0.026000000000000002,1.7831000000000001,1.0,2598.951186616308,0.2536184897073029,1.32731426428007,0.9332231215266743,0.2879432,0.6583717232104482
0.0265,1.78244375,1.0,2611.6035709289795,0.2578051011258779,1.3269001779648628,0.9351604104926149,0.2879156375,0.6592355664749395
0.027,1.781775,1.0,2623.383152820275,0.26196822787443674,1.326488822927321,0.937004185905014,0.28788755,0.6600926291566722
0.0275,1.7810937500000001,1.0,2634.3343930356973,0.26610800179645194,1.3260797314348391,0.9387603550130844,0.2878589375,0.6609439054444617
0.028,1.7804,1.0,2644.5026059878082,0.2702245547353961,1.3256724357548109,0.9404343650675513,0.2878298,0.6617903845329356
0.0285,1.77969375,1.0,2653.92130151112,0.27431801397380573,1.3252665841063072,0.9420312600707299,0.2878001375,0.6626328101524701
0.029,1.778975,1.0,2662.6460579786285,0.2783885153849529,1.3248616272863887,0.9435556776258515,0.28776995,0.6634723313674729
0.029500000000000002,1.7782437500000001,1.0,2670.711805701816,0.28243618744466187,1.3244572121926315,0.9450119335858338,0.2877392375,0.6643096857658983
0.03,1.7775,1.0,2678.1468581889476,0.28646115602935956,1.3240530509998818,0.9464040338137328,0.287708,0.6651454723777679
0.0305,1.77674375,1.0,2684.979942401512,0.29046354701547294,1.323648855882986,0.9477356931248346,0.2876762375,0.6659802872628642
0.031,1.775975,1.0,2691.2401620274645,0.29444348627942896,1.3232443390167905,0.9490103600947716,0.28764395,0.6668147235127494
0.0315,1.7751937500000001,1.0,2696.9569625914332,0.29840109969765444,1.3228392125761417,0.9502312394619121,0.2876111375,0.6676493712475026
0.032,1.7744,1.0,2702.1600984015504,0.30233651314657645,1.322433188735886,0.9514013123833159,0.2875778,0.66848481760717
0.0325,1.7735973082005911,1.0,2707.0556573706344,0.30624985250262177,1.32202597967087,0.952523354773049,0.2875440869444248,0.669321646737935
0.033,1.7727942397972098,1.0,2712.0857468653935,0.3101412372151001,1.3216174141634578,0.9535999657371619,0.28751035807148284,0.6701602005956979
0.0335,1.7719911713938286,1.0,2717.2178189971723,0.31401079900585926,1.3212079621067676,0.9546336467326727,0.2874766291985408,0.6709995059924023
0.034,1.7711881029904473,1.0,2722.4383911049845,0.3178586585771468,1.32079774872222,0.9556266904942199,0.28744290032559877,0.6718392997919497
0.0345,1.770385034587066,1.0,2727.7364724424183,0.3216849354946182,1.3203868761325461,0.9565812364458065,0.28740917145265676,0.6726793673534074
0.035,1.7695819661836847,1.0,2733.1010318240706,0.3254897493239288,1.3199754464604774,0.9574992854115805,0.28737544257971476,0.6735194950969967
0.035500000000000004,1.7687788977803034,1.0,2738.520996248812,0.3292732196307341,1.3195635618287453,0.9583827102059911,0.28734171370677275,0.6743594705080538
0.036000000000000004,1.767975829376922,1.0,2743.9852497537786,0.33303546598068945,1.319151324360081,0.9592332652992135,0.28730798483383074,0.6751990821403264
0.0365,1.767172760973541,1.0,2749.4826325001595,0.3367766079394503,1.3187388361772159,0.9600525956480814,0.28727425596088874,0.6760381196186032
0.037,1.7663696925701597,1.0,2755.0019400895476,0.3404967650726722,1.3183261994028814,0.9608422447731062,0.2872405270879467,0.6768763736406791
0.0375,1.7655666241667785,1.0,2760.536438983791,0.3441960516145529,1.3179134753436264,0.9616036570210227,0.2872067982150047,0.6777137187338568
0.038,1.7647635557633972,1.0,2766.076143480414,0.34787458988740083,1.3175007544258854,0.9623381943711997,0.28717306934206266,0.6785499711064846
0.0385,1.7639604873600159,1.0,2771.6129764226444,0.35153249942901366,1.3170881094985696,0.9630471355297567,0.28713934046912065,0.6793849834649973
0.039,1.7631574189566346,1.0,2777.143598220806,0.355169893299721,1.316675570428171,0.9637316787868742,0.28710561159617864,0.6802186960905374
0.0395,1.7623543505532533,1.0,2782.664656140259,0.35878688455985275,1.3162631670811828,0.9643929529203454,0.28707188272323664,0.6810510495783795
0.04,1.761551282149872,1.0,2788.172784381589,0.36238358626973854,1.3158509293240976,0.965032021974878,0.28703815385029463,0.6818819848377038
0.0405,1.7607482137464907,1.0,2793.6646041800323,0.3659601114897082,1.3154388870234082,0.9656498896640892,0.2870044249773526,0.6827114430913059
0.041,1.7599451453431094,1.0,2799.1367239253204,0.36951657328009146,1.315027070045607,0.9662475034286356,0.2869706961044106,0.6835393658752558
0.0415,1.7591420769397281,1.0,2804.5857393007254,0.3730530847012181,1.3146155082571869,0.9668257581806703,0.28693696723146855,0.6843656950384949
0.042,1.7583390085363468,1.0,2810.008233442491,0.3765697588134178,1.3142042315246405,0.9673854997618639,0.28690323835852655,0.6851903727423792
0.0425,1.7575359401329655,1.0,2815.401873397114,0.38006670376853147,1.3137932599028965,0.9679275265317171,0.28686950948558454,0.6860133610953866
0.043000000000000003,1.7567328717295843,1.0,2820.766731333332,0.3835440220190133,1.3133825918703026,0.9684525914052633,0.28683578061264253,0.6868346655377913
0.043500000000000004,1.755929803326203,1.0,2826.096532698244,0.3870018476571096,1.312972282611269,0.9689614168630428,0.2868020517397005,0.6876541783070533
0.044,1.7551267349228217,1.0,2831.3910460796455,0.39044028597958735,1.3125623331765919,0.9694546786704348,0.2867683228667585,0.6884719001250166
0.0445,1.7543236665194404,1.0,2836.6500404844314,0.39385944228321357,1.3121527446170669,0.9699330175499344,0.2867345939938165,0.6892878317220416
0.045,1.753520598116059,1.0,2841.873285346794,0.3972594218647551,1.3117435179834902,0.9703970413435165,0.28670086512087445,0.6901019738369814
0.0455,1.7527175297126778,1.0,2847.0605505368767,0.40064033002097893,1.311334654326658,0.9708473270212231,0.2866671362479325,0.690914327217157
0.046,1.7519144613092967,1.0,2852.2116063686476,0.404002272048652,1.3109261546973663,0.9712844225482965,0.28663340737499043,0.6917248926183337
0.0465,1.7511113929059154,1.0,2857.32622360924,0.40734535324454124,1.310518020146411,0.9717088486220966,0.2865996785020484,0.6925336708046973
0.047,1.7503083245025342,1.0,2862.4041734866432,0.4106696789054136,1.3101102517245886,0.9721211002890363,0.2865659496291064,0.6933406625488274
0.0475,1.7495052560991529,1.0,2867.4452276987204,0.413975354328036,1.3097028504826946,0.9725216484508916,0.2865322207561644,0.6941458686316764
0.048,1.7487021876957716,1.0,2872.44915842155,0.4172624848091754,1.3092958174715257,0.9729109412690231,0.2864984918832224,0.6949492898425405
0.0485,1.7478991192923903,1.0,2877.415738318027,0.4205311756455987,1.3088891537418772,0.9732894054743194,0.2864647630102804,0.6957509269790401
0.049,1.747096050889009,1.0,2882.344740546388,0.42378153213407294,1.3084828603445458,0.973657447590008,0.2864310341373384,0.6965507808470902
0.0495,1.7462929824856277,1.0,2887.2359387688903,0.42701365957136495,1.3080769383303272,0.974015455073881,0.28639730526439633,0.6973488522608793
0.05,1.7454899140822464,1.0,2892.0904309420853,0.43022761986517105,1.3076713770604687,0.9743637915890876,0.2863635763914544,0.6981451649799584
0.0505,1.7446868456788651,1.0,2896.9078864853427,0.4334235720122991,1.307266178543794,0.9747028160773812,0.2863298475185123,0.6989397178670067
0.051000000000000004,1.7438837772754838,1.0,2901.688804861945,0.4366016133602051,1.3068613374726348,0.9750328635846219,0.2862961186455703,0.6997325241215107
0.051500000000000004,1.7430807088721025,1.0,2906.433714706407,0.43976183986613887,1.3064568483074066,0.9753542538942666,0.2862623897726283,0.7005235973389388
0.052000000000000005,1.7422776404687212,1.0,2911.1431475398017,0.4429043474873502,1.306052705508525,0.9756672925189402,0.2862286608996863,0.7013129510552045
0.0525,1.74147457206534,1.0,2915.8176377270097,0.44602923218108886,1.3056489035364058,0.9759722714616889,0.2861949320267443,0.7021005987467885
0.053,1.7406715036619587,1.0,2920.457722434523,0.44913658990460475,1.3052454368514645,0.9762694699302601,0.2861612031538023,0.7028865538308628
0.0535,1.7398684352585774,1.0,2925.0639415887185,0.45222651661514757,1.304842299914117,0.9765591550076836,0.28612747428086027,0.7036708296654068
0.054,1.739065366855196,1.0,2929.6368378352227,0.45529910826996717,1.3044394871847786,0.9768415822821834,0.2860937454079182,0.7044534395493272
0.0545,1.7382622984518148,1.0,2934.1769564987844,0.45835446082631326,1.3040369931238653,0.9771169964392072,0.2860600165349762,0.7052343967225723
0.055,1.7374592300484335,1.0,2938.684845543492,0.4613926702414357,1.3036348121917927,0.9773856318181552,0.2860262876620342,0.7060137143662462
0.0555,1.7366561616450522,1.0,2943.161055534346,0.4644138324725843,1.3032329388489763,0.9776477129361902,0.2859925587890922,0.70679140560272
0.056,1.735853093241671,1.0,2947.6061395988354,0.4674180434770087,1.302831367555832,0.977903454981335,0.2859588299161502,0.7075674834957415
0.0565,1.7350500248382899,1.0,2952.0206533897717,0.47040539921195895,1.3024300927727754,0.9781530642768939,0.2859251010432082,0.7083419610505435
0.057,1.7342469564349086,1.0,2956.40515504826,0.47337599563468463,1.302029108960222,0.9783967387190868,0.28589137217026617,0.7091148512139487
0.0575,1.7334438880315273,1.0,2960.760205167925,0.4763299287024356,1.3016284105785878,0.9786346681896538,0.28585764329732416,0.7098861668744734
0.058,1.732640819628146,1.0,2965.086366759107,0.4792672943724617,1.301227992088288,0.9788670349450397,0.28582391442438215,0.7106559208624307
0.0585,1.7318377512247647,1.0,2969.3842052145883,0.4821881886020126,1.3008278479497388,0.9790940139836781,0.2857901855514401,0.7114241259500281
0.059000000000000004,1.7310346828213834,1.0,2973.6529124264757,0.4850926303377474,1.3004279846049032,0.9793157676378761,0.2857564566784981,0.7121907718948854
0.059500000000000004,1.730231614418002,1.0,2977.8949066137866,0.4879808021253969,1.3000283804053654,0.979532463921411,0.2857227278055561,0.7129559022682824
0.06,1.7294285460146208,1.0,2982.110814457403,0.49085280018096494,1.299629029347901,0.9797442580208231,0.28568899893261407,0.7137195305230699
0.0605,1.7286254776112395,1.0,2986.3010520761195,0.4937087097432596,1.2992299272798051,0.9799512983704455,0.28565527005967206,0.7144816665182478
0.061,1.7278224092078582,1.0,2990.466037347099,0.49654861605108863,1.298831070048374,0.9801537277521065,0.28562154118673005,0.7152423200693361
0.0615,1.727019340804477,1.0,2994.6061898833445,0.49937260434326,1.2984324535009033,0.980351683553566,0.28558781231378805,0.7160015009484413
0.062,1.7262162724010957,1.0,2998.721931011216,0.5021807598585816,1.2980340734846882,0.9805452980132427,0.285554083440846,0.7167592188843223
0.0625,1.7254132039977144,1.0,3002.813683748799,0.5049731678358611,1.2976359258470247,0.9807346984520595,0.28552035456790403,0.7175154835624503
0.063,1.724610135594333,1.0,3006.8818727834955,0.5077499135139067,1.2972380064352083,0.9809200074931719,0.28548662569496197,0.7182703046250736
0.0635,1.7238070671909518,1.0,3010.9269244519555,0.5105110821315262,1.2968403110965345,0.9811013432703044,0.28545289682201996,0.7190236916712774
0.064,1.7230039987875705,1.0,3014.949266718323,0.5132567589275274,1.2964428356782995,0.9812788196253605,0.28541916794907796,0.719775654257043
0.0645,1.7222009303841892,1.0,3018.949329154213,0.5159870291407183,1.2960455760277985,0.9814525462959324,0.28538543907613595,0.7205262018953094
0.065,1.721397861980808,1.0,3022.927542918651,0.5187019780099066,1.295648527992327,0.9816226290933052,0.28535171020319394,0.7212753440560273
0.0655,1.7205947935774266,1.0,3026.8843407382633,0.5214016907739003,1.2952516874191813,0.9817891700714897,0.28531798133025194,0.7220230901662184
0.066,1.7197917251740455,1.0,3030.82015688805,0.5240862526715074,1.2948550501556566,0.9819522676878093,0.28528425245730993,0.7227694496100294
0.0665,1.718988656770664,1.0,3034.735427172444,0.5267557489415357,1.2944586120490487,0.9821120169555121,0.28525052358436787,0.7235144317287878
0.067,1.718185588367283,1.0,3038.630588907091,0.529410264822793,1.2940623689466528,0.9822685095888636,0.2852167947114259,0.7242580458210544
0.0675,1.7173825199639017,1.0,3042.5060808999087,0.5320498855540873,1.2936663166957654,0.9824218341411372,0.28518306583848385,0.7250003011426736
0.068,1.7165794515605204,1.0,3046.3623434344004,0.5346746963742265,1.2932704511436814,0.9825720761358993,0.28514933696554184,0.725741206906829
0.0685,1.715776383157139,1.0,3050.1998182513335,0.5372847825220184,1.2928747681376969,0.9827193181919588,0.28511560809259984,0.726480772284089
0.069,1.7149733147537578,1.0,3054.0189485322644,0.539880229236271,1.2924792635251072,0.9828636401423309,0.28508187921965783,0.7272190064024582
0.0695,1.7141702463503765,1.0,3057.820178882783,0.542461121755792,1.2920839331532084,0.9830051191475339,0.2850481503467158,0.7279559183474238
0.07,1.7133671779469952,1.0,3061.6039553162086,0.5450275453193895,1.2916887728692958,0.983143829803537,0.2850144214737738,0.7286915171620036
0.07050000000000001,1.712564109543614,1.0,3065.36972733392,0.5475795224875334,1.291293787079895,0.9832798408755795,0.2849806926008318,0.7294257959459591
0.07100000000000001,1.7117610411402326,1.0,3069.1186972291353,0.5501171959205933,1.290898965157536,0.9834132253720029,0.28494696372788975,0.7301587757342942
