Time [s],Phi [rad],STIM [ ],Fsee [N],Gamma [ ],Lcerel [ ],q [ ],Lmtc [m],fisomrel [ ]
0.0,1.8,1.0,17.965895328384565,1.0000001612027712e-05,1.37933988770243,0.005000026651790775,0.288653,0.5411391887688385
0.0005,1.79999375,1.0,18.275344021608674,0.005619153218306226,1.3793025433190567,0.012940517070134699,0.2886527375,0.5412295300755585
0.001,1.799975,1.0,21.617032014369244,0.011196843520376228,1.3789384399518474,0.03560858662727917,0.28865195,0.5421098811443245
0.0015,1.79994375,1.0,31.06780287257265,0.01674324739075885,1.3780463258282831,0.070601722292715,0.2886506375,0.5442633148205855
0.002,1.7999,1.0,53.58066557510836,0.02225854032073694,1.3763682434194964,0.11471785784021747,0.2886488,0.5483002083715649
0.0025,1.79984375,1.0,97.11686270858667,0.027742896817508366,1.3739352672464002,0.16457469529545982,0.28864643749999996,0.5541212242007756
0.003,1.7997750000000001,1.0,160.9560442552734,0.03319649041189872,1.3712144232061838,0.21728024667135193,0.28864354999999997,0.5605862627669014
0.0035,1.79969375,1.0,237.68126013504673,0.038619493657955306,1.368584798038137,0.2706126790918952,0.2886401375,0.5667896895892405
0.004,1.7996,1.0,321.4648031793427,0.044012078143728886,1.3661561445252748,0.32291559658653207,0.2886362,0.5724798400076088
0.0045000000000000005,1.7994937500000001,1.0,409.265905791179,0.04937441449645803,1.363922857475765,0.3730343114797505,0.2886317375,0.5776790618835271
0.005,1.799375,1.0,499.4117692836014,0.05470667237366613,1.3618583792129897,0.4202472765266918,0.28862675,0.5824569942389929
0.0055,1.79924375,1.0,590.7887811279853,0.060009020510580956,1.359938867001685,0.46417352749646507,0.2886212375,0.586875038334003
0.006,1.7991000000000001,1.0,682.5165734610324,0.06528162666339218,1.3581464426472107,0.5046798052211132,0.2886152,0.5909793546528961
0.006500000000000001,1.79894375,1.0,773.8800305506854,0.07052465766571576,1.3564672745682773,0.5418006149794037,0.2886086375,0.5948057466896186
0.007,1.798775,1.0,864.2846068506527,0.07573827940618172,1.354890414450536,0.5756766498541869,0.28860155,0.5983826330711951
0.0075,1.79859375,1.0,953.2415763263806,0.08092265685048712,1.3534068044019656,0.6065098023461546,0.2885939375,0.6017335159515014
0.008,1.7984,1.0,1040.3577750725817,0.08607795404224297,1.3520086563491471,0.6345319489545829,0.2885858,0.6048785263241966
0.0085,1.79819375,1.0,1125.3208941557623,0.09120433409561421,1.3506891471234967,0.6599842788205533,0.2885771375,0.607835210745518
0.009000000000000001,1.797975,1.0,1207.8857366517411,0.0963019591936573,1.3494422324102953,0.683104211640209,0.28856795,0.6106190248983074
0.0095,1.79774375,1.0,1287.8559219164629,0.10137098992081185,1.3482626039385608,0.7041176511455897,0.2885582375,0.6132434907459603
0.01,1.7975,1.0,1365.161895170916,0.10641158879045644,1.3471444515233701,0.7232341875721875,0.288548,0.6157229903588601
0.0105,1.79724375,1.0,1439.6757094514226,0.1114239138150398,1.3460837435041881,0.7406464938404095,0.2885372375,0.6180677375067836
0.011,1.796975,1.0,1511.330844474882,0.11640812300701073,1.3450764482204791,0.7565290179272455,0.28852595000000003,0.6202877706745504
0.0115,1.79669375,1.0,1580.11674737994,0.121364374378818,1.3441185340117077,0.771038577616021,0.2885141375,0.6223929673138814
0.012,1.7964,1.0,1646.054336253601,0.1262928252990607,1.3432061962623534,0.7843155532707123,0.28850180000000003,0.624392560099257
0.0125,1.79609375,1.0,1709.1734024287389,0.13119363195220426,1.3423360413670582,0.7964852838582698,0.2884889375,0.6262947537663642
0.013000000000000001,1.7957750000000001,1.0,1769.4978821306265,0.1360669487724348,1.3415051706553391,0.8076594905402823,0.28847555,0.628106563825471
0.0135,1.79544375,1.0,1827.0768416720032,0.14091292992102003,1.3407107582453093,0.8179374911746422,0.2884616375,0.6298347551527628
0.014,1.7951000000000001,1.0,1881.9804589745202,0.14573172877418733,1.3399500590941786,0.8274075448168701,0.2884472,0.6314858332967617
0.0145,1.79474375,1.0,1934.2856827317435,0.1505234987889748,1.33922053081181,0.8361481395205419,0.2884322375,0.6330657891446235
0.015,1.794375,1.0,1984.052402425807,0.1552883905232148,1.3385200502677523,0.8442291826278712,0.28841675,0.6345796414755053
0.0155,1.79399375,1.0,2031.358903643505,0.16002655453473963,1.337846494331555,0.8517128615546319,0.2884007375,0.6360323541705315
0.016,1.7936,1.0,2076.2884194559233,0.16473814039347703,1.337197863532604,0.8586545934422567,0.2883842,0.6374285740722173
0.0165,1.7931937500000001,1.0,2118.9402378389373,0.1694232987976646,1.3365721459141988,0.8651037866080964,0.2883671375,0.6387729291923191
0.017,1.792775,1.0,2159.400268848173,0.1740821784103505,1.3359676050067661,0.8711046333512431,0.28834955,0.6400694144962296
0.0175,1.7923437500000001,1.0,2197.735617490984,0.1787149251959034,1.3353828102691132,0.8766967294252965,0.2883314375,0.6413213347448725
0.018000000000000002,1.7919,1.0,2234.022791060431,0.18332168511869185,1.3348163311600472,0.8819155292682572,0.2883128,0.6425319655246353
0.0185,1.79144375,1.0,2268.346916478573,0.1879026041430844,1.334266737138375,0.886792829695901,0.2882936375,0.6437045549836242
0.019,1.790975,1.0,2300.7946988852177,0.19245782743849016,1.3337326600756216,0.8913572085877655,0.28827395,0.6448421925983725
0.0195,1.79049375,1.0,2331.453630415471,0.19698750011988986,1.3332127931732822,0.8956343938420275,0.2882537375,0.6459478139848834
0.02,1.79,1.0,2360.4053492555768,0.2014917662772005,1.3327059479153895,0.8996475987490308,0.288233,0.6470240823396751
0.0205,1.78949375,1.0,2387.713499939375,0.20597076696381642,1.3322111632443208,0.9034178262817015,0.2882117375,0.6480731601270895
0.021,1.788975,1.0,2413.446158199222,0.21042464323313204,1.3317274781024524,0.9069640641406737,0.28818995000000003,0.6490971947442187
0.021500000000000002,1.78844375,1.0,2437.675463929088,0.2148535361385417,1.3312539314321612,0.9103035057575706,0.2881676375,0.6500983192306666
0.022,1.7879,1.0,2460.4728654048026,0.2192575859076863,1.3307896043882024,0.9134517527754167,0.2881448,0.6510785638670171
0.0225,1.78734375,1.0,2481.908212190231,0.22363693247694458,1.330333624962259,0.9164229861841122,0.28812143749999997,0.6520398476380536
0.023,1.786775,1.0,2502.0554823007615,0.22799171650527267,1.3298851098794395,0.9192301051332739,0.28809755,0.6529841016576216
0.0235,1.78619375,1.0,2520.966774146221,0.23232207396485516,1.3294434083173674,0.9218849032498876,0.28807313749999996,0.6539127573859578
0.024,1.7856,1.0,2538.6962897917,0.2366281408278767,1.3290078694536664,0.9243981407237067,0.2880482,0.6548272380024209
0.0245,1.78499375,1.0,2555.3001598780256,0.2409100530665219,1.32857784246596,0.9267796490946093,0.2880227375,0.6557289586747921
0.025,1.784375,1.0,2570.8362779331183,0.24516794665297537,1.3281526765318719,0.929038424145842,0.28799675,0.6566193268015583
0.025500000000000002,1.78374375,1.0,2585.356081141747,0.24940195566512963,1.3277317961333495,0.9311827201075501,0.2879702375,0.6574995848316603
0.026000000000000002,1.7831000000000001,1.0,2598.9161735761536,0.2536122161643858,1.3273145904317358,0.933220105210586,0.2879432,0.658371042380437
0.0265,1.78244375,1.0,2611.570646089392,0.25779886291445475,1.3269004839207312,0.9351575374182415,0.2879156375,0.6592349286109431
0.027,1.781775,1.0,2623.358151917294,0.2619620264064386,1.3264890547272212,0.9370014391698813,0.28788755,0.6600921465029513
0.0275,1.7810937500000001,1.0,2634.3182303238564,0.2661018371314394,1.3260798809780918,0.938757725365221,0.2878589375,0.6609435944557189
0.028,1.7804,1.0,2644.4912307294467,0.2702184255805591,1.3256725408002292,0.9404318501840938,0.2878298,0.6617901663543464
0.0285,1.77969375,1.0,2653.9182407852236,0.27431192224489975,1.325266612320519,0.942028849020421,0.2878001375,0.662632751624787
0.029,1.778975,1.0,2662.641018393181,0.27838245761556335,1.3248616736658474,0.9435533760933466,0.28776995,0.6634722352775015
0.029500000000000002,1.7782437500000001,1.0,2670.69563903031,0.282430158975198,1.324457360750321,0.9450097449751368,0.2877392375,0.6643093783639544
0.03,1.7775,1.0,2678.1244026021823,0.2864551585100516,1.3240532570607388,0.9464019463667787,0.287708,0.665145046518899
0.0305,1.77674375,1.0,2684.957650285254,0.2904575826155075,1.3236490601833102,0.9477336941498387,0.2876762375,0.6659798655690691
0.031,1.775975,1.0,2691.223501207391,0.2944375562884096,1.3232444915302584,0.9490084386381711,0.28764395,0.6668144091050534
0.0315,1.7751937500000001,1.0,2696.95040794623,0.29839520452560164,1.322839272513807,0.9502293861777424,0.2876111375,0.6676492478404206
0.032,1.7744,1.0,2702.167124817118,0.30233065232392753,1.3224331245461798,0.9513995194131726,0.2875778,0.6684849496026395
0.0325,1.77359375,1.0,2706.902677882389,0.306244024680231,1.3220257690396005,0.9525216156357722,0.2875439375,0.6693220793190495
0.033,1.772775,1.0,2711.1847868351647,0.31013544530550147,1.3216169415413066,0.953598264703186,0.28750955,0.6701611700051524
0.0335,1.7719437500000002,1.0,2715.0361353862168,0.3140050335039658,1.3212064254322915,0.9546318870230567,0.2874746375,0.6710026538935261
0.034,1.7711000000000001,1.0,2718.4934995417675,0.31785292281813865,1.3207938773390073,0.9556247322824996,0.2874392,0.6718472202225955
0.0345,1.7702437500000001,1.0,2721.57447370389,0.3216792319306989,1.320379130210898,0.9565789186052988,0.2874032375,0.6726951942771315
0.035,1.7693750000000001,1.0,2724.2967754421497,0.32548407952432556,1.3199620169974071,0.9574964272822003,0.28736675,0.6735468994864509
0.035500000000000004,1.76849375,1.0,2726.6782330391925,0.3292675842816975,1.3195423706479779,0.9583791131950022,0.2873297375,0.6744026574000967
0.036000000000000004,1.7676,1.0,2728.736773655056,0.33302986488549363,1.3191200241120544,0.9592287143319499,0.2872922,0.6752627876617405
0.0365,1.76669375,1.0,2730.4904121106156,0.33677104001839286,1.31869481033908,0.9600468604830302,0.2872541375,0.6761276079813067
0.037,1.765775,1.0,2731.957240289162,0.34049122836307416,1.3182665622784984,0.9608350811942703,0.28721555,0.6769974341053149
0.0375,1.76484375,1.0,2733.1554171572443,0.34419054860221654,1.317835112879753,0.9615948130517431,0.2871764375,0.6778725797854422
0.038,1.7639,1.0,2734.103159403646,0.3478691194184988,1.3174002950922876,0.9623274063585672,0.28713679999999997,0.6787533567453086
0.0385,1.76294375,1.0,2734.8053509834967,0.3515270455934965,1.3169620633820853,0.9630341399283675,0.28709663750000003,0.6796398290069227
0.039,1.761975,1.0,2735.2930283975556,0.35516446123977236,1.3165201350778513,0.9637162013140832,0.28705595,0.6805325385532488
0.0395,1.7609937500000001,1.0,2735.579172827512,0.35878148101929885,1.3160743917954751,0.9643747204043756,0.2870147375,0.6814316927650526
0.04,1.76,1.0,2735.673550285012,0.3623782161099595,1.3156247445785796,0.9650107642697902,0.286973,0.6823374381687066
0.0405,1.7589937500000001,1.0,2735.5859483284544,0.3659547776896377,1.3151711044707872,0.9656253394659239,0.2869307375,0.6832499199829851
0.041,1.757975,1.0,2735.326172716497,0.36951127693621677,1.3147133825157205,0.9662193960975265,0.28688795,0.684169282096664
0.0415,1.75694375,1.0,2734.9040442370137,0.3730478250275802,1.314251489757002,0.9667938315687952,0.2868446375,0.6850956670456152
0.042,1.7559,1.0,2734.329395711435,0.37656453314161137,1.313785337238254,0.9673494940471116,0.28680079999999997,0.6860292159893981
0.0425,1.75484375,1.0,2733.6120691748606,0.38006151245619363,1.3133148360030993,0.967887185664827,0.2867564375,0.6869700686873438
0.043000000000000003,1.753775,1.0,2732.7619132308373,0.38353887414921045,1.3128398970951605,0.9684076654813856,0.28671155,0.6879183634741372
0.043500000000000004,1.75269375,1.0,2731.7887805828295,0.3869967293985452,1.31236043155806,0.9689116522259643,0.28666613750000003,0.6888742372348935
0.044,1.7516,1.0,2730.7025257395985,0.39043518938208127,1.3118763504354203,0.9693998268389382,0.2866202,0.6898378253797287
0.0445,1.75049375,1.0,2729.511093878015,0.3938543592543247,1.3113875821230931,0.9698728352881465,0.2865737375,0.6908092273582076
0.045,1.7493750000000001,1.0,2728.2209102470088,0.3972543467812442,1.3108940688315822,0.9703312917373798,0.28652675,0.6917885139201002
0.0455,1.74824375,1.0,2726.84167622007,0.40063527202047194,1.3103957229746526,0.9707757785281338,0.2864792375,0.6927758136449067
0.046,1.7471,1.0,2725.378551626885,0.4039972384909092,1.3098924982325344,0.9712068493556444,0.2864312,0.6937711719999957
0.0465,1.7459437500000001,1.0,2723.836694898199,0.4073403497114575,1.309384348285458,0.9716250302751196,0.28638263750000004,0.6947746334055565
0.047,1.744775,1.0,2722.221262302583,0.4106647092010182,1.3088712268136533,0.9720308213405123,0.28633355,0.6957862412201172
0.0475,1.74359375,1.0,2720.537407231335,0.41397042047849286,1.3083530874973506,0.972424698131181,0.28628393750000003,0.6968060377259288
0.048,1.7424,1.0,2718.7902795296945,0.4172575870627828,1.30782988401678,0.9728071131750864,0.2862338,0.6978340641142087
0.0485,1.74119375,1.0,2716.985024877144,0.4205263124727895,1.3073015700521715,0.9731784972764387,0.2861831375,0.6988703604702498
0.049,1.739975,1.0,2715.1267842138645,0.4237767002274143,1.3067680992837554,0.9735392607550296,0.28613195,0.699914965758393
0.0495,1.73874375,1.0,2713.220693215811,0.42700885384555876,1.3062294253917617,0.9738897946038835,0.2860802375,0.7009679178068606
0.05,1.7375,1.0,2711.2718818169656,0.4302228768461242,1.3056855020564206,0.9742304715713043,0.286028,0.7020292532924556
0.0505,1.73624375,1.0,2709.285473778895,0.43341887274801216,1.3051362829579622,0.9745616471728938,0.2859752375,0.7030990077251225
0.051000000000000004,1.734975,1.0,2707.259220141118,0.43659692484551277,1.3045817890067146,0.9748836627803654,0.28592195,0.7041770848388686
0.051500000000000004,1.73369375,1.0,2705.1987694706595,0.43975714744281363,1.304021969045032,0.9751968430685239,0.2858681375,0.7052635278634616
0.052000000000000005,1.7324,1.0,2703.113536336214,0.4428996592400538,1.303456737446012,0.9755014963376966,0.2858138,0.7063584454675451
0.0525,1.73109375,1.0,2701.005358897567,0.4460245552158467,1.3028860776838431,0.975797918962039,0.28575893750000003,0.7074618110500541
0.053,1.729775,1.0,2698.8760728214456,0.4491319303488058,1.3023099732327141,0.9760863942447079,0.28570355000000003,0.7085735972067464
0.0535,1.72844375,1.0,2696.727511205107,0.45222187961754434,1.3017284075668138,0.9763671931038735,0.2856476375,0.7096937757244728
0.054,1.7271,1.0,2694.561504506074,0.45529449800067573,1.3011413641603309,0.9766405747170781,0.2855912,0.7108223175754305
0.0545,1.7257437500000001,1.0,2692.3798804775024,0.45834988047681335,1.3005488264874538,0.9769067871267909,0.2855342375,0.7119591929113979
0.055,1.724375,1.0,2690.1844641098005,0.4613881220245706,1.2999507780223716,0.9771660678098125,0.28547675,0.7131043710579528
0.0555,1.72299375,1.0,2687.9770775787943,0.46440931762256077,1.2993472022392727,0.9774186442129618,0.2854187375,0.7142578205086734
0.056,1.7216,1.0,2685.7595401990948,0.46741356224939723,1.2987380826123458,0.9776647342573098,0.2853602,0.7154195089193216
0.0565,1.72019375,1.0,2683.533668384113,0.4704009508836934,1.29812340261578,0.9779045468130482,0.28530113749999997,0.7165894031020076
0.057,1.718775,1.0,2681.301275612191,0.47337157850406264,1.2975031457237634,0.9781382821469282,0.28524155,0.7177674690193407
0.0575,1.71734375,1.0,2679.064172397945,0.4763255400891183,1.296877295410485,0.9783661323440648,0.2851814375,0.7189536717785574
0.058,1.7159,1.0,2676.824166270929,0.47926293061747377,1.2962458351501336,0.9785882817057664,0.2851208,0.7201479756256374
0.0585,1.71444375,1.0,2674.5830617594434,0.48218384506774237,1.2956087484168977,0.9788049071249377,0.2850596375,0.7213503439393983
0.059000000000000004,1.7129750000000001,1.0,2672.3426603805997,0.4850883784185375,1.2949660186849659,0.9790161784404798,0.28499795,0.7225607392255752
0.059500000000000004,1.71149375,1.0,2670.1007697163705,0.4879766067196742,1.2943176661057492,0.9792222592084578,0.2849357375,0.7237790542667881
0.06,1.71,1.0,2667.859694350128,0.4908486311784117,1.2936636695189443,0.9794233064209247,0.284873,0.7250052589434575
0.0605,1.7084937500000001,1.0,2665.624195272825,0.4937045603205351,1.293003985134945,0.9796194703153184,0.2848097375,0.7262393644612273
0.061,1.7069750000000001,1.0,2663.394682207107,0.49654448041550514,1.2923386091299478,0.9798108956586501,0.28474595,0.727481306160611
0.0615,1.7054437500000001,1.0,2661.1715641934907,0.49936847773278253,1.291667537680148,0.9799977216821341,0.2846816375,0.7287310186977022
0.062,1.7039,1.0,2658.955249595082,0.502176638541828,1.2909907669617422,0.9801800823330767,0.2846168,0.729988436042784
0.0625,1.70234375,1.0,2656.746146101125,0.5049690491121024,1.2903082931509258,0.98035810651346,0.2845514375,0.7312534914789418
0.063,1.7007750000000001,1.0,2654.5446607323015,0.5077457957130663,1.289620112423895,0.9805319183060209,0.28448555,0.7325261176006709
0.0635,1.69919375,1.0,2652.351199845807,0.5105069646141805,1.2889262209568457,0.9807016371885644,0.28441913750000003,0.7338062463124871
0.064,1.6976,1.0,2650.166169140357,0.513252642084906,1.288226614925974,0.9808673782372099,0.2843522,0.7350938088275328
0.0645,1.69599375,1.0,2647.989973662364,0.5159829143947031,1.287521290507476,0.9810292523192145,0.2842847375,0.7363887356661849
0.065,1.694375,1.0,2645.8230178118515,0.5186978678130328,1.286810243877547,0.9811873662759804,0.28421675,0.7376909566546619
0.0655,1.69274375,1.0,2643.665705348473,0.521397588609356,1.2860934712123837,0.9813418230968178,0.2841482375,0.7390004009236255
0.066,1.6911,1.0,2641.5184393987497,0.5240821630531332,1.2853709686881816,0.9814927220839853,0.2840792,0.7403169969067886
0.0665,1.6894437500000001,1.0,2639.3816224629027,0.5267516774138251,1.284642732481137,0.9816401590095117,0.2840096375,0.741640672339515
0.067,1.687775,1.0,2637.2556564217343,0.5294062179608927,1.2839087587674454,0.9817842262642578,0.28393955,0.7429713542574251
0.0675,1.68609375,1.0,2635.140942545047,0.5320458709637965,1.2831690437233032,0.9819250129996596,0.2838689375,0.7443089689949937
0.068,1.6844000000000001,1.0,2633.0373877838915,0.5346707054123304,1.2824235880940562,0.9820626043468503,0.2837978,0.7456534339543333
0.0685,1.68269375,1.0,2630.9450785595827,0.5372808007306817,1.2816723909652146,0.9821970831075963,0.2837261375,0.7470046689028678
0.069,1.680975,1.0,2628.8650337086033,0.5398762736530263,1.2809154427854026,0.9823285312278077,0.28365395,0.7483626084332947
0.0695,1.67924375,1.0,2626.7971618421216,0.5424572019333925,1.2801527442756933,0.9824570258415727,0.28358123749999997,0.7497271679681059
0.07,1.6775,1.0,2624.741371767938,0.5450236633258093,1.2793842961571593,0.9825826414764284,0.283508,0.7510982623111246
0.07050000000000001,1.67574375,1.0,2622.697572488426,0.5475757355843052,1.2786100991508733,0.9827054501576336,0.2834342375,0.7524758056477696
0.07100000000000001,1.673975,1.0,2620.6656731990597,0.5501134964629087,1.277830153977908,0.9828255215075806,0.28335995,0.7538597115453187
0.07150000000000001,1.67219375,1.0,2618.6455832867296,0.5526370237156486,1.2770444613593361,0.9829429228406075,0.2832851375,0.7552498929531738
0.07200000000000001,1.6704,1.0,2616.6372123281326,0.5551463950965535,1.2762530220162307,0.9830577192534463,0.2832098,0.7566462622031249
0.0725,1.66859375,1.0,2614.64047008808,0.5576416883596518,1.275455836669664,0.9831699737115407,0.2831339375,0.7580487310096155
0.073,1.6667750000000001,1.0,2612.6552665179743,0.5601229812589724,1.2746529060407088,0.9832797471314446,0.28305755,0.759457210470005
0.0735,1.66494375,1.0,2610.681511754044,0.5625903515485439,1.2738442308504383,0.983387098459506,0.2829806375,0.7608716110648337
0.074,1.6631,1.0,2608.7191161159076,0.5650438769823948,1.2730298118199246,0.9834920847470217,0.2829032,0.7622918426580886
0.0745,1.6612437500000001,1.0,2606.767990104829,0.5674836353145538,1.2722096496702409,0.9835947612220487,0.2828252375,0.7637178144974641
0.075,1.659375,1.0,2604.8280444024394,0.5699097042990494,1.2713837451224594,0.983695181358037,0.28274675,0.76514943521463
0.0755,1.65749375,1.0,2602.8991898688155,0.5723221616899105,1.2705520988976535,0.9837933969394451,0.2826677375,0.7665866128254921
