Time [s],Phi [rad],STIM [ ],Fsee [N],Gamma [ ],Lcerel [ ],q [ ],Lmtc [m],fisomrel [ ]
0.0,1.8,1.0,17.968054798411675,2.1294298400395593e-05,1.3793396457683351,0.005000120132972636,0.288653,0.5411397740700065
0.0005,1.79999375,1.0,18.281113532276976,0.005630384163024754,1.3793019024647521,0.012971897994583221,0.2886527375,0.541231080314476
0.001,1.799975,1.0,21.631105830249915,0.011208011468374923,1.378937002707728,0.03566745088835856,0.28865195,0.5421133545245007
0.0015,1.79994375,1.0,31.09974055639158,0.01675435269540381,1.3780436054834808,0.07068228222916594,0.2886506375,0.5442698735747777
0.002,1.7999,1.0,53.64832909007498,0.022269583333394558,1.3763638550737716,0.11481325923299064,0.2886488,0.54831074169008
0.0025,1.79984375,1.0,97.22996152265722,0.027753877887603116,1.373929818812065,0.16467848482250214,0.28864643749999996,0.5541342174846182
0.003,1.7997750000000001,1.0,161.10290891129324,0.03320740988687156,1.3712089271395285,0.21738732616278006,0.28864354999999997,0.560599274272705
0.0035,1.79969375,1.0,237.84702038680652,0.038630351883300766,1.3685796930515537,0.2707191869504356,0.2886401375,0.5668016896365513
0.004,1.7996,1.0,321.64101816619564,0.04402287546301181,1.3661514778884756,0.3230187296358768,0.2886362,0.5724907373727206
0.0045000000000000005,1.7994937500000001,1.0,409.4482694254366,0.04938515125133642,1.363918577173271,0.37313221499869575,0.2886317375,0.5776889961357846
0.005,1.799375,1.0,499.59773843667216,0.054717348903925205,1.3618544277448896,0.4203388750796325,0.28862675,0.5824661132698292
0.0055,1.79924375,1.0,590.9763610837913,0.06001963715379849,1.3599352024300255,0.46425833472496914,0.2886212375,0.5868834504198233
0.006,1.7991000000000001,1.0,682.7043322016502,0.06529218375557609,1.358143029923927,0.5047577433235345,0.2886152,0.5909871496074909
0.006500000000000001,1.79894375,1.0,774.06853747937,0.07053515553805889,1.356464056824709,0.5418718565186083,0.2886086375,0.5948130618369598
0.007,1.798775,1.0,864.4735887183865,0.07574871840177944,1.3548873619525406,0.5757415452283984,0.28860155,0.598389541857036
0.0075,1.79859375,1.0,953.4289559992465,0.08093303728744247,1.3534039224480918,0.6065688096929406,0.2885939375,0.6017400114741809
0.008,1.7984,1.0,1040.542524917889,0.08608827625514663,1.3520059363997563,0.6345855525927866,0.2885858,0.6048846324596006
0.0085,1.79819375,1.0,1125.500496290401,0.09121459840314598,1.3506866047265782,0.6600329791260034,0.2885771375,0.6078408968920431
0.009000000000000001,1.797975,1.0,1208.05643400008,0.09631216576781866,1.3494399001023938,0.6831484985430364,0.28856795,0.6106242226289191
0.0095,1.79774375,1.0,1288.0317129774753,0.10138113956473684,1.3482602777993271,0.7041578578531507,0.2885582375,0.6132486572293863
0.01,1.7975,1.0,1365.3311164397683,0.10642168147723641,1.3471422766359133,0.723270802243293,0.288548,0.6157278053955199
0.0105,1.79724375,1.0,1439.8322385919657,0.1114339497159038,1.3460817844861452,0.7406799194034962,0.2885372375,0.6180720613739965
0.011,1.796975,1.0,1511.4748462035743,0.1164181024913254,1.3450746892240162,0.7565595789717195,0.28852595000000003,0.6202916417632292
0.0115,1.79669375,1.0,1580.2544431999684,0.1213742979625809,1.3441168890564656,0.7710665331244829,0.2885141375,0.6223965773791458
0.012,1.7964,1.0,1646.1908538812124,0.12630269325383245,1.3432045983791832,0.7843411425024764,0.28850180000000003,0.6243960575618099
0.0125,1.79609375,1.0,1709.308194211731,0.13120344467321673,1.3423344930882446,0.7965087498939363,0.2884889375,0.6262981340625466
0.013000000000000001,1.7957750000000001,1.0,1769.6273963991168,0.1360767064607687,1.3415037085723478,0.8076810628749307,0.28847555,0.6281097481866484
0.0135,1.79544375,1.0,1827.2008798942722,0.14092263285652312,1.3407093802201904,0.817957358739831,0.2884616375,0.6298377494578244
0.014,1.7951000000000001,1.0,1882.0884064631387,0.14574137691556668,1.3399488774515809,0.8274259174614399,0.2884472,0.63148839515118
0.0145,1.79474375,1.0,1934.3907638318224,0.15053309288956748,1.3392193962039654,0.8361651112551672,0.2884322375,0.633068243746866
0.015,1.794375,1.0,1984.162442973294,0.155297931161238,1.3385188771069887,0.8442448588592547,0.28841675,0.6345821742417841
0.0155,1.79399375,1.0,2031.471539115912,0.16003604186504977,1.3378453075707026,0.8517273721064403,0.2884007375,0.636034911200438
0.016,1.7936,1.0,2076.402463245666,0.1647475751354744,1.3371966750051596,0.858668050707915,0.2883842,0.6374311299919158
0.0165,1.7931937500000001,1.0,2119.0398943006535,0.16943268002538706,1.3365711178307174,0.8651163344846915,0.2883671375,0.6387751359763436
0.017,1.792775,1.0,2159.4848300457793,0.17409150633699336,1.335966740859668,0.8711163551247647,0.28834955,0.6400712660590966
0.0175,1.7923437500000001,1.0,2197.8120798980954,0.17872420065668004,1.335382035729127,0.87670767827029,0.2883314375,0.6413229914227887
0.018000000000000002,1.7919,1.0,2234.0956493048643,0.18333090871135346,1.334815599147138,0.8819257599830441,0.2883128,0.6425335285961193
0.0185,1.79144375,1.0,2268.4180559947245,0.18791177622791988,1.3342660278217446,0.8868023983909075,0.2882936375,0.6437060671054613
0.019,1.790975,1.0,2300.8636683531095,0.19246694817863963,1.3337319772621756,0.8913661715285774,0.28827395,0.6448436458950213
0.0195,1.79049375,1.0,2331.5203093468376,0.19699656978116334,1.3332121373912507,0.8956428010038965,0.2882537375,0.6459492075738339
0.02,1.79,1.0,2360.4688383379766,0.20150078502619392,1.3327053273461955,0.8996554969372513,0.288233,0.6470253990926687
0.0205,1.78949375,1.0,2387.773546874396,0.20597973503338182,1.3322105796858401,0.9034252563776889,0.2882117375,0.648074396507647
0.021,1.788975,1.0,2413.503173412834,0.21043356092237744,1.3317269269690137,0.9069710617756609,0.28818995000000003,0.6490983607260671
0.021500000000000002,1.78844375,1.0,2437.7305338733822,0.21486240381283123,1.3312534017545463,0.9103101019052984,0.2881676375,0.6500994382207945
0.022,1.7879,1.0,2460.526291872503,0.21926640357352142,1.330789092904038,0.9134579768939286,0.2881448,0.6510796429072823
0.0225,1.78734375,1.0,2481.9633371085347,0.2236457010977968,1.3303330995017677,0.916428859903844,0.28812143749999997,0.6520409546350614
0.023,1.786775,1.0,2502.1086688644823,0.22800043607810097,1.3298846049408826,0.919235660515109,0.28809755,0.6529851639763962
0.0235,1.78619375,1.0,2521.015703468031,0.23233074458406408,1.329442945541284,0.9218901671630061,0.28807313749999996,0.6539137296973299
0.024,1.7856,1.0,2538.7399854896,0.23663676268531628,1.3290074576228743,0.9244031354000288,0.2880482,0.6548281021318003
0.0245,1.78499375,1.0,2555.339008979854,0.24091862645148773,1.3285774775055557,0.9267843926209716,0.2880227375,0.655729723456907
0.025,1.784375,1.0,2570.8720484735773,0.24517647195220854,1.3281523415092296,0.9290429309011248,0.28799675,0.6566200279400829
0.025500000000000002,1.78374375,1.0,2585.389125242613,0.2494104325826961,1.3277314875164201,0.931187005180383,0.2879702375,0.6575002298797021
0.026000000000000002,1.7831000000000001,1.0,2598.949703404392,0.2536206457575955,1.3273142780963643,0.9332241787668624,0.2879432,0.6583716943694385
0.0265,1.78244375,1.0,2611.6039699120947,0.257807245482426,1.3269001742573021,0.9351614142587314,0.2879156375,0.6592355742045457
0.027,1.781775,1.0,2623.390731572173,0.2619703622036802,1.3264887526599198,0.9370051326733855,0.28788755,0.6600927754673779
0.0275,1.7810937500000001,1.0,2634.3496832248725,0.2661101263678506,1.3260795899649034,0.9387612476236208,0.2878589375,0.6609441996438792
0.028,1.7804,1.0,2644.521331569574,0.2702266684214296,1.3256722628329387,0.9404352121231566,0.2878298,0.6617907436902848
0.0285,1.77969375,1.0,2653.946922963305,0.2743201188109098,1.3252663479247124,0.9420320605079955,0.2878001375,0.6626333000883926
0.029,1.778975,1.0,2662.6683751930345,0.2783906079827836,1.3248614219009103,0.9435564460363716,0.28776995,0.6634727568894094
0.029500000000000002,1.7782437500000001,1.0,2670.7197819212124,0.28243826290137986,1.3244571388982587,0.9450126840053198,0.2877392375,0.664309837429707
0.03,1.7775,1.0,2678.143849768195,0.28646321580214207,1.3240530786062248,0.946404763861378,0.287708,0.6651454153247063
0.0305,1.77674375,1.0,2684.975177142728,0.29046559482675627,1.3236488995550317,0.9477363943061256,0.2876762375,0.6659801971199522
0.031,1.775975,1.0,2691.2408128660168,0.294445524467845,1.3232443330590113,0.9490110264272995,0.28764395,0.6668147357947543
0.0315,1.7751937500000001,1.0,2696.9681328039433,0.29840312921803086,1.3228391104324955,0.9502318672844028,0.2876111375,0.6676495815534279
0.032,1.7744,1.0,2702.1848093464732,0.3023385335699366,1.3224329629898155,0.9514019001801308,0.2875778,0.6684852818163529
0.0325,1.77359375,1.0,2706.9187824872747,0.3062518620161848,1.3220256220453035,0.9525239030129496,0.2875439375,0.6693223812064265
0.033,1.772775,1.0,2711.198232504268,0.31014323904939806,1.321616818913291,0.9536004649130545,0.28750955,0.6701614215309163
0.0335,1.7719437500000002,1.0,2715.0511637616232,0.314012788723628,1.321206288466849,0.9546340016276609,0.2874746375,0.671002934468595
0.034,1.7711000000000001,1.0,2718.4981214438963,0.31786062684432964,1.3207938352427204,0.9556267745564276,0.2874392,0.6718473063465126
0.0345,1.7702437500000001,1.0,2721.5730445487166,0.32168688872224915,1.3203791432202816,0.9565808890299426,0.2874032375,0.672695167695913
0.035,1.7693750000000001,1.0,2724.2927743919627,0.32549169221983093,1.3199620534001686,0.9574983269178684,0.28736675,0.6735468252039147
0.035500000000000004,1.76849375,1.0,2726.674259678949,0.3292751551995192,1.3195424067830173,0.9583809436477594,0.2873297375,0.6744025837605763
0.036000000000000004,1.7676,1.0,2728.7345453365347,0.33303739552375844,1.3191200443694642,0.9592304777224184,0.2872922,0.675262746433773
0.0365,1.76669375,1.0,2730.4907619064015,0.3367785310549928,1.3186948071601454,0.9600485594170866,0.2872541375,0.6761276144424673
0.037,1.765775,1.0,2731.9601154982856,0.34049867965566677,1.3182665361556969,0.960836718735561,0.28721555,0.6769974871283626
0.0375,1.76484375,1.0,2733.159878304221,0.34419795918822466,1.317835072356755,0.9615963926959449,0.2871764375,0.6778726619259452
0.038,1.7639,1.0,2734.1073796728933,0.34787648751511074,1.3174002567639556,0.962328932009307,0.28713679999999997,0.6787534343309155
0.0385,1.76294375,1.0,2734.819997744945,0.3515343824987694,1.316961930377935,0.963035607207957,0.28709663750000003,0.6796400978670061
0.039,1.761975,1.0,2735.305971764424,0.35517175066747997,1.3165200175523273,0.9637176197822366,0.28705595,0.6805327757929669
0.0395,1.7609937500000001,1.0,2735.584711267161,0.35878871614356284,1.3160743415091452,0.9643760956966528,0.2870147375,0.6814317941312509
0.04,1.76,1.0,2735.676176042167,0.3623854035017085,1.3156247207383904,0.9650120959542885,0.286973,0.6823374861569294
0.0405,1.7589937500000001,1.0,2735.5891634229183,0.3659619227069668,1.315171075279328,0.9656266276557046,0.2869307375,0.6832499786583934
0.041,1.757975,1.0,2735.3324882374704,0.36951838372438744,1.3147133251712233,0.9662206414255524,0.28688795,0.6841693971928312
0.0415,1.75694375,1.0,2734.9149800068403,0.37305489651902013,1.3142513904533413,0.9667950351641919,0.2868446375,0.6850958660655027
0.042,1.7559,1.0,2734.3454802844963,0.3765715710559146,1.313785191164947,0.9673506575127027,0.28680079999999997,0.6860295083086023
0.0425,1.75484375,1.0,2733.6328401381575,0.3800685173001206,1.313314647345306,0.9678883110559046,0.2867564375,0.686970445659715
0.043000000000000003,1.753775,1.0,2732.7859177728333,0.38354584521668783,1.3128396790336827,0.9684087552856678,0.28671155,0.6879187985398674
0.043500000000000004,1.75269375,1.0,2731.813576296205,0.3870036647706661,1.312360206269343,0.9689127093446978,0.28666613750000003,0.6888746860311656
0.044,1.7516,1.0,2730.7246816248867,0.39044208592710505,1.3118761490915516,0.9694008545690923,0.2866202,0.6898382258540315
0.0445,1.75049375,1.0,2729.528100533753,0.39386121865105445,1.3113874275395738,0.9698738368462947,0.2865737375,0.6908095343440264
0.045,1.7493750000000001,1.0,2728.232698845744,0.397261172907564,1.3108939616526745,0.970332268803531,0.28652675,0.6917887264282697
0.0455,1.74824375,1.0,2726.8473397639254,0.40064205866168356,1.3103956714701193,0.9707767318404584,0.2864792375,0.692775915601447
0.046,1.7471,1.0,2725.3744100515223,0.4040039667185899,1.3098925359063576,0.971207779763118,0.2864312,0.6937710975431342
0.0465,1.7459437500000001,1.0,2723.8275232293486,0.4073470276266806,1.3093844317391539,0.9716259366431349,0.28638263750000004,0.6947744687418395
0.047,1.744775,1.0,2722.2111813832407,0.4106713444052821,1.3088713185679073,0.972031702907376,0.28633355,0.6957860604787065
0.0475,1.74359375,1.0,2720.5295266956327,0.4139770189502531,1.3083531592463886,0.9724255545792198,0.28628393750000003,0.696805896628735
0.048,1.7424,1.0,2718.786698793894,0.41726415315745236,1.3078299166283678,0.9728079446150675,0.2862338,0.6978340000911102
0.0485,1.74119375,1.0,2716.9868342729746,0.42053284892273873,1.3073015535676151,0.973179304232714,0.2861831375,0.6988703927772009
0.049,1.739975,1.0,2715.134066247108,0.42378320814197096,1.3067680329179012,0.9735400441513875,0.28613195,0.6999150955984741
0.0495,1.73874375,1.0,2713.232523933771,0.42701533271100783,1.306229317532996,0.9738905557500898,0.2860802375,0.7009681284543224
0.05,1.7375,1.0,2711.286332266966,0.43022932452570817,1.30568537026667,0.974231212150312,0.286028,0.7020295102197988
0.0505,1.73624375,1.0,2709.299611541518,0.4334252854819307,1.3051361539726936,0.9745623692286998,0.2859752375,0.7030992587332674
0.051000000000000004,1.734975,1.0,2707.2764770883273,0.4366033174755342,1.3045816315048369,0.9748843665647896,0.28592195,0.7041773907839661
0.051500000000000004,1.73369375,1.0,2705.221038979623,0.43976352240237754,1.3040217657168705,0.9751975283285187,0.2858681375,0.7052639220994781
0.052000000000000005,1.7324,1.0,2703.1374017650096,0.44290600215831943,1.3034565194625642,0.97550216411183,0.2858138,0.7063588673331198
0.0525,1.73109375,1.0,2701.0254568277714,0.4460308429784814,1.3028858940405037,0.9757985704866979,0.28575893750000003,0.7074621657885356
0.053,1.729775,1.0,2698.8880834659644,0.4491381479681714,1.302309863442979,0.9760870310106153,0.28570355000000003,0.7085738088810184
0.0535,1.72844375,1.0,2696.7338235194434,0.4522280388961351,1.3017283498427086,0.9763678155134367,0.2856476375,0.7096938868022834
0.054,1.7271,1.0,2694.5641831181615,0.45530060913896075,1.3011413396554248,0.9766411831477767,0.2855912,0.710822364638189
0.0545,1.7257437500000001,1.0,2692.3806661573067,0.45835595207323676,1.3005488192968597,0.9769073819378165,0.2855342375,0.7119592066940803
0.055,1.724375,1.0,2690.1847742547293,0.46139416107555137,1.2999507751827464,0.9771666493481017,0.28547675,0.7131043764900178
0.0555,1.72299375,1.0,2687.97800671266,0.464415329522493,1.2993471937288166,0.9774192128186825,0.2854187375,0.7142578367560024
0.056,1.7216,1.0,2685.7618604825984,0.4674195507906499,1.298738061350803,0.9776652902688505,0.2853602,0.7154195494271807
0.0565,1.72019375,1.0,2683.5378301355076,0.4704069182566105,1.2981233644644379,0.9779050905715532,0.28530113749999997,0.7165894756390432
0.057,1.718775,1.0,2681.307407835117,0.47337752529696314,1.2975030894854538,0.9781388140004246,0.28524155,0.7177675757226087
0.0575,1.71734375,1.0,2679.07208331558,0.47633146528829606,1.2968772228295828,0.9783666526512141,0.2851814375,0.718953809199599
0.058,1.7159,1.0,2676.8333438635805,0.4792688316071977,1.2962457509125576,0.9785887908392795,0.2851208,0.7201481347775986
0.0585,1.71444375,1.0,2674.592674304266,0.4821897176302563,1.2956086601501102,0.9788054054746798,0.2850596375,0.7213505103452061
0.059000000000000004,1.7129750000000001,1.0,2672.3515569910223,0.48509421673406034,1.2949659369579734,0.9790166664162998,0.28499795,0.7225608929671712
0.059500000000000004,1.71149375,1.0,2670.1114717998485,0.487982422295198,1.2943175677518794,0.979222736806333,0.2849357375,0.7237792388795212
0.06,1.71,1.0,2667.873896127471,0.49085442769025767,1.2936635389475606,0.9794237733863563,0.284873,0.7250055034846765
0.0605,1.7084937500000001,1.0,2665.64030489365,0.4937103262958278,1.2930038369607493,0.9796199267961461,0.2848097375,0.7262396413465518
0.061,1.7069750000000001,1.0,2663.4100454639693,0.4965501879885239,1.2923384677615684,0.9798113410339807,0.28474595,0.7274815697283752
0.0615,1.7054437500000001,1.0,2661.184588221884,0.4993741174088013,1.2916674177866192,0.9799981563055681,0.2846816375,0.728731241714559
0.062,1.7039,1.0,2658.966202300211,0.5021822229652272,1.2909906660938808,0.9801805073674741,0.2846168,0.7299886232341823
0.0625,1.70234375,1.0,2656.755258281224,0.5049745892114641,1.2903082091983027,0.9803585229584062,0.2845514375,0.7312536469135029
0.063,1.7007750000000001,1.0,2654.552126140789,0.5077513007011745,1.289620043614834,0.9805323270072595,0.28448555,0.7325262446956049
0.0635,1.69919375,1.0,2652.3571752534617,0.5105124419880209,1.288926165858424,0.9807020388468165,0.28441913750000003,0.7338063478391279
0.064,1.6976,1.0,2650.1707743968523,0.5132580976256658,1.2882265724440223,0.9808677734164193,0.2843522,0.7350938869169987
0.0645,1.69599375,1.0,2647.993291757582,0.5159883521677717,1.2875212598865782,0.9810296414542579,0.2842847375,0.7363887918151619
0.065,1.694375,1.0,2645.825094936609,0.5187032901680011,1.286810224701041,0.9811877496798812,0.28421675,0.7376909917313088
0.0655,1.69274375,1.0,2643.666550954918,0.5214029961800164,1.28609346340236,0.9813422009674915,0.2841482375,0.7390004151736049
0.066,1.6911,1.0,2641.518026259864,0.5240875547574803,1.2853709725054847,0.981493094510552,0.2840792,0.7403169899594193
0.0665,1.6894437500000001,1.0,2639.3798867317605,0.5267570504540551,1.2846427485253644,0.9816405259782008,0.2840096375,0.7416406432140503
0.067,1.687775,1.0,2637.2524976897244,0.5294115678234034,1.2839087879769484,0.9817845876639354,0.28393955,0.7429713013694521
0.0675,1.68609375,1.0,2635.1362238997413,0.5320511914191877,1.283169087375186,0.9819253686269983,0.2838689375,0.7443088901629602
0.068,1.6844000000000001,1.0,2633.0314295808907,0.5346760057950705,1.2824236432350269,0.9820629548268746,0.2837978,0.7456533346360148
0.0685,1.68269375,1.0,2630.938478413394,0.5372860955047142,1.28167245207142,0.9821974292512771,0.2837261375,0.7470045591328878
0.069,1.680975,1.0,2628.8577335460304,0.5398815451017813,1.280915510399315,0.9823288720379829,0.28365395,0.7483624872994015
0.0695,1.67924375,1.0,2626.7895576043315,0.5424624391399345,1.2801528147336612,0.9824573605908519,0.28358123749999997,0.7497270420816549
0.07,1.6775,1.0,2624.730645501036,0.5450288380495862,1.2793843955816013,0.9825829697625055,0.283508,0.7510980851578549
0.07050000000000001,1.67574375,1.0,2622.679128871904,0.547580819255432,1.278610270176078,0.9827057723537752,0.2834342375,0.7524755017615206
0.07100000000000001,1.673975,1.0,2620.641639792868,0.5501185082880509,1.2778303769229868,0.9828258380630523,0.28335995,0.7538593165141296
0.07150000000000001,1.67219375,1.0,2618.617898312461,0.5526419806335134,1.2770447182771918,0.9829432341179322,0.2832851375,0.7552494390137482
0.07200000000000001,1.6704,1.0,2616.6076249854177,0.5551513117778908,1.2762532966935571,0.9830580255339458,0.2832098,0.7566457782714971
0.0725,1.66859375,1.0,2614.610540866168,0.5576465772072535,1.2754561146269467,0.9831702752005471,0.2831339375,0.7580482427124566
0.073,1.6667750000000001,1.0,2612.62636750278,0.5601278524076727,1.274653174532225,0.983280043963201,0.28305755,0.7594567401765663
0.0735,1.66494375,1.0,2610.654826930432,0.5625952128652192,1.2738444788642558,0.9833873907017738,0.2829806375,0.7608711779195286
0.074,1.6631,1.0,2608.6956416654616,0.5650487340659637,1.2730300300779032,0.9834923724054179,0.2829032,0.7622914626137095
0.0745,1.6612437500000001,1.0,2606.7485346993603,0.5674884914959771,1.2722098306280314,0.983595044244125,0.2828252375,0.7637175003490385
0.075,1.659375,1.0,2604.81322949322,0.5699145606413305,1.2713838829695043,0.9836954596371205,0.28274675,0.7651491966339107
0.0755,1.65749375,1.0,2602.8894499717394,0.5723270169880944,1.2705521895571865,0.983793670318252,0.2826677375,0.7665864563960849
