Time [s],Phi [rad],STIM [ ],Fsee [N],Gamma [ ],Lcerel [ ],q [ ],Lmtc [m],fisomrel [ ]
0.0,1.8,1.0,18.63652001618333,0.0008345786985662126,1.3792654410341525,0.005179199879109559,0.288653,0.5413192769042405
0.0005,1.79999375,1.0,19.194156426814686,0.006439106680899832,1.379201728836583,0.01538728968527061,0.2886527375,0.5414733700489369
0.001,1.799975,1.0,23.14871873818107,0.012012197692551234,1.378784673012641,0.040033924308320035,0.28865195,0.5424814141923044
0.0015,1.79994375,1.0,33.97939849678742,0.017554028070471725,1.377803816764358,0.0765746477234677,0.2886506375,0.5448478189996282
0.002,1.7999,1.0,59.20533109536899,0.023064773161692496,1.376012442860363,0.12173722900131538,0.2886488,0.5491538355044077
0.0025,1.79984375,1.0,106.027931353177,0.028544607330290052,1.373515282178232,0.17217656796664677,0.28864643749999996,0.555122238454451
0.003,1.7997750000000001,1.0,172.20892088023592,0.03399370396242788,1.3708003298838423,0.22510010965479432,0.28864354999999997,0.5615660566263831
0.0035,1.79969375,1.0,250.21243329634277,0.0394122354703917,1.3682037608832407,0.27837442623476466,0.2886401375,0.5676849185951445
0.004,1.7996,1.0,334.68981149370956,0.04480037330127225,1.3658093938683313,0.3304197334985698,0.2886362,0.573289181625268
0.0045000000000000005,1.7994937500000001,1.0,422.8892055107115,0.05015828794248804,1.36360568382884,0.3801498212077073,0.2886317375,0.5784148810183727
0.005,1.799375,1.0,513.2550313143681,0.0554861489125808,1.361566221285794,0.42689910244770707,0.28862675,0.5831309554372203
0.0055,1.79924375,1.0,604.7158225577169,0.06078412479817642,1.3596683509844896,0.4703285790056619,0.2886212375,0.5874957822069453
0.006,1.7991000000000001,1.0,696.4197584318523,0.06605238321433253,1.3578949935455948,0.5103341420275898,0.2886152,0.5915534872289497
0.006500000000000001,1.79894375,1.0,787.6713932906373,0.07129109090487475,1.3562328864207902,0.5469693032550769,0.2886086375,0.5953384267612003
0.007,1.798775,1.0,877.8851928237368,0.07650041350539312,1.354671578805214,0.5803862633936635,0.28860155,0.5988777780223755
0.0075,1.79859375,1.0,966.6010803817395,0.08168051605696298,1.353202036197423,0.6107928491057157,0.2885939375,0.6021949031441143
0.008,1.7984,1.0,1053.4234230778177,0.08683156223385644,1.351816891149915,0.6384235471483493,0.2885858,0.6053089129515588
0.0085,1.79819375,1.0,1138.0524788744106,0.09195371505790426,1.3505094221382299,0.663519649564619,0.2885771375,0.6082370694908297
0.009000000000000001,1.797975,1.0,1220.2645611372802,0.09704713686691323,1.3492735206295103,0.6863171771062155,0.28856795,0.6109949227903924
0.0095,1.79774375,1.0,1299.8732695178458,0.10211198842555957,1.3481039493060405,0.7070399231014883,0.2885582375,0.6135957923390867
0.01,1.7975,1.0,1376.7557288773119,0.10714842989983302,1.3469957541791897,0.7258953789373579,0.288548,0.6160521255791307
0.0105,1.79724375,1.0,1450.8541356242781,0.11215662154645399,1.3459441082365566,0.743073124156614,0.2885372375,0.618375873649278
0.011,1.796975,1.0,1522.1064147896473,0.11713672110695307,1.3449450541346408,0.7587450241685345,0.28852595000000003,0.620576880191485
0.0115,1.79669375,1.0,1590.4914797510116,0.12208888587258933,1.3439947944514175,0.7730655162233641,0.2885141375,0.6226644814742572
0.012,1.7964,1.0,1656.0227966397415,0.1270132726378903,1.343089693197333,0.7861727391369089,0.28850180000000003,0.6246475204775507
0.0125,1.79609375,1.0,1718.743722872928,0.13191003814888141,1.3422262636685005,0.7981898768563149,0.2884889375,0.6265343892075829
0.013000000000000001,1.7957750000000001,1.0,1778.68454178342,0.1367793368207197,1.3414015950699283,0.809226741731604,0.28847555,0.6283321137873366
0.0135,1.79544375,1.0,1835.885366742069,0.14162132214765816,1.3406130143448374,0.8193810082064532,0.2884616375,0.6300471124327922
0.014,1.7951000000000001,1.0,1890.412782568446,0.14643614754628984,1.3398578568625896,0.8287394462474367,0.2884472,0.6316857051299986
0.0145,1.79474375,1.0,1942.3461274870747,0.15122396547595596,1.3391335878684258,0.8373791955351182,0.2884322375,0.6332538570774512
0.015,1.794375,1.0,1991.767852931408,0.15598492843339692,1.338437873226813,0.8453689016870115,0.28841675,0.6347570343294378
0.0155,1.79399375,1.0,2038.7418663315423,0.16071918593323922,1.337768774715372,0.852769766543114,0.2884007375,0.6361997921788148
0.016,1.7936,1.0,2083.3478252318187,0.1654268874901094,1.3371243541117237,0.8596362988350696,0.2883842,0.6375866385993403
0.0165,1.7931937500000001,1.0,2125.672917310994,0.17010818197062832,1.3365027440088328,0.8660171284659016,0.2883671375,0.638921885441728
0.017,1.792775,1.0,2165.8096810164784,0.17476321829255112,1.3359021538843021,0.8719557046154449,0.28834955,0.6402096397190262
0.0175,1.7923437500000001,1.0,2203.8530562202313,0.17939214509896223,1.3353208850743374,0.8774909100453613,0.2883314375,0.6414537756153157
0.018000000000000002,1.7919,1.0,2239.869090922965,0.1839951072740769,1.334757630793478,0.882657673480099,0.2883128,0.6426572979130658
0.0185,1.79144375,1.0,2273.931902580587,0.1885722497021103,1.334211084256264,0.887487326518496,0.2882936375,0.6438231860977437
0.019,1.790975,1.0,2306.1230115337094,0.19312371726727773,1.333679938677234,0.892008019741,0.28827395,0.644954395804711
0.0195,1.79049375,1.0,2336.528268386951,0.19764965448703734,1.3331629112806547,0.8962450926634284,0.2882537375,0.646053809142215
0.02,1.79,1.0,2365.2270498775997,0.20215020454700305,1.3326588422973353,0.9002214146198552,0.288233,0.6471240262799636
0.0205,1.78949375,1.0,2392.3063835034554,0.20662551192778217,1.3321665490545733,0.9039576292541971,0.2882117375,0.6481676775802798
0.021,1.788975,1.0,2417.8272148714386,0.21107571655452625,1.3316851478863612,0.907472467525962,0.28818995000000003,0.649186743213019
0.021500000000000002,1.78844375,1.0,2441.85431186556,0.2155009583523869,1.3312137551266925,0.9107828938856259,0.2881676375,0.6501831900984547
0.022,1.7879,1.0,2464.455949302647,0.21990137724651562,1.3307514871095598,0.9139042972336624,0.2881448,0.6511589724962203
0.0225,1.78734375,1.0,2485.7036109006385,0.2242771131620641,1.3302974601689566,0.9168506590522656,0.28812143749999997,0.6521160325444406
0.023,1.786775,1.0,2505.656984398189,0.2286283030799263,1.3298509303260455,0.9196347268725804,0.28809755,0.6530560068974562
0.0235,1.78619375,1.0,2524.3950864972144,0.23295508893462472,1.3294109940190821,0.922268089989906,0.28807313749999996,0.6539808578423477
0.024,1.7856,1.0,2541.968307384075,0.2372576060084746,1.328977040572365,0.9247613751640369,0.2880482,0.6548919221181393
0.0245,1.78499375,1.0,2558.426247208333,0.24153598900578138,1.328548483905427,0.9271242979313274,0.2880227375,0.6557904774344562
0.025,1.784375,1.0,2573.8201509836726,0.24579037263085052,1.3281247379377998,0.9293657495007135,0.28799675,0.6566777944937825
0.025500000000000002,1.78374375,1.0,2588.202768913586,0.25002089158798746,1.3277052165890166,0.9314938779450485,0.2879702375,0.6575551371822248
0.026000000000000002,1.7831000000000001,1.0,2601.628224332945,0.2542276805814977,1.32728933377861,0.9335161604054518,0.2879432,0.6584237627383724
0.0265,1.78244375,1.0,2614.1408273915736,0.2584108706305411,1.3268766061688446,0.9354394820258515,0.2879156375,0.6592847077153637
0.027,1.781775,1.0,2625.800746393247,0.2625705992735146,1.3264664130341708,0.9372701588842837,0.28788755,0.6601392894151856
0.0275,1.7810937500000001,1.0,2636.647590119032,0.26670699711030027,1.3260583336283078,0.939014036668496,0.2878589375,0.660988402651566
0.028,1.7804,1.0,2646.717265068031,0.2708201931815095,1.3256519886716893,0.9406765121459784,0.2878298,0.6618328516395853
0.0285,1.77969375,1.0,2656.046365650588,0.27491031652775366,1.3252469988847482,0.9422625684755335,0.2878001375,0.6626734365958693
0.029,1.778975,1.0,2664.6721137264512,0.2789774961896442,1.3248429849879175,0.9437768122847893,0.28776995,0.6635109537759554
0.029500000000000002,1.7782437500000001,1.0,2672.632301331919,0.28302186120779255,1.3244395677016307,0.9452235069790224,0.2877392375,0.664346195502484
0.03,1.7775,1.0,2679.9652365972624,0.28704354062281,1.3240363677463207,0.9466066027053975,0.287708,0.6651799501842195
0.0305,1.77674375,1.0,2686.6955397483243,0.29104265692214903,1.3236331355093696,0.9479297780263033,0.2876762375,0.6660127346950703
0.031,1.775975,1.0,2692.874038055258,0.2950193457640261,1.323229384776655,0.9491964225287265,0.28764395,0.6668455510743149
0.0315,1.7751937500000001,1.0,2698.5291003797984,0.29897373235122243,1.3228248385741854,0.9504097096109119,0.2876111375,0.6676789655597931
0.032,1.7744,1.0,2703.683938337379,0.30290593931569226,1.322419269673691,0.9515725969666619,0.2875778,0.6685134392317722
0.0325,1.77359375,1.0,2708.3620053564296,0.30681608928938997,1.3220124508469018,0.9526878389830962,0.2875439375,0.6693494308022057
0.033,1.772775,1.0,2712.586973962657,0.3107043049042699,1.3216041548655484,0.953758003179251,0.28750955,0.6701873965982665
0.0335,1.7719437500000002,1.0,2716.382714208333,0.31457070879228644,1.3211941545013606,0.9547854851279798,0.2874746375,0.6710277905425897
0.034,1.7711000000000001,1.0,2719.773273246356,0.3184154235853938,1.3207822225260686,0.9557725220172014,0.2874392,0.6718710641302162
0.0345,1.7702437500000001,1.0,2722.782856048924,0.3222385719155464,1.3203681317114027,0.9567212049889534,0.2874032375,0.6727176664022493
0.035,1.7693750000000001,1.0,2725.435766414849,0.3260402763615265,1.3199516552007369,0.9576334904059749,0.28736675,0.6735680431578724
0.035500000000000004,1.76849375,1.0,2727.7509936634974,0.3298206507914929,1.3195326155744578,0.9585112131858626,0.2873297375,0.6744225369392405
0.036000000000000004,1.7676,1.0,2729.7575576032245,0.33357982664704594,1.3191107451418933,0.9593560876734538,0.2872922,0.6752816719865613
0.0365,1.76669375,1.0,2731.46964336435,0.33731791988185494,1.3186859119091698,0.9601697318882727,0.2872541375,0.676145693720092
0.037,1.765775,1.0,2732.9015037565864,0.3410350464495894,1.318257983882414,0.9609536644933112,0.28721555,0.6770148459665214
0.0375,1.76484375,1.0,2734.0674516127706,0.34473132230391845,1.3178268290677524,0.9617093120027491,0.2871764375,0.6778893709334748
0.038,1.7639,1.0,2734.9818525178143,0.34840686339851157,1.3173923154713114,0.9624380153901501,0.28713679999999997,0.6787695091829067
0.0385,1.76294375,1.0,2735.659117925061,0.35206178568703805,1.3169543110992175,0.9631410361530319,0.28709663750000003,0.6796554996033817
0.039,1.761975,1.0,2736.11369865754,0.35569620512316735,1.3165126839575974,0.9638195618839528,0.28705595,0.6805475793812439
0.0395,1.7609937500000001,1.0,2736.3600787973096,0.3593102376605687,1.316067302052577,0.9644747113931686,0.2870147375,0.6814459839706793
0.04,1.76,1.0,2736.412769959007,0.36290399925291145,1.3156180333902836,0.9651075394233732,0.286973,0.682350947062659
0.0405,1.7589937500000001,1.0,2736.2847602727693,0.36647760226984877,1.315164760009048,0.9657190415814197,0.2869307375,0.6832626723483395
0.041,1.757975,1.0,2735.9897682561354,0.3700311625284509,1.314707357475672,0.9663101577858912,0.28688795,0.6841813748427283
0.0415,1.75694375,1.0,2735.5369793441946,0.37356479095423134,1.314245742635326,0.9668817785678898,0.2868446375,0.6851071850624122
0.042,1.7559,1.0,2734.9354202189584,0.37707859819380085,1.3137798338761633,0.9674347457567402,0.28680079999999997,0.6860402291219624
0.0425,1.75484375,1.0,2734.1941262574824,0.3805726948937702,1.3133095495863374,0.9679698555614884,0.2867564375,0.6869806318176224
0.043000000000000003,1.753775,1.0,2733.3221391601273,0.3840471917007502,1.3128348081540016,0.9684878615019925,0.28671155,0.6879285166047482
0.043500000000000004,1.75269375,1.0,2732.328504727908,0.3875021992613517,1.3123555279673098,0.9689894771231665,0.28666613750000003,0.6888840055748187
0.044,1.7516,1.0,2731.2228015479573,0.39093782754206324,1.3118716225915101,0.9694753780281559,0.2866202,0.6898472290246769
0.0445,1.75049375,1.0,2730.0115523194745,0.3943541848411972,1.311383033362714,0.9699462066344734,0.2865737375,0.6908182606308515
0.045,1.7493750000000001,1.0,2728.702463636108,0.39775137895468443,1.3108896908604628,0.9704025714318736,0.28652675,0.6917971942496361
0.0455,1.7482441316835482,1.0,2727.3204398207295,0.40112951745827297,1.3103915416380463,0.9708450511198873,0.286479253530709,0.6927840908149139
0.046,1.7471097207106934,1.0,2726.2808614380124,0.4044887074366351,1.3098886810558148,0.9712742062340141,0.28643160826984915,0.6937787160506617
0.0465,1.7459753097378388,1.0,2725.723373135415,0.4078290549037653,1.3093814370309853,0.971690586199729,0.2863839630089892,0.6947803776168446
0.047,1.744840898764984,1.0,2725.6099465770617,0.41115066560335833,1.308870154127378,0.9720947143535835,0.28633631774812934,0.6957883542389343
0.0475,1.7437064877921291,1.0,2725.903739891383,0.4144536448607337,1.308355167191278,0.9724870875847114,0.2862886724872694,0.6968019479159405
0.048,1.7425720768192745,1.0,2726.572626034213,0.41773809692187874,1.3078367690000015,0.9728681755367127,0.28624102722640954,0.6978205473585452
0.0485,1.7414376658464197,1.0,2727.5925542222494,0.421004123117641,1.3073151794971392,0.9732384198555719,0.2861933819655496,0.6988436876614832
0.049,1.7403032548735649,1.0,2728.925584960584,0.4242518302430637,1.306790745363166,0.9735982505560228,0.28614573670468973,0.6998706586719167
0.0495,1.7391688439007102,1.0,2730.5396053457603,0.42748132358523966,1.30626376051976,0.9739480736163789,0.2860980914438298,0.700900857756043
0.05,1.7380344329278554,1.0,2732.41629985619,0.430692703298281,1.3057343936200818,0.9742882670953343,0.28605044618296993,0.7019339303500028
0.0505,1.7369000219550008,1.0,2734.5373670509307,0.43388606953629966,1.3052028133172917,0.9746191916277501,0.28600280092211006,0.7029695240536046
0.051000000000000004,1.735765610982146,1.0,2736.8845109776967,0.43706152245340757,1.30466918826455,0.9749411913873068,0.2859551556612501,0.7040072886550388
0.051500000000000004,1.7346312000092912,1.0,2739.439433212076,0.44021916220371665,1.3041336871150173,0.9752545949878422,0.2859075104003902,0.7050468761537779
0.052000000000000005,1.7334967890364363,1.0,2742.183825526597,0.44335908894133896,1.3035964785218543,0.9755597163277767,0.2858598651395303,0.706087940781662
0.0525,1.7323623780635817,1.0,2745.099363190775,0.4464814028203864,1.303057731138221,0.9758568553816875,0.28581221987867045,0.707130139022174
0.053,1.731227967090727,1.0,2748.170282953888,0.44958620209232386,1.3025175902091373,0.9761462972873193,0.2857645746178105,0.7081731747897211
0.0535,1.7300935561178723,1.0,2751.3842171518877,0.4526735842980432,1.3019761700389918,0.976428312798339,0.28571692935695064,0.709216813547774
0.054,1.7289591451450175,1.0,2754.721539470467,0.45574365324443844,1.301433650445436,0.9767031656185551,0.2856692840960907,0.7102606963620495
0.0545,1.7278247341721626,1.0,2758.174005204112,0.45879650377025666,1.300890107976375,0.9769711010686478,0.28562163883523084,0.7113046649297365
0.055,1.726690323199308,1.0,2761.7333557668444,0.4618322307142448,1.300345619179714,0.9772323540997399,0.28557399357437097,0.7123485619883744
0.0555,1.7255559122264532,1.0,2765.3913170212413,0.46485092891514984,1.2998002606033585,0.977487149819974,0.28552634831351104,0.713392231320658
0.056,1.7244215012535984,1.0,2769.139597737596,0.46785269321171896,1.2992541087952136,0.9777357039901802,0.2854787030526511,0.7144355177588726
0.0565,1.7232870902807438,1.0,2772.9698881824743,0.47083761844269906,1.2987072403031845,0.9779782234906786,0.28543105779179123,0.7154782671889528
0.057,1.722152679307889,1.0,2776.8738588373417,0.4738057994468372,1.2981597316751767,0.9782149067611245,0.28538341253093136,0.7165203265541665
0.0575,1.7210182683350341,1.0,2780.8431592473144,0.47675733106288043,1.297611659459095,0.9784459442151549,0.2853357672700714,0.7175615438584302
0.058,1.7198838573621795,1.0,2784.8715519082257,0.4796923043681781,1.2970630809912185,0.9786715172280466,0.28528812200921155,0.7186018045663418
0.0585,1.7187494463893247,1.0,2788.955048690195,0.48261080891841174,1.2965140332317013,0.9788917987108445,0.2852404767483516,0.7196410334715226
0.059000000000000004,1.7176150354164699,1.0,2793.0808983469115,0.4855129512352323,1.2959646317879234,0.9791069605174605,0.28519283148749175,0.7206790074318843
0.059500000000000004,1.7164806244436153,1.0,2797.2460103394637,0.48839882007574587,1.295414905192828,0.9793171615528283,0.2851451862266318,0.7217156689729349
0.06,1.7153462134707604,1.0,2801.447285408434,0.4912685041970585,1.2948648819793582,0.9795225545729317,0.28509754096577195,0.7227509610181733
0.0605,1.7142118024979056,1.0,2805.681615376491,0.49412209235627635,1.2943145906804576,0.9797232864711676,0.285049895704912,0.7237848268896514
0.061,1.713077391525051,1.0,2809.9458829705086,0.4969596733105055,1.2937640598290692,0.9799194985492501,0.28500225044405214,0.724817210308492
0.0615,1.7119429805521962,1.0,2814.2369616605206,0.499781335816852,1.2932133179581362,0.9801113267736101,0.28495460518319227,0.7258480553953474
0.062,1.7108085695793414,1.0,2818.5517155172724,0.502587168632422,1.292662393600602,0.9802989020181667,0.28490695992233234,0.7268773066708107
0.0625,1.7096741586064867,1.0,2822.8869990878848,0.5053772605143215,1.29211131528941,0.9804823502942904,0.2848593146614724,0.7279049090557748
0.063,1.708539747633632,1.0,2827.239657289531,0.5081517002196567,1.291560111557503,0.9806617929687319,0.28481166940061253,0.7289308078717358
0.0635,1.707405336660777,1.0,2831.60652532064,0.5109105765055336,1.2910088109378248,0.9808373469702216,0.28476402413975266,0.7299549488410502
0.064,1.7062709256879225,1.0,2835.984428590906,0.5136539781290583,1.2904574419633181,0.9810091249854175,0.28471637887889273,0.7309772780871355
0.0645,1.7051365147150677,1.0,2840.3716112234797,0.5163819861246893,1.289906020437858,0.98117723446009,0.28466873361803285,0.7319977656692737
0.065,1.704002103742213,1.0,2844.767847276745,0.5190946788992911,1.2893545484948363,0.9813417781509464,0.2846210883571729,0.7330164070961398
0.0655,1.7028676927693582,1.0,2849.1669486428323,0.5217921690925083,1.2888030813047229,0.9815028601561527,0.28457344309631305,0.7340331002196991
0.066,1.7017332817965034,1.0,2853.568092547248,0.5244745382431527,1.2882516261708357,0.9816605764304555,0.2845257978354531,0.7350478316641225
0.0665,1.7005988708236486,1.0,2857.970453681224,0.5271418678900367,1.287700190396492,0.9818150195861093,0.28447815257459325,0.736060588156321
0.067,1.699464459850794,1.0,2862.3732042038537,0.5297942395719721,1.287148781285009,0.9819662790333498,0.2844305073137333,0.7370713565259376
0.0675,1.6983300488779391,1.0,2866.775513746326,0.5324317348277714,1.2865974061397047,0.9821144411140091,0.28438286205287344,0.7380801237053353
0.068,1.6971956379050845,1.0,2871.1765494163606,0.5350544351962464,1.2860460722638964,0.982259589228658,0.28433521679201357,0.7390868767295846
0.0685,1.6960612269322297,1.0,2875.5754758044363,0.5376624222162092,1.2854947869609017,0.9824018039576293,0.28428757153115364,0.7400916027364457
0.069,1.6949268159593749,1.0,2879.9714549914324,0.540255777426472,1.2849435575340378,0.9825411631762578,0.2842399262702937,0.7410942889663473
0.0695,1.69379240498652,1.0,2884.363646556549,0.5428345823658468,1.2843923912866226,0.982677742164651,0.28419228100943383,0.7420949227623614
0.07,1.6926579940136655,1.0,2888.7512075872814,0.5453989185731458,1.2838412955219733,0.9828116137122846,0.28414463574857396,0.7430934915701779
0.07050000000000001,1.6915235830408106,1.0,2893.133292689972,0.5479488675871811,1.2832902775434079,0.9829428482177036,0.28409699048771403,0.7440899829380706
0.07100000000000001,1.690389172067956,1.0,2897.509054002289,0.5504845109467646,1.2827393446542432,0.9830715137835841,0.28404934522685416,0.7450843845168656
0.07150000000000001,1.6892547610951012,1.0,2901.8776412057673,0.5530059301907086,1.2821885041577972,0.9831976763074067,0.2840016999659942,0.7460766840599009
0.07200000000000001,1.6881203501222464,1.0,2906.2382015408252,0.5555132068578252,1.281637763357387,0.9833213995679688,0.28395405470513435,0.7470668694229863
