Time [s],Phi [rad],STIM [ ],Fsee [N],Gamma [ ],Lcerel [ ],q [ ],Lmtc [m],fisomrel [ ]
0.0,1.8,1.0,17.9737270740692,7.761151343397012e-05,1.3793390103497645,0.005001579626162746,0.288653,0.5411413113101444
0.0005,1.79999375,1.0,18.305433369339937,0.005686385483034818,1.379299202224855,0.013129280648855629,0.2886527375,0.541237612218076
0.001,1.799975,1.0,21.697280573405195,0.011263698665259716,1.3789302510796748,0.03596175610697239,0.28865195,0.5421296709716027
0.0015,1.79994375,1.0,31.255456186159662,0.016809727531166566,1.378030362111002,0.07108460124455328,0.2886506375,0.5443018026856656
0.002,1.7999,1.0,53.98265653563593,0.0223246475600664,1.3763422126313325,0.11528939196260203,0.2886488,0.548362688111457
0.0025,1.79984375,1.0,97.7908631843154,0.027808633247536543,1.373902844582005,0.1651962712212281,0.28864643749999996,0.5541985421348377
0.003,1.7997750000000001,1.0,161.83201610851125,0.033261858112521775,1.3711816790203637,0.21792137786728583,0.28864354999999997,0.5606637792079838
0.0035,1.79969375,1.0,238.67041553026817,0.03868449469742256,1.3685543609371333,0.27125028008342866,0.2886401375,0.5668612341652464
0.004,1.7996,1.0,322.51676457317103,0.04407671457873739,1.3661283047577697,0.3235329170962475,0.2886362,0.5725448483903117
0.0045000000000000005,1.7994937500000001,1.0,410.3549269726366,0.04943868837228887,1.3638973109230415,0.3736202753609308,0.2886317375,0.5777383517314392
0.005,1.799375,1.0,500.5227234184864,0.05477058572467098,1.3618347846032826,0.42079546563027137,0.28862675,0.58251144340273
0.0055,1.79924375,1.0,591.9093103077427,0.06007257535703029,1.3599169849193835,0.46468105094597645,0.2886212375,0.5869252677504473
0.006,1.7991000000000001,1.0,683.6381867384888,0.06534482501706554,1.3581260630496164,0.505146206376286,0.2886152,0.5910259023105301
0.006500000000000001,1.79894375,1.0,774.9939931085859,0.07058750152901691,1.3564482653197105,0.5422270658589847,0.2886086375,0.5948489609393153
0.007,1.798775,1.0,865.3741776914924,0.07580077059047632,1.3548728199213047,0.5760653859675177,0.28860155,0.5984224543402463
0.0075,1.79859375,1.0,954.3221188711326,0.0809847976870182,1.3533901892338314,0.6068632705991928,0.2885939375,0.6017709634989696
0.008,1.7984,1.0,1041.4203960996124,0.08613974643967237,1.3519930153832074,0.6348530753332965,0.2885858,0.6049136387800929
0.0085,1.79819375,1.0,1126.3476861241184,0.09126577976021752,1.3506746148816688,0.6602760800181051,0.2885771375,0.6078677119821214
0.009000000000000001,1.797975,1.0,1208.8837692978711,0.09636306011503591,1.349428598214815,0.6833693944315675,0.28856795,0.6106494092781547
0.0095,1.79774375,1.0,1288.8502940449494,0.10143174901032545,1.3482494480897376,0.704358647811718,0.2885582375,0.613272710156866
0.01,1.7975,1.0,1366.10389512973,0.10647200636340395,1.3471323463424791,0.7234537496635155,0.288548,0.6157497899322868
0.0105,1.79724375,1.0,1440.5573819024733,0.11148399151182681,1.3460727104478951,0.7408468467660019,0.2885372375,0.6180920889134163
0.011,1.796975,1.0,1512.188279574419,0.11646786405690718,1.3450659757950174,0.7567119168359849,0.28852595000000003,0.6203108174382412
0.0115,1.79669375,1.0,1580.9623716646574,0.12142378107543884,1.3441084330635211,0.7712057438062401,0.2885141375,0.6224151348678834
0.012,1.7964,1.0,1646.8711338538492,0.12635189888530707,1.3431966369669668,0.7844686801481011,0.28850180000000003,0.6244134833372577
0.0125,1.79609375,1.0,1709.9448457828692,0.13125237359197867,1.342327181048016,0.7966258732656875,0.2884889375,0.6263140979455323
0.013000000000000001,1.7957750000000001,1.0,1770.2365907752633,0.1361253607774649,1.34149683211149,0.8077887443127771,0.28847555,0.6281247246741609
0.0135,1.79544375,1.0,1827.7989751855337,0.14097101489002048,1.340702736228531,0.8180564671129473,0.2884616375,0.6298521859897703
0.014,1.7951000000000001,1.0,1882.677964551011,0.14578948837997469,1.3399424244768627,0.827517284153316,0.2884472,0.6315023853341597
0.0145,1.79474375,1.0,1934.9435589451757,0.15058093369765668,1.3392134279342083,0.8362495918873741,0.2884322375,0.6330811553224608
0.015,1.794375,1.0,1984.6701551049343,0.1553455022354459,1.338513464723916,0.844323139116485,0.28841675,0.6345938590580678
0.0155,1.79399375,1.0,2031.960030600792,0.1600833465056242,1.3378401610597754,0.8517999465741276,0.2884007375,0.6360459999206154
0.016,1.7936,1.0,2076.8828082593095,0.16479461554193356,1.3371916693632009,0.8587354109834637,0.2883842,0.6374418944899803
0.0165,1.7931937500000001,1.0,2119.510026800281,0.1694794575525282,1.3365662681404828,0.8651789609345425,0.2883671375,0.6387855457588922
0.017,1.792775,1.0,2159.9256903265245,0.17413802074556226,1.335962235897912,0.8711747260008923,0.28834955,0.6400809185283028
0.0175,1.7923437500000001,1.0,2198.219098015864,0.1787704526733977,1.3353779129911296,0.8767621798095101,0.2883314375,0.6413318095590379
0.018000000000000002,1.7919,1.0,2234.4828614113976,0.1833769009184327,1.3348117089948104,0.881976689342438,0.2883128,0.642541835204
0.0185,1.79144375,1.0,2268.8004925003193,0.18795751162966284,1.3342622148211927,0.8868500212225893,0.2882936375,0.6437141956085167
0.019,1.790975,1.0,2301.2410679250447,0.1925124284852384,1.3337282411016262,0.8914107647641871,0.28827395,0.6448515978673942
0.0195,1.79049375,1.0,2331.880158255685,0.1970417951633096,1.3332085984674598,0.8956846421794831,0.2882537375,0.6459567280208902
0.02,1.79,1.0,2360.7992855325974,0.20154575534202668,1.3327020975500428,0.8996948341142872,0.288233,0.6470322521868681
0.0205,1.78949375,1.0,2388.071767797202,0.20602445082599183,1.332207681572541,0.9034622937860305,0.2882117375,0.6480805366843023
0.021,1.788975,1.0,2413.7889667709546,0.21047802617784356,1.3317241644662805,0.9070059385392235,0.28818995000000003,0.6491042050674365
0.021500000000000002,1.78844375,1.0,2438.0154192737564,0.21490662145074196,1.3312506617452586,0.9103429610021769,0.2881676375,0.6501052267006641
0.022,1.7879,1.0,2460.8106946737325,0.21931037544243825,1.3307863702359966,0.9134889697333689,0.2881448,0.6510853866903514
0.0225,1.78734375,1.0,2482.2374427332775,0.22368942695068372,1.3303304867650156,0.9164581423829308,0.28812143749999997,0.6520464589081245
0.023,1.786775,1.0,2502.361136203872,0.22804391477322955,1.3298822081588373,0.9192633766803718,0.28809755,0.6529902064421222
0.0235,1.78619375,1.0,2521.2452438160644,0.23237397686155575,1.3294407745966235,0.9219164313901269,0.28807313749999996,0.6539182909221197
0.024,1.7856,1.0,2538.950682065413,0.2366797505474086,1.3290054718629876,0.9244280435838919,0.2880482,0.654832268763434
0.0245,1.78499375,1.0,2555.548856949512,0.24096137468916506,1.328575506177189,0.9268080107601117,0.2880227375,0.6557338544017988
0.025,1.784375,1.0,2571.084866358378,0.24521898282568086,1.328150348330326,0.9290653412949365,0.28799675,0.656624199268768
0.025500000000000002,1.78374375,1.0,2585.6052440304197,0.24945270849581166,1.3277294691134969,0.9312082889054553,0.2879702375,0.6575044485796732
0.026000000000000002,1.7831000000000001,1.0,2599.1578400081326,0.2536626852384132,1.3273123393177995,0.9332444261164855,0.2879432,0.658375741486957
0.0265,1.78244375,1.0,2611.7917073033814,0.2578490465923411,1.3268984297343323,0.9351807096795528,0.2879156375,0.65923921121565
0.027,1.781775,1.0,2623.555722830425,0.2620119256349643,1.3264872229467897,0.9370235405375859,0.28788755,0.6600959606265729
0.0275,1.7810937500000001,1.0,2634.492292544365,0.26615145287415504,1.3260782705156346,0.9387788234858405,0.2878589375,0.6609469435508055
0.028,1.7804,1.0,2644.656047385147,0.27026776386269447,1.3256710188142788,0.9404519901154296,0.2878298,0.6617933275014976
0.0285,1.77969375,1.0,2654.0808401310273,0.2743609866613172,1.3252651134788773,0.9420480810233253,0.2878001375,0.6626358608213427
0.029,1.778975,1.0,2662.8011332281394,0.2784312493307579,1.324860200145585,0.9435717551625669,0.28776995,0.6634752881421253
0.029500000000000002,1.7782437500000001,1.0,2670.8519452516416,0.2824786799317512,1.324455924450556,0.9450273236649512,0.2877392375,0.664312350411145
0.03,1.7775,1.0,2678.2688001507986,0.28650340652503176,1.3240519320299458,0.9464187802622387,0.287708,0.6651477849096283
0.0305,1.77674375,1.0,2685.0876792788654,0.2905055571713342,1.3236478685199091,0.947749828684965,0.2876762375,0.6659823252631365
0.031,1.775975,1.0,2691.330293575197,0.2944852590565577,1.32324351395905,0.9490239242539212,0.28764395,0.6668164243731043
0.0315,1.7751937500000001,1.0,2697.0527277002034,0.29844263887113814,1.322838336879224,0.9502442387579353,0.2876111375,0.6676511742380633
0.032,1.774400098053591,1.0,2702.2879435179543,0.30237782173355743,1.3224320651042032,0.9514137544666229,0.28757780411825085,0.6684871281653026
0.0325,1.7736016637290914,1.0,2707.401158169051,0.3062909310769236,1.3220247933206195,0.9525352916649426,0.28754426987662185,0.6693240831849883
0.033,1.772803229404592,1.0,2712.618495932351,0.3101820903343449,1.3216166162151048,0.9536114782779147,0.28751073563499285,0.670161837290644
0.0335,1.7720047950800923,1.0,2717.9298484918872,0.3140514229389294,1.3212076284742915,0.9546447653046569,0.28747720139336386,0.6710001894449028
0.034,1.7712063607555928,1.0,2723.3250798432264,0.3178990512281131,1.320797924709941,0.955637440541248,0.28744366715173486,0.6718389397378667
0.0345,1.7704079264310932,1.0,2728.784237222139,0.3217250984744458,1.3203876884353016,0.9565916516792154,0.2874101329101059,0.6726777075863651
0.035,1.7696094921065937,1.0,2734.29516549118,0.3255296851345488,1.3199770316361141,0.9575093986981441,0.2873765986684769,0.6735162602848892
0.035500000000000004,1.7688110577820941,1.0,2739.847900005059,0.3293129306893527,1.3195660459866434,0.9583925512371617,0.287343064426848,0.6743544076928014
0.036000000000000004,1.7680126234575946,1.0,2745.4324360115415,0.33307495461978814,1.3191548231611547,0.9592428608309853,0.287309530185219,0.6751919606280997
0.0365,1.767214189133095,1.0,2751.0387280767336,0.3368158764067857,1.3187434548339134,0.9600619697203796,0.28727599594359,0.6760287308690721
0.037,1.7664157548085955,1.0,2756.66423890991,0.3405358062971337,1.3183319643985598,0.9608514100747582,0.287242461701961,0.6768646697772769
0.0375,1.765617320484096,1.0,2762.290530941509,0.34423487652675133,1.3179205188212584,0.961612639684849,0.287208927460332,0.6776994378584882
0.038,1.7648188861595964,1.0,2767.912403253625,0.3479132030526573,1.3175091649102064,0.9623470134409218,0.28717539321870306,0.6785329406824725
0.0385,1.7640204518350968,1.0,2773.526506602674,0.3515708994613711,1.3170979325870278,0.9630558036712921,0.28714185897707406,0.679365118459926
0.039,1.7632220175105973,1.0,2779.1294783889302,0.3552080793394123,1.3166868517733465,0.9637402080406753,0.28710832473544506,0.6801959117151991
0.0395,1.762423583186098,1.0,2784.7179427470137,0.3588248562733004,1.3162759523907872,0.9644013547408411,0.2870747904938161,0.6810252612860348
0.04,1.7616251488615984,1.0,2790.2885106562303,0.36242134384955493,1.3158652643609738,0.9650403072670886,0.2870412562521871,0.6818531083232529
0.0405,1.7608267145370988,1.0,2795.8377800711883,0.3659976556546955,1.3154548176055303,0.9656580688176339,0.28700772201055813,0.682679394290375
0.041,1.7600282802125993,1.0,2801.362336071642,0.36955390527524157,1.3150446420460808,0.9662555863493509,0.28697418776892913,0.6835040609631913
0.0415,1.7592298458880997,1.0,2806.8587510327084,0.37309020629771267,1.3146347676042496,0.9668337543200172,0.2869406535273002,0.6843270504292726
0.042,1.7584314115636002,1.0,2812.32358481431,0.3766066723086284,1.3142252242016605,0.9673934181443041,0.2869071192856712,0.6851483050874241
0.0425,1.7576329772391006,1.0,2817.756842049203,0.38010340344489474,1.3138160108324315,0.9679353726501734,0.28687358504404226,0.6859678295447043
0.043000000000000003,1.756834542914601,1.0,2823.1544862173623,0.383580525514638,1.3134071626191663,0.9684603771520932,0.28684005080241326,0.6867855561830467
0.043500000000000004,1.7560361085901015,1.0,2828.514665663685,0.38703815219462195,1.3129986950487638,0.9689691471249345,0.28680651656078426,0.6876014569444229
0.044,1.755237674265602,1.0,2833.837180435875,0.3904763894253705,1.3125906088234394,0.9694623581506028,0.28677298231915527,0.6884155334036719
0.0445,1.7544392399411024,1.0,2839.121831252034,0.39389534314740765,1.3121829046454088,0.9699406507767251,0.28673944807752627,0.6892277871401646
0.045,1.7536408056166028,1.0,2844.3684195063665,0.3972951193012574,1.3117755832168878,0.9704046326785775,0.28670591383589733,0.6900382197377852
0.0455,1.7528423712921033,1.0,2849.576747275169,0.4006758238274436,1.311368645240092,0.9708548806672588,0.28667237959426833,0.6908468327849164
0.046,1.7520439369676037,1.0,2854.7466173229604,0.4040375626664903,1.3109620914172366,0.9712919425564314,0.28663884535263934,0.6916536278744202
0.0465,1.7512455026431042,1.0,2859.877833108494,0.4073804417589215,1.3105559224505376,0.9717163388988664,0.2866053111110104,0.6924586066036214
0.047,1.7504470683186046,1.0,2864.9701987903036,0.4107045670452611,1.3101501390422103,0.9721285646030272,0.2865717768693814,0.6932617705742908
0.0475,1.749648633994105,1.0,2870.0235192331415,0.414010044466033,1.3097447418944708,0.9725290904390452,0.2865382426277524,0.6940631213926265
0.048,1.7488501996696055,1.0,2875.037600013983,0.4172969799617613,1.309339731709534,0.9729183644426261,0.2865047083861234,0.6948626606692394
0.0485,1.748051765345106,1.0,2880.01224742778,0.42056547947296985,1.3089351091896164,0.9732968132246921,0.28647117414449447,0.695660390019132
0.049,1.7472533310206066,1.0,2884.9478498524027,0.42381562154957636,1.3085308698969378,0.9736648395416302,0.28643763990286547,0.6964563211755066
0.0495,1.746454896696107,1.0,2889.8448577834592,0.4270475221927407,1.3081270088688555,0.974022831765439,0.2864041056612365,0.697250466854376
0.05,1.7456564623716075,1.0,2894.7032362883665,0.4302613158889154,1.3077235254526138,0.9743711626074364,0.28637057141960753,0.6980428312596128
0.0505,1.744858028047108,1.0,2899.523547971344,0.4334570990296257,1.3073204137362846,0.9747101828522671,0.28633703717797854,0.6988334288933638
0.051000000000000004,1.7440595937226084,1.0,2904.3063585954314,0.43663496800639673,1.3069176678079395,0.9750402273362616,0.28630350293634954,0.699622274194309
0.051500000000000004,1.7432611593981089,1.0,2909.0522370338153,0.4397950192107538,1.3065152817556505,0.9753616158136498,0.28626996869472054,0.7004093815378005
0.052000000000000005,1.7424627250736093,1.0,2913.7617552225097,0.4429373490342221,1.306113249667489,0.9756746537683728,0.2862364344530916,0.7011947652359999
0.0525,1.7416642907491098,1.0,2918.4354881130967,0.4460620538683269,1.3057115656315272,0.9759796331753551,0.2862029002114626,0.7019784395380115
0.053,1.7408658564246102,1.0,2923.074013627428,0.4491692301045935,1.3053102237358365,0.9762768332147981,0.2861693659698336,0.7027604186300174
0.0535,1.7400674221001107,1.0,2927.6779126119186,0.452258974134547,1.304909218068489,0.9765665209427705,0.28613583172820467,0.703540716635404
0.054,1.7392689877756111,1.0,2932.247768793018,0.45533138234971277,1.304508542717556,0.9768489519211252,0.2861022974865757,0.7043193476148928
0.0545,1.7384705534511116,1.0,2936.7841687338687,0.45838655114161597,1.3041081917711095,0.977124370809533,0.2860687632449467,0.7050963255666649
0.055,1.737672119126612,1.0,2941.2877017911533,0.46142457690178185,1.3037081593172215,0.9773930119222126,0.2860352290033177,0.7058716644264835
0.0555,1.7368736848021125,1.0,2945.758960073137,0.46444555602173565,1.3033084394439636,0.9776550997517391,0.28600169476168874,0.7066453780678172
0.056,1.736075250477613,1.0,2950.1985383980314,0.46744958489300265,1.3029090262394072,0.9779108494621367,0.28596816052005974,0.7074174803019584
0.0565,1.7352768161531134,1.0,2954.6070342536486,0.470436759907108,1.3025099137916247,0.9781604673532962,0.28593462627843075,0.7081879848781371
0.057,1.7344783818286138,1.0,2958.985047757732,0.47340717745557703,1.3021110961886875,0.9784041512986037,0.2859010920368018,0.7089569054836404
0.0575,1.7336799475041142,1.0,2963.333181618268,0.4763609339299349,1.3017125675186674,0.9786420911575355,0.2858675577951728,0.709724255743921
0.058,1.7328815131796147,1.0,2967.6520410960497,0.47929812572170694,1.3013143218696361,0.9788744691648364,0.2858340235535438,0.7104900492227083
0.0585,1.7320830788551151,1.0,2971.941851994484,0.48221883065986304,1.3009163566570199,0.9791014589113227,0.2858004893119148,0.71125429303656
0.059000000000000004,1.7312846445306156,1.0,2976.2028020770867,0.4851231161848597,1.3005186696394113,0.9793232263269847,0.2857669550702858,0.7120169936165764
0.059500000000000004,1.730486210206116,1.0,2980.4368455225767,0.4880111372000957,1.3001212432210494,0.979539937231421,0.2857334208286569,0.7127781867584557
0.06,1.7296877758816167,1.0,2984.64442144686,0.49088297954825855,1.299724073029829,0.9797517460247461,0.2856998865870279,0.7135378828010516
0.0605,1.7288893415571172,1.0,2988.825970826242,0.4937387290720358,1.2993271546936453,0.979958801178786,0.28566635234539894,0.7142960920376483
0.061,1.7280909072326176,1.0,2992.9819364726327,0.49657847161411517,1.2989304838403934,0.980161245510297,0.28563281810376995,0.715052824716034
0.0615,1.727292472908118,1.0,2997.1127630096526,0.49940229301718403,1.2985340560979681,0.980359216439579,0.28559928386214095,0.7158080910385689
0.062,1.7264940385836185,1.0,3001.2188968484097,0.50221027912393,1.2981378670942647,0.9805528462353664,0.28556574962051195,0.716561901162253
0.0625,1.725695604259119,1.0,3005.3007861645897,0.5050025157770407,1.297741912457178,0.9807422622468239,0.28553221537888296,0.717314265198795
0.063,1.7248971699346194,1.0,3009.3588808752525,0.5077790888192036,1.2973461878146033,0.980927587123418,0.285498681137254,0.7180651932146769
0.0635,1.7240987356101198,1.0,3013.3936326163243,0.5105400840931064,1.2969506887944353,0.9811089390233829,0.285465146895625,0.7188146952312195
0.064,1.7233003012856203,1.0,3017.405494720687,0.5132855874414364,1.2965554110245692,0.9812864318114528,0.2854316126539961,0.7195627812246456
0.0645,1.7225018669611207,1.0,3021.394922196243,0.5160156847068814,1.2961603501329,0.9814601752464869,0.2853980784123671,0.7203094611261418
0.065,1.7217034326366212,1.0,3025.362371705095,0.5187304617321288,1.2957655017473226,0.9816302751595763,0.2853645441707381,0.7210547448219212
0.0655,1.7209049983121216,1.0,3029.3083015423204,0.5214300043598663,1.2953708614957322,0.9817968336231777,0.2853310099291091,0.7217986421532812
0.066,1.720106563987622,1.0,3033.2331716157883,0.5241143984327814,1.294976425006024,0.9819599491117897,0.2852974756874801,0.7225411629166629
0.0665,1.7193081296631225,1.0,3037.1374434263034,0.5267837297935617,1.2945821879060926,0.9821197166546523,0.28526394144585115,0.7232823168637104
0.067,1.718509695338623,1.0,3041.021580047614,0.5294380842848946,1.2941881458238333,0.9822762279809174,0.28523040720422216,0.7240221137013232
0.0675,1.7177112610141234,1.0,3044.8860461079184,0.5320775477494678,1.2937942943871412,0.9824295716577139,0.28519687296259316,0.7247605630917149
0.068,1.7169128266896239,1.0,3048.731307770723,0.5347022060299689,1.2934006292239113,0.9825798332215026,0.2851633387209642,0.7254976746524647
0.0685,1.7161143923651243,1.0,3052.5578327167145,0.5373121449690853,1.2930071459620383,0.982727095303089,0.2851298044793352,0.7262334579565715
0.069,1.7153159580406248,1.0,3056.3660901259104,0.5399074504095047,1.2926138402294176,0.9828714377466466,0.28509627023770623,0.7269679225325028
0.0695,1.7145175237161254,1.0,3060.1557688556572,0.5424881630003753,1.2922207143653548,0.9830129352541125,0.28506273599607723,0.7277010653565106
0.07,1.7137190893916259,1.0,3063.9278029670095,0.5450544028689065,1.2918277600223087,0.9831516644275239,0.2850292017544483,0.7284329033174802
0.07050000000000001,1.7129206550671263,1.0,3067.682819324763,0.5476062691984951,1.2914349715089102,0.983287698168867,0.2849956675128193,0.7291634482831656
0.07100000000000001,1.7121222207426268,1.0,3071.4210633712414,0.5501438380322455,1.2910423464176406,0.9834211057554663,0.28496213327119035,0.7298927059684761
