Time [s],Phi [rad],STIM [ ],Fsee [N],Gamma [ ],Lcerel [ ],q [ ],Lmtc [m],fisomrel [ ]
0.0,1.8,1.0,18.091691418906844,0.00035883898809213225,1.3793258184230892,0.005033359948654378,0.288653,0.5411732253751709
0.0005,1.79999375,1.0,18.51266727329762,0.005966035493989985,1.3792762653516402,0.01393728489673213,0.2886527375,0.5412930948370926
0.001,1.799975,1.0,22.113197043825288,0.011541780060792315,1.3788880499191876,0.03744951282680237,0.28865195,0.5422316506008777
0.0015,1.79994375,1.0,32.12912329857765,0.01708624911001709,1.3779566622155917,0.07310651768507138,0.2886506375,0.5444794690269426
0.002,1.7999,1.0,55.76334651106481,0.022599618071316583,1.3762280535074705,0.11767458836206598,0.2886488,0.5486366446236606
0.0025,1.79984375,1.0,100.69941237167578,0.028082061391787035,1.3737641942771839,0.16778519597582375,0.28864643749999996,0.554529104197473
0.003,1.7997750000000001,1.0,165.56233654459126,0.0335337525410221,1.371043220409061,0.220588380827067,0.28864354999999997,0.560991481468345
0.0035,1.79969375,1.0,242.85545655155147,0.038954864013046576,1.3684262764945163,0.27390020687867667,0.2886401375,0.5671622410343948
0.004,1.7996,1.0,326.9519090313192,0.044345567336218215,1.3660114265419525,0.32609684784724785,0.2886362,0.5728177156910871
0.0045000000000000005,1.7994937500000001,1.0,414.93611608458036,0.04970603307875134,1.363790213578504,0.3760527808273701,0.2886317375,0.5779868638536556
0.005,1.799375,1.0,505.1877691629521,0.055036430839981776,1.361735992334299,0.4230703634228819,0.28862675,0.5827393872765303
0.0055,1.79924375,1.0,596.609667562762,0.06033692928933094,1.3598254195961752,0.46678665371792355,0.2886212375,0.5871354190447591
0.006,1.7991000000000001,1.0,688.3372031719429,0.06560769613305138,1.3580408635947607,0.507080882941653,0.2886152,0.5912204719270343
0.006500000000000001,1.79894375,1.0,779.6597560271035,0.07084889812438375,1.3563687943169778,0.5439957980922545,0.2886086375,0.5950295996079835
0.007,1.798775,1.0,869.992431448999,0.07606070116588975,1.354798366452877,0.5776770093810035,0.28860155,0.5985909412065368
0.0075,1.79859375,1.0,958.846241107136,0.08124327000004064,1.3533207251335448,0.6083291185155033,0.2885939375,0.6019275037981698
0.008,1.7984,1.0,1045.8472077963318,0.08639676889279024,1.3519279418177954,0.6361849636811089,0.2885858,0.6050597058925077
0.0085,1.79819375,1.0,1130.675433155864,0.09152136065148365,1.3506134367177445,0.6614859336459463,0.2885771375,0.6080045216612634
0.009000000000000001,1.797975,1.0,1213.0868444416478,0.09661720731753032,1.3493712413691705,0.6844689303806392,0.28856795,0.6107772184444031
0.0095,1.79774375,1.0,1292.9237929646506,0.10168447064319018,1.348195607352534,0.7053587178190025,0.2885582375,0.6133922800395406
0.01,1.7975,1.0,1370.0486609279674,0.10672331056038024,1.3470816993619377,0.7243643339323621,0.288548,0.6158619067858084
0.0105,1.79724375,1.0,1444.3719580997529,0.1117338863818084,1.3460250145339612,0.7416770601391074,0.2885372375,0.6181973511376657
0.011,1.796975,1.0,1515.8566027754,0.11671635674182126,1.345021205609488,0.7574700779799167,0.28852595000000003,0.6204093357135698
0.0115,1.79669375,1.0,1584.495220001997,0.12167087988135206,1.3440662625210587,0.7718991727945526,0.2885141375,0.6225076753660395
0.012,1.7964,1.0,1650.2721947311506,0.12659761179386964,1.3431568585105962,0.7851039634401553,0.28850180000000003,0.6245005435495494
0.0125,1.79609375,1.0,1713.2122962889791,0.1314967084322225,1.3422896752832794,0.7972089127992842,0.2884889375,0.6263959763854183
0.013000000000000001,1.7957750000000001,1.0,1773.3618434841526,0.13636832465736534,1.341461573491688,0.8083248238107387,0.28847555,0.6282015109329739
0.0135,1.79544375,1.0,1830.7955071128947,0.14121261605212812,1.3406694653564808,0.8185501924203954,0.2884616375,0.6299244750437805
0.014,1.7951000000000001,1.0,1885.552233330812,0.1460297346397917,1.3399109787909478,0.8279727821082361,0.2884472,0.6315705564329714
0.0145,1.79474375,1.0,1937.694340029473,0.15081983244363678,1.3391837417083787,0.8366705636822138,0.2884322375,0.6331453742369382
0.015,1.794375,1.0,1987.3041565702354,0.1555830613722099,1.3384853964829397,0.8447128508916236,0.28841675,0.6346544527034027
0.0155,1.79399375,1.0,2034.4652679406497,0.16031957205493783,1.3378137768024907,0.8521613710257685,0.2884007375,0.6361028450332813
0.016,1.7936,1.0,2079.277263533141,0.16502951601297453,1.337166725541686,0.8590711025334073,0.2883842,0.6374955331233976
0.0165,1.7931937500000001,1.0,2121.8042298156392,0.16971304084937533,1.3365426098144837,0.8654912249382719,0.2883671375,0.6388363258267098
0.017,1.792775,1.0,2162.1222805999505,0.17437029416719557,1.3359397967348419,0.871465647614324,0.28834955,0.6401289954392638
0.0175,1.7923437500000001,1.0,2200.318551877552,0.1790014235694906,1.3353566534167183,0.8770336326189069,0.2883314375,0.6413772800036324
0.018000000000000002,1.7919,1.0,2236.477420898052,0.18360657532791735,1.3347916758572023,0.8822303745916908,0.2883128,0.6425846102574171
0.0185,1.79144375,1.0,2270.697382558633,0.18818589718394255,1.3342433070369817,0.8870874288871666,0.2882936375,0.6437545015975191
0.019,1.790975,1.0,2303.052909431199,0.19273953340398345,1.3337103085922648,0.8916332225680498,0.28827395,0.6448897638369113
0.0195,1.79049375,1.0,2333.6131740452015,0.1972676269039675,1.3331915589961183,0.8958933616551195,0.2882537375,0.6459929369060466
0.02,1.79,1.0,2362.4530810582455,0.20177032059982228,1.332685936721609,0.8998909234619854,0.288233,0.6470665417974029
0.0205,1.78949375,1.0,2389.652786516719,0.20624775740747522,1.3321923202418033,0.9036467403769891,0.2882117375,0.6481130815445382
0.021,1.788975,1.0,2415.284011819346,0.21070007834879145,1.331709715899296,0.9071796756053864,0.28818995000000003,0.6491347716135468
0.021500000000000002,1.78844375,1.0,2439.43348140604,0.21512742707038482,1.331237025296771,0.9105067913536404,0.2881676375,0.6501340340323545
0.022,1.7879,1.0,2462.164162031904,0.21952994289733552,1.3307734152676134,0.9136436162027709,0.2881448,0.6511127160465529
0.0225,1.78734375,1.0,2483.5333552498682,0.22390776376681046,1.330318136259641,0.9166042722550308,0.28812143749999997,0.652072477225629
0.023,1.786775,1.0,2503.6010661113223,0.22826102761597655,1.3298704387206703,0.9194016074091863,0.28809755,0.653014967022425
0.0235,1.78619375,1.0,2522.4297771284773,0.23258987238200068,1.3294295730985184,0.9220473279596544,0.28807313749999996,0.6539418251534692
0.024,1.7856,1.0,2540.081109345454,0.23689443543279692,1.32899481928941,0.9245521208810107,0.2880482,0.654854620155384
0.0245,1.78499375,1.0,2556.60915373527,0.24117485251032275,1.3285655469030102,0.9269257670446431,0.2880227375,0.6557547238148145
0.025,1.784375,1.0,2572.088872319228,0.2454312625769102,1.3281409462691731,0.9291771872343786,0.28799675,0.6566438755789912
0.025500000000000002,1.78374375,1.0,2586.5629419522475,0.24966379827030752,1.3277205258793068,0.9313146068624701,0.2879702375,0.6575231406804548
0.026000000000000002,1.7831000000000001,1.0,2600.075293506314,0.2538725922282629,1.327303794224819,0.933345572860677,0.2879432,0.6583935787182316
0.0265,1.78244375,1.0,2612.6710074764874,0.25805777708852456,1.3268902597971173,0.9352770187993138,0.2879156375,0.6592562437811644
0.027,1.781775,1.0,2624.396214943016,0.26221948548884083,1.3264794310876098,0.9371153229628504,0.28788755,0.6601121845558375
0.0275,1.7810937500000001,1.0,2635.2980038895053,0.2663578500669598,1.3260708165877044,0.9388663602194276,0.2878589375,0.6609624444190932
0.028,1.7804,1.0,2645.4182537430306,0.2704729998071258,1.325663980898618,0.9405355551823061,0.2878298,0.6618079449785225
0.0285,1.77969375,1.0,2654.8053198458497,0.274565069873667,1.3252584357789354,0.9421279112605815,0.2878001375,0.6626497128655617
0.029,1.778975,1.0,2663.492715702192,0.2786341880870156,1.3248538360924875,0.9436480707798914,0.28776995,0.66348847313774
0.029500000000000002,1.7782437500000001,1.0,2671.5133802731007,0.282680481612515,1.324449846981289,0.945100330875493,0.2877392375,0.6643249260006955
0.03,1.7775,1.0,2678.9007413652976,0.28670407761550853,1.324046133587355,0.9464886725021142,0.287708,0.6651597681986163
0.0305,1.77674375,1.0,2685.688670429725,0.29070510326133964,1.3236423610527004,0.947816787710678,0.2876762375,0.6659936930237038
0.031,1.775975,1.0,2691.9114398463953,0.29468368571535175,1.3232381945193397,0.9490881042495481,0.28764395,0.666827390318487
0.0315,1.7751937500000001,1.0,2697.60558895516,0.2986399487991707,1.3228332816999673,0.9503058045547791,0.2876111375,0.6676615823559617
0.032,1.7744006552570117,1.0,2702.8349588675815,0.3025740162051472,1.3224273198623533,0.9514728554114553,0.28757782752079447,0.6684968858621803
0.0325,1.77360470265436,1.0,2708.0321410971114,0.3064860243216466,1.322020407317919,0.9525920711691649,0.2875443975114831,0.6693330907869949
0.033,1.772808750051708,1.0,2713.326989997691,0.3103760935089601,1.3216126498811578,0.9536660704140802,0.28751096750217175,0.6701699726926653
0.0335,1.772012797449056,1.0,2718.708158757011,0.3142443441273789,1.3212041533665635,0.95469729559534,0.28747753749286037,0.6710073082272614
0.034,1.7712168448464043,1.0,2724.1642585528025,0.31809089653719397,1.3207950235886297,0.9556880269719009,0.287444107483549,0.6718448751300081
0.0345,1.7704208922437523,1.0,2729.683856943101,0.3219158710986964,1.3203853663618494,0.9566403952996039,0.2874106774742376,0.6726824522359168
0.035,1.7696249396411003,1.0,2735.2554765043988,0.32571938817217744,1.3199752875007167,0.9575563933854008,0.2873772474649262,0.6735198194796993
0.035500000000000004,1.7688289870384486,1.0,2740.8675937187936,0.3295015681179281,1.3195648928197248,0.9584378866216483,0.2873438174556148,0.6743567578989726
0.036000000000000004,1.7680330344357966,1.0,2746.508638108409,0.3332625312962395,1.3191542881333673,0.9592866226010347,0.28731038744630344,0.675193049636746
0.0365,1.7672370818331447,1.0,2752.166991619007,0.33700239806740273,1.3187435792561377,0.9601042399018215,0.28727695743699205,0.676028477943196
0.037,1.766441129230493,1.0,2757.8313069455826,0.3407212882556702,1.3183328691206362,0.9608922757188173,0.28724352742768067,0.6768628330274997
0.0375,1.765645176627841,1.0,2763.507547532486,0.3444192973775133,1.3179221038598095,0.9616521531539771,0.28721009741836934,0.6776962240987007
0.038,1.764849224025189,1.0,2769.1703931265833,0.3480965784603132,1.3175115121399295,0.9623852491902541,0.28717666740905795,0.6785281876869115
0.0385,1.7640532714225372,1.0,2774.81773770636,0.35175324322700485,1.3171011124149141,0.9630928302916536,0.28714323739974656,0.6793586878355358
0.039,1.7632573188198852,1.0,2780.4474671439166,0.35538940340052316,1.316690923138681,0.9637760886859617,0.2871098073904352,0.6801876887805168
0.0395,1.7624613662172335,1.0,2786.0574592875982,0.3590051707038031,1.3162809627651484,0.9644361475199306,0.2870763773811238,0.6810151549500982
0.04,1.7616654136145815,1.0,2791.645584051773,0.36260065685977966,1.3158712497482337,0.9650740656035341,0.2870429473718124,0.6818410509645696
0.0405,1.7608694610119295,1.0,2797.2097035141996,0.36617597359138776,1.315461802541855,0.9656908417800677,0.287009517362501,0.6826653416359812
0.041,1.7600735084092778,1.0,2802.7476720211394,0.3697312326215624,1.3150526395999302,0.9662874189552308,0.2869760873531897,0.6834879919678459
0.0415,1.7592775558066258,1.0,2808.257336299689,0.3732665456732385,1.314643779376377,0.9668646878150946,0.28694265734387825,0.6843089671548144
0.042,1.7584816032039738,1.0,2813.736535578331,0.37678202446935105,1.3142352403251132,0.9674234902599553,0.2869092273345669,0.6851282325823289
0.0425,1.757685650601322,1.0,2819.1831017137965,0.38027778073283497,1.313827040900057,0.9679646225784886,0.28687579732525553,0.6859457538262563
0.043000000000000003,1.7568896979986701,1.0,2824.594859326953,0.38375392618662524,1.3134191995551259,0.9684888383842968,0.28684236731594415,0.6867614966525006
0.043500000000000004,1.7560937453960181,1.0,2829.969625945235,0.38721057255365676,1.3130117347442378,0.9689968513348636,0.28680893730663276,0.6875754270165909
0.044,1.7552977927933664,1.0,2835.3052121528945,0.39064783155686456,1.3126046649213106,0.9694893376510656,0.2867755072973214,0.6883875110632498
0.0445,1.7545018401907144,1.0,2840.6008541121864,0.39406580469135705,1.3121979957777705,0.9699669359587725,0.28674207728801,0.6891977405368086
0.045,1.7537058875880625,1.0,2845.856919843395,0.3974646026013331,1.3117917229176026,0.9704302526967125,0.2867086472786986,0.6900061272961509
0.0455,1.7529099349854107,1.0,2851.0718443010114,0.40084434707644834,1.3113858591625216,0.970879866352665,0.2866752172693873,0.6908126489592419
0.046,1.7521139823827587,1.0,2856.2459058348372,0.40420514117661666,1.3109804009172605,0.9713163224610778,0.28664178726007583,0.6916173158333543
0.0465,1.7513180297801068,1.0,2861.3793853619677,0.40754708796175193,1.3105753445865527,0.9717401394438016,0.2866083572507645,0.6924201381854085
0.047,1.750522077177455,1.0,2866.472566333735,0.41087029049176804,1.3101706865751308,0.9721518102156679,0.2865749272414531,0.6932211262420662
0.0475,1.749726124574803,1.0,2871.5257347045203,0.41417485182657887,1.3097664232877277,0.9725518036803591,0.28654149723214173,0.6940202901898224
0.048,1.7489301719721513,1.0,2876.539178899676,0.4174608750260983,1.3093625511290767,0.972940566125024,0.28650806722283034,0.6948176401750937
0.0485,1.7481342193694993,1.0,2881.5131897844717,0.4207284631502402,1.3089590665039104,0.973318522521383,0.28647463721351896,0.6956131863043122
0.049,1.7473382667668473,1.0,2886.4480606328952,0.42397771925891853,1.3085559658169619,0.9736860777403954,0.28644120720420757,0.696406938644011
0.0495,1.7465423141641956,1.0,2891.3440870970358,0.4272087464120471,1.308153245472964,0.9740436176869778,0.2864077771948962,0.6971989072209157
0.05,1.7457463615615436,1.0,2896.201567176523,0.43042164766953983,1.30775090187665,0.9743915103607146,0.28637434718558485,0.6979891020220298
0.0505,1.7449504089588916,1.0,2901.0208011881477,0.43361652609131063,1.3073489314327527,0.9747301068480176,0.2863409171762734,0.698777532994723
0.051000000000000004,1.74415445635624,1.0,2905.8020917367544,0.43679348473727336,1.3069473305460049,0.9750597422507384,0.2863074871669621,0.6995642100468165
0.051500000000000004,1.743358503753588,1.0,2910.5456343881915,0.4399526079870572,1.306546096583208,0.9753807345866385,0.2862740571576507,0.7003491411658115
0.052000000000000005,1.742562551150936,1.0,2915.2520152086886,0.4430939717718821,1.306145223493102,0.9756933866108245,0.2862406271483393,0.7011323409832866
0.0525,1.7417665985482842,1.0,2919.922423884412,0.4462177424741306,1.3057446999469,0.9759979968922697,0.2862071971390279,0.7019138343570794
0.053,1.7409706459456322,1.0,2924.557433021252,0.44932401304092245,1.3053445200780827,0.976294843489513,0.28617376712971654,0.7026936353899407
0.0535,1.7401746933429805,1.0,2929.1576181382834,0.4524128764193775,1.3049446780201301,0.9765841924052708,0.2861403371204052,0.7034717581224463
0.054,1.7393787407403285,1.0,2933.723557623145,0.45548442555661534,1.3045451679065225,0.9768662982117019,0.28610690711109377,0.704248216533125
0.0545,1.7385827881376765,1.0,2938.255832689056,0.45853875339975575,1.30414598387074,0.9771414046381346,0.28607347710178244,0.7050230245385827
0.055,1.7377868355350248,1.0,2942.7550273313095,0.4615759528959185,1.303747120046263,0.9774097451238082,0.28604004709247105,0.7057961959936261
0.0555,1.7369908829323728,1.0,2947.2217282856486,0.4645961169922234,1.3033485705665717,0.9776715433379876,0.28600661708315966,0.7065677446913828
0.056,1.7361949303297208,1.0,2951.6565249870673,0.4675993386357901,1.3029503295651461,0.9779270136696316,0.2859731870738483,0.7073376843634227
0.0565,1.735398977727069,1.0,2956.0600095291,0.4705857107737384,1.3025523911754666,0.9781763616886325,0.2859397570645369,0.7081060286798706
0.057,1.734603025124417,1.0,2960.432776624012,0.473555326353188,1.3021547495310135,0.9784197845804963,0.2859063270552255,0.7088727912495233
0.0575,1.7338070725217651,1.0,2964.775423564195,0.4765082783212587,1.3017573987652669,0.9786574715561986,0.2858728970459141,0.7096379856199608
0.058,1.7330111199191134,1.0,2969.088550183575,0.47944465962507016,1.301360333011707,0.9788896042388208,0.2858394670366028,0.7104016252776566
0.0585,1.7322151673164614,1.0,2973.372758820196,0.48236456321174226,1.300963546403814,0.9791163570284567,0.28580603702729135,0.7111637236480843
0.059000000000000004,1.7314192147138094,1.0,2977.6286542799717,0.4852680820283946,1.3005670330750683,0.9793378974467768,0.28577260701798,0.7119242940958254
0.059500000000000004,1.7306232621111577,1.0,2981.856843799972,0.48815530902214704,1.3001707871589498,0.9795543864625328,0.28573917700866863,0.7126833499246698
0.06,1.7298273095085057,1.0,2986.0579370140495,0.4910263371401193,1.299774802788939,0.979765978799199,0.28570574699935725,0.713440904377719
0.0605,1.7290313569058537,1.0,2990.2325459178883,0.49388125932943105,1.2993790740985163,0.9799728232258645,0.28567231699004586,0.7141969706374844
0.061,1.728235404303202,1.0,2994.381284835744,0.49672016853720213,1.2989835952211615,0.9801750628324054,0.2856388869807345,0.7149515618259843
0.0615,1.72743945170055,1.0,2998.504770387258,0.49954315771055224,1.298588360290355,0.9803728352899067,0.2856054569714231,0.7157046910048379
0.062,1.7266434990978983,1.0,3002.6036108288995,0.5023503192981936,1.298193363531672,0.9805662730642777,0.2855720269621117,0.7164563710002172
0.0625,1.7258475464952463,1.0,3006.6769600033695,0.5051416765090195,1.2977986117857474,0.9807554991709896,0.28553859695280037,0.7172065906201586
0.063,1.7250515938925943,1.0,3010.727170903322,0.507917403508721,1.2974040841904095,0.9809406418697068,0.28550516694348893,0.7179553912846421
0.0635,1.7242556412899426,1.0,3014.754610107632,0.510677582627433,1.2970097771229907,0.9811218188020988,0.2854717369341776,0.7187027815476766
0.064,1.7234596886872906,1.0,3018.7596456414335,0.5134222961952901,1.2966156869608239,0.9812991433437078,0.2854383069248662,0.7194487699258882
0.0645,1.7226637360846386,1.0,3022.742646958797,0.5161516265424272,1.296221810081242,0.9814727247899532,0.28540487691555483,0.7201933648985734
0.065,1.7218677834819869,1.0,3026.703984925691,0.5188656559989789,1.2958281428615774,0.9816426685327259,0.28537144690624344,0.7209365749077492
0.0655,1.721071830879335,1.0,3030.644031802654,0.5215644668950801,1.2954346816791633,0.9818090762281023,0.28533801689693206,0.7216784083581997
0.066,1.720275878276683,1.0,3034.563161228236,0.5242481415608655,1.2950414229113323,0.9819720459556956,0.28530458688762067,0.7224188736175268
0.0665,1.7194799256740312,1.0,3038.461748202701,0.52691676232647,1.2946483629354169,0.9821316723701073,0.2852711568783093,0.7231579790161955
0.067,1.7186839730713792,1.0,3042.340169071742,0.5295704115220282,1.29425549812875,0.9822880468449346,0.28523772686899795,0.7238957328475805
0.0675,1.7178880204687272,1.0,3046.198801510586,0.5322091714776749,1.2938628248686643,0.9824412576097407,0.2852042968596865,0.7246321433680125
0.068,1.7170920678660755,1.0,3050.0380245089527,0.5348331245235449,1.2934703395324927,0.9825913898803824,0.2851708668503752,0.7253672187968223
0.0685,1.7162961152634235,1.0,3053.8582183550525,0.537442352989773,1.2930780384975677,0.9827385259830641,0.2851374368410638,0.7261009673163845
0.069,1.7155001626607715,1.0,3057.6597646213277,0.540036939206494,1.2926859181412225,0.982882745472453,0.2851040068317524,0.7268333970721608
0.0695,1.7147042100581198,1.0,3061.443046149522,0.5426169655038425,1.2922939748407893,0.9830241252441894,0.285070576822441,0.7275645161727424
0.07,1.7139082574554678,1.0,3065.208447036102,0.5451825142119534,1.2919022049736013,0.9831627396420836,0.28503714681312964,0.7282943326898905
0.07050000000000001,1.713112304852816,1.0,3068.9563526186694,0.5477336676609614,1.2915106049169909,0.9832986605602944,0.28500371680381825,0.729022854658578
0.07100000000000001,1.712316352250164,1.0,3072.6871494616894,0.5502705081810014,1.291119171048291,0.9834319575407507,0.28497028679450687,0.7297500900770277
