Time [s],Phi [rad],STIM [ ],Fsee [N],Gamma [ ],Lcerel [ ],q [ ],Lmtc [m],fisomrel [ ]
0.0,1.8,1.0,17.967189816064078,1.0394495488570398e-05,1.3793397426740341,0.005000028787259689,0.288653,0.5411395396300942
0.0005,1.79999375,1.0,18.27665167772393,0.0056195454993837705,1.3793023980609502,0.012941609687134866,0.2886527375,0.5412298814579479
0.001,1.799975,1.0,21.61856311050185,0.011197233601067452,1.378938283570801,0.035610633805312056,0.28865195,0.5421102590702014
0.0015,1.79994375,1.0,31.069949727419107,0.016743635283405542,1.3780461429225632,0.0706045217867515,0.2886506375,0.5442637558079493
0.002,1.7999,1.0,53.584079602129606,0.02225892603761268,1.3763680219349843,0.11472117269274675,0.2886488,0.5483007400023826
0.0025,1.79984375,1.0,97.12184508178991,0.027743280370817414,1.3739350271582416,0.1645783032778115,0.28864643749999996,0.5541217967607307
0.003,1.7997750000000001,1.0,160.96212857665083,0.03319687181377704,1.3712141954648949,0.21728397147545267,0.28864354999999997,0.560586801930328
0.0035,1.79969375,1.0,237.6879046792898,0.03861987292047077,1.3685845933691358,0.2706163861729818,0.2886401375,0.5667901706980509
0.004,1.7996,1.0,321.47171770173213,0.04401245527888155,1.366155961386411,0.3229191878368565,0.2886362,0.572480267669621
0.0045000000000000005,1.7994937500000001,1.0,409.27295195626203,0.04937478951618068,1.363922692075752,0.3730377218257935,0.2886317375,0.5776794457663823
0.005,1.799375,1.0,499.4188645098841,0.054707045289818686,1.361858228440294,0.42025046820681483,0.28862675,0.5824573421876658
0.0055,1.79924375,1.0,590.7958735777671,0.060009391334977694,1.3599387284326399,0.46417648318015103,0.2886212375,0.5868753564231325
0.006,1.7991000000000001,1.0,682.5236105325583,0.0652819954077608,1.358146314732167,0.5046825221176625,0.2886152,0.5909796468232383
0.006500000000000001,1.79894375,1.0,773.8869321005159,0.07052502434063514,1.3564671567544628,0.5418031000882367,0.2886086375,0.5948060145261136
0.007,1.798775,1.0,864.2910240984768,0.07573864402661729,1.3548903107915409,0.5756789186258969,0.28860155,0.5983828676858531
0.0075,1.79859375,1.0,953.2481388079806,0.08092301942822254,1.3534067034643036,0.6065118634249888,0.2885939375,0.6017337434518297
0.008,1.7984,1.0,1040.3564883489055,0.08607831448286654,1.352008675293573,0.6345338891494631,0.2885858,0.6048784837948468
0.0085,1.79819375,1.0,1125.322434385196,0.09120469264558523,1.350689125319583,0.6599860190477567,0.2885771375,0.6078352595107968
0.009000000000000001,1.797975,1.0,1207.8905038814462,0.0963023157541577,1.3494421672714432,0.683105768071259,0.28856795,0.6106191700658059
0.0095,1.79774375,1.0,1287.8758131703144,0.10137134505682416,1.3482623407213872,0.704118959921222,0.2885582375,0.6132440753675397
0.01,1.7975,1.0,1365.1648211608208,0.10641194139255707,1.3471444139164392,0.7232354867953805,0.288548,0.6157230736180227
0.0105,1.79724375,1.0,1439.663142275638,0.1114242639241492,1.3460839007914953,0.7406477725491797,0.2885372375,0.618067390347393
0.011,1.796975,1.0,1511.314919676608,0.1164084710855073,1.3450766427487328,0.7565302064466578,0.28852595000000003,0.6202873425678043
0.0115,1.79669375,1.0,1580.1114086706834,0.1213647207470104,1.3441185977909607,0.7710396090844466,0.2885141375,0.6223928273417827
0.012,1.7964,1.0,1646.0653704535516,0.12629317027768688,1.3432060671090806,0.7843164156611603,0.28850180000000003,0.6243928427918279
0.0125,1.79609375,1.0,1709.180758616994,0.1311939748104809,1.3423359568690088,0.7964860909963383,0.2884889375,0.6262949382480236
0.013000000000000001,1.7957750000000001,1.0,1769.4976534760453,0.13606728947833663,1.3415051732366616,0.8076602655441553,0.28847555,0.6281065582034366
0.0135,1.79544375,1.0,1827.0690930061496,0.14091326825890296,1.3407108443320699,0.8179382360891718,0.2884616375,0.6298345680947961
0.014,1.7951000000000001,1.0,1881.985518109862,0.14573206610344175,1.3399500037138117,0.8274081819881105,0.2884472,0.6314859533640926
0.0145,1.79474375,1.0,1934.2939447309243,0.15052383424671514,1.339220441602177,0.8361487152620227,0.2884322375,0.633065982140383
0.015,1.794375,1.0,1984.0594359404047,0.15528872378146738,1.3385199752812984,0.8442297185620091,0.28841675,0.6345798033659091
0.0155,1.79399375,1.0,2031.3657651908077,0.1600268858004427,1.3378464220353097,0.8517133580641348,0.2884007375,0.6360325099424089
0.016,1.7936,1.0,2076.2926931673587,0.16473847005135583,1.337197818992779,0.8586550627262594,0.2883842,0.6374286698549525
0.0165,1.7931937500000001,1.0,2118.9485230937207,0.16942362733693975,1.3365720604403093,0.865104210974293,0.2883671375,0.6387731126625154
0.017,1.792775,1.0,2159.4021461691646,0.17408250470523148,1.3359675858218794,0.8711050466549107,0.28834955,0.6400694556027364
0.0175,1.7923437500000001,1.0,2197.728279960954,0.1787152488710214,1.3353828845966786,0.8766971402026792,0.2883314375,0.6413211757640656
0.018000000000000002,1.7919,1.0,2234.011338706394,0.1833220065490998,1.3348164462238967,0.881915924159234,0.2883128,0.6425317198278077
0.0185,1.79144375,1.0,2268.335852553033,0.18790292344277662,1.334266847455368,0.8867931983350859,0.2882936375,0.6437043198094697
0.019,1.790975,1.0,2300.7942909517055,0.19245814607942832,1.3337326641142868,0.8913575288142682,0.28827395,0.6448421840024893
0.0195,1.79049375,1.0,2331.4617605471744,0.19698781822622086,1.3332127132135758,0.8956346747682566,0.2882537375,0.645947983905763
0.02,1.79,1.0,2360.4068437034607,0.20149208209942115,1.3327059333079267,0.8996478770334606,0.288233,0.647024113334507
0.0205,1.78949375,1.0,2387.7032403022267,0.20597107991529615,1.3322112629520302,0.9034181130689325,0.2882117375,0.6480729488769676
0.021,1.788975,1.0,2413.4293374163235,0.2104249538901127,1.3317276407005774,0.9069643481899915,0.28818995000000003,0.6490968507500914
0.021500000000000002,1.78844375,1.0,2437.65184001571,0.21485384385674788,1.3312541586551818,0.9103037873202671,0.2881676375,0.6500978392016825
0.022,1.7879,1.0,2460.4602171635897,0.2192578935310668,1.3307897254783436,0.9134519987791061,0.2881448,0.6510783084118689
0.0225,1.78734375,1.0,2481.911448105566,0.22363724081912723,1.330333594116779,0.9164231902505279,0.28812143749999997,0.6520399126208261
0.023,1.786775,1.0,2502.061286181898,0.2279920229895623,1.329885054778733,0.9192302931198646,0.28809755,0.6529842175817355
0.0235,1.78619375,1.0,2520.9678996281564,0.23232237731100513,1.3294433976724498,0.9218850884694472,0.28807313749999996,0.653912779751378
0.024,1.7856,1.0,2538.691668844965,0.23662844105208894,1.329007913006174,0.9243983252935396,0.2880482,0.6548271466177353
0.0245,1.78499375,1.0,2555.291737554893,0.24091035085347065,1.3285779215882183,0.926779830251173,0.2880227375,0.6557287928723428
0.025,1.784375,1.0,2570.820170479911,0.24516824177144825,1.3281528273931305,0.929038608346495,0.28799675,0.6566190110774692
0.025500000000000002,1.78374375,1.0,2585.3489395564084,0.2494022520971134,1.3277318628327799,0.9311828830315846,0.2879702375,0.6574994454214157
0.026000000000000002,1.7831000000000001,1.0,2598.919240770033,0.25361251373654853,1.3273145618602817,0.9332202461378981,0.2879432,0.658371102022359
0.0265,1.78244375,1.0,2611.573389350877,0.2577991585958362,1.3269004584287505,0.9351576718464868,0.2879156375,0.6592349817572474
0.027,1.781775,1.0,2623.354725994601,0.2619623185810588,1.3264890864913017,0.9370015752211912,0.28788755,0.6600920803637607
0.0275,1.7810937500000001,1.0,2634.3075278987803,0.2661021255982989,1.32607998000105,0.938757864482529,0.2878589375,0.6609433885284273
0.028,1.7804,1.0,2644.4769246151286,0.2702187115536389,1.3256726729111108,0.9404319877591425,0.2878298,0.6617898919608822
0.0285,1.77969375,1.0,2653.903601699432,0.274312205355581,1.3252667472659434,0.9420289806965817,0.2878001375,0.6626324716933447
0.029,1.778975,1.0,2662.631443423639,0.27838274039984984,1.3248617617847054,0.9435534962174091,0.28776995,0.6634720527108972
0.029500000000000002,1.7782437500000001,1.0,2670.6935664308935,0.2824304442723556,1.3244573797957444,0.9450098521289714,0.2877392375,0.664309338954337
0.03,1.7775,1.0,2678.121971812364,0.2864554435475945,1.3240532793666269,0.94640204987417,0.287708,0.665145000420073
0.0305,1.77674375,1.0,2684.9490977441933,0.29045786480006297,1.3236491385649187,0.9477338002395274,0.2876762375,0.6659797037824811
0.031,1.775975,1.0,2691.207778333076,0.2944378346042573,1.323244635458186,0.9490085481261837,0.28764395,0.6668141123963791
0.0315,1.7751937500000001,1.0,2696.9312047594776,0.29839547953467377,1.3228394481139951,0.9502294949187232,0.2876111375,0.6676488862928924
0.032,1.7744,1.0,2702.141856053571,0.30233092076934687,1.3224333553889522,0.9513996293790004,0.2875778,0.6684844749126966
0.0325,1.77359375,1.0,2706.8747090811453,0.3062442881280806,1.3220260243250321,0.9525217236268506,0.2875439375,0.6693215550300186
0.033,1.772775,1.0,2711.1653212152787,0.310135710511351,1.3216171190733843,0.9535983608274066,0.28750955,0.6701608058639559
0.0335,1.7719437500000002,1.0,2715.0331874893654,0.31400530803492194,1.3212064522988458,0.9546319655133331,0.2874746375,0.6710025988571087
0.034,1.7711000000000001,1.0,2718.4979651490403,0.3178532008145572,1.3207938366662537,0.9556248015881749,0.2874392,0.6718473034341357
0.0345,1.7702437500000001,1.0,2721.579457910551,0.3216795089660206,1.320379084840446,0.9565789848635913,0.2874032375,0.6726952869795866
0.035,1.7693750000000001,1.0,2724.297600997464,0.3254843526050759,1.3199620094862592,0.9574964944780844,0.28736675,0.6735469148135045
0.035500000000000004,1.76849375,1.0,2726.672446955008,0.32926785184748686,1.3195424232685313,0.9583791833087073,0.2873297375,0.6744025501647792
0.036000000000000004,1.7676,1.0,2728.724152242673,0.3330301268090174,1.3191201388520994,0.959228787475022,0.2872922,0.675262554142273
0.0365,1.76669375,1.0,2730.4729646050764,0.3367712976054311,1.3186949689018008,0.9600469350238416,0.2872541375,0.6761272857036997
0.037,1.765775,1.0,2731.9392112206297,0.340491484352492,1.3182667260824728,0.9608351538737834,0.28721555,0.6769971016222713
0.0375,1.76484375,1.0,2733.135206377415,0.3441907983961481,1.3178352964655538,0.9615948844002731,0.2871764375,0.6778722076551453
0.038,1.7639,1.0,2734.0848559294027,0.34786936754186065,1.3174004613241188,0.9623274738361189,0.28713679999999997,0.6787530202526677
0.0385,1.76294375,1.0,2734.8019160571384,0.35152730733286613,1.3169620945739788,0.963034195666394,0.28709663750000003,0.6796397659543243
0.039,1.761975,1.0,2735.2981794156494,0.3551647309034879,1.3165200883066719,0.9637162498554442,0.28705595,0.6805326329666347
0.0395,1.7609937500000001,1.0,2735.5854707146764,0.35878175138804896,1.316074334613736,0.9643747667579663,0.2870147375,0.6814318080308802
0.04,1.76,1.0,2735.6756420485144,0.3623784819208728,1.315624725586709,0.9650108118978593,0.286973,0.6823374763976868
0.0405,1.7589937500000001,1.0,2735.5805684850097,0.3659550356362825,1.3151711533171293,0.9656253903701295,0.2869307375,0.6832498218008628
0.041,1.757975,1.0,2735.312143912526,0.36951152566860135,1.3147135098965348,0.9662194508992372,0.28688795,0.6841690264304965
0.0415,1.75694375,1.0,2734.8822771450177,0.3730480651521526,1.3142516874164634,0.9667938895840136,0.2868446375,0.6850952709053106
0.042,1.7559,1.0,2734.3028882852727,0.3765647672212595,1.3137855779684533,0.967349553356357,0.28680079999999997,0.6860287342442721
0.0425,1.75484375,1.0,2733.5863238737393,0.3800617448154985,1.3133150698426321,0.9678872428325258,0.2867564375,0.6869696014333755
0.043000000000000003,1.753775,1.0,2732.7420023598947,0.38353910817631515,1.3128400779697371,0.968407717377518,0.28671155,0.6879180026016862
0.043500000000000004,1.75269375,1.0,2731.774499310816,0.386996966669274,1.312360561315204,0.9689116994058931,0.28666613750000003,0.6888739787463349
0.044,1.7516,1.0,2730.6922352019333,0.3904354290742376,1.3118764439520094,0.9693998704919563,0.2866202,0.6898376393745189
0.0445,1.75049375,1.0,2729.503631507425,0.39385460417106877,1.3113876499531303,0.9698728767540962,0.2865737375,0.6908090926551875
0.045,1.7493750000000001,1.0,2728.189076721361,0.39725459909366473,1.3108943582549675,0.9703313503397254,0.28652675,0.6917879400677039
0.0455,1.74824375,1.0,2726.815323372924,0.4006355242798396,1.3103959626293848,0.970775832215583,0.2864792375,0.692775339232709
0.046,1.7471,1.0,2725.3825765846427,0.40399748625674653,1.3098924616195502,0.9712068807875289,0.2864312,0.693771244360254
0.0465,1.745943931165642,1.0,2723.873653988061,0.40734059017512997,1.3093840938101187,0.9716250439950178,0.28638264510895695,0.694775135514323
0.047,1.7447835593435124,1.0,2722.660155026101,0.4106649411857344,1.308871097785746,0.9720308425789962,0.28633390949242754,0.695786495384656
0.0475,1.7436231875213828,1.0,2721.929162555818,0.4139706444393042,1.3083537121310875,0.9724247716945573,0.2862851738758981,0.6968048093589873
0.048,1.742462815699253,1.0,2721.654271980054,0.41725780508658394,1.3078321754307989,0.9728073024136621,0.2862364382593686,0.6978295655916513
0.0485,1.7413024438771234,1.0,2721.810832451398,0.4205265266075625,1.307306711438679,0.9731788818867311,0.2861877026428392,0.6988602841350272
0.049,1.7401420720549938,1.0,2722.3494256708623,0.4237769145693028,1.3067777702747119,0.9735399517790835,0.28613896702630975,0.6998960448510081
0.0495,1.738981700232864,1.0,2723.2386108886835,0.42700907157422474,1.306245639082731,0.9738909214457011,0.2860902314097803,0.7009362517308981
0.05,1.7378213284107344,1.0,2724.453666621425,0.4302230986803649,1.3057105443413521,0.9742321768685553,0.28604149579325083,0.7019804307350579
0.0505,1.7366609565886049,1.0,2725.9699106864855,0.4334190969457599,1.3051727125291914,0.9745640861907067,0.2859927601767214,0.7030281107384423
0.051000000000000004,1.7355005847664753,1.0,2727.7626858898543,0.4365971674284462,1.3046323701248645,0.974887000705997,0.28594402456019197,0.7040788235717714
0.051500000000000004,1.7343402129443455,1.0,2729.8073468505486,0.4397574111864603,1.3040897436069876,0.9752012557854901,0.2858952889436625,0.7051321040594278
0.052000000000000005,1.733179841122216,1.0,2732.0870150212936,0.4428999252811219,1.3035449888879347,0.975507166805118,0.28584655332713305,0.7061876266614273
0.0525,1.7320194693000863,1.0,2734.573525292125,0.4460248140358161,1.3029983644026564,0.9758050423824326,0.28579781771060364,0.7072448698001119
0.053,1.7308590974779567,1.0,2737.246017079724,0.44913217830419044,1.3024500620466835,0.9760951730134794,0.2857490820940742,0.7083034437753741
0.0535,1.729698725655827,1.0,2740.0923151530906,0.45222211428190817,1.3019001947306161,0.9763778311724124,0.2857003464775447,0.709363113589337
0.054,1.7285383538336974,1.0,2743.100235519568,0.4552947181646327,1.3013488753650544,0.9766532775786714,0.2856516108610153,0.7104236457787529
0.0545,1.7273779820115678,1.0,2746.25758164829,0.45835008614802736,1.300796216860598,0.9769217618063871,0.28560287524448585,0.7114848084258677
0.055,1.726217610189438,1.0,2749.5521409768185,0.4613883144277554,1.3002423321278473,0.9771835228572988,0.2855541396279564,0.7125463711684675
0.0555,1.7250572383673084,1.0,2752.9716816997743,0.46440949919948027,1.299687334077402,0.9774387896996497,0.28550540401142693,0.7136081052091188
0.056,1.7238968665451788,1.0,2756.503949840598,0.4674137366588653,1.2991313356198626,0.9776877817753521,0.28545666839489753,0.7146697833235878
0.0565,1.7227364947230492,1.0,2760.136666605634,0.4704011230015738,1.2985744496658287,0.9779307094775262,0.28540793277836807,0.7157311798684551
0.057,1.7215761229009194,1.0,2763.86337436044,0.47337174827495015,1.2980167362981792,0.9781677710187439,0.2853591971618386,0.716792171193181
0.0575,1.7204157510787899,1.0,2767.670605754998,0.47632571334702134,1.2974583187557187,0.9783991611357968,0.28531046154530915,0.7178525146780015
0.058,1.7192553792566603,1.0,2771.54934307868,0.4792631135268939,1.2968992798342733,0.9786250639781222,0.28526172592877974,0.7189120460264344
0.0585,1.7180950074345307,1.0,2775.4945080615257,0.48218403944687305,1.296339666613251,0.978845653976685,0.2852129903122503,0.7199706696159034
0.059000000000000004,1.716934635612401,1.0,2779.50100989893,0.485088581739264,1.2957795261720593,0.9790610986858986,0.2851642546957208,0.7210282904892606
0.059500000000000004,1.7157742637902713,1.0,2783.5637446767805,0.48797683103637207,1.2952189055901062,0.9792715591100374,0.2851155190791914,0.7220848143564411
0.06,1.7146138919681417,1.0,2787.677594845406,0.49084887797050236,1.2946578519467995,0.9794771900117119,0.28506678346266195,0.7231401475959758
0.0605,1.713453520146012,1.0,2791.837428743265,0.4937048131739603,1.2940964123215473,0.9796781402035168,0.2850180478461325,0.7241941972563599
0.061,1.7122931483238824,1.0,2796.0381001695105,0.4965447272790509,1.2935346337937572,0.9798745528238981,0.2849693122296031,0.7252468710572859
0.0615,1.7111327765017528,1.0,2800.2744480052042,0.4993687109180796,1.2929725634428373,0.9800665655982045,0.28492057661307363,0.7262980773907293
0.062,1.7099724046796232,1.0,2804.5412958847924,0.5021768547233515,1.292410248348195,0.9802543110858243,0.28487184099654417,0.7273477253218972
0.0625,1.7088120328574934,1.0,2808.8378537900207,0.504969236658154,1.2918476961469725,0.9804379139164243,0.2848231053800147,0.7283957980028841
0.063,1.7076516610353638,1.0,2813.1573011664336,0.5077459571816465,1.2912849684504462,0.9806174985792874,0.28477436976348525,0.7294421784273679
0.0635,1.7064912892132342,1.0,2817.494346943758,0.5105071117092153,1.2907221129994861,0.9807931839165722,0.28472563414695584,0.7304867761897769
0.064,1.7053309173911047,1.0,2821.847319985975,0.5132527843954365,1.2901591450283332,0.9809650819930222,0.2846768985304264,0.7315295617232995
0.0645,1.7041705455689748,1.0,2826.2145439900924,0.5159830593948865,1.289596079771228,0.9811333008404962,0.2846281629138969,0.7325705056796445
0.065,1.7030101737468453,1.0,2830.5943374504445,0.5186980208621417,1.2890329324624112,0.9812979446330139,0.2845794272973675,0.733609578929143
0.0655,1.7018498019247157,1.0,2834.9850136280693,0.5213977529517783,1.288469718336124,0.981459113852982,0.28453069168083805,0.7346467525608331
0.066,1.700689430102586,1.0,2839.384880526235,0.5240823398183725,1.2879064526266069,0.9816169054491114,0.2844819560643086,0.7356819978825363
0.0665,1.6995290582804563,1.0,2843.792240870113,0.5267518656165008,1.2873431505681006,0.9817714129864912,0.2844332204477792,0.7367152864209117
0.067,1.6983686864583267,1.0,2848.2053920915896,0.5294064145007393,1.2867798273948459,0.9819227267892692,0.28438448483124973,0.7377465899215001
0.0675,1.6972083146361971,1.0,2852.6226263202334,0.5320460706256646,1.2862164983410835,0.9820709340763469,0.28433574921472027,0.7387758803487516
0.068,1.6960479428140673,1.0,2857.042230378299,0.5346709181458527,1.2856531786410546,0.982216119090481,0.2842870135981908,0.7398031298860388
0.0685,1.6948875709919378,1.0,2861.462485781481,0.5372810412158799,1.2850898835289992,0.9823583632211519,0.2842382779816614,0.7408283109356558
0.069,1.6937271991698082,1.0,2865.881668744381,0.5398765239903227,1.2845266282391588,0.9824977451215471,0.28418954236513194,0.7418513961187996
0.0695,1.6925668273476786,1.0,2870.298050191717,0.5424574506237573,1.2839634280057737,0.9826343408199733,0.2841408067486025,0.7428723582755414
0.07,1.6914064555255488,1.0,2874.7134223704666,0.545023873077066,1.2834002668277644,0.9827682203995951,0.284092071132073,0.7438912269194895
0.07050000000000001,1.6902460837034192,1.0,2879.1234533962715,0.547575914234885,1.2828371829535805,0.9828994584724576,0.2840433355155436,0.7449079334785804
0.07100000000000001,1.6890857118812896,1.0,2883.527611098949,0.5501136526261563,1.2822741809119353,0.9830281229763533,0.28399459989901416,0.7459224706329592
0.07150000000000001,1.6879253400591598,1.0,2887.9255318754977,0.5526371649616693,1.2817112637285024,0.9831542794738349,0.2839458642824847,0.7469348338280937
0.07200000000000001,1.6867649682370303,1.0,2892.31685112632,0.5551465279522135,1.2811484344289559,0.9832779914213863,0.2838971286659553,0.747945018552765
0.0725,1.6856045964149007,1.0,2896.701203261183,0.5576418183085784,1.2805856960389692,0.9833993202512745,0.28384839304942583,0.7489530203390535
