Time [s],Phi [rad],STIM [ ],Fsee [N],Gamma [ ],Lcerel [ ],q [ ],Lmtc [m],fisomrel [ ]
0.0,1.8,1.0,17.968754659139485,1.273921379357759e-05,1.3793395673632483,0.005000043169939935,0.288653,0.5411399637521161
0.0005,1.79999375,1.0,18.278861877856595,0.005621877065673651,1.3793021525575384,0.012948117665163874,0.2886527375,0.5412304753355162
0.001,1.799975,1.0,21.62243564101633,0.011199552089114264,1.3789378880681795,0.03562284300294006,0.28865195,0.5421112148801909
0.0015,1.79994375,1.0,31.077521603383186,0.016745940766568095,1.378045497871439,0.07062123079386874,0.2886506375,0.5442653110304079
0.002,1.7999,1.0,53.59908370704966,0.022261218588836087,1.3763670486294692,0.1147409608558353,0.2886488,0.5483030762306849
0.0025,1.79984375,1.0,97.14626476981188,0.027745560062642297,1.3739338505233283,0.16459983365699696,0.28864643749999996,0.5541246027831543
0.003,1.7997750000000001,1.0,160.99348909892416,0.03319913871833315,1.371213021682316,0.21730618713412805,0.28864354999999997,0.5605895807827947
0.0035,1.79969375,1.0,237.72309795714744,0.038622127109483664,1.3685835093736336,0.27063848561133397,0.2886401375,0.566792718806813
0.004,1.7996,1.0,321.50899493450737,0.044014696823675814,1.3661549740911128,0.32294058881027726,0.2886362,0.5724825731770936
0.0045000000000000005,1.7994937500000001,1.0,409.31142993653975,0.04937701848768439,1.3639217888778574,0.3730580389211158,0.2886317375,0.5776815420278705
0.005,1.799375,1.0,499.4580207650607,0.05470926175856419,1.361857396393897,0.42026947790051356,0.28862675,0.5824592623566014
0.0055,1.79924375,1.0,590.8353107152835,0.06001159537106812,1.3599379579430262,0.4641940841250923,0.2886212375,0.5868771251014169
0.006,1.7991000000000001,1.0,682.5630288389486,0.06528418708094429,1.358145598225512,0.504698698055933,0.2886152,0.5909812833918692
0.006500000000000001,1.79894375,1.0,773.9085170560228,0.07052720347018344,1.3564667882890302,0.5418180804283191,0.2886086375,0.5948068521903818
0.007,1.798775,1.0,864.3365339006891,0.07574081124794724,1.354889575674301,0.5756923285169779,0.28860155,0.5983845314978147
0.0075,1.79859375,1.0,953.3008779865318,0.08092517461092617,1.3534058922945484,0.6065239842931408,0.2885939375,0.6017355717203254
0.008,1.7984,1.0,1040.401926435764,0.08608045750582778,1.3520080063159616,0.6345449562216446,0.2885858,0.6048799856169067
0.0085,1.79819375,1.0,1125.361035207723,0.09120682350123199,1.3506885788805372,0.6599961190177653,0.2885771375,0.6078364816414199
0.009000000000000001,1.797975,1.0,1207.9251857376785,0.09630443464375961,1.3494416933866082,0.6831149684377072,0.28856795,0.6106202261578434
0.0095,1.79774375,1.0,1287.9137937361033,0.10137345216317074,1.3482618381374403,0.7041272969225107,0.2885582375,0.6132451916362607
0.01,1.7975,1.0,1365.2003470404343,0.10641403659504313,1.3471439573154498,0.7232430857003815,0.288548,0.6157240845005395
0.0105,1.79724375,1.0,1439.696084398664,0.11142634740127218,1.346083488498425,0.7406547094250239,0.2885372375,0.618068300346813
0.011,1.796975,1.0,1511.3462827296214,0.11641054292832852,1.3450762596365418,0.7565365430453876,0.28852595000000003,0.6202881856991519
0.0115,1.79669375,1.0,1580.1314997792463,0.12136678060160153,1.3441183577717277,0.7710454587760055,0.2885141375,0.6223933540959478
0.012,1.7964,1.0,1646.0861947757405,0.12629521876085648,1.343205823365414,0.7843217667593911,0.28850180000000003,0.6243933763012379
0.0125,1.79609375,1.0,1709.2070584908881,0.13119601215647286,1.3423356547727299,0.7964909715435844,0.2884889375,0.6262955978039743
0.013000000000000001,1.7957750000000001,1.0,1769.52382385183,0.13606931542866274,1.3415048777956813,0.8076647480692001,0.28847555,0.6281072016637653
0.0135,1.79544375,1.0,1827.0972102841527,0.1409152831221336,1.34071053195331,0.8179423517361858,0.2884616375,0.6298352468625401
0.014,1.7951000000000001,1.0,1881.9980040554888,0.1457340686814607,1.3399498670353889,0.8274120360995191,0.2884472,0.6314862496894816
0.0145,1.79474375,1.0,1934.3059814826547,0.15052582566596517,1.3392203116346757,0.8361522759709014,0.2884322375,0.6330662633114589
0.015,1.794375,1.0,1984.0766246940047,0.15529070448651988,1.3385197920272895,0.844232993943843,0.28841675,0.6345801989980888
0.0155,1.79399375,1.0,2031.383565000253,0.16002885555399765,1.337846234489349,0.85171639031272,0.2884007375,0.6360329140349741
0.016,1.7936,1.0,2076.314585375371,0.16474042905133685,1.3371975908369798,0.8586578630003082,0.2883842,0.6374291605029871
0.0165,1.7931937500000001,1.0,2118.957092007259,0.16942557408695877,1.336571972040262,0.8651068531191228,0.2883671375,0.638773302413677
0.017,1.792775,1.0,2159.4118818520737,0.1740844406585434,1.3359674863302498,0.8711075030161632,0.28834955,0.6400696687784868
0.0175,1.7923437500000001,1.0,2197.745148702496,0.1787171746668142,1.3353827137202217,0.8766994106883587,0.2883314375,0.6413215412552928
0.018000000000000002,1.7919,1.0,2234.032439223435,0.1833239220124947,1.3348162342234564,0.8819180325076139,0.2883128,0.6425321725141058
0.0185,1.79144375,1.0,2268.3578769442056,0.18790482859630836,1.3342666278532331,0.8867951669483793,0.2882936375,0.643704787957998
0.019,1.790975,1.0,2300.805370917706,0.19246003933894687,1.3337325544193992,0.8913593975322911,0.28827395,0.6448424174767307
0.0195,1.79049375,1.0,2331.4653883907577,0.19698969975816163,1.3332126775338415,0.89563644353591,0.2882537375,0.6459480597280872
0.02,1.79,1.0,2360.4177400873577,0.2014939536353004,1.332705826801494,0.8996495213774733,0.288233,0.6470243393250457
0.0205,1.78949375,1.0,2387.725982208752,0.20597294205319874,1.3322110419363735,0.9034196330635107,0.2882117375,0.6480734171414193
0.021,1.788975,1.0,2413.45810153758,0.21042680609469222,1.331727362652497,0.9069657654263036,0.28818995000000003,0.6490974389911311
0.021500000000000002,1.78844375,1.0,2437.6861485748495,0.21485568684261638,1.3312538286638815,0.9103051111160931,0.2881676375,0.6500985363377545
0.022,1.787900735694442,1.0,2460.5185801506796,0.21925972453435122,1.330789498981815,0.9134532662990692,0.28814483089916654,0.6510787862352035
0.0225,1.7873550243260476,1.0,2482.434033540601,0.22363905919180854,1.3303337046086907,0.9164244525097018,0.288121911021694,0.652039679845339
0.023,1.7868093129576532,1.0,2503.588186673546,0.22799383129118195,1.3298860571319806,0.9192316612947721,0.28809899114422144,0.6529821087688636
0.0235,1.786263601589259,1.0,2524.003631766325,0.23232417684039566,1.3294462399438896,0.9218867373098389,0.2880760712667489,0.6539068079937282
0.024,1.7857178902208646,1.0,2543.703923023264,0.2366302318473739,1.3290139364366231,0.9244004855310297,0.28805315138927634,0.6548145077502479
0.0245,1.7851721788524701,1.0,2562.713522781479,0.24091213232004086,1.328588830002387,0.9267827767904384,0.28803023151180374,0.6557059336660156
0.025,1.784626467484076,1.0,2581.057749878789,0.24517001426632076,1.3281706040333863,0.9290426413285582,0.2880073116343312,0.6565818069144209
0.025500000000000002,1.7840807561156815,1.0,2598.7560597805395,0.24940400867450171,1.327759004060263,0.931188359758064,0.28798439175685864,0.6574427144688284
0.026000000000000002,1.783535044747287,1.0,2615.8400100721224,0.2536142549163319,1.3273536694881782,0.933227514985084,0.28796147187938603,0.6582894613285222
0.0265,1.7829893333788929,1.0,2632.338598242872,0.2578008904913944,1.3269542706332713,0.9351670765390772,0.2879385520019135,0.6591227835289082
0.027,1.7824436220104984,1.0,2648.2705029707367,0.2619640448659633,1.3265605794048423,0.9370134669109342,0.28791563212444093,0.6599432014629263
0.0275,1.7818979106421042,1.0,2663.6549233521982,0.2661038475063128,1.326172367712191,0.938772600663457,0.2878927122469684,0.6607512325925486
0.028,1.7813521992737098,1.0,2678.511550614438,0.27022042787871675,1.325789407464618,0.9404499313233684,0.28786979236949584,0.661547391530144
0.0285,1.7808064879053154,1.0,2692.8605409816255,0.2743139154494494,1.3254114705714228,0.9420504933779276,0.28784687249202323,0.6623321901165307
0.029,1.7802607765369212,1.0,2706.7224896947296,0.27838443968478466,1.3250383289419057,0.9435789399403868,0.2878239526145507,0.6631061374957065
0.029500000000000002,1.7797150651685267,1.0,2720.1184061841527,0.2824321300509966,1.3246697544853665,0.9450395765781264,0.28780103273707813,0.6638697401862623
0.03,1.7791693538001323,1.0,2733.0696903964017,0.28645711601435936,1.3243055191111057,0.9464363917362406,0.28777811285960553,0.6646235021494779
0.0305,1.778623642431738,1.0,2745.592740095057,0.2904595219024867,1.323945443398037,0.9477730887503331,0.287755192982133,0.6653678243037282
0.031,1.7780779310633437,1.0,2757.707299690021,0.29443947650563546,1.323589320367609,0.9490531035523763,0.28773227310466043,0.6661031624490718
0.0315,1.7775322196949492,1.0,2769.4382518620114,0.2983971138236586,1.3232368994623043,0.9502796253769745,0.2877093532271879,0.6668300600318757
0.032,1.776986508326555,1.0,2780.798444596816,0.3023325557607828,1.322888041481442,0.9514556309008603,0.28768643334971533,0.6675488286616029
0.0325,1.7764407969581606,1.0,2791.8009389826875,0.30624592422123487,1.3225426072243405,0.9525838919219152,0.2876635134722427,0.6682597784595817
0.033,1.7758950855897662,1.0,2802.458998429102,0.31013734110924157,1.322200457490319,0.9536669919573504,0.2876405935947702,0.6689632180900165
0.0335,1.775349374221372,1.0,2812.7860783146657,0.31400692832902966,1.3218614530786965,0.9547073413076759,0.28761767371729763,0.6696594547897642
0.034,1.7748036628529775,1.0,2822.7958160650983,0.31785480778482594,1.3215254547887918,0.9557071907446163,0.287594753839825,0.6703487943968769
0.0345,1.774257951484583,1.0,2832.502021660833,0.32168110138085715,1.3211923234199237,0.9566686439632515,0.2875718339623525,0.6710315413779055
0.035,1.7737122401161889,1.0,2841.9186685737645,0.32548593102135,1.3208619197714113,0.9575936689229875,0.2875489140848799,0.6717079988539681
0.035500000000000004,1.7731665287477945,1.0,2851.059885134071,0.3292694186105313,1.3205341046425731,0.9584841081881701,0.2875259942074074,0.6723784686255867
0.036000000000000004,1.7726208173794,1.0,2859.93677863039,0.3330316812706278,1.320208766961615,0.9593416901545129,0.2875030743299348,0.6730431937529406
0.0365,1.7720751060110058,1.0,2868.559331390402,0.3367728364265435,1.319885806693325,0.9601680369841397,0.2874801544524622,0.6737023937377574
0.037,1.7715293946426114,1.0,2876.946271989159,0.34049301548081834,1.3195650473097178,0.960964666692592,0.2874572345749897,0.6743564430418936
0.0375,1.7709836832742172,1.0,2885.105416323182,0.3441923325590194,1.3192464100920716,0.961733010971703,0.2874343146975171,0.6750055154442758
0.038,1.7704379719058227,1.0,2893.044661394339,0.34787090178671376,1.3189298163216647,0.9624744156900578,0.2874113948200445,0.6756497839956288
0.0385,1.7698922605374283,1.0,2900.7719816749373,0.35152883728946854,1.3186151872797753,0.9631901469840238,0.28738847494257197,0.6762894210289341
0.039,1.769346549169034,1.0,2908.2954256095536,0.35516625319285083,1.318302444247682,0.9638813968526637,0.2873655550650994,0.6769245981694875
0.0395,1.7688008378006397,1.0,2915.623112255172,0.35878326362242774,1.3179915085066627,0.9645492883018738,0.28734263518762687,0.6775554863445697
0.04,1.7682551264322453,1.0,2922.7632280575904,0.3623799827037663,1.3176823013379961,0.9651948800785237,0.2873197153101543,0.6781822557927124
0.0405,1.767709415063851,1.0,2929.724023766404,0.36595652456243366,1.3173747440229604,0.9658191710312946,0.2872967954326817,0.6788050760725777
0.041,1.7671637036954566,1.0,2936.513811486664,0.3695130033239969,1.3170687578428337,0.9664231041312972,0.28727387555520917,0.6794241160714365
0.0415,1.7666179923270622,1.0,2943.1409618676885,0.3730495331140231,1.3167642640788946,0.9670075701823009,0.2872509556777366,0.6800395440132536
0.042,1.766072280958668,1.0,2949.6127317207142,0.37656622491949404,1.3164611942402344,0.9675734115778681,0.28722803580026407,0.6806515068241219
0.0425,1.7655265695902735,1.0,2955.931332143094,0.3800631784172438,1.3161595243299926,0.9681214269505599,0.28720511592279147,0.6812600611461506
0.043000000000000003,1.7649808582218791,1.0,2962.1116167590276,0.38354052886709805,1.3158591202573442,0.9686523689788294,0.2871821960453189,0.6818654851730122
0.043500000000000004,1.764435146853485,1.0,2968.1578920910974,0.38699838223227834,1.3155599405246352,0.9691669532002575,0.28715927616784637,0.6824678696941604
0.044,1.7638894354850905,1.0,2974.074494267639,0.3904368444760061,1.3152619436342112,0.9696658576834027,0.2871363562903738,0.6830673051529956
0.0445,1.763343724116696,1.0,2979.8657879149437,0.39385602156150284,1.3149650880884183,0.9701497253612086,0.2871134364129012,0.6836638816500475
0.045,1.7627980127483018,1.0,2985.536165088506,0.39725601945198996,1.3146693323896024,0.9706191661969436,0.28709051653542866,0.6842576889460521
0.0455,1.7622523013799074,1.0,2991.0900442413817,0.400636944110689,1.3143746350401093,0.9710747591962117,0.2870675966579561,0.6848488164649174
0.046,1.761706590011513,1.0,2996.531869231861,0.4039989015008214,1.3140809545422851,0.9715170542773746,0.2870446767804835,0.6854373532965785
0.0465,1.7611608786431188,1.0,3001.866108368813,0.4073419975856087,1.3137882493984756,0.9719465740116104,0.287021756903011,0.6860233881997452
0.047,1.7606151672747243,1.0,3007.0972534945795,0.4106663383282722,1.3134964781110265,0.9723638152428691,0.2869988370255384,0.6866070096045366
0.0475,1.7600694559063301,1.0,3012.2298191076115,0.4139720296920335,1.313205599182284,0.9727692505970668,0.28697591714806586,0.6871883056150079
0.048,1.7595237445379357,1.0,3017.268341521519,0.4172591776401141,1.312915571114594,0.9731633298890733,0.2869529972705933,0.6877673640115675
0.0485,1.7589780331695413,1.0,3022.217378063652,0.4205278881357354,1.312626352410302,0.9735464814353031,0.2869300773931207,0.6883442722532835
0.049,1.758432321801147,1.0,3027.079929453353,0.4237782589415595,1.3123379151820607,0.9739191132195583,0.28690715751564816,0.6889190903690174
0.0495,1.7578866104327526,1.0,3031.8571754127247,0.4270103821168045,1.3120502473731182,0.9742816145189886,0.2868842376381756,0.6894918466657391
0.05,1.7573408990643582,1.0,3036.557986357496,0.4302243912726408,1.311763270722066,0.974634356982218,0.28686131776070306,0.6900627009843103
0.0505,1.756795187695964,1.0,3041.184518065719,0.4334203836253793,1.3114769650606226,0.9749776947535563,0.2868383978832305,0.6906316971831112
0.051000000000000004,1.7562494763275696,1.0,3045.7389364996625,0.436598456391331,1.3111913102205046,0.9753119658680279,0.2868154780057579,0.6911988789644313
0.051500000000000004,1.7557037649591751,1.0,3050.223417510624,0.43975870678680684,1.3109062860334302,0.9756374931263645,0.28679255812828536,0.6917642898753154
0.052000000000000005,1.755158053590781,1.0,3054.640146551863,0.44290123202811776,1.3106218723311167,0.9759545849150366,0.2867696382508128,0.6923279733083911
0.0525,1.7546123422223865,1.0,3058.9913184014554,0.44602612933157465,1.3103380489452816,0.976263535975233,0.2867467183733402,0.6928899725026658
0.053,1.754066630853992,1.0,3063.2791368938138,0.4491334959134886,1.3100547957076427,0.9765646281243833,0.28672379849586765,0.6934503305442983
0.0535,1.7535209194855979,1.0,3067.505814660131,0.45222342899017054,1.3097720924499177,0.9768581309335328,0.2867008786183951,0.6940090903673459
0.054,1.7529752081172034,1.0,3071.6735728779363,0.4552960257779313,1.3094899190038236,0.9771443023636298,0.28667795874092256,0.6945662947544857
0.0545,1.752429496748809,1.0,3075.7846410297125,0.458351383493082,1.3092082552010786,0.9774233893635453,0.28665503886345,0.695121986337706
0.055,1.7518837853804148,1.0,3079.8412566704933,0.46138959935193347,1.3089270808734,0.9776956284324256,0.2866321189859774,0.6956762075989791
0.0555,1.7513380740120204,1.0,3083.8456652046184,0.4644107705707967,1.308646375852505,0.9779612461487928,0.28660919910850485,0.6962290008708998
0.056,1.750792362643626,1.0,3087.800119671022,0.46741499436598266,1.308366119970112,0.9782204596686161,0.2865862792310323,0.6967804083373039
0.0565,1.7502466512752317,1.0,3091.7068805381614,0.47040236795380225,1.308086293057938,0.9784734771944136,0.2865633593535597,0.6973304720338596
0.057,1.7497009399068373,1.0,3095.5682155077625,0.4733729885505665,1.3078068749477008,0.9787204984172956,0.28654043947608715,0.6978792338486305
0.0575,1.7491552285384429,1.0,3099.381273872904,0.47632689701567094,1.3075278891913096,0.9789617124826091,0.2865175195986146,0.6984266497753113
0.058,1.7486095171700486,1.0,3103.153326142566,0.479264257428597,1.3072492730112453,0.9791973067996613,0.28649459972114205,0.6989728451341239
0.0585,1.7480638058016542,1.0,3106.8856909325805,0.48218516155761226,1.3069710144996232,0.9794274578714531,0.2864716798436695,0.6995178452075005
0.059000000000000004,1.74751809443326,1.0,3110.5793264563063,0.4850896968952605,1.3066931048532695,0.9796523350502658,0.2864487599661969,0.7000616691181807
0.059500000000000004,1.7469723830648656,1.0,3114.2351942067216,0.4879779509340857,1.3064155352690106,0.9798721010681402,0.28642584008872435,0.7006043359241255
0.06,1.7464266716964711,1.0,3117.854258888769,0.49085001116663174,1.3061382969436723,0.980086912347176,0.2864029202112518,0.7011458646187114
0.0605,1.745880960328077,1.0,3121.43748835409,0.4937059650854426,1.305861381074081,0.980296919292964,0.2863800003337792,0.701686274130918
0.061,1.7453352489596825,1.0,3124.9858535373646,0.4965459001830622,1.3055847788570627,0.980502266572193,0.28635708045630665,0.7022255833255105
0.0615,1.744789537591288,1.0,3128.500328393748,0.49936990395203446,1.3053084814894438,0.9807030933754004,0.2863341605788341,0.7027638110032206
0.062,1.7442438262228939,1.0,3131.981889839104,0.5021780638849033,1.3050324801680502,0.9808995336657648,0.28631124070136155,0.7033009759009186
0.0625,1.7436981148544994,1.0,3135.4315176909427,0.5049704674742125,1.3047567660897084,0.9810917164147861,0.286288320823889,0.7038370966917818
0.063,1.743152403486105,1.0,3138.8501946116394,0.5077472022125061,1.3044813304512441,0.9812797658256358,0.2862654009464164,0.7043721919854601
0.0635,1.7426066921177108,1.0,3142.238906053334,0.5105083555923281,1.304206164449484,0.9814638015449051,0.28624248106894384,0.7049062803282318
0.064,1.7420609807493164,1.0,3145.5986402042345,0.5132540151062224,1.303931259281254,0.981643938863444,0.2862195611914713,0.7054393802031607
0.0645,1.741515269380922,1.0,3148.930387936916,0.5159842682467327,1.3036566061433803,0.9818202889069195,0.2861966413139987,0.7059715100302424
0.065,1.7409695580125277,1.0,3152.2351427585922,0.5186992025064032,1.303382196232689,0.9819929588166971,0.2861737214365262,0.7065026881665504
0.0655,1.7404238466441333,1.0,3155.5139007619323,0.5213989053777777,1.3031080207460066,0.982162051921602,0.2861508015590536,0.7070329329063725
0.066,1.7398781352757389,1.0,3158.76766057972,0.5240834643534,1.3028340708801587,0.9823276679010783,0.28612788168158104,0.7075622624813489
0.0665,1.7393324239073447,1.0,3161.9974233387225,0.5267529669258142,1.302560337831972,0.982489902940243,0.2861049618041085,0.7080906950605965
0.067,1.7387867125389502,1.0,3165.204192617181,0.5294075005875643,1.3022868127982723,0.9826488498772836,0.2860820419266359,0.7086182487508363
0.0675,1.738241001170556,1.0,3168.3876283726004,0.5320471178372513,1.3020134983318277,0.9828045966434921,0.28605912204916334,0.70914491972376
0.068,1.7376952898021616,1.0,3171.5487547512175,0.5346719196892851,1.3017403854793446,0.9829572307111701,0.2860362021716908,0.7096707263098743
0.0685,1.7371495784337672,1.0,3174.6892688971943,0.5372820205046329,1.3014674596355327,0.9831068371274464,0.2860132822942182,0.7101956976431711
0.069,1.736603867065373,1.0,3177.809582458376,0.5398774980213829,1.3011947170552063,0.9832534962865939,0.2859903624167457,0.7107198418942418
0.0695,1.7360581556969785,1.0,3180.910108181688,0.5424584299776234,1.3009221539931806,0.9833972858970901,0.2859674425392731,0.7112431672069659
0.07,1.735512444328584,1.0,3183.991259899349,0.5450248941114425,1.30064976670427,0.9835382810897012,0.28594452266180054,0.7117656816985587
