Time [s],Phi [rad],STIM [ ],Fsee [N],Gamma [ ],Lcerel [ ],q [ ],Lmtc [m],fisomrel [ ]
0.0,1.8,1.0,17.967328546672224,1.0006853016013445e-05,1.3793397271316101,0.005000026688168576,0.288653,0.541139577231236
0.0005,1.79999375,1.0,18.276647018445985,0.005619160031278731,1.3793023985785067,0.012940533196826701,0.2886527375,0.5412298802059683
0.001,1.799975,1.0,21.618262017925524,0.011196850295133766,1.3789383143229539,0.035608612906189455,0.28865195,0.5421101847515248
0.0015,1.79994375,1.0,31.06903464030027,0.01674325412751485,1.378046220884522,0.07060175504135016,0.2886506375,0.5442635678409793
0.002,1.7999,1.0,53.581942433243256,0.022258547019705543,1.3763681605826825,0.11471789576267823,0.2886488,0.5483004072053831
0.0025,1.79984375,1.0,97.11814515894687,0.02774290347890079,1.373935205447722,0.16457473824983443,0.28864643749999996,0.55412137157771
0.003,1.7997750000000001,1.0,160.9572555838848,0.03319649703592613,1.3712143778647874,0.21728029368966398,0.28864354999999997,0.5605863701098814
0.0035,1.79969375,1.0,237.682365271091,0.038619500244827555,1.3685847639969144,0.2706127282686059,0.2886401375,0.5667897696088613
0.004,1.7996,1.0,321.4658026115576,0.044012084693654197,1.3661561180540722,0.3229156460289992,0.2886362,0.5724799018226159
0.0045000000000000005,1.7994937500000001,1.0,409.2668111944999,0.049374421009642636,1.3639228362224618,0.37303435975500865,0.2886317375,0.5776791112110946
0.005,1.799375,1.0,499.41258650465676,0.05470667885030643,1.361858361847087,0.42024732277590554,0.28862675,0.582457034315506
0.0055,1.79924375,1.0,590.7895298379499,0.060009026950909,1.3599388523736924,0.4641735710423718,0.2886212375,0.586875071912976
0.006,1.7991000000000001,1.0,682.5172497318083,0.06528163306760165,1.3581464303543973,0.5046798459439074,0.2886152,0.5909793827308765
0.006500000000000001,1.79894375,1.0,773.8805119868466,0.07052466403304132,1.3564672663498412,0.5418006541923684,0.2886086375,0.5948057653733144
0.007,1.798775,1.0,864.2850326366738,0.07573828573998935,1.3548904075727235,0.5756766860701118,0.28860155,0.5983826486379662
0.0075,1.79859375,1.0,953.2425447342446,0.08092266315104327,1.353406789506843,0.6065098300708995,0.2885939375,0.6017335495231697
0.008,1.7984,1.0,1040.3444238187776,0.08607795991275984,1.352008852920155,0.6345320981276061,0.2885858,0.6048780850313669
0.0085,1.79819375,1.0,1125.3146270599655,0.09120434010479056,1.3506892358423919,0.6599843596898952,0.2885771375,0.6078350123223191
0.009000000000000001,1.797975,1.0,1207.8996882925844,0.09630196564637208,1.3494420417771185,0.6831041336197846,0.28856795,0.6106194497405568
0.0095,1.79774375,1.0,1287.8909732327177,0.10137099709258277,1.3482621401125339,0.7041174299932036,0.2885582375,0.6132445209318809
0.01,1.7975,1.0,1365.1658854967216,0.10641159499850103,1.3471444002368373,0.7232341841583012,0.288548,0.6157231039037196
0.0105,1.79724375,1.0,1439.6594652528495,0.11142391928198209,1.3460839468122285,0.7406466139863123,0.2885372375,0.6180672887719088
0.011,1.796975,1.0,1511.3223703411313,0.11640812869299769,1.3450765517355365,0.7565290853695544,0.28852595000000003,0.620287542864514
0.0115,1.79669375,1.0,1580.1204401018897,0.12136438041233989,1.3441184898964171,0.7710385748193446,0.2885141375,0.62239306413077
0.012,1.7964,1.0,1646.055222525498,0.1262928310307015,1.3432061858886888,0.7843155639765109,0.28850180000000003,0.6243925828052895
0.0125,1.79609375,1.0,1709.1726935969848,0.13119363757327746,1.3423360495091785,0.7964853011131845,0.2884889375,0.6262947359899531
0.013000000000000001,1.7957750000000001,1.0,1769.506233032789,0.13606695482863687,1.3415050763806218,0.8076594661321291,0.28847555,0.628106769152633
0.0135,1.79544375,1.0,1827.091748734979,0.1409129361920146,1.3407105926301175,0.8179374400509217,0.2884616375,0.629835115017966
0.014,1.7951000000000001,1.0,1881.9927650290774,0.14573173505864553,1.3399499243847637,0.8274075068797451,0.2884472,0.6314861253532955
0.0145,1.79474375,1.0,1934.2805323485643,0.15052350392952724,1.339220586423603,0.8361481687222895,0.2884322375,0.6330656688342693
0.015,1.794375,1.0,1984.0514145903367,0.15528839576702078,1.3385200607993797,0.8442291950835655,0.28841675,0.6345796187384702
0.0155,1.79399375,1.0,2031.3725136516275,0.16002656052029277,1.3378463509307121,0.8517128236275848,0.2884007375,0.6360326631466904
0.016,1.7936,1.0,2076.3142172132893,0.16473814740292045,1.3371975946738746,0.8586545184076514,0.2883842,0.6374291522517648
0.0165,1.7931937500000001,1.0,2118.961178250775,0.16942330562848096,1.336571929885142,0.8651037300299953,0.2883671375,0.638773392899844
0.017,1.792775,1.0,2159.3981396895997,0.17408218337927206,1.3359676267652647,0.8711046461242924,0.28834955,0.6400693678753693
0.0175,1.7923437500000001,1.0,2197.725121438603,0.1787149296374024,1.3353829165918538,0.8766967648634141,0.2883314375,0.6413211073288956
0.018000000000000002,1.7919,1.0,2234.0174282580724,0.1833216902044855,1.334816385041045,0.8819155497160807,0.2883128,0.6425318504720876
0.0185,1.79144375,1.0,2268.348706183736,0.18790260998321007,1.334266719293478,0.8867928312138232,0.2882936375,0.643704593025431
0.019,1.790975,1.0,2300.8001073930536,0.19245783387626503,1.3337326065297919,0.8913572014452747,0.28827395,0.6448423065651503
0.0195,1.79049375,1.0,2331.453841071876,0.1969875060061901,1.3332127911014784,0.8956343988951991,0.2882537375,0.6459478183876356
0.02,1.79,1.0,2360.3953780844136,0.20149177078033953,1.3327060453786002,0.8996476258472019,0.288233,0.6470238755374135
0.0205,1.78949375,1.0,2387.7044718898837,0.20597077153749457,1.332211250982903,0.9034178502276261,0.2882117375,0.6480729742358886
0.021,1.788975,1.0,2413.4433531039454,0.21042464854111773,1.3317275052178712,0.9069640743845189,0.28818995000000003,0.6490971373785945
0.021500000000000002,1.78844375,1.0,2437.6781717996773,0.21485354205467153,1.33125390538699,0.9103035046501738,0.2881676375,0.6500983742534026
0.022,1.7879,1.0,2460.4786724295295,0.2192575923416184,1.3307895487937436,0.9134517458500534,0.2881448,0.6510786811506108
0.0225,1.78734375,1.0,2481.913200743559,0.22363693879682373,1.3303335774102443,0.9164229809243201,0.28812143749999997,0.6520399478168053
0.023,1.786775,1.0,2502.049037592473,0.22799172056999756,1.3298851710640862,0.9192301197088412,0.28809755,0.6529839729337328
0.0235,1.78619375,1.0,2520.959319146765,0.23232207770062496,1.3294434788275362,0.921884918905655,0.28807313749999996,0.6539126092411056
0.024,1.7856,1.0,2538.6937329807924,0.23662814534290982,1.3290078935516512,0.9243981478081967,0.2880482,0.6548271874384738
0.0245,1.78499375,1.0,2555.3038193659286,0.2409100586510561,1.3285778080874875,0.9267796460897966,0.2880227375,0.6557290307156323
0.025,1.784375,1.0,2570.8428171570204,0.2451679527792677,1.3281526152861016,0.9290384168010543,0.28799675,0.6566194549773335
0.025500000000000002,1.78374375,1.0,2585.36551785209,0.24940196288174857,1.3277317079985498,0.9311827089333607,0.2879702375,0.6574997690444939
0.026000000000000002,1.7831000000000001,1.0,2598.92486268812,0.2536122238206145,1.3273145094911631,0.9332200956753784,0.2879432,0.6583712113410691
0.0265,1.78244375,1.0,2611.5757973436243,0.2577988691231854,1.326900436052293,0.9351575326814674,0.2879156375,0.6592350284082296
0.027,1.781775,1.0,2623.363987269616,0.26196203094797843,1.3264890006237133,0.9370014327938518,0.28788755,0.6600922591572989
0.0275,1.7810937583493855,1.0,2634.3196369365132,0.26610184040940377,1.3260798717342748,0.9387577253750787,0.2878589378506742,0.6609436136790783
0.028,1.7804067152242478,1.0,2644.8004660482666,0.2702184286218715,1.3256727179128278,0.9404318775939596,0.2878300820394184,0.6617897984925756
0.0285,1.7797196720991098,1.0,2655.109015419462,0.27431192593953824,1.3252673435708664,0.9420289557817406,0.2878012262281626,0.6626312347141325
0.029,1.7790326289739717,1.0,2665.236153662286,0.27838246256841237,1.3248638223502083,0.9435536798146299,0.28777237041690684,0.6634677835714679
0.029500000000000002,1.778345585848834,1.0,2675.1810359812757,0.28243016652417297,1.3244621514549082,0.9450104045382615,0.287743514605651,0.6642994651570543
0.03,1.777658542723696,1.0,2684.942994794255,0.2864551657490201,1.3240623266945952,0.9464031629824144,0.28771465879439523,0.6651263023510378
0.0305,1.776971499598558,1.0,2694.524113499219,0.2904575794570443,1.3236643189499029,0.947735688201226,0.28768580298313945,0.6659483693835955
0.031,1.7762844564734201,1.0,2703.9217409809207,0.2944375452089417,1.3232681427490687,0.949011456899622,0.2876569471718836,0.6667656501389279
0.0315,1.7755974133482821,1.0,2713.1360982711462,0.2983951940602932,1.3228737865364335,0.9502336937540866,0.28762809136062784,0.6675781822947244
0.032,1.7749103702231441,1.0,2722.170346646118,0.30233064777106505,1.3224812122744714,0.9514053918015747,0.28759923554937206,0.6683860578124596
0.0325,1.7742233270980063,1.0,2731.0276965685257,0.3062440281012237,1.3220903819256562,0.9525293377275307,0.2875703797381163,0.6691893682110489
0.033,1.7735362839728683,1.0,2739.711406200823,0.3101354568107354,1.321701257452462,0.9536081286028476,0.2875415239268605,0.6699882045711248
0.0335,1.7728492408477303,1.0,2748.2247799501497,0.3140050556595664,1.3213138008173633,0.9546441870728528,0.28751266811560466,0.6707826575392213
0.034,1.7721621977225925,1.0,2756.571167046374,0.31785294640768313,1.3209279739828335,0.9556397751579234,0.2874838123043489,0.6715728173318679
0.0345,1.7714751545974545,1.0,2764.7539601507738,0.3216792508150518,1.3205437389113468,0.956597006807304,0.2874549564930931,0.6723587737395866
0.035,1.7707881114723165,1.0,2772.776593998182,0.3254840906416388,1.3201610575653773,0.9575178593318708,0.28742610068183727,0.673140616130801
0.035500000000000004,1.7701010683471787,1.0,2780.6425440704415,0.32926758764741043,1.319779891907399,0.9584041838276863,0.2873972448705815,0.6739184334556511
0.036000000000000004,1.7694140252220407,1.0,2788.3553253020186,0.333029863592333,1.319400203899886,0.9592577146899194,0.2873683890593257,0.674692314249717
0.0365,1.7687269820969027,1.0,2795.915565773904,0.3367710114006717,1.3190219817751643,0.960080074435926,0.28733953324806993,0.6754622931895624
0.037,1.768039938971765,1.0,2803.3320817063127,0.34049118378501264,1.31864514051754,0.9608727919590087,0.28731067743681415,0.6762285536497361
0.0375,1.767352895846627,1.0,2810.609527627446,0.3441905038120845,1.31826963295765,0.9616373002536811,0.2872818216255583,0.6769912013297282
0.038,1.766665852721489,1.0,2817.7512778985915,0.3478690837751388,1.317895423731197,0.9623749451420837,0.28725296581430254,0.6777503175088095
0.0385,1.7659788095963511,1.0,2824.7607383502477,0.35152703596742696,1.3175224774738843,0.963086992668316,0.28722411000304676,0.678505983095812
0.039,1.765291766471213,1.0,2831.641345278321,0.3551644726822004,1.3171507588214142,0.9637746346992899,0.2871952541917909,0.679258278632019
0.0395,1.764604723346075,1.0,2838.3965644679915,0.3587815062127106,1.31678023240949,0.9644389940742297,0.28716639838053515,0.6800072842939717
0.04,1.7639176802209373,1.0,2845.029890244534,0.362378248852209,1.316410862873814,0.9650811293436472,0.28713754256927937,0.6807530798962005
0.0405,1.7632306370957993,1.0,2851.544844552606,0.365954812893947,1.3160426148500894,0.965702039134547,0.2871086867580236,0.6814957448938712
0.041,1.7625435939706613,1.0,2857.9449760630937,0.3695113106311761,1.315675452974019,0.9663026661749776,0.28707983094676776,0.6822353583853566
0.0415,1.7618565508455235,1.0,2864.233859307657,0.37304785435714766,1.3153093418813055,0.9668839010078076,0.287050975135512,0.6829719991147257
0.042,1.7611695077203855,1.0,2870.4150938407306,0.3765645563651132,1.314944246207652,0.9674465854207086,0.2870221193242562,0.6837057454741515
0.0425,1.7604824645952475,1.0,2876.4923034294916,0.3800615289483242,1.3145801305887608,0.9679915156167376,0.28699326351300036,0.6844366755062443
0.043000000000000003,1.7597954214701097,1.0,2882.46913527209,0.383538884400032,1.3142169596603352,0.9685194451475929,0.2869644077017446,0.6851648669062986
0.043500000000000004,1.7591083783449717,1.0,2888.3492592423013,0.3869967350134881,1.3138546980580779,0.9690310876295355,0.2869355518904888,0.6858903970244667
0.044,1.758421335219834,1.0,2894.136367163178,0.3904351930819439,1.3134933104176918,0.9695271192601145,0.286906696079233,0.6866133428678467
0.0445,1.757734292094696,1.0,2899.828063683507,0.3938543226724136,1.3131328152428012,0.9700081782229572,0.28687784026797725,0.6873336735271611
0.045,1.7570472489695579,1.0,2905.4323900587387,0.3972542721027171,1.3127731390625896,0.9704748752993642,0.2868489844567214,0.688051541712162
0.0455,1.75636020584442,1.0,2910.9555927674605,0.40063517668571214,1.3124142245284638,0.9709277894130113,0.28682012864546563,0.6887670673223171
0.046,1.755673162719282,1.0,2916.399585531313,0.40399713737060045,1.3120560526453198,0.9713674683716446,0.28679127283420985,0.6894802933910122
0.0465,1.754986119594144,1.0,2921.766293872086,0.40734025510658367,1.3116986044180536,0.97179443276505,0.286762417022954,0.6901912627673397
0.047,1.7542990764690063,1.0,2927.0576548029508,0.4106646308428635,1.3113418608515617,0.9722091775760472,0.28673356121169824,0.690900018116986
0.0475,1.7536120333438683,1.0,2932.2756165276255,0.41397036552864147,1.3109858029507397,0.9726121736814496,0.28670470540044246,0.6916066019230984
0.048,1.7529249902187303,1.0,2937.4221381476395,0.4172575601131193,1.310630411720484,0.9730038692514725,0.2866758495891867,0.6923110564871259
0.0485,1.7522379470935925,1.0,2942.499189377567,0.42052631554549874,1.3102756681656904,0.9733846910553451,0.2866469937779309,0.6930134239296377
0.049,1.7515509039684545,1.0,2947.5087502682204,0.4237767327749813,1.3099215532912551,0.973755045680221,0.28661813796667507,0.6937137461911216
0.0495,1.7508638608433165,1.0,2952.4528109380585,0.42700891275076863,1.3095680481020744,0.9741153206698954,0.2865892821554193,0.6944120650327543
0.05,1.7501768177181787,1.0,2957.3333713120705,0.4302229564220625,1.3092151336030442,0.9744658855892838,0.2865604263441635,0.6951084220371542
0.0505,1.7494897745930407,1.0,2962.1524408693176,0.43341896473806446,1.3088627907990606,0.9748070930201339,0.2865315705329077,0.6958028586091063
0.051000000000000004,1.7488027314679027,1.0,2966.912038398162,0.43659703864797617,1.3085110006950198,0.9751392794929872,0.2865027147216519,0.6964954159762675
0.051500000000000004,1.7481156883427649,1.0,2971.6141917592586,0.4397572791009994,1.3081597442958177,0.9754627663600116,0.2864738589103961,0.6971861351898477
0.052000000000000005,1.7474286452176269,1.0,2976.260937656924,0.4428997870463356,1.3078090026063507,0.9757778606129377,0.28644500309914034,0.6978750571252665
0.0525,1.7467416020924889,1.0,2980.8543214184638,0.44602466343318653,1.3074587566315146,0.9760848556500104,0.28641614728788456,0.6985622224827905
0.053,1.746054558967351,1.0,2985.396396781136,0.4491320092107539,1.3071089873762054,0.9763840319955466,0.2863872914766287,0.6992476717881433
0.0535,1.745367515842213,1.0,2989.8892256877507,0.4522219253282393,1.3067596758453195,0.9766756579754148,0.28635843566537295,0.6999314453930947
0.054,1.744680472717075,1.0,2994.334878089629,0.4552945127348444,1.3064108030437527,0.9769599903514904,0.28632957985411717,0.7006135834760288
0.0545,1.7439934295919373,1.0,2998.7354317576937,0.45834987237977076,1.3060623499764012,0.9772372749179071,0.28630072404286133,0.7012941260424836
0.055,1.7433063864667993,1.0,3003.0892827090283,0.4613880567697152,1.3057143296192972,0.9775077443415192,0.28627186823160555,0.7019730505912745
0.0555,1.7426193433416612,1.0,3007.400688742331,0.46440921016390807,1.3053667041614359,0.9777716272578525,0.2862430124203498,0.7026504336402492
0.056,1.7419323002165235,1.0,3011.6715915508094,0.4674134377122039,1.3050194559517974,0.978029140247111,0.286214156609094,0.7033263121520075
0.0565,1.7412452570913854,1.0,3015.902895434543,0.4704008294365108,1.3046725763684652,0.9782804900954797,0.2861853007978382,0.7040007053858474
0.057,1.7405582139662474,1.0,3020.09550841032,0.4733714753587371,1.3043260567895232,0.9785258751578382,0.2861564449865824,0.7046736325221299
0.0575,1.7398711708411096,1.0,3024.2503421424726,0.47632546550079075,1.3039798885930545,0.9787654857695928,0.2861275891753266,0.7053451126624815
0.058,1.7391841277159716,1.0,3028.3683118742338,0.4792628898845801,1.303634063157143,0.9789995046351951,0.2860987333640708,0.7060151648299875
0.0585,1.7384970845908336,1.0,3032.450336361693,0.4821838385320133,1.3032885718598723,0.9792281071948444,0.286069877552815,0.7066838079693848
0.059000000000000004,1.7378100414656958,1.0,3036.4973378093837,0.48508840146499843,1.302943406079326,0.9794514619707627,0.2860410217415592,0.707351060947247
0.059500000000000004,1.7371229983405578,1.0,3040.5102418066353,0.48797666870544365,1.3025985571935874,0.9796697308943325,0.28601216593030343,0.7080169425521659
0.06,1.7364359552154198,1.0,3044.489977266665,0.4908487302752572,1.3022540165807404,0.9798830696152947,0.28598331011904765,0.7086814714949283
0.0605,1.735748912090282,1.0,3048.4374763666096,0.4937046761963473,1.3019097756188682,0.980091627794125,0.28595445430779187,0.7093446664086883
0.061,1.735061868965144,1.0,3052.3536744893186,0.496544596490622,1.301565825686055,0.9802955493786235,0.28592559849653604,0.7100065458491325
0.0615,1.734374825840006,1.0,3056.2395101674174,0.4993685811799895,1.3012221581603836,0.9804949728656887,0.28589674268528026,0.7106671282946457
0.062,1.7336877827148682,1.0,3060.0959250276637,0.5021767202863581,1.3008787644199382,0.9806900315491708,0.2858678868740245,0.7113264321464647
0.0625,1.7330007395897302,1.0,3063.923863738481,0.5049691038316357,1.300535635842802,0.9808808537546488,0.28583903106276864,0.7119844757288353
0.063,1.7323136964645922,1.0,3067.7242739581693,0.5077458218377306,1.300192763807059,0.981067563061913,0.28581017525151287,0.7126412772891559
0.0635,1.7316266533394544,1.0,3071.498106285144,0.5105069643265511,1.2998501396907922,0.9812502785158816,0.2857813194402571,0.7132968549981262
0.064,1.7309396102143164,1.0,3075.246314209438,0.5132526213200053,1.2995077548720855,0.981429114826637,0.2857524636290013,0.7139512269498813
0.0645,1.7302525670891784,1.0,3078.9698540665213,0.5159828828400012,1.2991656007290224,0.9816041825592164,0.2857236078177455,0.7146044111621274
0.065,1.7295655239640406,1.0,3082.667875258938,0.5186977890890461,1.2988236841185306,0.9817755856338737,0.2856947520064897,0.7152563960772598
0.0655,1.7288784808389026,1.0,3086.342444338223,0.5213974739578014,1.2984819869483948,0.9819434295035674,0.2856658961952339,0.7159072176892165
0.066,1.7281914377137646,1.0,3089.994643816695,0.5240820373953217,1.2981404995789712,0.9821078139644239,0.2856370403839781,0.7165568957614844
0.0665,1.7275043945886268,1.0,3093.6248911104285,0.5267515594460678,1.2977992180745328,0.9822688342559224,0.2856081845727223,0.7172054391396584
0.067,1.7268173514634888,1.0,3097.2336050031204,0.5294061201545006,1.2974581384993522,0.9824265823168424,0.2855793287614665,0.7178528566342481
0.0675,1.7261303083383508,1.0,3100.821205628301,0.5320457995650811,1.2971172569177025,0.9825811469229542,0.28555047295021074,0.7184991570207269
0.068,1.725443265213213,1.0,3104.3881144521247,0.5346706777222703,1.2967765693938562,0.9827326138180371,0.28552161713895496,0.7191443490395844
0.0685,1.724756222088075,1.0,3107.9347542558485,0.5372808346705289,1.2964360719920862,0.9828810658385919,0.28549276132769913,0.7197884413963733
0.069,1.724069178962937,1.0,3111.461549119596,0.5398763504543181,1.296095760776665,0.983026583032595,0.28546390551644335,0.7204314427617602
0.0695,1.7233821358377992,1.0,3114.9689244054794,0.5424573051180986,1.295755631811866,0.9831692427726152,0.28543504970518757,0.7210733617715689
0.07,1.7226950927126612,1.0,3118.457306741669,0.5450237787063316,1.295415681161961,0.983309119863596,0.28540619389393174,0.7217142070268323
0.07050000000000001,1.7220080495875232,1.0,3121.927124006903,0.5475758512634777,1.2950759048912237,0.9834462866455957,0.28537733808267596,0.7223539870938314
