Time [s],Phi [rad],STIM [ ],Fsee [N],Gamma [ ],Lcerel [ ],q [ ],Lmtc [m],fisomrel [ ]
0.0,1.8,1.0,17.967736647708254,1.0125653689343326e-05,1.3793396814111223,0.005000027323062328,0.288653,0.5411396878409065
0.0005,1.79999375,1.0,18.27705739331453,0.005619278165574131,1.3793023529939814,0.012940862190979889,0.2886527375,0.5412299904758582
0.001,1.799975,1.0,21.618738682895927,0.011196967766789287,1.378938265638777,0.03560922928156056,0.28865195,0.5421103024064914
0.0015,1.79994375,1.0,31.06969661554485,0.016743370940247172,1.378046164486622,0.07060259789072103,0.2886506375,0.5442637038168175
0.002,1.7999,1.0,53.58298630854392,0.022258663177210834,1.3763680928614803,0.11471889376353407,0.2886488,0.548300569757054
0.0025,1.79984375,1.0,97.11966106052124,0.027743018984854317,1.3739351324000304,0.16457582452646732,0.28864643749999996,0.5541215457811599
0.003,1.7997750000000001,1.0,160.95910216707844,0.0331966118939826,1.3712143087454238,0.21728141517427702,0.28864354999999997,0.560586533745718
0.0035,1.79969375,1.0,237.68437906218404,0.038619614458621186,1.3685847019668271,0.27061384444877623,0.2886401375,0.5667899154209988
0.004,1.7996,1.0,321.4678962774957,0.044012198266798766,1.366156062600865,0.3229167273571323,0.2886362,0.5724800313157888
0.0045000000000000005,1.7994937500000001,1.0,409.26894326053457,0.049374533945731644,1.363922786174753,0.373035386630231,0.2886317375,0.5776792273686386
0.005,1.799375,1.0,499.4147321890843,0.05470679115291134,1.3618583162514781,0.4202482838237086,0.28862675,0.5824571395396851
0.0055,1.79924375,1.0,590.7916738021758,0.06000913862358803,1.3599388104858372,0.4641744610386493,0.2886212375,0.5868751680677315
0.006,1.7991000000000001,1.0,682.5193760776763,0.06528174411388642,1.358146391703095,0.5046806640474594,0.2886152,0.5909794710142007
0.006500000000000001,1.79894375,1.0,773.8826082561754,0.0705247744564443,1.356467230565155,0.5418014023844158,0.2886086375,0.5948058467257927
0.007,1.798775,1.0,864.2870971848521,0.07573839554400177,1.3548903742236598,0.5756773679612629,0.28860155,0.5983827241179551
0.0075,1.79859375,1.0,953.2445690401556,0.08092277233913729,1.3534067583709315,0.6065104502985753,0.2885939375,0.601733619699458
0.008,1.7984,1.0,1040.3459605185747,0.08607806846853962,1.3520088302952025,0.6345326654957034,0.2885858,0.6048781358233526
0.0085,1.79819375,1.0,1125.3159881235285,0.09120444804682662,1.3506892165747453,0.6599848762161281,0.2885771375,0.6078350554151513
0.009000000000000001,1.797975,1.0,1207.9017491143509,0.09630207301117716,1.349442013618445,0.6831045974924835,0.28856795,0.6106195124945359
0.0095,1.79774375,1.0,1287.8937654680362,0.1013711038793555,1.348262103163796,0.7041178463194565,0.2885582375,0.6132446029972242
0.01,1.7975,1.0,1365.1684755003016,0.10641170116912593,1.3471443669482916,0.7232345639570458,0.288548,0.6157231776022636
0.0105,1.79724375,1.0,1439.660684655141,0.1114240248385869,1.346083931550476,0.7406469682485024,0.2885372375,0.6180673224571602
0.011,1.796975,1.0,1511.3234956560113,0.1164082336569822,1.3450765379893321,0.7565294091133087,0.28852595000000003,0.6202875731163808
0.0115,1.79669375,1.0,1580.1222178369003,0.12136448480185444,1.3441184686586338,0.7710388671112539,0.2885141375,0.6223931107399134
0.012,1.7964,1.0,1646.058296320789,0.12629293491636948,1.3432061499104484,0.7843158249574427,0.28850180000000003,0.6243926615549963
0.0125,1.79609375,1.0,1709.175171483406,0.13119374083904806,1.342336021046508,0.7964855429444332,0.2884889375,0.6262947981315203
0.013000000000000001,1.7957750000000001,1.0,1769.5078834548788,0.1360670574399752,1.3415050577487602,0.8076596916851106,0.28847555,0.6281068097321939
0.0135,1.79544375,1.0,1827.0927776493775,0.14091303817867235,1.3407105811990607,0.8179376500787743,0.2884616375,0.6298351398564996
0.014,1.7951000000000001,1.0,1881.9938434938986,0.1457318365146611,1.3399499125792655,0.8274077003247892,0.2884472,0.6314861509481815
0.0145,1.79474375,1.0,1934.2802001211305,0.15052360485855973,1.3392205900108658,0.8361483528284535,0.2884322375,0.6330656610735973
0.015,1.794375,1.0,1984.052453723531,0.15528849623739555,1.3385200497208514,0.844229360616572,0.28841675,0.6345796426562256
0.0155,1.79399375,1.0,2031.372662677978,0.16002666035328295,1.3378463493605095,0.8517129799329273,0.2884007375,0.6360326665298998
0.016,1.7936,1.0,2076.312650979411,0.16473824657242597,1.337197610996783,0.8586546690117232,0.2883842,0.6374291171494333
0.0165,1.7931937500000001,1.0,2118.9585793203205,0.1694234042610287,1.3365719566966145,0.8651038734488186,0.2883671375,0.638773335348891
0.017,1.792775,1.0,2159.3918405119007,0.17408228149223132,1.3359676911384788,0.8711047910096203,0.28834955,0.6400692299460451
0.0175,1.7923437500000001,1.0,2197.719626510964,0.17871502737131767,1.3353829722543835,0.8766968982993396,0.2883314375,0.6413209882710951
0.018000000000000002,1.7919,1.0,2234.012453894034,0.1833217873161197,1.334816435019394,0.8819156731719513,0.2883128,0.6425317437528824
0.0185,1.79144375,1.0,2268.3446281995202,0.1879027064057376,1.334266759954492,0.886792944468761,0.2882936375,0.643704506344152
0.019,1.790975,1.0,2300.7979811057894,0.1924579297192716,1.3337326275806582,0.8913573028003577,0.28827395,0.6448422617605538
0.0195,1.79049375,1.0,2331.452712798389,0.19698760122444925,1.3332128021980392,0.8956344915705392,0.2882537375,0.6459477948065384
0.02,1.79,1.0,2360.39802736422,0.2014918659933705,1.332706019483195,0.8996477046539938,0.288233,0.647023930483571
0.0205,1.78949375,1.0,2387.7058193316234,0.20597086618451746,1.332211237887857,0.9034179270594765,0.2882117375,0.6480730019802861
0.021,1.788975,1.0,2413.441018672922,0.21042474235381342,1.3317275277836316,0.9069641542848426,0.28818995000000003,0.6490970896382652
0.021500000000000002,1.78844375,1.0,2437.672541387443,0.21485363505718164,1.3312539595421244,0.9103035866348723,0.2881676375,0.6500982598458692
0.022,1.7879,1.0,2460.4729545306172,0.21925768485054536,1.330789603534942,0.9134518236344245,0.2881448,0.6510785656670788
0.0225,1.78734375,1.0,2481.906772096715,0.22363703007412777,1.3303336386895637,0.9164230555031454,0.28812143749999997,0.6520398187184719
0.023,1.786775,1.0,2502.0520797892364,0.22799181265615545,1.3298851421821276,0.9192301737858619,0.28809755,0.6529840336973134
0.0235,1.78619375,1.0,2520.965618266174,0.2323221696376787,1.3294434192497957,0.921884964372172,0.28807313749999996,0.6539127344164648
0.024,1.7856,1.0,2538.6991714260084,0.23662823652853382,1.3290078422942306,0.9243981920145034,0.2880482,0.6548272949900977
0.0245,1.78499375,1.0,2555.3064135245204,0.24091014883855705,1.3285777837170951,0.9267796923263376,0.2880227375,0.6557290817843172
0.025,1.784375,1.0,2570.842749469982,0.24516804207758464,1.3281526159200518,0.9290384647280718,0.28799675,0.656619453650596
0.025500000000000002,1.78374375,1.0,2585.365163851043,0.2494020517554529,1.3277317113047638,0.9311827549644549,0.2879702375,0.6574997621340912
0.026000000000000002,1.7831000000000001,1.0,2598.9203780113003,0.25361230989490946,1.3273145512666822,0.9332201446505735,0.2879432,0.6583711241361304
0.0265,1.78244375,1.0,2611.570865160337,0.25779895465566166,1.326900481884996,0.9351575800654791,0.2879156375,0.6592349328550936
0.027,1.781775,1.0,2623.3585778661136,0.26196211759558197,1.326489050777959,0.9370014794762831,0.28788755,0.6600921547261076
0.0275,1.7810937500000001,1.0,2634.3212282630648,0.26610192861752563,1.32607985324004,0.9387577605251787,0.2878589375,0.6609436521395218
0.028,1.7804,1.0,2644.497320303795,0.27021851762434806,1.3256724845657084,0.9404318798809854,0.2878298,0.6617902831530562
0.0285,1.77969375,1.0,2653.9260808795893,0.27431201451890475,1.3252665400494337,0.9420288751975726,0.2878001375,0.6626329015442289
0.029,1.778975,1.0,2662.6473945721314,0.2783825492040509,1.324861614985685,0.9435534027471013,0.28776995,0.6634723568523357
0.029500000000000002,1.7782437500000001,1.0,2670.7017420368024,0.28243025158264207,1.3244573046689316,0.9450097712210244,0.2877392375,0.6643094944099874
0.03,1.7775,1.0,2678.1181819619674,0.2864552449475831,1.3240533141438113,0.9464019844911622,0.287708,0.6651449285472332
0.0305,1.77674375,1.0,2684.9471143153237,0.2904576661321498,1.3236491567424986,0.9477337351410232,0.2876762375,0.6659796662623392
0.031,1.775975,1.0,2691.216290215856,0.29443764026097835,1.3232445575399603,0.9490084745582384,0.28764395,0.6668142730254953
0.0315,1.7751937500000001,1.0,2696.950985659121,0.2983952909060434,1.322839267231022,0.950229412784012,0.2876111375,0.6676492587172727
0.032,1.7744,1.0,2702.1767615048584,0.3023307416393196,1.3224330365105097,0.9513995358641065,0.2875778,0.6684851306333301
0.0325,1.77359375,1.0,2706.919436782997,0.3062441160327817,1.3220256160732484,0.9525216242224,0.2875439375,0.669322393471444
0.033,1.772775,1.0,2711.20506337697,0.3101355376584043,1.321616756614064,0.953598269315929,0.28750955,0.6701615493145725
0.0335,1.7719437500000002,1.0,2715.0599020856475,0.31400513008816217,1.321206208827782,0.954631888750516,0.2874746375,0.6710030976099595
0.034,1.7711000000000001,1.0,2718.510400062738,0.3178530168940299,1.3207937234092282,0.9556247400156364,0.2874392,0.6718475351442718
0.0345,1.7702437500000001,1.0,2721.578291464212,0.32167931811460426,1.3203790954584205,0.9565789369500483,0.2874032375,0.6726952652845801
0.035,1.7693750000000001,1.0,2724.2857187811996,0.3254841555341922,1.3199621175943081,0.9574964570446847,0.28736675,0.6735466942109889
0.035500000000000004,1.76849375,1.0,2726.662267840366,0.32926765682820913,1.3195425158408847,0.9583791460292702,0.2873297375,0.6744023615117283
0.036000000000000004,1.7676,1.0,2728.723121746829,0.33302993874506326,1.3191201482202497,0.9592287444587053,0.2872922,0.6752625350761667
0.0365,1.76669375,1.0,2730.4835442006674,0.33677111803316273,1.3186948727545027,0.9600468845211165,0.2872541375,0.6761274811224214
0.037,1.765775,1.0,2731.95887065653,0.3404913114409157,1.3182665474657436,0.9608350980047865,0.28721555,0.6769974641716696
0.0375,1.76484375,1.0,2733.1644999305613,0.34419063571673036,1.3178350303760713,0.9615948235938598,0.2871764375,0.6778727470211794
0.038,1.7639,1.0,2734.1158862538655,0.34786920760901485,1.317400179507586,0.9623274135561712,0.28713679999999997,0.6787535907160465
0.0385,1.76294375,1.0,2734.8285317733826,0.35152714386617734,1.3169618528823872,0.9630341398799656,0.28709663750000003,0.6796402545196554
0.039,1.761975,1.0,2735.31797949911,0.355164561236626,1.316519908522574,0.9637161999104302,0.28705595,0.6805329958828488
0.0395,1.7609937500000001,1.0,2735.599806699065,0.35878157646876896,1.3160742044502465,0.9643747215317782,0.2870147375,0.6814320704118106
0.04,1.76,1.0,2735.6848618331633,0.3623782980775344,1.3156246418770665,0.96501077027831,0.286973,0.6823376448978747
0.0405,1.7589937500000001,1.0,2735.5901983689955,0.3659548500755587,1.3151710658825357,0.9656253491425314,0.2869307375,0.6832499975461299
0.041,1.757975,1.0,2735.3260852071357,0.3695113445677049,1.3147133833103,0.9662194080651402,0.28688795,0.6841692805018629
0.0415,1.75694375,1.0,2734.9017362824275,0.3730478916243768,1.3142515107147048,0.9667938447711677,0.2868446375,0.6850956250431307
0.042,1.7559,1.0,2734.3263773159274,0.37656460131597846,1.3137853646500963,0.9673495077369471,0.28680079999999997,0.6860291611333103
0.0425,1.75484375,1.0,2733.60924320022,0.38006158371291376,1.3133148616708201,0.9678871993923015,0.2867564375,0.6869700173985805
0.043000000000000003,1.753775,1.0,2732.759575538262,0.3835389488855867,1.3128399183312216,0.9684076790830833,0.28671155,0.6879183211049573
0.043500000000000004,1.75269375,1.0,2731.786620337856,0.38699680690440114,1.3123604511856468,0.9689116658142447,0.28666613750000003,0.6888741981348825
0.044,1.7516,1.0,2730.699625859035,0.390435267839761,1.3118763767884414,0.9693998407917364,0.2866202,0.6898377729633742
0.0445,1.75049375,1.0,2729.5078406174716,0.3938544417620704,1.311387611693951,0.9698728497798487,0.2865737375,0.6908091686337285
0.045,1.7493750000000001,1.0,2728.2132727189814,0.3972544264947989,1.3108941382701464,0.9703313085655968,0.28652675,0.6917883762412725
0.0455,1.74824375,1.0,2726.8219375159615,0.40063533206885404,1.3103959024797722,0.9707758005604139,0.2864792375,0.6927754583028308
0.046,1.7471,1.0,2725.3526219202286,0.4039972876977942,1.309892734102475,0.9712068737120081,0.2864312,0.6937707058370302
0.0465,1.7459437500000001,1.0,2723.809437161777,0.4073403953714006,1.309384596306038,0.9716250546536079,0.28638263750000004,0.6947741440323658
0.047,1.744775,1.0,2722.196493035033,0.4106647570794544,1.3088714522582439,0.9720308439936497,0.28633355,0.6957857971297302
0.0475,1.74359375,1.0,2720.5178973625552,0.41397047481173666,1.3083532651268757,0.9724247178436765,0.28628393750000003,0.6968056884106975
0.048,1.7424,1.0,2718.777755487472,0.41725765055802855,1.3078299980797161,0.9728071292427197,0.2862338,0.6978338401857206
0.0485,1.74119375,1.0,2716.9801697977978,0.42052638630811134,1.3073016142845486,0.973178509486082,0.2861831375,0.6988702737822401
0.049,1.739975,1.0,2715.129239279159,0.4237767840517661,1.3067680769091559,0.9735392693657517,0.28613195,0.6999150095327112
0.0495,1.73874375,1.0,2713.229059098578,0.42700894577877396,1.3062293491213208,0.9738898003290909,0.2860802375,0.7009680667625389
0.05,1.7375,1.0,2711.2837202182063,0.43022297347891614,1.3056853940888264,0.974230475561869,0.286028,0.7020294637779301
0.0505,1.73624375,1.0,2709.29730903874,0.43341896914197375,1.3051361749794559,0.9745616510012259,0.2859752375,0.7030992178536571
0.051000000000000004,1.734975,1.0,2707.2739070734415,0.436597034757728,1.3045816549609917,0.9748836662836776,0.28592195,0.704177345220738
0.051500000000000004,1.73369375,1.0,2705.2175906517773,0.43975727231595996,1.3040217972012171,0.9751968456328785,0.2858681375,0.7052638610540243
0.052000000000000005,1.7324,1.0,2703.1324306533334,0.44289978380645084,1.303456564867915,0.9755014986914587,0.2858138,0.7063587794597094
0.0525,1.73109375,1.0,2701.02249227197,0.44602467121898176,1.3028859211288686,0.9757979213009212,0.28575893750000003,0.7074621134627449
0.053,1.729775,1.0,2698.889813939965,0.44913201793653795,1.3023098476246737,0.9760863954616033,0.28570355000000003,0.708573839378656
0.0535,1.72844375,1.0,2696.7377870705855,0.45222194053657483,1.30172831359733,0.9763671934875912,0.2856476375,0.7096939565488241
0.054,1.7271,1.0,2694.5688539680586,0.45529454138773434,1.3011412969248402,0.9766405749373607,0.2855912,0.7108224467041622
0.0545,1.7257437500000001,1.0,2692.3847434276695,0.4583499141158148,1.300548781981426,0.9769067877333291,0.2855342375,0.711959278219009
0.055,1.724375,1.0,2690.187181629172,0.46138815234661473,1.2999507531413113,0.9771660692419015,0.28547675,0.7131044186542097
0.0555,1.72299375,1.0,2687.9778920890312,0.4644093497059325,1.2993471947787183,0.9774186468084125,0.2854187375,0.714257834751633
0.056,1.7216,1.0,2685.758595617392,0.4674135998195665,1.29873809126787,0.9776647382606688,0.2853602,0.7154194924286662
0.0565,1.72019375,1.0,2683.5310102808885,0.4704009963133151,1.2981234269829898,0.9779045523831856,0.28530113749999997,0.7165893567726976
0.057,1.718775,1.0,2681.2968513707624,0.4733716328129768,1.2975031862982995,0.978138289364042,0.28524155,0.7177673920355845
0.0575,1.71734375,1.0,2679.057831375914,0.4763256029443499,1.296877353588023,0.9783661412161484,0.2851814375,0.7189535616280995
0.058,1.7159,1.0,2676.815659962241,0.47926300033323294,1.2962459132263824,0.9785882921745809,0.2851208,0.720147828114371
0.0585,1.71444375,1.0,2674.5720439568427,0.4821839186054242,1.2956088495876008,0.9788049190715278,0.2850596375,0.7213501532062985
0.059000000000000004,1.7129750000000001,1.0,2672.328687337464,0.48508845138672213,1.294966147045901,0.979016191690272,0.28499795,0.7225604977579587
0.059500000000000004,1.71149375,1.0,2670.0872912280815,0.4879766923029252,1.2943177899755063,0.9792222730995398,0.2849357375,0.723778821759993
0.06,1.71,1.0,2667.8495538988886,0.4908487349798317,1.2936637627506389,0.9794233199694473,0.284873,0.7250050843339811
0.0605,1.7084937500000001,1.0,2665.6139881932945,0.4937046228733677,1.2930040790185662,0.979619480403312,0.2848097375,0.7262391890257711
0.061,1.7069750000000001,1.0,2663.3844139430303,0.49654450316555,1.2923387036158602,0.9798109025010616,0.28474595,0.7274811300006321
0.0615,1.7054437500000001,1.0,2661.161957704622,0.4993684750040913,1.2916676261134858,0.9799977261425202,0.2846816375,0.72873085420065
0.062,1.7039,1.0,2658.946894825703,0.502176622787571,1.2909908439043094,0.9801800851509803,0.2846168,0.7299882932520978
0.0625,1.70234375,1.0,2656.7395002047265,0.5049690309145685,1.2903083543811975,0.9803581083129395,0.2845514375,0.7312533781137789
0.063,1.7007750000000001,1.0,2654.540048295326,0.5077457837836631,1.2896201549370165,0.9805319196036003,0.28448555,0.7325260390760795
0.0635,1.69919375,1.0,2652.3488131096615,0.5105069657934342,1.2889262429646324,0.9807016384006464,0.28441913750000003,0.7338062057600198
0.064,1.6976,1.0,2650.166068222011,0.5132526613424615,1.2882266158569122,0.9808673796869909,0.2843522,0.7350938071163009
0.0645,1.69599375,1.0,2647.9920867732226,0.5159829548293241,1.2875212710067219,0.9810292542431323,0.2842847375,0.7363887714243598
0.065,1.694375,1.0,2645.827141474451,0.5186979306526016,1.2868102058069277,0.9811873688297345,0.28421675,0.7376910262914151
0.0655,1.69274375,1.0,2643.6715046115537,0.5213976732108732,1.2860934176503964,0.9813418263609838,0.2841482375,0.7390004986515174
0.066,1.6911,1.0,2641.525448049515,0.5240822669027185,1.285370903929994,0.9814927260692584,0.2840792,0.7403171147645985
0.0665,1.6894437500000001,1.0,2639.389243237146,0.5267517961267167,1.2846426620385873,0.9816401636616,0.2840096375,0.7416408002155184
0.067,1.687775,1.0,2637.263161211357,0.5294063452814475,1.2839086893690426,0.9817842314684534,0.28393955,0.7429714799131139
0.0675,1.68609375,1.0,2635.147472602739,0.5320459987654901,1.283168983314226,0.9819250185851056,0.2838689375,0.7443090780892463
0.068,1.6844000000000001,1.0,2633.0424476399785,0.5346708409774239,1.282423541267004,0.9820626110062338,0.2837978,0.7456535182978472
0.0685,1.68269375,1.0,2630.948356155286,0.5372809563158283,1.2816723606202431,0.9821970917539391,0.2837261375,0.7470047234139658
0.069,1.680975,1.0,2628.865467589758,0.5398764291792828,1.2809154387668096,0.9823285409996289,0.28365395,0.7483626156328153
0.0695,1.67924375,1.0,2626.7940509987225,0.5424573439663668,1.2801527730995699,0.9824570361800788,0.28358123749999997,0.7497271164688167
0.07,1.6775,1.0,2624.734375057432,0.5450237850756596,1.2793843610113904,0.9825826521079941,0.283508,0.7510981467546463
0.07050000000000001,1.67574375,1.0,2622.6867080668703,0.5475758369057407,1.2786101998951376,0.9827054610773621,0.2834342375,0.752475626640279
0.07100000000000001,1.673975,1.0,2620.654449024223,0.5501135217468975,1.2778302580984588,0.9828255278340896,0.28335995,0.7538595270565809
0.07150000000000001,1.67219375,1.0,2618.635039112242,0.5526369931961744,1.2770445592096085,0.9829429254615555,0.2832851375,0.7552497200649035
0.07200000000000001,1.6704,1.0,2616.628092843752,0.5551463303840829,1.276253106677794,0.9830577192260104,0.2832098,0.7566461130448576
0.0725,1.66859375,1.0,2614.63340596765,0.5576416080919805,1.2754559022750924,0.9831699719249107,0.2831339375,0.7580486157583378
0.073,1.6667750000000001,1.0,2612.650774600596,0.5601229011012248,1.2746529477735806,0.9832797443151934,0.28305755,0.759457137370162
0.0735,1.66494375,1.0,2610.6799952224974,0.5625902841931735,1.2738442449453364,0.983387095191474,0.2829806375,0.76087158644872
0.074,1.6631,1.0,2608.7208646729073,0.565043832149184,1.2730297955624366,0.9834920814607496,0.2829032,0.7622918709666267
0.0745,1.6612437500000001,1.0,2606.773180146682,0.567483619750614,1.2722096013969584,0.9835947582137801,0.2828252375,0.7637178983013682
0.075,1.659375,1.0,2604.8367391901293,0.5699097217788212,1.271383664220979,0.9836951787933188,0.28274675,0.7651495752359532
0.0755,1.65749375,1.0,2602.911339697257,0.572322213015163,1.2705519858065757,0.9837933948593489,0.2826677375,0.7665868079595615
