Time [s],Phi [rad],STIM [ ],Fsee [N],Gamma [ ],Lcerel [ ],q [ ],Lmtc [m],fisomrel [ ]
0.0,1.8,1.0,17.98794461079713,0.00015115195629714803,1.3793374181160802,0.005005959934407185,0.288653,0.5411451633195986
0.0005,1.79999375,1.0,18.343810511801465,0.00575951342218509,1.379294944843438,0.013337026553671309,0.2886527375,0.5412479107659866
0.001,1.799975,1.0,21.79037835029412,0.011336416414498,1.378920769975451,0.03634791033651965,0.28865195,0.5421525831671279
0.0015,1.79994375,1.0,31.466539155420975,0.016882037391352932,1.3780124623903842,0.0716112884063301,0.2886506375,0.5443449562422141
0.002,1.7999,1.0,54.42846852441043,0.022396551819054297,1.3763134573175169,0.11591193650154535,0.2886488,0.5484317023014587
0.0025,1.79984375,1.0,98.5322566102969,0.027880134180531018,1.3738673087770559,0.1658727762102263,0.28864643749999996,0.5542832762366121
0.003,1.7997750000000001,1.0,162.79138845428082,0.033332957981803135,1.3711459188045128,0.21861880154041957,0.28864354999999997,0.5607484277893943
0.0035,1.79969375,1.0,239.75147619240087,0.03875519575261399,1.3685211678844276,0.2719436038455956,0.2886401375,0.5669392500672754
0.004,1.7996,1.0,323.66521244585846,0.04414701905688946,1.3660979633019699,0.3242040022114336,0.2886362,0.5726156928129769
0.0045000000000000005,1.7994937500000001,1.0,411.54303799515344,0.04950859849802287,1.3638694785291665,0.3742571432924087,0.2886317375,0.5778029419480626
0.005,1.799375,1.0,501.7342054526446,0.05484010371067625,1.3618090847940483,0.4213911890909175,0.28862675,0.5825707466852461
0.0055,1.79924375,1.0,593.1307413296654,0.06014170340070037,1.3598931559716214,0.4652325253256402,0.2886212375,0.5869799626428132
0.006,1.7991000000000001,1.0,684.8596521561143,0.0654135653067693,1.3581038881564163,0.505652969798507,0.2886152,0.5910765474721202
0.006500000000000001,1.79894375,1.0,776.2084219888785,0.07065585622770253,1.356427557219418,0.542690382314496,0.2886086375,0.594896034612878
0.007,1.798775,1.0,866.5835638692508,0.07586874206688789,1.3548533035641432,0.576487496471392,0.28860155,0.5984666229260651
0.0075,1.79859375,1.0,955.4946245720288,0.08105238758936796,1.3533721706144666,0.6072473252527872,0.2885939375,0.6018115721786363
0.008,1.7984,1.0,1042.5694849224483,0.08620695723065933,1.3519761106551114,0.6352020211022821,0.2885858,0.6049515865054236
0.0085,1.79819375,1.0,1127.4806340087373,0.09133261374349862,1.3506585878938573,0.6605929758248258,0.2885771375,0.607903554643769
0.009000000000000001,1.797975,1.0,1209.981396214899,0.0964295191858102,1.3494136099517962,0.683657412600238,0.28856795,0.6106828098866519
0.0095,1.79774375,1.0,1289.9102054290374,0.10149783511378492,1.34823543072296,0.7046206338601357,0.2885582375,0.6133038418022785
0.01,1.7975,1.0,1367.1337415734115,0.10653772197215704,1.3471191170639238,0.723692265668318,0.288548,0.6157790770687562
0.0105,1.79724375,1.0,1441.5585203873522,0.11154933882340494,1.3460601865125166,0.7410642729203413,0.2885372375,0.6181197299455429
0.011,1.796975,1.0,1513.1310643074892,0.11653284390107743,1.3450544643641353,0.7569105818740672,0.28852595000000003,0.6203361499438127
0.0115,1.79669375,1.0,1581.8702453967546,0.12148839651242699,1.3440975915547229,0.7713874409814049,0.2885141375,0.6224389269331605
0.012,1.7964,1.0,1647.7602846276025,0.12641615255326008,1.3431862335891063,0.7846350591658181,0.28850180000000003,0.6244362534276894
0.0125,1.79609375,1.0,1710.808294897534,0.13131626723357737,1.342317266378085,0.7967785210652475,0.2884889375,0.6263357434293217
0.013000000000000001,1.7957750000000001,1.0,1771.0576679942299,0.13618889576337942,1.3414875658324579,0.807929115170053,0.28847555,0.6281449055542818
0.0135,1.79544375,1.0,1828.5670497349145,0.14103419265736927,1.3406942056021656,0.8181858246134831,0.2884616375,0.6298707215213946
0.014,1.7951000000000001,1.0,1883.4129757994829,0.14585231197709525,1.3399343808676647,0.8276366284177349,0.2884472,0.631519823673844
0.0145,1.79474375,1.0,1935.653548074242,0.15064340541697513,1.3392057637648493,0.836359860947292,0.2884322375,0.6330977354231672
0.015,1.794375,1.0,1985.3576099192717,0.15540762420052887,1.3385061373262266,0.8444251892772259,0.28841675,0.634609677909687
0.0155,1.79399375,1.0,2032.6078870303247,0.16014511910789558,1.3378333365107486,0.8518946062590855,0.2884007375,0.6360607038967324
0.016,1.7936,1.0,2077.4950568202753,0.16485604092216805,1.3371852900025938,0.8588233498814862,0.2883842,0.6374556129013608
0.0165,1.7931937500000001,1.0,2120.099532119864,0.16954053877484812,1.3365601878101538,0.8652607507919184,0.2883671375,0.6387985968788074
0.017,1.792775,1.0,2160.494610639011,0.1741987599341228,1.335956423025138,0.8712509101469025,0.28834955,0.6400933731765133
0.0175,1.7923437500000001,1.0,2198.764539944782,0.17883085166817903,1.3353723887392555,0.8768332590431367,0.2883314375,0.6413436252274418
0.018000000000000002,1.7919,1.0,2234.9949244150116,0.18343696030610276,1.3348065650371606,0.8820431302875597,0.2883128,0.6425528189031173
0.0185,1.79144375,1.0,2269.2798034285333,0.18801723304162174,1.3342574364088944,0.8869122158725228,0.2882936375,0.6437243820323786
0.019,1.790975,1.0,2301.703055807799,0.1925718153664776,1.3337236679551718,0.8914690304220169,0.28827395,0.6448613311433233
0.0195,1.79049375,1.0,2332.330808706662,0.19710084993554855,1.3332041669435837,0.8957392872690739,0.2882537375,0.6459661451895167
0.02,1.79,1.0,2361.234854050469,0.20160447940371273,1.3326978406417203,0.8997461588164299,0.288233,0.6470412845418894
0.0205,1.78949375,1.0,2388.49217933974,0.20608284642584832,1.3322035963171723,0.9035105618184488,0.2882117375,0.6480891919449528
0.021,1.788975,1.0,2414.180565883183,0.21053609287961594,1.3317203795017465,0.9070514155247826,0.28818995000000003,0.6491122124464836
0.021500000000000002,1.78844375,1.0,2438.3750201560238,0.2149643603349796,1.331247203355876,0.9103858669475858,0.2881676375,0.6501125327452517
0.022,1.7879,1.0,2461.1501012739027,0.21936779059806216,1.3307831212070211,0.9135294767103127,0.2881448,0.6510922408308073
0.0225,1.78734375,1.0,2482.5628928632227,0.22374652128479847,1.3303273848068844,0.9164964169688018,0.28812143749999997,0.6520529937711879
0.023,1.786775,1.0,2502.6731854277436,0.2281006900111232,1.329879245907168,0.9192995804545624,0.28809755,0.6529964385195095
0.0235,1.78619375,1.0,2521.543250448816,0.23243043439297115,1.3294379562595746,0.921950713679694,0.28807313749999996,0.6539242122943706
0.024,1.7856,1.0,2539.2376268992816,0.23673589204627696,1.3290027676158067,0.9244605346825246,0.2880482,0.6548379429245519
0.0245,1.78499375,1.0,2555.809759994218,0.24101719762690207,1.3285730553462898,0.9268388576516277,0.2880227375,0.6557389901160842
0.025,1.784375,1.0,2571.3274647140906,0.24527449083720282,1.3281480763384157,0.9290946449068345,0.28799675,0.6566289540669558
0.025500000000000002,1.78374375,1.0,2585.840268841688,0.24950790598330322,1.3277272742368789,0.9312361375278393,0.2879702375,0.6575090361009746
0.026000000000000002,1.7831000000000001,1.0,2599.390704323696,0.25371757517941107,1.327310170294257,0.9332709083150007,0.2879432,0.6583802692026293
0.0265,1.78244375,1.0,2612.0224406847983,0.25790363053973414,1.3268962857631277,0.9352059142408088,0.2879156375,0.6592436809766313
0.027,1.781775,1.0,2623.7801883938073,0.26206620417848026,1.3264851418960684,0.937047554788658,0.28788755,0.6601002937535208
0.0275,1.7810937500000001,1.0,2634.7096073106827,0.26620542820985715,1.3260762599456568,0.9388017240548865,0.2878589375,0.660951124680652
0.028,1.7804,1.0,2644.857220215649,0.27032143474807263,1.3256691611644706,0.9404738573481353,0.2878298,0.6617971857985652
0.0285,1.77969375,1.0,2654.2609211980885,0.2744143508477648,1.3252634535442165,0.9420689834049188,0.2878001375,0.6626393041724787
0.029,1.778975,1.0,2662.9727366898874,0.27848431302472726,1.3248586209458615,0.943591736614642,0.28776995,0.6634785599399015
0.029500000000000002,1.7782437500000001,1.0,2671.0230673007713,0.2825314478319215,1.3244543520561616,0.9450464300910766,0.2877392375,0.6643156040555369
0.03,1.7775,1.0,2678.442150263228,0.28655588149598565,1.324050341369809,0.9464370600396751,0.287708,0.6651510722516271
0.0305,1.77674375,1.0,2685.260647389795,0.2905577402435579,1.3236462833814957,0.9477673324526624,0.2876762375,0.6659855971088794
0.031,1.775975,1.0,2691.50960612111,0.2945371503012763,1.3232418725859136,0.9490406878362858,0.28764395,0.6668198080585204
0.0315,1.7751937500000001,1.0,2697.220422643151,0.2984942378957791,1.322836803477755,0.950260323540866,0.2876111375,0.6676543313783976
0.032,1.7744,1.0,2702.424807074429,0.30242912925370447,1.322430770551711,0.9514292139519614,0.2875778,0.6684897901831308
0.0325,1.77359375,1.0,2707.1403797389303,0.30634194353761074,1.3220235994674518,0.9525501423613563,0.2875439375,0.6693265350319711
0.033,1.772775,1.0,2711.4076106058255,0.3102328127097671,1.3216149093695335,0.953625682386186,0.28750955,0.6701653382373303
0.0335,1.7719437500000002,1.0,2715.25797419212,0.3141018630476203,1.3212044036787207,0.9546582432295128,0.2874746375,0.6710067954636398
0.034,1.7711000000000001,1.0,2718.7099970725003,0.31794921395989506,1.3207919055178163,0.9556500862192622,0.2874392,0.6718512543183941
0.0345,1.7702437500000001,1.0,2721.782346834488,0.3217749848553162,1.3203772380096237,0.9566033248001078,0.2874032375,0.6726990604761637
0.035,1.7693750000000001,1.0,2724.4938181005855,0.3255792951426084,1.3199602242769455,0.9575199359327896,0.28736675,0.6735505576551236
0.035500000000000004,1.76849375,1.0,2726.8633192444227,0.3293622642304966,1.3195406874425848,0.958401770488476,0.2873297375,0.6744060875915827
0.036000000000000004,1.7676,1.0,2728.909859800192,0.3331240115277054,1.3191184506293443,0.9592505627372091,0.2872922,0.6752659900125215
0.0365,1.76669375,1.0,2730.6525385659966,0.33686465644295954,1.3186933369600269,0.9600679390187469,0.2872541375,0.6761306026061313
0.037,1.765775,1.0,2732.1105324006794,0.3405843183849839,1.318265169557436,0.9608554256746517,0.28721555,0.677000260990359
0.0375,1.76484375,1.0,2733.3030857144317,0.34428311676250317,1.317833771544374,0.9616144563121033,0.2871764375,0.6778752986794601
0.038,1.7639,1.0,2734.236625804767,0.3479611628746764,1.3173990829696014,0.9623463880118727,0.28713679999999997,0.6787558103636993
0.0385,1.76294375,1.0,2734.9383881443923,0.3516185821523189,1.3169608553127683,0.9630524823383797,0.28709663750000003,0.6796422710439999
0.039,1.761975,1.0,2735.4253578446683,0.3552554913714225,1.3165189335421092,0.9637339338378483,0.28705595,0.6805349639967023
0.0395,1.7609937500000001,1.0,2735.7079966453875,0.3588720028469909,1.3160732221512343,0.9643918723639188,0.2870147375,0.6814340505068127
0.04,1.76,1.0,2735.796792166889,0.36246822889402797,1.3156236256337535,0.9650273629821327,0.286973,0.6823396905032024
0.0405,1.7589937500000001,1.0,2735.70225408265,0.36604428182753757,1.3151700484832767,0.9656414103680843,0.2869307375,0.6832520425352329
0.041,1.757975,1.0,2735.4349104929056,0.36960027396252343,1.3147123951934139,0.9662349628624194,0.28688795,0.6841712637488027
0.0415,1.75694375,1.0,2735.0053045013874,0.37313631761398947,1.3142505702577751,0.9668089162127637,0.2868446375,0.6850975098618085
0.042,1.7559,1.0,2734.423990994073,0.3766525250969395,1.3137844781699703,0.9673641170297487,0.28680079999999997,0.6860309351390288
0.0425,1.75484375,1.0,2733.701533620038,0.3801490087263772,1.3133140234236096,0.9679013659816973,0.2867564375,0.6869716923664216
0.043000000000000003,1.753775,1.0,2732.848501974349,0.3836258808173066,1.3128391105123027,0.9684214207501968,0.28671155,0.6879199328248445
0.043500000000000004,1.75269375,1.0,2731.8689338799104,0.38708324499436536,1.3123597033054903,0.9689250021753169,0.28666613750000003,0.6888756879812055
0.044,1.7516,1.0,2730.779001765073,0.39052122119650623,1.3118756554551902,0.9694127870003462,0.2866202,0.6898392076989651
0.0445,1.75049375,1.0,2729.58634925449,0.3939399176178351,1.3113868980862635,0.9698854210261277,0.2865737375,0.6908105857787467
0.045,1.7493750000000001,1.0,2728.2967286990533,0.39733943990105186,1.3108933795137596,0.97034351776041,0.28652675,0.691789880658525
0.0455,1.74824375,1.0,2726.9158924817125,0.4007198936888565,1.3103950480527282,0.9707876594585501,0.2864792375,0.6927771496949762
0.046,1.7471,1.0,2725.449592034332,0.404081384623949,1.3098918520182188,0.9712183990136893,0.2864312,0.693772449147699
0.0465,1.7459437500000001,1.0,2723.9035769134402,0.4074240183490293,1.309383739725281,0.9716362617150844,0.28638263750000004,0.694775834163264
0.047,1.744775,1.0,2722.283593935215,0.4107479005067974,1.3088706594889645,0.9720417468849676,0.28633355,0.6957873587590948
0.0475,1.74359375,1.0,2720.59538637041,0.41405313673995325,1.3083525596243184,0.972435329403391,0.28628393750000003,0.6968070758071785
0.048,1.7424,1.0,2718.844693196941,0.4173398326911968,1.3078293884463927,0.9728174611297091,0.2862338,0.6978350370176016
0.0485,1.74119375,1.0,2717.0372484137283,0.420608094003228,1.307301094270237,0.9731885722285983,0.2861831375,0.6988712929219225
0.049,1.739975,1.0,2715.175842825592,0.42385800503276017,1.3067676521827838,0.973549071672432,0.28613195,0.6999158404791537
0.0495,1.73874375,1.0,2713.270744983813,0.4270896978046151,1.3062289690793965,0.9738993502722412,0.2860802375,0.7009688089814097
0.05,1.7375,1.0,2711.325079542787,0.4303032727128352,1.305685016888833,0.9742397811855844,0.286028,0.7020301991379907
0.0505,1.73624375,1.0,2709.3415705612147,0.4334988278984711,1.305135771163365,0.974570720316094,0.2859752375,0.7031000036879416
0.051000000000000004,1.734975,1.0,2707.3229390369906,0.43667646150257355,1.3045812074552636,0.9748925072855993,0.28592195,0.7041782144932833
0.051500000000000004,1.73369375,1.0,2705.2719027229423,0.43983627166619316,1.3040213013167994,0.9752054663201215,0.2858681375,0.7052648225307394
0.052000000000000005,1.7324,1.0,2703.1911759559443,0.44297835653038053,1.3034560283002439,0.9755099070801292,0.2858138,0.7063598178834235
0.0525,1.73109375,1.0,2701.083469499976,0.44610281423618636,1.3028853639578681,0.9758061254390114,0.28575893750000003,0.7074631897324928
0.053,1.729775,1.0,2698.9514904014145,0.44920974292466126,1.302309283841943,0.9760944042134223,0.28570355000000003,0.7085749263487613
0.0535,1.72844375,1.0,2696.797941858399,0.452299240736856,1.3017277635047397,0.9763750138488579,0.2856476375,0.7096950150842725
0.054,1.7271,1.0,2694.625523102888,0.45537140581382113,1.3011407784985294,0.9766482130635713,0.2855912,0.7108234423638382
0.0545,1.7257437500000001,1.0,2692.436929296461,0.45842633629660734,1.3005483043755832,0.976914249453686,0.2855342375,0.7119601936765363
0.055,1.724375,1.0,2690.2348514386863,0.46146413032626526,1.299950316688172,0.977173360062156,0.28547675,0.7131052535671725
0.0555,1.72299375,1.0,2688.0219762896845,0.4644848860438456,1.2993467909885672,0.977425771914013,0.2854187375,0.7142586056277012
0.056,1.7216,1.0,2685.8005612668103,0.46748870110366364,1.298737706723779,0.9776717027030649,0.2853602,0.7154202250682952
0.0565,1.72019375,1.0,2683.572604110512,0.4704756685010214,1.2981230456878279,0.977911360787291,0.28530113749999997,0.716590081727721
0.057,1.718775,1.0,2681.3396530703117,0.4734458815104405,1.2975027937670744,0.9781449462090523,0.28524155,0.7177681368009745
0.0575,1.71734375,1.0,2679.101981183593,0.4763994337485782,1.2968769485242901,0.9783726515382813,0.2851814375,0.7189543285551849
0.058,1.7159,1.0,2676.853906159971,0.4793364185961728,1.2962455621797102,0.9785946646047677,0.2851208,0.7201484913546794
0.0585,1.71444375,1.0,2674.5964760854476,0.4822569290354547,1.2956086252404586,0.9788111622256433,0.2850596375,0.721350576158948
0.059000000000000004,1.7129750000000001,1.0,2672.370111579144,0.48516105885048877,1.2949657665102727,0.9790222942567104,0.28499795,0.7225612136065283
0.059500000000000004,1.711496503800453,1.0,2670.2726164508995,0.48804889887602165,1.2943173304822464,0.9792282435110896,0.284935853159619,0.7237796842404469
0.06,1.7100173010898492,1.0,2668.7104517366433,0.4909205399467999,1.2936636616494743,0.9794291856908436,0.28487372664577365,0.7250052736818338
0.0605,1.7085380983792453,1.0,2667.680383025015,0.4937760728975703,1.2930051045050504,0.9796252897288341,0.2848116001319283,0.7262372727486752
0.061,1.7070588956686414,1.0,2667.144638080235,0.4966155885630793,1.2923420035420687,0.9798167181117221,0.28474947361808295,0.7274749775669932
0.0615,1.7055796929580376,1.0,2667.0674164737507,0.4994391762991847,1.2916746865894941,0.9800036261892414,0.2846873471042376,0.7287177206725777
0.062,1.7041004902474337,1.0,2667.4011659494113,0.5022469271911342,1.2910035906967023,0.980186169350345,0.2846252205903922,0.7299646371225323
0.0625,1.7026212875368298,1.0,2668.1170472399076,0.5050389290150115,1.2903289817084238,0.9803644880952141,0.28456309407654684,0.7312151861611917
0.063,1.701142084826226,1.0,2669.186414975655,0.5078152695203644,1.2896511243385578,0.9805387176956628,0.2845009675627015,0.7324688334483717
0.0635,1.699662882115622,1.0,2670.5806748635027,0.5105760364567402,1.2889702833010033,0.980708988493238,0.28443884104885614,0.7337250490080929
0.064,1.6981836794050182,1.0,2672.271265398199,0.5133213175736865,1.2882867233096595,0.9808754261225782,0.2843767145350108,0.7349833072811855
0.0645,1.6967044766944144,1.0,2674.2409747394527,0.5160511964912973,1.2876006050011546,0.981038146192848,0.2843145880211654,0.7362432780706947
0.065,1.6952252739838105,1.0,2676.450722856295,0.5187657661403424,1.2869122899258343,0.981197270882042,0.28425246150732003,0.7375042662293176
0.0655,1.6937460712732069,1.0,2678.8827592303765,0.5214651114672278,1.2862219436659825,0.9813529078293061,0.2841903349934747,0.7387659405741936
0.066,1.692266868562603,1.0,2681.522275038644,0.5241493162886738,1.2855297047921568,0.9815051595039763,0.28412820847962933,0.740028021942933
0.0665,1.6907876658519991,1.0,2684.3544567344543,0.5268184644214002,1.2848357118749143,0.9816541248172919,0.284066081965784,0.741290233548185
0.067,1.6893084631413953,1.0,2687.364480445494,0.5294726396821275,1.2841401034848121,0.9817998992747391,0.2840039554519386,0.7425523009937509
0.0675,1.6878292604307914,1.0,2690.5375067980935,0.5321119258875757,1.2834430181924075,0.9819425751208775,0.2839418289380932,0.7438139522894724
0.068,1.6863500577201875,1.0,2693.8586761663887,0.5347364068544649,1.2827445945682576,0.982082241477067,0.28387970242424787,0.7450749178648968
0.0685,1.6848708550095837,1.0,2697.3131043479334,0.5373461663995154,1.2820449711829196,0.9822189844724876,0.2838175759104025,0.7463349305817157
0.069,1.6833916522989798,1.0,2700.8892855495005,0.5399412857073659,1.2813442554760581,0.9823528857356693,0.28375544939655717,0.7475937816027505
0.0695,1.681912449588376,1.0,2704.5758136607515,0.5425218478647384,1.2806425537701303,0.9824840242625363,0.28369332288271176,0.748851265986542
0.07,1.680433246877772,1.0,2708.357807029051,0.5450879391527096,1.279940003875749,0.982612478115593,0.2836311963688664,0.7501071244580539
0.07050000000000001,1.6789540441671682,1.0,2712.2288321842716,0.5476396387575452,1.2792366662325707,0.9827383188150819,0.28356906985502106,0.7513612379825252
0.07100000000000001,1.6774748414565643,1.0,2716.1824410760255,0.5501770258655112,1.2785326012802525,0.982861615561191,0.2835069433411757,0.752613488597117
0.07150000000000001,1.6759956387459605,1.0,2720.212170058674,0.5527001796628738,1.2778278694584515,0.9829824353263988,0.28344481682733036,0.7538637594138318
0.07200000000000001,1.6745164360353566,1.0,2724.311538956944,0.5552091793358989,1.2771225312068244,0.9831008429435691,0.28338269031348495,0.7551119346222023
0.0725,1.673037233324753,1.0,2728.474050213049,0.5577041040708524,1.2764166469650282,0.9832169011900175,0.2833205637996396,0.7563578994917441
0.073,1.671558030614149,1.0,2732.6931881143555,0.5601850330540004,1.2757102771727196,0.9833306708677622,0.28325843728579425,0.7576015403741778
0.0735,1.6700788279035452,1.0,2736.962418102225,0.562652045471609,1.2750034822695555,0.9834422108801506,0.2831963107719489,0.7588427447054154
