Time [s],Phi [rad],STIM [ ],Fsee [N],Gamma [ ],Lcerel [ ],q [ ],Lmtc [m],fisomrel [ ]
0.0,1.8,1.0,18.54763851879294,0.0007767881405975681,1.3792752299606976,0.005155337191690931,0.288653,0.5412955992929207
0.0005,1.79999375,1.0,19.08954932545858,0.006381640282262907,1.3792130830476828,0.01520561155520174,0.2886527375,0.5414459108592834
0.001,1.799975,1.0,23.00082698981102,0.011955053634983689,1.37879929354416,0.03971550047564847,0.28865195,0.542446094421063
0.0015,1.79994375,1.0,33.72926017932163,0.017497204545868082,1.377824232321478,0.07615021698415567,0.2886506375,0.5447986271386667
0.002,1.7999,1.0,58.760031143212245,0.023008268372320003,1.376039977445991,0.1212418822097677,0.2886488,0.5490878040893449
0.0025,1.79984375,1.0,105.35403115864382,0.028488419487895326,1.3735464111335844,0.17164235921612495,0.28864643749999996,0.5550480826824589
0.003,1.7997750000000001,1.0,171.38273015889337,0.033937831288995496,1.370830263673451,0.22455201107463907,0.28864354999999997,0.5614952664026747
0.0035,1.79969375,1.0,249.3004757630714,0.039356676199266805,1.3682311642431004,0.27783150845148774,0.2886401375,0.5676205665821774
0.004,1.7996,1.0,333.73501169001077,0.044745125673882266,1.365834195972248,0.3298955759083303,0.2886362,0.5732313171471265
0.0045000000000000005,1.7994937500000001,1.0,421.90713165907727,0.05010335019562679,1.3636283757144687,0.37965337428084234,0.2886317375,0.5783622588496722
0.005,1.799375,1.0,512.2677436415532,0.05543151934462605,1.3615869262024112,0.4264352652820055,0.28862675,0.5830832104575641
0.0055,1.79924375,1.0,603.7215298278163,0.06072980163723092,1.3596875599778415,0.46989965678618456,0.2886212375,0.587451719378784
0.006,1.7991000000000001,1.0,695.4358890414395,0.06599836480511924,1.3579127045321882,0.5099401814718263,0.2886152,0.5915130610154802
0.006500000000000001,1.79894375,1.0,786.691800071412,0.07123737541972651,1.356249466847498,0.5466093221104403,0.2886086375,0.595300756922428
0.007,1.798775,1.0,876.9300776427076,0.0764469994457407,1.3546868911760197,0.5800582063012617,0.28860155,0.5988431416705687
0.0075,1.79859375,1.0,965.6567642404165,0.08162740150643588,1.353216463570505,0.610494592646226,0.2885939375,0.6021624038990627
0.008,1.7984,1.0,1052.5017848102427,0.08677874560645368,1.351830378959112,0.63815254459328,0.2885858,0.6052786493669888
0.0085,1.79819375,1.0,1137.158568646534,0.09190119485070583,1.3505220080721358,0.6632734199285574,0.2885771375,0.608208934493232
0.009000000000000001,1.797975,1.0,1219.3842739228708,0.09699491101399638,1.349285489774226,0.6860934772725937,0.28856795,0.6109682609476376
0.0095,1.79774375,1.0,1299.0165938280027,0.10206005526311591,1.3481152349121164,0.7068364633716306,0.2885582375,0.6135707373153126
0.01,1.7975,1.0,1375.9505470235556,0.1070967888245409,1.3470060608029542,0.7257099424135741,0.288548,0.61602931685592
0.0105,1.79724375,1.0,1450.0770297760564,0.11210527002220015,1.3459537980149594,0.7429040210310487,0.2885372375,0.6183544950224001
0.011,1.796975,1.0,1521.3487930547265,0.11708565718002242,1.3449542771163516,0.7585906309804261,0.28852595000000003,0.6205565902395895
0.0115,1.79669375,1.0,1589.7595748558965,0.12203810810487381,1.344003510634178,0.7729242925513985,0.2885141375,0.6226453592836769
0.012,1.7964,1.0,1655.3339603410102,0.12696278036626618,1.3430977324451474,0.7860432555735124,0.28850180000000003,0.6246299298182336
0.0125,1.79609375,1.0,1718.0855136377995,0.13185982921612904,1.3422338039467474,0.798071004161764,0.2884889375,0.6265179318754441
0.013000000000000001,1.7957750000000001,1.0,1778.0429016435207,0.13672940906943737,1.341408820581644,0.8091174782664846,0.28847555,0.6283163814701878
0.0135,1.79544375,1.0,1835.264171325992,0.14157167416621766,1.3406198997512901,0.8192803842692166,0.2884616375,0.6300321552723886
0.014,1.7951000000000001,1.0,1889.8230968323721,0.14638677810358539,1.339864298014622,0.8286465715232643,0.2884472,0.6316717440530235
0.0145,1.79474375,1.0,1941.7923287869055,0.15117487384224731,1.3391395555680823,0.8372933066240995,0.2884322375,0.6332409497738636
0.015,1.794375,1.0,1991.2327463017532,0.15593611186393055,1.338443567489822,0.8452893946783013,0.28841675,0.6347447437014102
0.0155,1.79399375,1.0,2038.2233139723523,0.16067064265036232,1.3377742288579917,0.8526960504996319,0.2884007375,0.6361880431102968
0.016,1.7936,1.0,2082.8484864133297,0.1653786157575271,1.337129549617607,0.8595678307521499,0.2883842,0.6375754680313439
0.0165,1.7931937500000001,1.0,2125.2068473214345,0.17006018170586631,1.3365075448142674,0.86595339036236,0.2883671375,0.638911582535312
0.017,1.792775,1.0,2165.3820450665376,0.1747154888307544,1.3359065177651077,0.8718962603506012,0.28834955,0.6402002912082889
0.0175,1.7923437500000001,1.0,2203.4426938058095,0.17934468309455387,1.3353250363718137,0.8774354411961266,0.2883314375,0.6414448979025569
0.018000000000000002,1.7919,1.0,2239.466704736722,0.18394791045962713,1.334761668536071,0.8826058618220534,0.2883128,0.6426486775476585
0.0185,1.79144375,1.0,2273.540508979413,0.18852531688833662,1.3342149821595655,0.8874388546351754,0.2882936375,0.6438148778701573
0.019,1.790975,1.0,2305.7476865385847,0.19307704707735798,1.3336836503638647,0.89196259689338,0.28827395,0.6449464970658358
0.0195,1.79049375,1.0,2336.1800500551158,0.19760324687109226,1.333166332411391,0.8962024440939125,0.2882537375,0.6460465400112965
0.02,1.79,1.0,2364.911886654933,0.20210405926226985,1.3326619198178753,0.9001813043622371,0.288233,0.647117497139941
0.0205,1.78949375,1.0,2392.0081114974687,0.20657962535341481,1.3321694450976076,0.9039198902980705,0.2882117375,0.6481615425495774
0.021,1.788975,1.0,2417.538037495912,0.2110300862470513,1.3316879407648778,0.9074369312556249,0.28818995000000003,0.6491808353034276
0.021500000000000002,1.78844375,1.0,2441.5750085265613,0.21545558304570345,1.3312164393339763,0.9107493904654576,0.2881676375,0.65017752013687
0.022,1.7879,1.0,2464.1896415961737,0.21985625545586993,1.3307540346572067,0.9138726676461892,0.2881448,0.6511535987180463
0.0225,1.78734375,1.0,2485.4548253477033,0.22423224454371363,1.3302998298982154,0.9168207568378606,0.28812143749999997,0.6521110407181441
0.023,1.786775,1.0,2505.4351083919273,0.22858368951379418,1.3298530352990179,0.9196064111639274,0.28809755,0.6530515787755895
0.0235,1.78619375,1.0,2524.1840746840057,0.2329107263841666,1.3294129884755435,0.922241274063084,0.28807313749999996,0.6539766678048835
0.024,1.7856,1.0,2541.7574101001615,0.2372134911728859,1.328979027043721,0.924735970874334,0.2880482,0.654887754353848
0.0245,1.78499375,1.0,2558.212725298148,0.241492119898007,1.3285504886194799,0.9271002118758533,0.2880227375,0.6557862768746845
0.025,1.784375,1.0,2573.6093883055814,0.24574674857758497,1.328126710818749,0.9293428836463674,0.28799675,0.6566736659670572
0.025500000000000002,1.78374375,1.0,2587.996230839638,0.24997751014062664,1.327707144544565,0.9314721476563188,0.2879702375,0.6575511078266825
0.026000000000000002,1.7831000000000001,1.0,2601.4344764873613,0.25418454267466156,1.3272911376672691,0.9334954788220298,0.2879432,0.6584199974632166
0.0265,1.78244375,1.0,2613.971751395479,0.25836797951766,1.326878176574553,0.9354197654746539,0.2879156375,0.6592814339263244
0.027,1.781775,1.0,2625.646754083122,0.2625279510323715,1.3264678401587826,0.9372513579443149,0.28788755,0.6601363180550369
0.0275,1.7810937500000001,1.0,2636.499058336134,0.26666458758154554,1.3260597073123253,0.9389961057126821,0.2878589375,0.6609855461332934
0.028,1.7804,1.0,2646.569037960954,0.2707780195279318,1.3256533569275475,0.9406594035306368,0.2878298,0.6618300099547811
0.0285,1.77969375,1.0,2655.897795470108,0.2748683772342797,1.3252483678968157,0.9422462327314548,0.2878001375,0.6626705968764595
0.029,1.778975,1.0,2664.527094699419,0.2789357910633389,1.3248443191124968,0.9437611982922662,0.28776995,0.6635081898607729
0.029500000000000002,1.7782437500000001,1.0,2672.490910163453,0.2829803878422231,1.3244408665121552,0.9452085713660131,0.2877392375,0.6643435080894193
0.03,1.7775,1.0,2679.831047510114,0.28700229966584934,1.3240375987105497,0.9465923020604868,0.287708,0.6651774063198366
0.0305,1.77674375,1.0,2686.582432690704,0.291001654848919,1.3236341717781788,0.947916061697962,0.2876762375,0.6660105958464677
0.031,1.775975,1.0,2692.7720286739273,0.2949785777276485,1.323230318296565,0.94918326748968,0.28764395,0.6668436267024913
0.0315,1.7751937500000001,1.0,2698.4271203347557,0.29893319263825413,1.3228257708472306,0.9503970954498744,0.2876111375,0.6676770461635566
0.032,1.7744,1.0,2703.575284305969,0.3028656239169522,1.3224202620116985,0.9515605003975908,0.2875778,0.6685113987382261
0.0325,1.77359375,1.0,2708.244360414852,0.30677599589995913,1.322013524371491,0.9526762340682438,0.2875439375,0.6693472261538622
0.033,1.772775,1.0,2712.4624247056263,0.3106644329234911,1.3216052905081306,0.9537468615338234,0.28750955,0.6701850673379495
0.0335,1.7719437500000002,1.0,2716.2577640472978,0.31453105932376463,1.3211952930031396,0.9547747761077667,0.2874746375,0.6710254583948574
0.034,1.7711000000000001,1.0,2719.6486820977534,0.31837599026765917,1.3207833570487706,0.9557622208214392,0.2874392,0.6718687431139061
0.0345,1.7702437500000001,1.0,2722.6688028763688,0.32219936049730136,1.3203691697005022,0.956711282168238,0.2874032375,0.6727155456167437
0.035,1.7693750000000001,1.0,2725.336257980532,0.32600128906738834,1.3199525603772149,0.9576239234616893,0.28736675,0.6735661961354104
0.035500000000000004,1.76849375,1.0,2727.6679241276065,0.3297818936269865,1.3195333708929324,0.9585019839323539,0.2873297375,0.6744209977225756
0.036000000000000004,1.7676,1.0,2729.6807724745668,0.33354129182516234,1.3191114430616784,0.959347187099108,0.2872922,0.6752802516170064
0.0365,1.76669375,1.0,2731.3918581459925,0.3372796013109823,1.318686618697477,0.9601611493622886,0.2872541375,0.6761442572167375
0.037,1.765775,1.0,2732.8183103164865,0.34099693973351275,1.3182587396143521,0.9609453878657629,0.28721555,0.6770133120506505
0.0375,1.76484375,1.0,2733.9773228482904,0.3446934247418202,1.3178276476263273,0.9617013276975617,0.2871764375,0.6778877117484539
0.038,1.7639,1.0,2734.8861454829284,0.3483691739849711,1.3173931845474267,0.9624303084914292,0.28713679999999997,0.6787677500090661
0.0385,1.76294375,1.0,2735.5620755887685,0.3520243051120318,1.3169551921916738,0.9631335904851543,0.28709663750000003,0.6796537185674081
0.039,1.761975,1.0,2736.0169334749903,0.3556589294960458,1.316513562460636,0.9638123634936301,0.28705595,0.680545806053817
0.0395,1.7609937500000001,1.0,2736.2612390689183,0.35927316047594987,1.3160681993495864,0.9644677499074283,0.2870147375,0.6814441752548154
0.04,1.76,1.0,2736.320893594848,0.36286712904179846,1.315618867463201,0.9651007986299174,0.286973,0.6823492681799948
0.0405,1.7589937500000001,1.0,2736.204478863606,0.36644094503832936,1.3151654888368058,0.9657125091494982,0.2869307375,0.6832612074179121
0.041,1.757975,1.0,2735.920593515516,0.3699947183102806,1.3147079855057273,0.9663038249877831,0.28688795,0.6841801143460681
0.0415,1.75694375,1.0,2735.477850324463,0.3735285587023899,1.314246279505292,0.9668756374120947,0.2868446375,0.6851061091105928
0.042,1.7559,1.0,2734.884873637488,0.37704257605939523,1.3137802928708264,0.9674287888647447,0.28680079999999997,0.6860393106055434
0.0425,1.75484375,1.0,2734.150296948686,0.3805368802260345,1.3133099476376564,0.967964076133383,0.2867564375,0.6869798364518145
0.043000000000000003,1.753775,1.0,2733.282760607123,0.3840115810470455,1.3128351658411088,0.9684822532844073,0.28671155,0.6879278029756568
0.043500000000000004,1.75269375,1.0,2732.290909661457,0.3874667883671663,1.3123558695165096,0.9689840343793578,0.28666613750000003,0.6888833251868152
0.044,1.7516,1.0,2731.183391837066,0.3909026120311346,1.3118719806991852,0.9694700959923642,0.2866202,0.6898465167562725
0.0445,1.75049375,1.0,2729.968855649744,0.39431916188368843,1.3113834214244622,0.9699410795450557,0.2865737375,0.690817489993609
0.045,1.7493750000000001,1.0,2728.6559486531237,0.39771654776956566,1.3108901137276667,0.9703975934738308,0.28652675,0.6917963558239747
0.0455,1.74824375,1.0,2727.253286803151,0.4010948794709288,1.3103919799079964,0.970840215254154,0.2864792375,0.6927832232423277
0.046,1.7471,1.0,2725.761140770681,0.4044542482097111,1.309889018135424,0.9712694963504044,0.2864312,0.6937780498694608
0.0465,1.7459437500000001,1.0,2724.197283811784,0.40779478443126316,1.3093810673714903,0.9716859543805405,0.28638263750000004,0.6947811069900427
0.047,1.744775,1.0,2722.5656651639074,0.41111659007555323,1.3088680922385305,0.9720900866547894,0.28633355,0.6957924158065389
0.0475,1.74359375,1.0,2720.870232070146,0.4144197670825496,1.3083500573588784,0.9724823661798655,0.28628393750000003,0.6968119965777309
0.048,1.7424,1.0,2719.1149293052345,0.41770441739222053,1.3078269273548688,0.972863243070314,0.2862338,0.6978398686073353
0.0485,1.74119375,1.0,2717.3036987309565,0.42097064294453423,1.307298666848836,0.9732331458652457,0.2861831375,0.6988760502325513
0.049,1.739975,1.0,2715.440478878093,0.424218545679459,1.3067652404631143,0.9735924827576207,0.28613195,0.6999205588125246
0.0495,1.73874375,1.0,2713.5292045568704,0.4274482275369631,1.306226612820038,0.9739416427426331,0.2860802375,0.7009734107167302
0.05,1.7375,1.0,2711.573806494868,0.4306597904570148,1.3056827485419416,0.9742809966912147,0.286028,0.7020346213132784
0.0505,1.73624375,1.0,2709.5782110025725,0.43385333637958234,1.3051336122511596,0.9746108983541606,0.2859752375,0.7031042049571395
0.051000000000000004,1.734975,1.0,2707.5463396671094,0.43702896724463397,1.3045791685700263,0.9749316853019504,0.28592195,0.7041821749782893
0.051500000000000004,1.73369375,1.0,2705.4821090731007,0.440186784992138,1.304019382120876,0.9752436798049132,0.2858681375,0.7052685436697728
0.052000000000000005,1.7324,1.0,2703.389430551602,0.44332689156206256,1.3034542175260435,0.9755471896580135,0.2858138,0.7063633222756909
0.0525,1.73109375,1.0,2701.26842808199,0.44644936829766896,1.3028836739628347,0.9758425089681393,0.28575893750000003,0.7074664542307885
0.053,1.729775,1.0,2699.126218754481,0.4495543365174598,1.3023076866901506,0.9761299190668149,0.28570355000000003,0.7085780056379136
0.0535,1.72844375,1.0,2696.9662240655043,0.4526418996872482,1.301726224660729,0.9764096891911564,0.2856476375,0.7096979762499466
0.054,1.7271,1.0,2694.790090495893,0.45571215170772833,1.3011392730173623,0.9766820769358974,0.2855912,0.710826333694434
0.0545,1.7257437500000001,1.0,2692.599462075486,0.45876518647959397,1.3005468169028422,0.9769473288452897,0.2855342375,0.7119630448009229
0.055,1.724375,1.0,2690.3959803344696,0.46180109790353924,1.2999488414599611,0.9772056809773445,0.28547675,0.7131080755957497
0.0555,1.72299375,1.0,2688.1812842597396,0.464819979880258,1.2993453318315107,0.9774573594347118,0.2854187375,0.7142613912968201
0.056,1.7216,1.0,2685.9570102554103,0.46782192631044434,1.2987362731602832,0.977702580864438,0.2853602,0.7154229563083696
0.0565,1.72019375,1.0,2683.7247921091275,0.4708070310947922,1.2981216505890707,0.9779415529286599,0.28530113749999997,0.7165927342157145
0.057,1.718775,1.0,2681.4862609627244,0.47377538813399556,1.2975014492606654,0.9781744747481526,0.28524155,0.7177706877799865
0.0575,1.71734375,1.0,2679.2430452877043,0.4767270913287484,1.2968756543178588,0.9784015373205014,0.2851814375,0.7189567789328546
0.058,1.7159,1.0,2676.9967708660433,0.4796622345797448,1.2962442509034435,0.9786229239145415,0.2851208,0.7201509687712295
0.0585,1.71444375,1.0,2674.749060775623,0.48258091178767853,1.2956072241602115,0.9788388104425917,0.2850596375,0.7213532175519595
0.059000000000000004,1.7129750000000001,1.0,2672.50153538056,0.4854832168532437,1.2949645592309547,0.9790493658118968,0.28499795,0.7225634846865072
0.059500000000000004,1.71149375,1.0,2670.2558123265258,0.48836924367713436,1.294316241258465,0.9792547522565954,0.2849357375,0.7237817287356155
0.06,1.71,1.0,2668.0125966095625,0.4912390742937794,1.2936622637512274,0.9794551251364928,0.284873,0.7250078917363029
0.0605,1.7084937500000001,1.0,2665.77158677098,0.4940927820419881,1.2930026294638162,0.9796506335884089,0.2848097375,0.7262418977273267
0.061,1.7069750000000001,1.0,2663.536965333044,0.4969305027698004,1.2923372998961384,0.9798414237831371,0.28474595,0.7274837470964134
0.0615,1.7054437500000001,1.0,2661.3090803737177,0.4997523214832318,1.2916662717809317,0.9800276341117604,0.2846816375,0.7287333734228688
0.062,1.7039,1.0,2659.0882793954283,0.5025583231882976,1.290989541850934,0.9802093977214068,0.2846168,0.7299907096090035
0.0625,1.70234375,1.0,2656.8749093283436,0.5053485928910132,1.2903071068388827,0.98038684275164,0.2845514375,0.7312556878789462
0.063,1.7007750000000001,1.0,2654.66931653495,0.508123215597394,1.2896189634775157,0.9805600925584762,0.28448555,0.7325282397774535
0.0635,1.69919375,1.0,2652.4718468147403,0.5108822763134555,1.2889251084995705,0.9807292659267673,0.28441913750000003,0.7338082961687226
0.064,1.6976,1.0,2650.282845408257,0.5136258600452129,1.2882255386377852,0.9808944772716287,0.2843522,0.7350957872351995
0.0645,1.69599375,1.0,2648.1026570027734,0.5163540517986818,1.287520250624897,0.9810558368295569,0.2842847375,0.7363906424763915
0.065,1.694375,1.0,2645.931625736943,0.5190669365798773,1.2868092411936438,0.9812134508398358,0.28421675,0.737692790707673
0.0655,1.69274375,1.0,2643.7700952063024,0.5217645993948151,1.2860925070767633,0.9813674217167878,0.2841482375,0.739002160059095
0.066,1.6911,1.0,2641.6184084690444,0.5244471252495104,1.2853700450069931,0.981517848213397,0.2840792,0.7403186779741924
0.0665,1.6894437500000001,1.0,2639.4769080519923,0.5271145991499787,1.284641851717071,0.9816648255767947,0.2840096375,0.7416422712087913
0.067,1.687775,1.0,2637.3459359562326,0.5297671061022353,1.2839079239397346,0.9818084456960643,0.28393955,0.7429728658298147
0.0675,1.68609375,1.0,2635.225833664046,0.5324047311122957,1.2831682584077218,0.9819487972427983,0.2838689375,0.7443103872140872
0.068,1.6844000000000001,1.0,2633.116942145146,0.5350275591861753,1.2824228518537701,0.9820859658048097,0.2837978,0.745654760047141
0.0685,1.68269375,1.0,2631.0196018635966,0.5376356753298892,1.2816717010106171,0.9822200340133763,0.2837261375,0.7470059083220202
0.069,1.680975,1.0,2628.934152784943,0.5402291645494532,1.2809148026110007,0.9823510816643738,0.28365395,0.7483637553380821
0.0695,1.67924375,1.0,2626.8611118581007,0.5428081093727317,1.2801521517432657,0.9824791856001968,0.28358123749999997,0.7497282266378132
0.07,1.6775,1.0,2624.8051858515914,0.5453725376017229,1.2793837046527077,0.9826044148414295,0.283508,0.7510993162453081
0.07050000000000001,1.67574375,1.0,2622.761112573104,0.5479226058046539,1.2786095099567185,0.9827268483256634,0.2834342375,0.7524768525563685
0.07100000000000001,1.673975,1.0,2620.7288235793876,0.5504583896683236,1.2778295681704155,0.9828465551746641,0.28335995,0.7538607495224505
0.07150000000000001,1.67219375,1.0,2618.7082505827,0.5529799648795305,1.2770438798089163,0.9829636022227846,0.2832851375,0.7552509204732868
0.07200000000000001,1.6704,1.0,2616.69932544965,0.5554874071250735,1.276252445387338,0.9830780541063767,0.2832098,0.7566472781170784
0.0725,1.66859375,1.0,2614.7019801998135,0.5579807920917511,1.275455265420799,0.9831899733491272,0.2831339375,0.75804973454068
0.073,1.6667750000000001,1.0,2612.71614700494,0.5604601954663622,1.2746523404244159,0.9832994204435275,0.28305755,0.759458201209792
0.0735,1.66494375,1.0,2610.741758187551,0.5629256929357055,1.2738436709133065,0.9834064539286785,0.2829806375,0.7608725889691477
0.074,1.6631,1.0,2608.778746219739,0.5653773601865797,1.2730292574025885,0.9835111304646159,0.2829032,0.762292808042701
0.0745,1.6612437500000001,1.0,2606.827043722291,0.5678152729057835,1.2722091004073792,0.9836135049033333,0.2828252375,0.763718768033818
0.075,1.659375,1.0,2604.8865834633725,0.5702395067801156,1.2713832004427965,0.9837136303566707,0.28274675,0.7651503779254621
0.0755,1.65749375,1.0,2602.957298357598,0.5726501374963748,1.2705515580239575,0.983811558261223,0.2826677375,0.7665875460803864
