Time [s],Phi [rad],STIM [ ],Fsee [N],Gamma [ ],Lcerel [ ],q [ ],Lmtc [m],fisomrel [ ]
0.0,1.8,1.0,18.156731573554662,0.00044229907572067566,1.3793185633873302,0.005050597143931014,0.288653,0.5411907763704464
0.0005,1.79999375,1.0,18.602879854391876,0.006049027436529766,1.3792663206473934,0.014184129213189099,0.2886527375,0.5413171493067238
0.001,1.799975,1.0,22.26528881535111,0.011624306484159443,1.378872717083144,0.03789678734992689,0.28865195,0.5422686997769002
0.0015,1.79994375,1.0,32.41894180228918,0.017168312625324787,1.3779324358667715,0.07371065261991312,0.2886506375,0.544537863264696
0.002,1.7999,1.0,56.32796715985465,0.022681221275155292,1.3761922377178344,0.1183848240621621,0.2886488,0.5487225774261747
0.0025,1.79984375,1.0,101.59714574000675,0.02816320686651655,1.3737218049458257,0.1685545372437619,0.28864643749999996,0.5546301419261295
0.003,1.7997750000000001,1.0,166.7003975357222,0.03361444285331496,1.3710012901319082,0.22137985572177502,0.28864354999999997,0.5610906974504455
0.0035,1.79969375,1.0,244.120865026195,0.03903510171703468,1.3683877659589248,0.27468592112473833,0.2886401375,0.5672527228692363
0.004,1.7996,1.0,328.28805416081013,0.04442535497037419,1.3659763710516344,0.3268565394473298,0.2886362,0.5728995402802183
0.0045000000000000005,1.7994937500000001,1.0,416.31238610912766,0.04978537316164032,1.3637581552601172,0.37677317488936457,0.2886317375,0.5780612387811112
0.005,1.799375,1.0,506.58991220603957,0.055115325894244685,1.361706388207609,0.4237437946418187,0.28862675,0.5828076808986175
0.0055,1.79924375,1.0,598.0230271143312,0.060415381809439235,1.3597979572326342,0.46740977638667347,0.2886212375,0.5871984374082384
0.006,1.7991000000000001,1.0,689.7486245925609,0.06568570859260903,1.3580153294683623,0.5076533201889539,0.2886152,0.5912787750818239
0.006500000000000001,1.79894375,1.0,781.0617893944261,0.07092647299909041,1.356344960255433,0.5445190544418643,0.2886086375,0.5950837669022766
0.007,1.798775,1.0,871.3797037911879,0.07613784091323937,1.3547760400713031,0.5781537478368465,0.28860155,0.598641458518256
0.0075,1.79859375,1.0,960.2066357924548,0.08131997700876742,1.3532998694773384,0.6087626996650354,0.2885939375,0.6019744968982643
0.008,1.7984,1.0,1047.17823030586,0.08647304566105993,1.3519084028982509,0.6365789135944554,0.2885858,0.6051035585765381
0.0085,1.79819375,1.0,1131.9731896212522,0.09159720961334195,1.3505951141204227,0.6618438162195661,0.2885771375,0.608045490927576
0.009000000000000001,1.797975,1.0,1214.348513800821,0.0966926308476883,1.3493540435210323,0.6847941765289066,0.28856795,0.6108155365928083
0.0095,1.79774375,1.0,1294.1447571588249,0.10175947096456188,1.3481794860047218,0.7056545631678164,0.2885582375,0.6134280788440298
0.01,1.7975,1.0,1371.2317240154346,0.10679789029054411,1.347066524192077,0.7246337137280072,0.288548,0.6158954967641278
0.0105,1.79724375,1.0,1445.5156509372023,0.11180804779901123,1.3460107265383139,0.7419226770936246,0.2885372375,0.6182288811238144
0.011,1.796975,1.0,1516.9497024340951,0.11679010188290219,1.3450078753131371,0.7576944291675916,0.28852595000000003,0.6204386670022795
0.0115,1.79669375,1.0,1585.543623083584,0.12174421135142635,1.3440537570982802,0.7721044034576555,0.2885141375,0.6225351155183596
0.012,1.7964,1.0,1651.2890158091209,0.12667053234162493,1.343144973837385,0.7852919576795797,0.28850180000000003,0.6245265527109067
0.0125,1.79609375,1.0,1714.1947825298237,0.131569220094981,1.342278404709853,0.7973814302504463,0.2884889375,0.6264205793025448
0.013000000000000001,1.7957750000000001,1.0,1774.3059006597834,0.1364404298529778,1.3414509288950855,0.8084834373225751,0.28847555,0.6282246911884033
0.0135,1.79544375,1.0,1831.6829951879415,0.14128431581261702,1.3406596166915266,0.8186963575501781,0.2884616375,0.6299458723073412
0.014,1.7951000000000001,1.0,1886.4009182784391,0.1461010322713547,1.33990169841151,0.8281076480689956,0.2884472,0.6315906741612594
0.0145,1.79474375,1.0,1938.5125877851199,0.15089073059953342,1.3391749153059562,0.8367951911178744,0.2884322375,0.6331644669234612
0.015,1.794375,1.0,1988.0898081539278,0.15565356204109687,1.3384770280858211,0.8448282225741897,0.28841675,0.6346725174049435
0.0155,1.79399375,1.0,2035.2161397528766,0.16038967725003164,1.3378058720555186,0.8522683623316177,0.2884007375,0.63611987501534
0.016,1.7936,1.0,2079.9845294667634,0.16509922704810367,1.3371593604698122,0.8591705147990666,0.2883842,0.6375113700497042
0.0165,1.7931937500000001,1.0,2122.481968663991,0.16978236106123645,1.3365356232700258,0.8655837036422301,0.2883671375,0.6388513210148445
0.017,1.792775,1.0,2162.7763222717463,0.1744392261637121,1.3359331176058313,0.8715517949925455,0.28834955,0.6401433051518708
0.0175,1.7923437500000001,1.0,2200.946105516414,0.17906996922981278,1.3353503006268999,0.8771140121951734,0.2883314375,0.6413908669306374
0.018000000000000002,1.7919,1.0,2237.079590932231,0.1836747371338206,1.3347856294829032,0.8823054815691863,0.2883128,0.6425975200629344
0.0185,1.79144375,1.0,2271.259679997889,0.18825367523331699,1.3342377036970479,0.8871577463564125,0.2882936375,0.643766445877948
0.019,1.790975,1.0,2303.583496038569,0.19280693062872656,1.3337050585029393,0.8916991304116638,0.28827395,0.6449009372753504
0.0195,1.79049375,1.0,2334.1225020183524,0.1973346465375634,1.3331865523513533,0.8959551973267758,0.2882537375,0.6460035756767184
0.02,1.79,1.0,2362.944830342528,0.2018369650820102,1.3326811324569885,0.8999490068749818,0.288233,0.6470767350355092
0.0205,1.78949375,1.0,2390.123674118073,0.20631402838424967,1.3321877460345437,0.9037013756255255,0.2882117375,0.6481227722719691
0.021,1.788975,1.0,2415.7368622152476,0.21076597856646448,1.3317053402987171,0.9072311257113231,0.28818995000000003,0.6491440281164295
0.021500000000000002,1.78844375,1.0,2439.8534765357554,0.21519295578020525,1.3312329872769118,0.9105553285240856,0.2881676375,0.6501425642207055
0.022,1.7879,1.0,2462.5576304049687,0.2195951029763551,1.330769649778857,0.9136894479453422,0.2881448,0.6511206593914932
0.0225,1.78734375,1.0,2483.9103150770306,0.22397255872331537,1.3303145443039532,0.9166475807915431,0.28812143749999997,0.6520800440729329
0.023,1.786775,1.0,2503.9664572439738,0.22832546011854232,1.3298669709771194,0.9194425677406157,0.28809755,0.6530222623035087
0.0235,1.78619375,1.0,2522.78336432046,0.23265394425949223,1.329426229923275,0.9220861085284155,0.28807313749999996,0.6539488489749283
0.024,1.7856,1.0,2540.420525398001,0.23695814824362132,1.3289916212673394,0.9245888790824213,0.2880482,0.6548613301527026
0.0245,1.78499375,1.0,2556.939220274443,0.24123820910913862,1.3285624470386477,0.9269606355248248,0.2880227375,0.6557612193749229
0.025,1.784375,1.0,2572.3912243352815,0.24549426043964276,1.3281381152389928,0.929210322270521,0.28799675,0.6566498001511527
0.025500000000000002,1.78374375,1.0,2586.846153798677,0.24972644183299386,1.327717881490073,0.9313461128759115,0.2879702375,0.6575286675754417
0.026000000000000002,1.7831000000000001,1.0,2600.34538984522,0.253934885033225,1.3273012788550613,0.9333755492350577,0.2879432,0.6583988292724534
0.0265,1.78244375,1.0,2612.9314269642905,0.25811972178436915,1.326887840397132,0.9353055603604343,0.2879156375,0.6592612876291426
0.027,1.781775,1.0,2624.647779336487,0.2622810838304594,1.3264770991794586,0.9371425204027695,0.28788755,0.6601170398959375
0.0275,1.7810937500000001,1.0,2635.5388920505607,0.26641910291552884,1.3260685882652143,0.9388923004723523,0.2878589375,0.6609670782740119
0.028,1.7804,1.0,2645.650057153594,0.2705339107836105,1.3256618407175733,0.9405603149909153,0.2878298,0.6618123899886541
0.0285,1.77969375,1.0,2655.0139672528753,0.27462563436127946,1.3252565127957023,0.942151579011225,0.2878001375,0.6626537017984029
0.029,1.778975,1.0,2663.6844191656905,0.27869440957094416,1.324852072152659,0.943670705200654,0.28776995,0.6634921276088124
0.029500000000000002,1.7782437500000001,1.0,2671.6994166461564,0.28274036577600387,1.3244481377572013,0.945121980782542,0.2877392375,0.6643284627100898
0.03,1.7775,1.0,2679.0877210848967,0.2867636285783394,1.324044418066535,0.9465093882959396,0.287708,0.6651633135201553
0.0305,1.77674375,1.0,2685.878505420861,0.29076432357983184,1.3236406215378662,0.9478366212424759,0.2876762375,0.6659972834521162
0.031,1.775975,1.0,2692.1013172055773,0.29474257638236206,1.3232364566284012,0.9491071086976515,0.28764395,0.6668309729155476
0.0315,1.7751937500000001,1.0,2697.786043552179,0.29869851258781105,1.3228316317953461,0.9503240375377686,0.2876111375,0.6676649793123536
0.032,1.7744,1.0,2702.962877968754,0.3026322577980597,1.322425855495907,0.9514903725392656,0.2875778,0.6684998970272084
0.0325,1.77359375,1.0,2707.662289076439,0.306543937614989,1.32201883618729,0.9526088745770314,0.2875439375,0.6693363174125744
0.033,1.772775,1.0,2711.9068783130183,0.3104336742546068,1.3216103563086428,0.9536821248007455,0.28750955,0.6701746770249613
0.0335,1.7719437500000002,1.0,2715.724710078837,0.3143015931806764,1.321200150296986,0.9547125267368152,0.2874746375,0.6710155084476839
0.034,1.7711000000000001,1.0,2719.1487668739196,0.3181478205030707,1.3207879095209056,0.9557023202290255,0.2874392,0.671859429544666
0.0345,1.7702437500000001,1.0,2722.1970094009544,0.32197247537282825,1.3203734636874136,0.9566536122484595,0.2874032375,0.6727067722095966
0.035,1.7693750000000001,1.0,2724.8875216532306,0.3257756769409874,1.3199566425035212,0.9575683737809745,0.28736675,0.6735578664473021
0.035500000000000004,1.76849375,1.0,2727.2384982476146,0.32955754435858686,1.31953727567624,0.9584484501775297,0.2873297375,0.6744130403488731
0.036000000000000004,1.7676,1.0,2729.2682324000416,0.333318196776665,1.3191151929125817,0.959295570602981,0.2872922,0.6752726200649418
0.0365,1.76669375,1.0,2730.9951045446187,0.3370577533462605,1.318690223919558,0.9601113566711759,0.2872541375,0.6761369297771112
0.037,1.765775,1.0,2732.4375715951473,0.3407763332184118,1.31826219840418,0.9608973303447752,0.28721555,0.677006291667533
0.0375,1.76484375,1.0,2733.614156850067,0.3444740555441574,1.3178309460734596,0.9616549211699089,0.2871764375,0.6778810258866378
0.038,1.7639,1.0,2734.542793834259,0.3481510326413081,1.3173963025072954,0.9623854720568639,0.28713679999999997,0.6787614386310503
0.0385,1.76294375,1.0,2735.2401133623093,0.35180738973187825,1.316958115548253,0.9630902500902718,0.28709663750000003,0.679647809273279
0.039,1.761975,1.0,2735.717952309662,0.3554432403166687,1.3165162769221146,0.9637704497542577,0.28705595,0.6805403266688881
0.0395,1.7609937500000001,1.0,2735.988084176245,0.35905869737233653,1.3160706792167716,0.964427196277268,0.2870147375,0.6814391764650787
0.04,1.76,1.0,2736.0623093832037,0.36265387387553893,1.3156212150201152,0.9650615504080897,0.286973,0.6823445428227877
0.0405,1.7589937500000001,1.0,2735.9524509095154,0.3662288828029331,1.3151677769200367,0.9656745127901267,0.2869307375,0.6832566083905676
0.041,1.757975,1.0,2735.6703501838074,0.36978383713117613,1.3147102575044274,0.966267027994561,0.28688795,0.6841755542777328
0.0415,1.75694375,1.0,2735.227863232047,0.37331884983692526,1.3142485493611786,0.9668399882422896,0.2868446375,0.6851015600267694
0.042,1.7559,1.0,2734.6368570815225,0.3768340338968377,1.3137825450781813,0.9673942368416304,0.28680079999999997,0.6860348035850101
0.0425,1.75484375,1.0,2733.9037674650913,0.3803294990461199,1.3133121866415147,0.9679305749150875,0.2867564375,0.6869753625698745
0.043000000000000003,1.753775,1.0,2733.0395436443,0.3838053587528996,1.3128373751102147,0.9684497578590363,0.28671155,0.687923395198185
0.043500000000000004,1.75269375,1.0,2732.0573083028694,0.3872617249713834,1.3123579918252208,0.9689524991451312,0.28666613750000003,0.6888790973945003
0.044,1.7516,1.0,2730.9636383069337,0.3906987049453452,1.311873977600225,0.9694394787512607,0.2866202,0.6898425449483876
0.0445,1.75049375,1.0,2729.76511242269,0.39411640591855934,1.31138527324892,0.9699113413110182,0.2865737375,0.690813812511784
0.045,1.7493750000000001,1.0,2728.468310023856,0.3975149351347998,1.3108918195849977,0.9703686982939761,0.28652675,0.6917929735814071
0.0455,1.74824375,1.0,2727.0798098774253,0.4008943998378407,1.3103935574221508,0.9708121300309306,0.2864792375,0.6927801004809374
0.046,1.7471,1.0,2725.6061890070905,0.40425490727145613,1.3098904275740715,0.9712421875965388,0.2864312,0.693775264342982
0.0465,1.7459437500000001,1.0,2724.054021634029,0.4075965646794203,1.309382370854452,0.9716593945606656,0.28638263750000004,0.6947785350908109
0.047,1.744775,1.0,2722.4203966990553,0.41091947695155623,1.3088694143721138,0.972064254556155,0.28633355,0.6957898114331234
0.0475,1.74359375,1.0,2720.717231575138,0.4142237506108891,1.3083514502988625,0.9724572371257849,0.28628393750000003,0.6968092573296816
0.048,1.7424,1.0,2718.9673940489997,0.41750949335932275,1.307828270971288,0.9728387821868874,0.2862338,0.6978372308380971
0.0485,1.74119375,1.0,2717.1692924489066,0.4207768070766622,1.3072998913049563,0.9732093233465965,0.2861831375,0.6988736505228382
0.049,1.739975,1.0,2715.321338556641,0.42402579364271253,1.306766326215433,0.9735692735995227,0.28613195,0.6999184346310159
0.0495,1.73874375,1.0,2713.4219477572046,0.4272565549372788,1.3062275906182839,0.9739190264942041,0.2860802375,0.7009715010973239
0.05,1.7375,1.0,2711.4695391936148,0.43046919284016605,1.3056836994290748,0.9742589572233882,0.286028,0.7020327675489638
0.0505,1.73624375,1.0,2709.462535925847,0.43366380923117936,1.3051346675633717,0.9745894236437584,0.2859752375,0.7031021513105569
0.051000000000000004,1.734979951442066,1.0,2707.6443823409286,0.43684050599012375,1.30458050993674,0.9749107672302628,0.28592215796056675,0.7041795694090416
0.051500000000000004,1.73371607736008,1.0,2706.38721245618,0.43999938346581186,1.3040212026509832,0.9752233112940792,0.28586907524912336,0.7052650138349803
0.052000000000000005,1.7324522032780938,1.0,2705.644994052456,0.44314054139746034,1.303457196503456,0.9755273948794402,0.2858159925376799,0.706357557048032
0.0525,1.7311883291961077,1.0,2705.34768986486,0.44626408347199437,1.3028891290042433,0.9758233541101289,0.28576290982623653,0.7074559168719735
0.053,1.7299244551141215,1.0,2705.467271382849,0.44937010647353753,1.3023172553808595,0.9761114856615651,0.2857098271147931,0.7085595570758424
0.0535,1.7286605810321354,1.0,2705.975808433593,0.4524587071862133,1.3017418308608193,0.976392073256361,0.28565674440334965,0.7096679448621197
0.054,1.7273967069501492,1.0,2706.8454483660644,0.45552998239414516,1.3011631106716375,0.9766653883471451,0.28560366169190626,0.7107805509266041
0.0545,1.726132832868163,1.0,2708.0483966791126,0.4585840288814566,1.3005813500408283,0.9769316907579275,0.2855505789804629,0.711896849514136
0.055,1.7248689587861767,1.0,2709.556899094396,0.46162094343227117,1.2999968041959071,0.9771912292868523,0.28549749626901944,0.7130163184701612
0.0555,1.7236050847041906,1.0,2711.3432250734973,0.46464082283071234,1.299409728364388,0.9774442422729472,0.285444413557576,0.7141384392881487
0.056,1.7223412106222045,1.0,2713.381231975687,0.46764376312816236,1.2988203633769078,0.9776909572185345,0.28539133084613255,0.7152627245895817
0.0565,1.7210773365402183,1.0,2715.653748446056,0.4706298575506487,1.2982288682902028,0.977931587244763,0.28533824813468917,0.7163888460406406
0.057,1.7198134624582322,1.0,2718.131530865608,0.47359920596508653,1.2976355121453922,0.9781663436696069,0.2852851654232458,0.7175162688455041
0.0575,1.718549588376246,1.0,2720.8013018953334,0.4765519003226604,1.2970404183651592,0.978395420275745,0.28523208271180234,0.718644738065852
0.058,1.71728571429426,1.0,2723.6497786528716,0.4794880325745547,1.2964437103721869,0.9786190030706097,0.2851790000003589,0.7197740005764381
0.0585,1.7160218402122738,1.0,2726.6636681262053,0.48240769467195377,1.295845511589158,0.9788372706635085,0.2851259172889155,0.7209038050782823
0.059000000000000004,1.7147579661302876,1.0,2729.829662925029,0.4853109785660421,1.2952459454387564,0.979050394621614,0.28507283457747207,0.7220339021108894
0.059500000000000004,1.7134940920483015,1.0,2733.134437370876,0.48819797620800404,1.2946451353436645,0.9792585398061638,0.2850197518660287,0.7231640440635001
0.06,1.7122302179663154,1.0,2736.5646439233483,0.49106877954902395,1.294043204726566,0.9794618646901136,0.28496666915458524,0.7242939851853661
0.0605,1.7109663438843292,1.0,2740.1071674380482,0.4939234802804331,1.2934402746741696,0.9796605215121699,0.2849135864431418,0.7254234859666707
0.061,1.7097024698023429,1.0,2743.75877721741,0.49676216135547274,1.292836376413386,0.9798546512423221,0.2848605037316984,0.7265524765595592
0.0615,1.7084385957203567,1.0,2747.497528685341,0.4995849262897773,1.29223171068951,0.9800444000692516,0.28480742102025497,0.727680571643758
0.062,1.7071747216383706,1.0,2751.3178242307918,0.5023918617241045,1.2916263297465171,0.9802298996419678,0.2847543383088116,0.7288076651740295
0.0625,1.7059108475563844,1.0,2755.2140537858954,0.5051830542992122,1.2910202858283821,0.980411276720182,0.28470125559736814,0.7299336519016797
0.063,1.7046469734743983,1.0,2759.180594028028,0.5079585906558579,1.2904136311790808,0.9805886533938427,0.2846481728859247,0.7310584273768521
0.0635,1.7033830993924122,1.0,2763.211807642122,0.5107185574347995,1.2898064180425883,0.9807621472912569,0.2845950901744813,0.7321818879506523
0.064,1.702119225310426,1.0,2767.302042643239,0.5134630412767947,1.28919869866288,0.9809318717764672,0.28454200746303787,0.7333039307770941
0.0645,1.70085535122844,1.0,2771.4456317603726,0.5161921288226012,1.2885905252839311,0.9810979361365157,0.2844889247515945,0.7344244538148748
0.065,1.6995914771464538,1.0,2775.63689187985,0.5189059067129768,1.2879819501497167,0.9812604457591811,0.28443584204015104,0.7355433558289735
0.0655,1.6983276030644676,1.0,2779.8701235499766,0.5216044615886791,1.2873730255042126,0.9814195023017417,0.28438275932870766,0.7366605363920764
0.066,1.6970637289824815,1.0,2784.139610545794,0.5242878800904661,1.2867638035913938,0.9815752038512742,0.2843296766172642,0.7377758958858309
0.0665,1.6957998549004953,1.0,2788.4431220897295,0.52695623990539,1.286154305156252,0.981727642940927,0.28427659390582083,0.738889392986424
0.067,1.6945359808185092,1.0,2792.7756496433044,0.5296096304621908,1.2855445758456985,0.9818769108942653,0.2842235111943774,0.7400009413427939
0.0675,1.693272106736523,1.0,2797.13018297084,0.5322481464482933,1.284934679142081,0.9820230970969082,0.28417042848293395,0.7411104229024214
0.068,1.6920082326545367,1.0,2801.5048523957903,0.5348718682877357,1.2843246322109685,0.9821662847565138,0.2841173457714905,0.7422178045857701
0.0685,1.6907443585725506,1.0,2805.897782426305,0.5374808764045557,1.2837144522179296,0.98230655426926,0.2840642630600471,0.7433230535799751
0.069,1.6894804844905644,1.0,2810.307091701187,0.5400752512227911,1.2831041563285328,0.9824439833348401,0.28401118034860373,0.7444261373389977
0.0695,1.6882166104085783,1.0,2814.7308929426486,0.5426550731664798,1.2824937617083472,0.9825786470659997,0.2839580976371603,0.7455270235837614
0.07,1.6869527363265922,1.0,2819.167292915674,0.5452204226596596,1.2818832855229414,0.9827106180929088,0.28390501492571685,0.7466256803022702
0.07050000000000001,1.685688862244606,1.0,2823.614392393404,0.5477713801263685,1.281272744937884,0.9828399666626474,0.28385193221427346,0.7477220757497067
0.07100000000000001,1.6844249881626199,1.0,2828.070286129333,0.5503080259906443,1.280662157118744,0.9829667607340599,0.28379884950283,0.7488161784485123
0.07150000000000001,1.6831611140806337,1.0,2832.533062836395,0.5528304406765248,1.2800515392310898,0.983091066068231,0.28374576679138663,0.7499079571884482
0.07200000000000001,1.6818972399986476,1.0,2837.00080517192,0.5553387046080479,1.2794409084404905,0.9832129463148077,0.2836926840799432,0.750997381026637
0.0725,1.6806333659166615,1.0,2841.471589729626,0.5578328982092513,1.2788302819125144,0.9833324630943832,0.28363960136849975,0.7520844192875886
0.073,1.6793694918346753,1.0,2845.943487038074,0.5603131019041732,1.2782196768127305,0.9834496760771535,0.28358651865705636,0.7531690415632009
