Time [s],Phi [rad],STIM [ ],Fsee [N],Gamma [ ],Lcerel [ ],q [ ],Lmtc [m],fisomrel [ ]
0.0,1.8,1.0,17.966239014079534,1.2318617142443367e-05,1.3793398491969695,0.0050000403771330755,0.288653,0.5411392819235346
0.0005,1.79999375,1.0,18.276437030431364,0.005621458828237872,1.3793024219042165,0.012946954587526979,0.2886527375,0.5412298237805988
0.001,1.799975,1.0,21.61983431284553,0.011199136197659106,1.3789381537386458,0.035620667450665014,0.28865195,0.5421105728352884
0.0015,1.79994375,1.0,31.074270723706924,0.016745527207935866,1.3780457748055435,0.07061825855390154,0.2886506375,0.5442646433408046
0.002,1.7999,1.0,53.594462947679766,0.02226080734994031,1.3763673483602938,0.11473744230005833,0.2886488,0.5483023567864835
0.0025,1.79984375,1.0,97.13998938015611,0.027745151130471782,1.3739341528817266,0.16459600271033564,0.28864643749999996,0.5541238817239335
0.003,1.7997750000000001,1.0,160.98611180812898,0.033198732079948605,1.3712132977942002,0.21730223006502686,0.28864354999999997,0.5605889271069976
0.0035,1.79969375,1.0,237.7152169044095,0.03862172275201849,1.3685837521126123,0.27063454550356036,0.2886401375,0.5667921482097844
0.004,1.7996,1.0,321.50091498737896,0.044014294734336094,1.366155188085342,0.32293677040034935,0.2886362,0.5724820734636091
0.0045000000000000005,1.7994937500000001,1.0,409.3032871820837,0.04937661865374861,1.3639219800100935,0.37305441181913457,0.2886317375,0.5776810984232562
0.005,1.799375,1.0,499.4498974654446,0.05470886416739553,1.3618575690063481,0.4202660825183975,0.28862675,0.5824588640077042
0.0055,1.79924375,1.0,590.8272453338951,0.06001120001004863,1.3599381155155703,0.46419093923842486,0.2886212375,0.5868767633899872
0.006,1.7991000000000001,1.0,682.5550800484746,0.06528379393757838,1.358145742709031,0.504695806690102,0.2886152,0.5909809533781776
0.006500000000000001,1.79894375,1.0,773.9205482319862,0.07052681278384348,1.356466582913378,0.5418152213997597,0.2886086375,0.5948073190882011
0.007,1.798775,1.0,864.3246486432469,0.07574042243387279,1.3548897676543197,0.5756899605458508,0.28860155,0.5983840969842571
0.0075,1.79859375,1.0,953.28055994121,0.08092478786407963,1.3534062047992967,0.6065219120256763,0.2885939375,0.6017348673767778
0.008,1.7984,1.0,1040.3964526211523,0.08608007309828852,1.3520080869052757,0.6345429474742132,0.2885858,0.6048798046979842
0.0085,1.79819375,1.0,1125.3488640332926,0.09120644097050644,1.3506887511765002,0.6599943489659323,0.2885771375,0.6078360962954934
0.009000000000000001,1.797975,1.0,1207.9151167629655,0.09630405421262238,1.349441830966041,0.6831133460285684,0.28856795,0.6106199195507043
0.0095,1.79774375,1.0,1287.9218128808764,0.10137307444654982,1.3482617320237644,0.7041256965237258,0.2885582375,0.6132454273208154
0.01,1.7975,1.0,1365.2103105263868,0.10641366111335872,1.3471438292595173,0.7232416149319153,0.288548,0.6157243680071401
0.0105,1.79724375,1.0,1439.6953585274252,0.11142597365411896,1.3460834975831462,0.7406534327064248,0.2885372375,0.6180682802953331
0.011,1.796975,1.0,1511.3413570621158,0.11641017100987408,1.3450763198052702,0.7565354014549895,0.28852595000000003,0.6202880532833255
0.0115,1.79669375,1.0,1580.1410074965183,0.12136641155931598,1.3441182441879345,0.7710443388737854,0.2885141375,0.6223936033705775
0.012,1.7964,1.0,1646.0853100035079,0.1262948514896465,1.343205833721428,0.7843207926979353,0.28850180000000003,0.6243933536338631
0.0125,1.79609375,1.0,1709.192199076325,0.13119564640671416,1.3423358254566788,0.796490144546349,0.2884889375,0.6262952251559131
0.013000000000000001,1.7957750000000001,1.0,1769.505360988035,0.13606895141723555,1.341505086225269,0.8076640055735457,0.28847555,0.628106747711325
0.0135,1.79544375,1.0,1827.0932364270607,0.14091492170348555,1.340710576102123,0.8179416088816929,0.2884616375,0.629835150931631
0.014,1.7951000000000001,1.0,1882.0090533668777,0.14573371015440167,1.3399497460835783,0.8274112919137504,0.2884472,0.6314865119187202
0.0145,1.79474375,1.0,1934.3088015156536,0.15052546857818813,1.3392202811852696,0.8361516182713963,0.2884322375,0.6330663291855442
0.015,1.794375,1.0,1984.069646574959,0.1552903487830492,1.3385198664228317,0.8442324199937572,0.28841675,0.6345800383835083
0.0155,1.79399375,1.0,2031.371028640669,0.16002850141111302,1.3378463665773965,0.8517158776161677,0.2884007375,0.6360326294338374
0.016,1.7936,1.0,2076.317175216666,0.16474007787825748,1.3371975638463005,0.8586573394828222,0.2883842,0.6374292185463013
0.0165,1.7931937500000001,1.0,2118.974838739052,0.16942522610388983,1.3365717889590525,0.8651063201303009,0.2883671375,0.6387736953982878
0.017,1.792775,1.0,2159.4198300762464,0.17408409379386294,1.3359674051053203,0.8711070338114474,0.28834955,0.6400698428150434
0.0175,1.7923437500000001,1.0,2197.7390523517183,0.1787168286540298,1.335382775474772,0.876699011536711,0.2883314375,0.6413214091672151
0.018000000000000002,1.7919,1.0,2234.012706923092,0.18332357692263007,1.3348164324771634,0.8819176963279423,0.2883128,0.64253174918133
0.0185,1.79144375,1.0,2268.345416266969,0.18790448645589536,1.3342667520967784,0.8867948357220977,0.2882936375,0.6437045230952516
0.019,1.790975,1.0,2300.8068285779423,0.1924597009882401,1.3337325399881583,0.8913590549318544,0.28827395,0.6448424481921311
0.0195,1.79049375,1.0,2331.468076888111,0.1969893637925437,1.3332126510925673,0.8956361196664724,0.2882537375,0.6459481159179307
0.02,1.79,1.0,2360.406123119063,0.20149361814168543,1.3327059403512695,0.8996492489821918,0.288233,0.6470240983895965
0.0205,1.78949375,1.0,2387.700175507673,0.2059726068157336,1.3322112927371057,0.903419407735786,0.2882117375,0.6480728857714957
0.021,1.788975,1.0,2413.4267704049653,0.21042647186369196,1.3317276655146466,0.906965565655298,0.28818995000000003,0.6490967982531975
0.021500000000000002,1.78844375,1.0,2437.666306357629,0.2148553559557428,1.33125401951274,0.9103049016611144,0.2881676375,0.6500981331525932
0.022,1.7879,1.0,2460.476719656399,0.21925939761641078,1.330789567488915,0.9134530458190152,0.2881448,0.6510786417107672
0.0225,1.78734375,1.0,2481.918992633976,0.22363873537022064,1.3303335222006996,0.9164241949760472,0.28812143749999997,0.6520400641278059
0.023,1.786775,1.0,2502.0569015275414,0.22799350774169708,1.3298850964056228,0.9192312640175717,0.28809755,0.6529841300046331
0.0235,1.78619375,1.0,2520.9567780825073,0.2323238532553647,1.329443502861213,0.9218860193759011,0.28807313749999996,0.653912558745325
0.024,1.7856,1.0,2538.6741100959543,0.23662990714615645,1.3290080784980658,0.924399217926708,0.2880482,0.6548267993718451
0.0245,1.78499375,1.0,2555.284158940351,0.2409118104571046,1.3285779927844936,0.9267806616591454,0.2880227375,0.6557286436789326
0.025,1.784375,1.0,2570.832552216875,0.24516969670593275,1.3281527114266227,0.929039367300844,0.28799675,0.6566192537734556
0.025500000000000002,1.78374375,1.0,2585.3654992734923,0.2494036991910747,1.3277317081720656,0.9311835973601472,0.2879702375,0.657499768681824
0.026000000000000002,1.7831000000000001,1.0,2598.930522573035,0.25361395121096425,1.3273144567684343,0.9332209323087607,0.2879432,0.6583713213979105
0.0265,1.78244375,1.0,2611.5763449800324,0.25780058606403516,1.3269004309633408,0.9351583360915322,0.2879156375,0.6592350390178
0.027,1.781775,1.0,2623.3527831886868,0.26196373704872133,1.3264891045043976,0.937002214544915,0.28788755,0.6600920428568768
0.0275,1.7810937500000001,1.0,2634.300038513994,0.26610353364584993,1.326080049295842,0.9387584807966102,0.2878589375,0.6609432444235372
0.028,1.7804,1.0,2644.4731215538914,0.27022011210443864,1.3256727080308242,0.9404325711685902,0.2878298,0.6617898190174412
0.0285,1.77969375,1.0,2653.9102441515524,0.27431360226970264,1.3252666860347155,0.9420295257083654,0.2878001375,0.662632598711715
0.029,1.778975,1.0,2662.64416106523,0.278384131648586,1.3248616447437354,0.9435540098613383,0.28776995,0.663472295198964
0.029500000000000002,1.7782437500000001,1.0,2670.708170809242,0.2824318277480325,1.3244572455941022,0.9450103406792999,0.2877392375,0.6643096166501545
0.03,1.7775,1.0,2678.1360671876764,0.286456818074986,1.324053150022035,0.9464025172976276,0.287708,0.6651452677321318
0.0305,1.77674375,1.0,2684.9620933697242,0.2904592301363906,1.3236490194637527,0.9477342483841961,0.2876762375,0.6659799496178298
0.031,1.775975,1.0,2691.2208985065836,0.29443919143919,1.3232445153554744,0.9490089768938205,0.28764395,0.6668143599891725
0.0315,1.7751937500000001,1.0,2696.940505875718,0.2983968257059591,1.3228393630614836,0.9502299092125353,0.2876111375,0.667649061409616
0.032,1.7744,1.0,2702.1529056847294,0.30233226061430224,1.3224332544449213,0.9514000251545989,0.2875778,0.6684846824874255
0.0325,1.77359375,1.0,2706.894701281933,0.30624562620984597,1.3220258418459432,0.9525220953565682,0.2875439375,0.669321929794042
0.033,1.772775,1.0,2711.187087867653,0.3101370434617226,1.3216169205552672,0.9535987163692042,0.28750955,0.6701612130502134
0.0335,1.7719437500000002,1.0,2715.0514493992314,0.3140066333390646,1.3212062858636118,0.9546323105128978,0.2874746375,0.6710029398013512
0.034,1.7711000000000001,1.0,2718.5093402811317,0.31785451681100413,1.3207937330616946,0.9556251396437817,0.2874392,0.6718475153964996
0.0345,1.7702437500000001,1.0,2721.582467984533,0.32168081484667355,1.3203790574402343,0.9565793176772734,0.2874032375,0.6726953429646271
0.035,1.7693750000000001,1.0,2724.292676595672,0.3254856484152053,1.3199620542899488,0.9574968219942683,0.28736675,0.673546823388252
0.035500000000000004,1.76849375,1.0,2726.6619312938938,0.3292691384857316,1.3195425189015566,0.9583795038413657,0.2873297375,0.6744023552743889
0.036000000000000004,1.7676,1.0,2728.712303757837,0.3330314060273848,1.3191202465657756,0.9592290978243103,0.2872922,0.6752623349228271
0.0365,1.76669375,1.0,2730.4616651335955,0.33677256831405056,1.318695071591532,0.9600472337086678,0.2872541375,0.6761270769874628
0.037,1.765775,1.0,2731.9272181832634,0.3404927445521966,1.3182668350460938,0.9608354421329457,0.28721555,0.6769968804519853
0.0375,1.76484375,1.0,2733.1325866203492,0.34419205951621457,1.3178353202623196,0.9615951562312054,0.2871764375,0.6778721594188415
0.038,1.7639,1.0,2734.0901528262457,0.34787062732838536,1.3174004132177377,0.9623277307022539,0.28713679999999997,0.6787531176314074
0.0385,1.76294375,1.0,2734.8123429050306,0.3515285621109897,1.3169619998898767,0.9630344398197292,0.28709663750000003,0.6796399573527099
0.039,1.761975,1.0,2735.311621131919,0.3551659779863085,1.3165199662562654,0.9637164830788472,0.28705595,0.6805328793403462
0.0395,1.7609937500000001,1.0,2735.600484690855,0.3587829890766226,1.3160741982944322,0.9643749903880066,0.2870147375,0.681432082820574
0.04,1.76,1.0,2735.6914586990147,0.36237970950421283,1.3156245819819055,0.9650110268464253,0.286973,0.6823377654615672
0.0405,1.7589937500000001,1.0,2735.59709152084,0.36595625339136,1.3151710032962138,0.9656255971448674,0.2869307375,0.6832501233458481
0.041,1.757975,1.0,2735.3299503691183,0.36951273486034497,1.3147133482148858,0.9662196496228544,0.28688795,0.6841693509418878
0.0415,1.75694375,1.0,2734.902617195458,0.37304926803344857,1.3142515027154502,0.9667940800124938,0.2868446375,0.685095641074877
0.042,1.7559,1.0,2734.318772911482,0.37656595347763255,1.3137854337102772,0.9673497394242144,0.28680079999999997,0.6860290229312922
0.0425,1.75484375,1.0,2733.5989441249394,0.38006291916728024,1.313314955215222,0.9678874246492648,0.2867564375,0.6869698304798582
0.043000000000000003,1.753775,1.0,2732.7532738783225,0.38354027748741565,1.312839975576791,0.9684078948284541,0.28671155,0.6879182068913037
0.043500000000000004,1.75269375,1.0,2731.788226022172,0.3869981351242817,1.3123604365966945,0.968911870559071,0.28666613750000003,0.6888742271974566
0.044,1.7516,1.0,2730.7102680113626,0.3904365987641213,1.3118762800766426,0.9694000345651868,0.2866202,0.689837965323838
0.0445,1.75049375,1.0,2729.5258695419943,0.3938557750931773,1.3113874478183456,0.9698730340594128,0.2865737375,0.690809494072631
0.045,1.7493750000000001,1.0,2728.241501262793,0.3972557707976927,1.3108938816235134,0.9703314829349593,0.28652675,0.6917888851054363
0.0455,1.74824375,1.0,2726.8636335616384,0.4006366925639104,1.3103955232938564,0.9707759638017263,0.2864792375,0.6927762089258068
0.046,1.7471,1.0,2725.3987354275782,0.40399864707807315,1.3098923146310846,0.9712070298789345,0.2864312,0.6937715348615717
0.0465,1.7459437500000001,1.0,2723.8532733875527,0.407341741026424,1.3093841974369083,0.9716252067556852,0.28638263750000004,0.6947749310469393
0.047,1.744775,1.0,2722.233710518138,0.4106660810952058,1.3088711135130373,0.9720309940298413,0.28633355,0.6957864644043892
0.0475,1.74359375,1.0,2720.546505533118,0.4139717739706614,1.3083530046611822,0.9724248668347111,0.28628393750000003,0.6968062006263424
0.048,1.7424,1.0,2718.7981119449614,0.4172589263390338,1.307829812683053,0.9728072772622014,0.2862338,0.6978342041566216
0.0485,1.74119375,1.0,2716.9910694803666,0.42052762661604215,1.3073015149826488,0.9731786559115081,0.2861831375,0.6988704683972222
0.049,1.739975,1.0,2715.1349256472495,0.42377800015492156,1.306768025085641,0.973539413046802,0.28613195,0.6999151109217332
0.0495,1.73874375,1.0,2713.2337492141055,0.4270101507350898,1.3062293063623245,0.9738899403500525,0.2860802375,0.7009681502705665
0.05,1.7375,1.0,2711.29052120122,0.43022417714976424,1.305685332063178,0.9742306113076765,0.286028,0.7020295846984203
0.0505,1.73624375,1.0,2709.3082194823965,0.4334201781921622,1.3051360754386805,0.97456178215542,0.2859752375,0.703099411562117
0.051000000000000004,1.734975,1.0,2707.2898185622935,0.43659825265550106,1.3045815097393105,0.9748837928259753,0.28592195,0.7041776273116145
0.051500000000000004,1.73369375,1.0,2705.2382893688714,0.4397584993329982,1.3040216082155471,0.9751969678364258,0.2858681375,0.7052642274809706
0.052000000000000005,1.7324,1.0,2703.1565990620675,0.442901017017871,1.3034563441178688,0.9755016171198342,0.2858138,0.7063592066792652
0.0525,1.73109375,1.0,2701.04771085846,0.44602590450333673,1.3028856906967543,0.9757980368049474,0.28575893750000003,0.7074625585814736
0.053,1.729775,1.0,2698.9145838711825,0.4491332605826128,1.3023096212026828,0.9760865099476762,0.28570355000000003,0.7085742759192936
0.0535,1.72844375,1.0,2696.7601729665807,0.4522231840489167,1.3017281088861328,0.9763673072177238,0.2856476375,0.7096943504719324
0.054,1.7271,1.0,2694.5874286360486,0.4552957736954656,1.3011411269975832,0.9766406875434686,0.2855912,0.7108227730568414
0.0545,1.7257437500000001,1.0,2692.399296884057,0.458351128315477,1.3005486487875126,0.9769068987179773,0.2855342375,0.7119595335204094
0.055,1.724375,1.0,2690.198719131687,0.46138934670216813,1.2999506475064,0.9771661779687935,0.28547675,0.7131046207286078
0.0555,1.72299375,1.0,2687.983193113688,0.4644104971410443,1.2993471462236976,0.977418752555728,0.2854187375,0.7142579274481129
0.056,1.7216,1.0,2685.758747400669,0.46741470433152726,1.298738089877028,0.9776648409599105,0.2853602,0.7154194950785229
0.0565,1.72019375,1.0,2683.529486732513,0.47040207738320977,1.2981234409495794,0.9779046521049761,0.28530113749999997,0.7165893302180568
0.057,1.718775,1.0,2681.296366984926,0.47337270624546446,1.2975031907405845,0.9781383862064214,0.28524155,0.7177673836070517
0.0575,1.71734375,1.0,2679.0603424679557,0.47632668086766383,1.2968773305492756,0.9783662353134199,0.2851814375,0.718953605248521
0.058,1.7159,1.0,2676.822365918978,0.4792640911991804,1.2962458516748852,0.978588383705332,0.2851208,0.7201479444050445
0.0585,1.71444375,1.0,2674.5833884965573,0.48218502718938683,1.2956087454166456,0.9788050082658977,0.2850596375,0.721350349595653
0.059000000000000004,1.7129750000000001,1.0,2672.344359775853,0.4850895787876556,1.2949660030737895,0.9790162788365399,0.28499795,0.7225607685927079
0.059500000000000004,1.71149375,1.0,2670.1062277464825,0.4879778359433592,1.2943176159455494,0.9792223585500951,0.2849357375,0.7237791484187759
0.06,1.71,1.0,2667.869938811352,0.49084988860587025,1.2936635753311576,0.9794234041462031,0.284873,0.7250054353434998
0.0605,1.7084937500000001,1.0,2665.63643778755,0.4937058267245613,1.2930038725298467,0.9796195662694928,0.2848097375,0.7262395748804634
0.061,1.7069750000000001,1.0,2663.4066679086995,0.496545740248805,1.2923384988408493,0.9798109897516337,0.28474595,0.7274815117840522
0.0615,1.7054437500000001,1.0,2661.181570828947,0.4993697191279737,1.2916674455633974,0.9799978138782383,0.2846816375,0.7287311900463094
0.062,1.7039,1.0,2658.9620866292216,0.50217785331144,1.290990703996724,0.9801801726415379,0.2846168,0.7299885528937847
0.0625,1.70234375,1.0,2656.7491538241634,0.5049702327485767,1.2903082654400615,0.9803581949796935,0.2845514375,0.731253542784384
0.063,1.7007750000000001,1.0,2654.543709371738,0.507746947388756,1.289620121192642,0.9805320050035405,0.28448555,0.7325261014042073
0.0635,1.69919375,1.0,2652.3466886838105,0.5105080871813507,1.2889262625536984,0.9807017222115181,0.28441913750000003,0.7338061696643857
0.064,1.6976,1.0,2650.159025638569,0.5132537420757332,1.2882266808224627,0.9808674616934792,0.2843522,0.7350936876979153
0.0645,1.69599375,1.0,2647.9788319516283,0.5159840013184122,1.2875213933284102,0.9810293355831937,0.2842847375,0.7363885471252858
0.065,1.694375,1.0,2645.8102724351043,0.5186989481088724,1.2868103615460376,0.9811874487277681,0.28421675,0.7376907414216557
0.0655,1.69274375,1.0,2643.6600535083776,0.5213986670016445,1.286093523412829,0.9813419011171827,0.2841482375,0.7390003056799523
0.066,1.6911,1.0,2641.520757261474,0.5240832425492554,1.285370947271698,0.9814927955592436,0.2840792,0.7403170358840998
0.0665,1.6894437500000001,1.0,2639.384977858597,0.5267527593042318,1.2846427014655581,0.9816402312298069,0.2840096375,0.7416407286428226
0.067,1.6877765687685,1.0,2637.321936878834,0.5294073018191006,1.2839088543373232,0.9817843038277205,0.283939615888277,0.7429711812145046
0.0675,1.6861078312929514,1.0,2635.7827005303966,0.5320469542363991,1.2831694665193083,0.9819251053238897,0.28386952891430395,0.7443082054565381
0.068,1.6844390938174025,1.0,2634.795942604159,0.5346718005835314,1.2824249713160456,0.9820627423100022,0.2837994419403309,0.7456509425291161
0.0685,1.6827703563418537,1.0,2634.307321269851,0.5372819243880023,1.2816758686478933,0.9821973209711546,0.28372935496635787,0.7469984216245369
0.069,1.6811016188663048,1.0,2634.2807807832605,0.5398774074008436,1.2809224908355192,0.9823289360148468,0.28365926799238483,0.7483499813226009
0.0695,1.6794328813907562,1.0,2634.680394236215,0.5424583313730871,1.2801651701995918,0.9824576790510204,0.28358918101841174,0.7497049662214088
0.07,1.6777641439152073,1.0,2635.470333281736,0.5450247780557648,1.279404239060779,0.9825836387237392,0.2835190940444387,0.7510627270244487
0.07050000000000001,1.6760954064396585,1.0,2636.616569659777,0.5475768287911579,1.278640013746099,0.9827069000721879,0.28344900707046566,0.7524226490420083
0.07100000000000001,1.6744266689641096,1.0,2638.0872832395717,0.5501145648417997,1.277872790603854,0.9828275445120045,0.28337892009649257,0.753784158935034
0.07150000000000001,1.6727579314885608,1.0,2639.8539205855636,0.5526380669340708,1.2771028360496999,0.9829456494949845,0.28330883312251953,0.7551467418788685
0.07200000000000001,1.6710891940130121,1.0,2641.8946283601554,0.5551474141103304,1.2763303547296252,0.983061287146646,0.2832387461485465,0.7565099969866056
0.0725,1.6694204565374633,1.0,2644.187563852541,0.5576426854129378,1.2755555512896184,0.9831745273391652,0.28316865917457346,0.75787352727511
0.073,1.6677517190619144,1.0,2646.7108839778684,0.5601239598842525,1.2747786303756685,0.9832854377818548,0.2830985722006004,0.7592369396966574
0.0735,1.6660829815863658,1.0,2649.4470040166425,0.5625913146439258,1.2739997572500317,0.9833940822423779,0.2830284852266274,0.760599913988915
0.074,1.664414244110817,1.0,2652.3755648240926,0.5650448286220042,1.2732191226637097,0.9835005237717873,0.28295839825265434,0.7619620886826299
0.0745,1.662745506635268,1.0,2655.4710148702666,0.5674845838069319,1.272436965001415,0.9836048257886385,0.28288831127868125,0.7633230232806691
