Time [s],Phi [rad],STIM [ ],Fsee [N],Gamma [ ],Lcerel [ ],q [ ],Lmtc [m],fisomrel [ ]
0.0,1.8,1.0,17.971411987705128,6.326479959848367e-05,1.3793392696778113,0.0050010513014405915,0.288653,0.5411406839295432
0.0005,1.79999375,1.0,18.29842028750107,0.005672119242914842,1.379299980705608,0.013089047775672349,0.2886527375,0.5412357290711904
0.001,1.799975,1.0,21.679625189463795,0.011249512447466057,1.378932051401999,0.03588666890168182,0.28865195,0.5421253202177068
0.0015,1.79994375,1.0,31.214926844119447,0.01679562088683286,1.3780338058867851,0.07098203216555286,0.2886506375,0.5442935000215321
0.002,1.7999,1.0,53.89652450819375,0.022310620042864916,1.376347781901166,0.11516805360824764,0.2886488,0.5483493209759962
0.0025,1.79984375,1.0,97.6470355349921,0.0277946844136064,1.3739097539829577,0.16506434896348035,0.28864643749999996,0.5541820659324109
0.003,1.7997750000000001,1.0,161.64547166747573,0.0332479875205231,1.3711886446868202,0.21778533168187683,0.28864354999999997,0.5606472897179895
0.0035,1.79969375,1.0,238.45997834920686,0.03867070190848602,1.3685608309675246,0.27111500175587244,0.2886401375,0.5668460263919891
0.004,1.7996,1.0,322.29308713936064,0.04406299915644561,1.3661342204929152,0.32340195503320046,0.2886362,0.5725310350256548
0.0045000000000000005,1.7994937500000001,1.0,410.1234494045963,0.04942504988264797,1.3639027381467226,0.3734959748217616,0.2886317375,0.5777257562797126
0.005,1.799375,1.0,500.2866398394632,0.05475702373599836,1.3618397963888302,0.4206791846141941,0.28862675,0.5824998780270724
0.0055,1.79924375,1.0,591.6712710789795,0.06005908944062373,1.3599216316981586,0.46457339959298716,0.2886212375,0.5869146015170124
0.006,1.7991000000000001,1.0,683.4000401324223,0.06533141474603542,1.3581303887500948,0.5050472791206481,0.2886152,0.5910160224926848
0.006500000000000001,1.79894375,1.0,774.7602117310054,0.0705741664805351,1.3564522535559818,0.5421365843903297,0.2886086375,0.594839894562698
0.007,1.798775,1.0,865.1512109508348,0.07578751045200519,1.3548764195149343,0.5759828502422831,0.28860155,0.5984143076283812
0.0075,1.79859375,1.0,954.0968224104115,0.08097161176707131,1.3533936527712724,0.6067882610238375,0.2885939375,0.6017631574648512
0.008,1.7984,1.0,1041.1989949771241,0.08612663449777098,1.351996273579469,0.6347849277935674,0.2885858,0.6049063245732385
0.0085,1.79819375,1.0,1126.1320635464053,0.09125274140214529,1.35067766604996,0.6602141698994753,0.2885771375,0.6078608881816095
0.009000000000000001,1.797975,1.0,1208.667949533344,0.09635009476796702,1.349431546067007,0.6833131788331844,0.28856795,0.6106428399656287
0.0095,1.79774375,1.0,1288.6444918950815,0.10141885650249659,1.348252170498825,0.7043074951637547,0.2885582375,0.6132666637208459
0.01,1.7975,1.0,1365.9089130864313,0.10645918629443138,1.347134851618767,0.7234071473456588,0.288548,0.6157442435957166
0.0105,1.79724375,1.0,1440.3736682014687,0.11147124360075833,1.3460750091224598,0.7408043302973899,0.2885372375,0.618087015500285
0.011,1.796975,1.0,1512.000162217238,0.11645518711410421,1.3450682731431953,0.7566731577882648,0.28852595000000003,0.6203057617027206
0.0115,1.79669375,1.0,1580.7821134857961,0.12141117525622855,1.3441105860136522,0.7711702905135521,0.2885141375,0.6224104100552963
0.012,1.7964,1.0,1646.7028994315372,0.12633936397871573,1.343198605685013,0.7844361744030883,0.28850180000000003,0.6244091742852775
0.0125,1.79609375,1.0,1709.7858331336045,0.13123990916367634,1.3423290072049516,0.796596030184649,0.2884889375,0.6263101110525261
0.013000000000000001,1.7957750000000001,1.0,1770.0684237299113,0.13611296575523862,1.3414987302282753,0.8077613790280566,0.28847555,0.6281205907285576
0.0135,1.79544375,1.0,1827.634410987246,0.14095868940029924,1.3407045641953041,0.8180312787560304,0.2884616375,0.6298482140831885
0.014,1.7951000000000001,1.0,1882.527333880703,0.14577723241945026,1.3399440731002414,0.8274940176652829,0.2884472,0.6314988111097504
0.0145,1.79474375,1.0,1934.8041818217748,0.15056874668153064,1.3392149326433005,0.8362280715425473,0.2884322375,0.6330779001014066
0.015,1.794375,1.0,1984.5431548469592,0.15533338405537933,1.338514818524695,0.8443031949366064,0.28841675,0.6345909363494671
0.0155,1.79399375,1.0,2031.8232184078613,0.1600712953230466,1.3378416023847508,0.8517815055572265,0.2884007375,0.6360428944454846
0.016,1.7936,1.0,2076.747925993771,0.1647826316950258,1.3371930749034473,0.8587182962689499,0.2883842,0.6374388719297136
0.0165,1.7931937500000001,1.0,2119.385941132224,0.1694675412038848,1.3365675481040853,0.8651630247450411,0.2883671375,0.6387827983520544
0.017,1.792775,1.0,2159.812547345107,0.1741261715430969,1.3359633920135594,0.8711598626008025,0.28834955,0.6400784414118094
0.0175,1.7923437500000001,1.0,2198.1140836127483,0.17875867040613538,1.335378976658765,0.8767483031871313,0.2883314375,0.6413295344876264
0.018000000000000002,1.7919,1.0,2234.3704375577404,0.183365184093727,1.334812838433849,0.88196375552293,0.2883128,0.6425394235327468
0.0185,1.79144375,1.0,2268.6869580403554,0.18794586025693882,1.334263346758453,0.8868379340140774,0.2882936375,0.6437117825696371
0.019,1.790975,1.0,2301.1327699783524,0.1925008426018573,1.3337293131926313,0.8913994379355259,0.28827395,0.6448493160585924
0.0195,1.79049375,1.0,2331.7796767480886,0.1970302745119931,1.3332095866224896,0.8956740071849945,0.2882537375,0.6459546281341506
0.02,1.79,1.0,2360.705321383623,0.20153429937085693,1.3327030159341333,0.8996848379419451,0.288233,0.6470303035342214
0.0205,1.78949375,1.0,2387.9863436593455,0.20601305960475863,1.3322085117064975,0.9034528816142058,0.2882117375,0.6480787779010011
0.021,1.788975,1.0,2413.7051916297605,0.2104666983457702,1.3317249742269255,0.9069970787364262,0.28818995000000003,0.6491024919456174
0.021500000000000002,1.78844375,1.0,2437.934226710749,0.2148953568855328,1.3312514426337472,0.9103346095000792,0.2881676375,0.6501035770186905
0.022,1.7879,1.0,2460.7329116633255,0.21929917397137694,1.3307871148590107,0.9134810867139833,0.2881448,0.6510838158266954
0.0225,1.78734375,1.0,2482.163786192065,0.2236782883506333,1.3303311888347638,0.9164506918300183,0.28812143749999997,0.6520449798565422
0.023,1.786775,1.0,2502.2922100164633,0.2280328387706325,1.3298828624930552,0.9192563259828689,0.28809755,0.6529888298258547
0.0235,1.78619375,1.0,2521.1799009689075,0.23236296276195267,1.3294413925855595,0.9219097536907283,0.28807313749999996,0.6539169925104824
0.024,1.7856,1.0,2538.8917213479167,0.23666879851268077,1.3290060275439608,0.9244217080115817,0.2880482,0.6548311028053014
0.0245,1.78499375,1.0,2555.49433181374,0.24095048422235518,1.3285760183828288,0.9268019966971357,0.2880227375,0.6557327810704303
0.025,1.784375,1.0,2571.033342385652,0.24520815347448674,1.3281508308785146,0.9290596290261852,0.28799675,0.6566231893933052
0.025500000000000002,1.78374375,1.0,2585.555807752379,0.24944193985258634,1.327729930807369,0.9312028595365014,0.2879702375,0.6575034835873635
0.026000000000000002,1.7831000000000001,1.0,2599.110106461064,0.2536519769401648,1.3273127839457426,0.9332392615010692,0.2879432,0.6583748133472183
0.0265,1.78244375,1.0,2611.745826434059,0.2578383983207329,1.3268988560699868,0.9351757923552124,0.2879156375,0.6592383223856315
0.027,1.781775,1.0,2623.511822044433,0.26200133692867283,1.3264876299673467,0.937018854395583,0.28788755,0.6600951131323498
0.0275,1.7810937500000001,1.0,2634.4504717164223,0.26614092354169894,1.3260786574463996,0.9387743538350035,0.2878589375,0.6609461388965356
0.028,1.7804,1.0,2644.6160317807257,0.2702572936488676,1.3256713883307512,0.9404477238780908,0.2878298,0.661792560021432
0.0285,1.77969375,1.0,2654.0423623277206,0.27435057527817475,1.3252654681633276,0.9420440060907835,0.2878001375,0.6626351250653424
0.029,1.778975,1.0,2662.7639334814266,0.2784208964576163,1.324860542487055,0.9435678603096296,0.28776995,0.6634745788744144
0.029500000000000002,1.7782437500000001,1.0,2670.8157718265434,0.28246838521518824,1.3244562568448601,0.9450235984730534,0.2877392375,0.6643116626091268
0.03,1.7775,1.0,2678.233409621536,0.2864931695788864,1.3240522567796686,0.94641521505018,0.287708,0.6651471137627669
0.0305,1.77674375,1.0,2685.0528367966576,0.2904953775767068,1.3236481878344073,0.94774641444643,0.2876762375,0.6659816661718885
0.031,1.775975,1.0,2691.3051520422714,0.2944751341561711,1.3232437441014544,0.9490206409131094,0.28764395,0.6668159499339077
0.0315,1.7751937500000001,1.0,2697.0212872054144,0.2984325666691959,1.322838624376211,0.9502410966058905,0.2876111375,0.6676505823050887
0.032,1.7744,1.0,2702.2384566459555,0.3023678063449104,1.3224324729001287,0.9514107548146363,0.2875778,0.6684862896030224
0.0325,1.77359375,1.0,2706.979264131491,0.3062809748844797,1.3220250700048188,0.9525323976407474,0.2875439375,0.6693235149502281
0.033,1.772775,1.0,2711.2665305579453,0.3101721939890688,1.3216161960218922,0.9536086181047609,0.28750955,0.6701626991594638
0.0335,1.7719437500000002,1.0,2715.1232730854085,0.3140415853598428,1.3212056312829596,0.9546418352698063,0.2874746375,0.6710042807146537
0.034,1.7711000000000001,1.0,2718.572685343686,0.31788927069796674,1.3207931561196322,0.9556343079839651,0.2874392,0.6718486957487413
0.0345,1.7702437500000001,1.0,2721.6381187078714,0.3217153717046056,1.3203785508635206,0.9565881473822687,0.2874032375,0.6726963780184647
0.035,1.7693750000000001,1.0,2724.3430646435013,0.3255200100809246,1.3199615958462358,0.9575053282733308,0.28736675,0.6735477588760524
0.035500000000000004,1.76849375,1.0,2726.71113812213,0.3293033075280886,1.3195420713993886,0.9583876995217997,0.2873297375,0.6744032672378445
0.036000000000000004,1.7676,1.0,2728.7571482376693,0.33306537999058533,1.3191198388892456,0.9592370005692951,0.2872922,0.6752631646278762
0.0365,1.76669375,1.0,2730.5033371807017,0.33680635153021604,1.318694692876525,0.9600548576328023,0.2872541375,0.6761278467230145
0.037,1.765775,1.0,2731.973263208854,0.3405263449112063,1.3182664167019398,0.9608427954924311,0.28721555,0.6769977295909032
0.0375,1.76484375,1.0,2733.1799493344656,0.34422547493411815,1.3178348900411982,0.961602254005378,0.2871764375,0.6778730314811844
0.038,1.7639,1.0,2734.1364697200092,0.34790385639951354,1.3173999925700082,0.9623345865489987,0.28713679999999997,0.6787539691216797
0.0385,1.76294375,1.0,2734.855943450279,0.3515616041079546,1.316961603964078,0.96304106616141,0.28709663750000003,0.6796407576929817
0.039,1.761975,1.0,2735.351528624914,0.3551988328600035,1.3165196038991156,0.9637228911817496,0.28705595,0.6805336108021268
0.0395,1.7609937500000001,1.0,2735.636416773368,0.3588156574562221,1.3160738720508294,0.9643811904358215,0.2870147375,0.6814327404553442
0.04,1.76,1.0,2735.723827589102,0.3624121926971727,1.3156242880949272,0.9650170280082531,0.286973,0.6823383570298802
0.0405,1.7589937500000001,1.0,2735.627003986022,0.3659885533834172,1.315170731707117,0.9656314076381788,0.2869307375,0.6832506692448994
0.041,1.757975,1.0,2735.3592074755225,0.36954485431551776,1.3147130825631075,0.9662252767718111,0.28688795,0.6841698841314627
0.0415,1.75694375,1.0,2734.924914926322,0.3730812023896607,1.3142513002382026,0.9667995357602187,0.2868446375,0.6850960468705327
0.042,1.7559,1.0,2734.343690261251,0.37659771869264713,1.3137852074211616,0.9673550264433458,0.28680079999999997,0.6860294757769727
0.0425,1.75484375,1.0,2733.626350993008,0.38009451478628825,1.3133147062846142,0.967892549974313,0.2867564375,0.686970327888348
0.043000000000000003,1.753775,1.0,2732.780050819712,0.38357169873466385,1.3128397323300276,0.9684128666490254,0.28671155,0.6879186922056018
0.043500000000000004,1.75269375,1.0,2731.8119485287957,0.3870293786018537,1.3123602210588692,0.9689166963788366,0.28666613750000003,0.6888746565690509
0.044,1.7516,1.0,2730.7292063658856,0.39046766245193765,1.3118761079726065,0.9694047212350706,0.2866202,0.6898383076398569
0.0445,1.75049375,1.0,2729.5389884974543,0.3938866583489955,1.3113873285727062,0.9698775878088564,0.2865737375,0.6908097308812293
0.045,1.7493750000000001,1.0,2728.24845956433,0.3972864743571071,1.310893818360636,0.9703359094013713,0.28652675,0.6917890105393618
0.0455,1.74824375,1.0,2726.864783328167,0.40066721854035225,1.3103955128378633,0.9707802680582232,0.2864792375,0.6927762296241067
0.046,1.7471,1.0,2725.3951214102426,0.40402899896281075,1.309892347505855,0.9712112164604653,0.2864312,0.6937714698893827
0.0465,1.7459437500000001,1.0,2723.846632122036,0.4073719236885624,1.3093842578660786,0.9716292796836359,0.28638263750000004,0.6947748118133157
0.047,1.744775,1.0,2722.2243831373444,0.41069608654003936,1.3088711984085535,0.9720349563337247,0.28633355,0.6957862971736735
0.0475,1.74359375,1.0,2720.5375295474973,0.4140016125199543,1.3083530863837132,0.9724287220217771,0.28628393750000003,0.6968060399159386
0.048,1.7424,1.0,2718.790180608479,0.41728860295089837,1.3078298849177057,0.9728110294627788,0.2862338,0.6978340623455105
0.0485,1.74119375,1.0,2716.986415603036,0.4205571589979675,1.30730155738192,0.9731823096471186,0.2861831375,0.6988703853018066
0.049,1.739975,1.0,2715.1303103555833,0.4238073818262576,1.3067680671477462,0.9735429730825192,0.28613195,0.6999150286302165
0.0495,1.73874375,1.0,2713.2259368263344,0.42703937260086466,1.3062293775865732,0.9738934109511602,0.2860802375,0.7009680111700892
0.05,1.7375,1.0,2711.2773627341,0.43025323248688463,1.3056854520697907,0.974233996191282,0.286028,0.7020293507426265
0.0505,1.73624375,1.0,2709.2886512087985,0.4334490626494134,1.305136253968788,0.9745650845088311,0.2859752375,0.7030990641386967
0.051000000000000004,1.734975,1.0,2707.2638604745666,0.436626964253547,1.304581746654955,0.9748870153242576,0.28592195,0.7041771671065589
0.051500000000000004,1.73369375,1.0,2705.2070435616656,0.4397870384643814,1.3040218934996806,0.9752001126591631,0.2858681375,0.7052636743395054
0.052000000000000005,1.7324,1.0,2703.1222480484253,0.4429293864470124,1.3034566578743545,0.9755046859671149,0.2858138,0.7063585994634151
0.0525,1.73109375,1.0,2701.013515833565,0.44605410936653606,1.3028860031503662,0.9758010309126001,0.28575893750000003,0.7074619550242232
0.053,1.729775,1.0,2698.8780381336096,0.449161270126597,1.3023099552677078,0.9760894300515917,0.28570355000000003,0.7085736318432287
0.0535,1.72844375,1.0,2696.7222816171266,0.45225099955465603,1.3017284553897823,0.97637015534597,0.2856476375,0.7096936836992862
0.054,1.7271,1.0,2694.552487886487,0.45532342041186485,1.3011414466476974,0.9766434661812543,0.2855912,0.7108221591547578
0.0545,1.7257437500000001,1.0,2692.3699497845023,0.4583786246070192,1.300548917373909,0.9769096104310395,0.2855342375,0.711959018703352
0.055,1.724375,1.0,2690.1759581974497,0.4614167040489149,1.2999508559008746,0.9771688254213461,0.28547675,0.7131042220801429
0.0555,1.72299375,1.0,2687.971802024569,0.4644377506463475,1.2993472505610504,0.9774213384648607,0.2854187375,0.7142577282574609
0.056,1.7216,1.0,2685.75876815019,0.4674418563081129,1.2987380896868932,0.9776673673638446,0.2853602,0.7154194954407709
0.0565,1.72019375,1.0,2683.5381414190974,0.4704291129430068,1.2981233616108598,0.9779071208837901,0.28530113749999997,0.7165894810645425
0.057,1.718775,1.0,2681.3112046151223,0.4733996124598249,1.2975030546654067,0.9781407991997464,0.28524155,0.7177676417881123
0.0575,1.71734375,1.0,2679.0792384417286,0.476353446767363,1.296877157182991,0.9783685943171064,0.2851814375,0.718953933491536
0.058,1.7159,1.0,2676.8435215072254,0.47929070777441674,1.296245657496069,0.9785906904685036,0.2851208,0.7201483112714342
0.0585,1.71444375,1.0,2674.6053303117183,0.482211487389782,1.2956085439370975,0.9788072644883562,0.2850596375,0.7213507294368275
0.059000000000000004,1.7129750000000001,1.0,2672.3659392374752,0.4851158775222543,1.2949658048385333,0.979018486166487,0.28499795,0.7225611415049626
0.059500000000000004,1.71149375,1.0,2670.12662054257,0.4880039700806296,1.294317428532833,0.9792245185821391,0.2849357375,0.7237795001971326
0.06,1.71,1.0,2667.888644357053,0.4908758569737035,1.2936634033524534,0.9794255184196212,0.284873,0.7250057574344841
0.0605,1.7084937500000001,1.0,2665.653278682697,0.49373163011027177,1.2930037176298512,0.979621636266725,0.2848097375,0.7262398643338215
0.061,1.7069750000000001,1.0,2663.4217893951754,0.4965713813991302,1.292338359697483,0.9798130168969853,0.28474595,0.7274817712033964
0.0615,1.7054437500000001,1.0,2661.195440249613,0.49939520274907445,1.2916673178878055,0.9799997995367645,0.2846816375,0.728731427538692
0.062,1.7039,1.0,2658.9754928894167,0.5022031860689004,1.2909905805332758,0.9801821181180995,0.2846168,0.729988782018199
0.0625,1.70234375,1.0,2656.763206857316,0.5049954232674035,1.29030813596635,0.9803601015181571,0.2845514375,0.7312537824991814
0.063,1.7007750000000001,1.0,2654.5581737980324,0.5077719859531661,1.2896199878733314,0.9805338730573069,0.28448555,0.7325263476538628
0.0635,1.69919375,1.0,2652.3600438740564,0.5105329574244617,1.2889261394072855,0.9807035523377464,0.28441913750000003,0.7338063965790875
0.064,1.6976,1.0,2650.1720595257507,0.5132784621336388,1.288226560589144,0.9808692558778133,0.2843522,0.7350939087083943
0.0645,1.69599375,1.0,2647.9943469306822,0.5160085822218005,1.2875212501489632,0.9810310942829871,0.2842847375,0.736388809670846
0.065,1.694375,1.0,2645.8270320890347,0.5187233998300498,1.2868102068167995,0.9811891741494632,0.28421675,0.7376910244442114
0.0655,1.69274375,1.0,2643.6702408264855,0.5214229970994899,1.2860934293227089,0.9813435982368419,0.2841482375,0.7390004773545031
0.066,1.6911,1.0,2641.5240987965926,0.5241074561712241,1.2853709163967482,0.9814944656321751,0.2840792,0.7403170920755108
0.0665,1.6894437500000001,1.0,2639.3887314835147,0.5267768591863554,1.2846426667689734,0.9816418719058554,0.2840096375,0.7416407916283392
0.067,1.687775,1.0,2637.2642642039873,0.529431288285987,1.283908679169441,0.9817859092598122,0.28393955,0.7429714983809421
0.0675,1.68609375,1.0,2635.1508221105664,0.532070825611222,1.2831689523282075,0.9819266666684444,0.2838689375,0.7443091340476573
0.068,1.6844000000000001,1.0,2633.0485301940003,0.5346955533031637,1.2824234849753289,0.9820642300126919,0.2837978,0.7456536196887442
0.0685,1.68269375,1.0,2630.9575132857663,0.537305553502915,1.281672275840862,0.9821986822076283,0.2837261375,0.7470048757099149
0.069,1.680975,1.0,2628.8778960610966,0.5399009083515793,1.2809153236548627,0.9823301033239266,0.28365395,0.7483628218618742
0.0695,1.67924375,1.0,2626.809803041331,0.5424816999902595,1.2801526271473878,0.9824585707035356,0.28358123749999997,0.7497273772398493
0.07,1.6775,1.0,2624.753358596947,0.545048010560059,1.2793841850484933,0.9825841590698758,0.283508,0.751098460283129
0.07050000000000001,1.67574375,1.0,2622.70868695037,0.5475999222020809,1.2786099960882356,0.9827069406328549,0.2834342375,0.7524759887745962
0.07100000000000001,1.673975,1.0,2620.6759121786595,0.5501375170574281,1.2778300589966711,0.9828269851889742,0.28335995,0.7538598798402623
0.07150000000000001,1.67219375,1.0,2618.6551582165184,0.5526608772672039,1.2770443725038563,0.9829443602167905,0.2832851375,0.7552500499488027
0.07200000000000001,1.6704,1.0,2616.6465488592403,0.5551700849725116,1.2762529353398473,0.9830591309679757,0.2832098,0.7566464149110911
0.0725,1.66859375,1.0,2614.650207765473,0.5576652223144541,1.2754557462347007,0.9831713605542056,0.2831339375,0.7580488898797327
0.073,1.6667750000000001,1.0,2612.6652815285556,0.5601463698618274,1.274652812994792,0.9832811103449222,0.28305755,0.7594573734504075
0.0735,1.66494375,1.0,2610.6902063117686,0.562613600954682,1.2738441500418416,0.9833884396028411,0.2829806375,0.7608717521934355
0.074,1.6631,1.0,2608.724801836029,0.5650669926933442,1.2730297589560537,0.9834934053404452,0.2829032,0.7622919347079056
0.0745,1.6612444317544763,1.0,2606.8071150619157,0.5675066230364261,1.272209593654015,0.983596060698267,0.28282526613368797,0.7637179117433548
0.075,1.6593860601757129,1.0,2605.3492308975033,0.5699325690485515,1.2713838908496395,0.9836964694480667,0.28274721452737994,0.7651491829952517
