Time [s],Phi [rad],STIM [ ],Fsee [N],Gamma [ ],Lcerel [ ],q [ ],Lmtc [m],fisomrel [ ]
0.0,1.8,1.0,18.010027251180038,0.00021152645615923137,1.3793349463100937,0.005011640895298437,0.288653,0.5411511432012703
0.0005,1.79999375,1.0,18.38514650481428,0.005819549268855275,1.3792903641996344,0.013509455913666504,0.2886527375,0.5412589911521324
0.001,1.799975,1.0,21.876461097313804,0.011396115507543825,1.3789120212895485,0.03666645527355225,0.28865195,0.5421737248796835
0.0015,1.79994375,1.0,31.650372391729803,0.016941401619706854,1.3779969222835762,0.07204474901707858,0.2886506375,0.5443824194647451
0.002,1.7999,1.0,54.806339282574285,0.022455583060983345,1.3762891763612881,0.11642363276309012,0.2886488,0.5484899737032634
0.0025,1.79984375,1.0,99.15244246505222,0.027938834303903606,1.3738376851495042,0.1664284081984681,0.28864643749999996,0.5543539067667735
0.003,1.7997750000000001,1.0,163.58880127807612,0.03339132884388442,1.37111627567713,0.2191913432538898,0.28864354999999997,0.5608185903301545
0.0035,1.79969375,1.0,240.64719024046087,0.038813239200283636,1.3684937223903362,0.27251258836551956,0.2886401375,0.5670037517822508
0.004,1.7996,1.0,324.6150673221059,0.04420473692669699,1.3660729092286754,0.32475459972703735,0.2886362,0.5726741872731314
0.0045000000000000005,1.7994937500000001,1.0,412.52455563176414,0.049565992616302006,1.3638465160305748,0.37477957195128264,0.2886317375,0.5778562269528464
0.005,1.799375,1.0,502.7340528052212,0.05489717589372982,1.361787897864522,0.42187980411498227,0.28862675,0.582619633159344
0.0055,1.79924375,1.0,594.1382623401536,0.060198455453386965,1.3598735186631772,0.46568480378094823,0.2886212375,0.5870250336893619
0.006,1.7991000000000001,1.0,685.8673033093957,0.06546999902567302,1.3580856098002807,0.5060685461900656,0.2886152,0.5911182909883964
0.006500000000000001,1.79894375,1.0,777.2079651157842,0.0707119733917483,1.3564105254411527,0.5430703345044445,0.2886086375,0.5949347492179893
0.007,1.798775,1.0,867.5713878070079,0.07592454446770741,1.3548373727493208,0.5768337209825269,0.28860155,0.598502675064922
0.0075,1.79859375,1.0,956.4677800132237,0.08110787704158089,1.353357223927776,0.6075621850864495,0.2885939375,0.6018452560524732
0.008,1.7984,1.0,1043.5196300461816,0.08626213538050942,1.3519621397062653,0.6354881260386498,0.2885858,0.6049829471090158
0.0085,1.79819375,1.0,1128.4053357167193,0.0913874823107179,1.350645512780185,0.6608529000654786,0.2885771375,0.6079327945380136
0.009000000000000001,1.797975,1.0,1210.8797652212284,0.09648407995508668,1.3494013476443074,0.6838936329152575,0.28856795,0.6107101347714983
0.0095,1.79774375,1.0,1290.7848954102353,0.10155209003438614,1.3482238672527591,0.7048354559899832,0.2885582375,0.6133295225622857
0.01,1.7975,1.0,1367.9793983159057,0.10659167244438092,1.347108257588445,0.7238878728395304,0.288548,0.615803117072429
0.0105,1.79724375,1.0,1442.374807930473,0.11160298654267746,1.346049978223876,0.7412426219876269,0.2885372375,0.6181422594746652
0.011,1.796975,1.0,1513.9372541639864,0.1165861913789481,1.3450446236050932,0.7570733293374421,0.28852595000000003,0.6203578052334806
0.0115,1.79669375,1.0,1582.6443282178254,0.1215414445815901,1.3440883501868521,0.7715363049179339,0.2885141375,0.6224592068421244
0.012,1.7964,1.0,1648.4891064392975,0.12646890242023687,1.3431777082098346,0.7847715225018351,0.28850180000000003,0.6244549125887935
0.0125,1.79609375,1.0,1711.4979506476486,0.1313687206898466,1.3423093491108387,0.7969038101833645,0.2884889375,0.6263530277784247
0.013000000000000001,1.7957750000000001,1.0,1771.72909557143,0.1362410554307019,1.3414799900229484,0.808044258169709,0.28847555,0.628161404381145
0.0135,1.79544375,1.0,1829.2308694176343,0.14108606070195878,1.3406868343265699,0.8182917848990604,0.2884616375,0.6298867376165189
0.014,1.7951000000000001,1.0,1884.0494820126094,0.14590388891549755,1.3399274165181585,0.8277343853485071,0.2884472,0.6315349218727373
0.0145,1.79474375,1.0,1936.2551144448962,0.15069469248319853,1.3391992710941698,0.8364502366776682,0.2884322375,0.6331117808966324
0.015,1.794375,1.0,1985.9277134935046,0.15545862300160132,1.3385000617063336,0.8445088743656477,0.28841675,0.6346227940842103
0.0155,1.79399375,1.0,2033.1613514649218,0.1601958325756342,1.3378275071526815,0.8519721791370919,0.2884007375,0.6360732634279493
0.016,1.7936,1.0,2078.030034567118,0.16490647061910746,1.3371797165393724,0.858895381254036,0.2883842,0.6374675980689684
0.0165,1.7931937500000001,1.0,2120.605219221283,0.16959068525106957,1.3365549726790045,0.8653277767827943,0.2883671375,0.6388097907048296
0.017,1.792775,1.0,2160.970782728168,0.17424862459056883,1.3359515583841755,0.8713133784488774,0.28834955,0.640103795979732
0.0175,1.7923437500000001,1.0,2199.2158497463156,0.1788804361058885,1.3353678183783322,0.8768915567990447,0.2883314375,0.6413534004979529
0.018000000000000002,1.7919,1.0,2235.43268680202,0.18348626731159912,1.3348021679377253,0.8820975881584684,0.2883128,0.642562207730227
0.0185,1.79144375,1.0,2269.7072517319434,0.1880662646132347,1.3342531754582672,0.8869631518945911,0.2882936375,0.6437334652297988
0.019,1.790975,1.0,2302.107555042251,0.19262057156872386,1.3337196642567624,0.8915167687377833,0.28827395,0.6448698523225569
0.0195,1.79049375,1.0,2332.708047600704,0.19714933173599528,1.3332004576500156,0.8957841000905226,0.2882537375,0.645974027493049
0.02,1.79,1.0,2361.589084821901,0.20165268867297756,1.3326943789548313,0.8997882725998446,0.288233,0.6470486295021016
0.0205,1.78949375,1.0,2388.826272501471,0.20613078448619931,1.3322003500977881,0.9035501840188415,0.2882117375,0.6480960694990656
0.021,1.788975,1.0,2414.5062976570402,0.21058376300211826,1.3317172314056622,0.9070887165794509,0.28818995000000003,0.6491188724125074
0.021500000000000002,1.78844375,1.0,2438.6989892556517,0.21501176511168882,1.331244087866375,0.9104210118727476,0.2881676375,0.6501191143289964
0.022,1.7879,1.0,2461.462807149034,0.2194149294528188,1.3307801279736817,0.9135626452086365,0.2881448,0.6510985552860802
0.0225,1.78734375,1.0,2482.8592602734407,0.22379339466341602,1.330324560221338,0.9165277644933391,0.28812143749999997,0.6520589442429197
0.023,1.786775,1.0,2502.9526533659414,0.22814729938138836,1.329876593103099,0.9193292408025125,0.28809755,0.6530020195238919
0.0235,1.78619375,1.0,2521.809229706551,0.2324767821134461,1.329435440955556,0.9219788023166609,0.28807313749999996,0.6539294969464873
0.024,1.7856,1.0,2539.484025182306,0.23678197843204496,1.3290004456124267,0.9244871723550541,0.2880482,0.6548428150090073
0.0245,1.78499375,1.0,2556.055079023259,0.2410630288865977,1.3285707510202265,0.9268641168328605,0.2880227375,0.6557438187946567
0.025,1.784375,1.0,2571.56682083042,0.24532006685434365,1.328145834815893,0.9291186267011701,0.28799675,0.6566336450669027
0.025500000000000002,1.78374375,1.0,2586.0651015954177,0.24955322571252214,1.3277251746363636,0.9312589399551562,0.2879702375,0.657513424456521
0.026000000000000002,1.7831000000000001,1.0,2599.5970760041905,0.2537626388383725,1.3273082481185758,0.9332926149121772,0.2879432,0.6583842816120816
0.0265,1.78244375,1.0,2612.211090790498,0.2579484396091341,1.3268945328994668,0.9352265954651324,0.2879156375,0.6592473353330339
0.027,1.781775,1.0,2623.956579139123,0.26211076140204626,1.3264835066159744,0.9370672692752002,0.28788755,0.6601036986853859
0.0275,1.7810937500000001,1.0,2634.8750050018734,0.2662497335836139,1.3260747297617586,0.9388205305621221,0.2878589375,0.6609543067946305
0.028,1.7804,1.0,2645.0224453349856,0.27036549276757343,1.3256676355122212,0.9404917989819258,0.2878298,0.6618003545276755
0.0285,1.77969375,1.0,2654.4332682855693,0.2744581674536682,1.3252618649518535,0.942086105243377,0.2878001375,0.6626425995154408
0.029,1.778975,1.0,2663.1407404141355,0.27852788543052465,1.3248570749224098,0.9436081012287509,0.28776995,0.663481762987423
0.029500000000000002,1.7782437500000001,1.0,2671.1786746765697,0.28257477448676926,1.3244529222656443,0.9450620916167272,0.2877392375,0.6643185626061345
0.03,1.7775,1.0,2678.5813813191303,0.2865989624110284,1.3240490638233116,0.9464520642414082,0.287708,0.6651537124848066
0.0305,1.77674375,1.0,2685.383621384353,0.2906005769919285,1.323645156437166,0.9477817174360276,0.2876762375,0.6659879231975838
0.031,1.775975,1.0,2691.6205628278085,0.29457974601809594,1.3232408569489622,0.9490544846935989,0.28764395,0.6668219017822083
0.0315,1.7751937500000001,1.0,2697.316368008936,0.2985365884208791,1.322835926175392,0.9502735671212496,0.2876111375,0.6676561376609595
0.032,1.7744,1.0,2702.518446626214,0.3024712427090558,1.3224299151578427,0.9514419229918609,0.2875778,0.6684915491431963
0.0325,1.77359375,1.0,2707.24873627744,0.3063838306105725,1.322022610498251,0.9525623302815442,0.2875439375,0.6693285660965933
0.033,1.772775,1.0,2711.528739018142,0.31027447338077485,1.3216138047031265,0.9536373787720818,0.28750955,0.6701676040318214
0.0335,1.7719437500000002,1.0,2715.3801468924166,0.3141432922750083,1.3212032902789774,0.9546694845479757,0.2874746375,0.6710090762562467
0.034,1.7711000000000001,1.0,2718.8248233449676,0.3179904085486184,1.3207908597323132,0.9556609037146607,0.2874392,0.6718533938526892
0.0345,1.7702437500000001,1.0,2721.884785589511,0.3218159434569505,1.3203763055696425,0.9566137448789295,0.2874032375,0.6727009656554435
0.035,1.7693750000000001,1.0,2724.5821879299365,0.3256200182553503,1.3199594202974747,0.9575299805162805,0.28736675,0.6735521982235457
0.035500000000000004,1.76849375,1.0,2726.9393060376738,0.32940275419916315,1.3195399964223182,0.9584114573360973,0.2873297375,0.6744074958113038
0.036000000000000004,1.7676,1.0,2728.9785221823367,0.3331642725437346,1.3191178264506827,0.959259905743437,0.2872922,0.6752672603360714
0.0365,1.76669375,1.0,2730.708783103364,0.33690468566753035,1.3186928258289705,0.9600769589545194,0.2872541375,0.6761316414704894
0.037,1.765775,1.0,2732.16050455534,0.34062412218982324,1.318264715548569,0.9608641339441518,0.28721555,0.6770011825152695
0.0375,1.76484375,1.0,2733.3533646408478,0.34432270152207606,1.3178333148480865,0.9616228631911099,0.2871764375,0.6778762244026694
0.038,1.7639,1.0,2734.2996149386395,0.3480005377167663,1.3173985109216095,0.9623544985969721,0.28713679999999997,0.6787569683187019
0.0385,1.76294375,1.0,2735.0115502070394,0.35165774482637147,1.3169601909632247,0.9630603118362552,0.28709663750000003,0.6796436139813653
0.039,1.761975,1.0,2735.501502917631,0.35529443690336887,1.3165182421670183,0.9637414999870637,0.28705595,0.680536359615755
0.0395,1.7609937500000001,1.0,2735.781838071763,0.35891072800023605,1.3160725517270768,0.964399190708074,0.2870147375,0.6814354019283622
0.04,1.76,1.0,2735.8649482979813,0.36250673216945045,1.315623006837487,0.9650344470028699,0.286973,0.6823409360805601
0.0405,1.7589937500000001,1.0,2735.7632492327452,0.3660825634634895,1.315169494692335,0.9656482716085593,0.2869307375,0.6832531556612829
0.041,1.757975,1.0,2735.4891751825226,0.36963833593483064,1.3147119024857075,0.9662416110419532,0.28688795,0.6841722526588857
0.0415,1.75694375,1.0,2735.055175068289,0.37317416363595124,1.3142501174116907,0.9668153593333247,0.2868446375,0.6850984174322021
0.042,1.7559,1.0,2734.4710458002123,0.37669015554201773,1.3137840508466734,0.967370362655769,0.28680079999999997,0.6860317902877944
0.0425,1.75484375,1.0,2733.7470553583285,0.3801864249937455,1.3133136099680278,0.9679074216537058,0.2867564375,0.6869725185229674
0.043000000000000003,1.753775,1.0,2732.895252805529,0.38366308962359097,1.312838685827149,0.968427293351356,0.28671155,0.6879207801337448
0.043500000000000004,1.75269375,1.0,2731.922558273125,0.3871202564608262,1.3123592160937914,0.968930696623473,0.28666613750000003,0.688876658549975
0.044,1.7516,1.0,2730.8358953616294,0.3905580325347231,1.311875138437709,0.9694183125763428,0.2866202,0.6898402360473848
0.0445,1.75049375,1.0,2729.6421896650886,0.39397652487455387,1.3113863905286562,0.9698907869020773,0.2865737375,0.6908115937293852
0.045,1.7493750000000001,1.0,2728.3483673803435,0.3973758405095904,1.3108929100363875,0.9703487320637976,0.28652675,0.691790811508631
0.0455,1.74824375,1.0,2726.9613540027144,0.4007560864691048,1.3103946346306572,0.97079272932539,0.2864792375,0.6927779680883317
0.046,1.7471,1.0,2725.488073108263,0.40411736978236906,1.3098915019812196,0.97122333063829,0.2864312,0.6937731409433157
0.0465,1.7459437500000001,1.0,2723.935445221717,0.40745979747865524,1.309383449757829,0.9716410603966472,0.28638263750000004,0.6947764063008448
0.047,1.744775,1.0,2722.310386770384,0.4107834765872353,1.3088704156302395,0.9720464170712212,0.28633355,0.6957878391211834
0.0475,1.74359375,1.0,2720.6190550565298,0.41408851153637866,1.3083523441335818,0.9724398748868354,0.28628393750000003,0.6968074995769297
0.048,1.7424,1.0,2718.8627334651965,0.4173749906955542,1.3078292241464362,0.9728218861900704,0.2862338,0.6978353595708009
0.0485,1.74119375,1.0,2717.055064170198,0.4206430488833194,1.3073009319610371,0.9731928795782431,0.2861831375,0.6988716110200193
0.049,1.739975,1.0,2715.199047671375,0.4238927853223724,1.3067674407043155,0.9735532655061864,0.28613195,0.6999162542210595
0.0495,1.73874375,1.0,2713.297681816633,0.4271242992354119,1.3062287235032017,0.9739034351172753,0.2860802375,0.7009692885892845
0.05,1.7375,1.0,2711.3539615439277,0.43033768984513615,1.305684753484626,0.9742437613237821,0.286028,0.7020307126500107
0.0505,1.73624375,1.0,2709.370878639268,0.43353305637424366,1.3051355037755192,0.9745745998174016,0.2859752375,0.7031005240295283
0.051000000000000004,1.734975,1.0,2707.351421511281,0.4367104980454328,1.3045809475028116,0.9748962900150439,0.28592195,0.7041787194460762
0.051500000000000004,1.73369375,1.0,2705.2985749813683,0.43987011408140214,1.304021057793434,0.975209155944582,0.2858681375,0.7052652947007702
0.052000000000000005,1.7324,1.0,2703.2153200897405,0.44301200370485,1.3034558077743166,0.9755135070748573,0.2858138,0.7063602446684853
0.0525,1.73109375,1.0,2701.104633918149,0.4461362661384748,1.30288517057239,0.9758096390939087,0.28575893750000003,0.7074635632886932
0.053,1.729775,1.0,2698.969489427617,0.449243000604975,1.302309119314585,0.9760978346390777,0.28570355000000003,0.70857524355625
0.0535,1.72844375,1.0,2696.812855313327,0.4523323063270491,1.3017276271278317,0.9763783639823519,0.2856476375,0.7096952775121433
0.054,1.7271,1.0,2694.63769587447,0.45540428252739545,1.3011406671390608,0.97665148567405,0.2855912,0.7108236562341881
0.0545,1.7257437500000001,1.0,2692.446970900798,0.45845902842871256,1.3005482124752028,0.9769174471477142,0.2855342375,0.7119603698276797
0.055,1.724375,1.0,2690.2435482600695,0.46149663669103064,1.299950237062616,0.9771764847049359,0.28547675,0.7131054058867363
0.0555,1.72299375,1.0,2688.0301800571146,0.46451718392933017,1.2993467158463545,0.9774288232182577,0.2854187375,0.7142587490816387
0.056,1.7216,1.0,2685.809178584529,0.46752080560763587,1.2987376277610307,0.9776746838962102,0.2853602,0.7154203755092852
0.0565,1.72019375,1.0,2683.5817096223436,0.4705075922051899,1.2981229622170047,0.9779142751584288,0.28530113749999997,0.7165902404303519
0.057,1.718775,1.0,2681.3489370673456,0.4734776342012345,1.2975027086246367,0.9781477968545842,0.28524155,0.71776829834504
0.0575,1.71734375,1.0,2679.112022918261,0.4764310220750118,1.296876856394286,0.9783754406838362,0.2851814375,0.7189545029893063
0.058,1.7159,1.0,2676.872127263494,0.4793678463057641,1.2962453949363133,0.9785973905904912,0.2851208,0.7201488073310834
0.0585,1.71444375,1.0,2674.6304082717666,0.48228819737273354,1.295608313661078,0.9788138231373993,0.2850596375,0.7213511635664978
0.059000000000000004,1.7129750000000001,1.0,2672.3880221846052,0.4851921657551623,1.2949656019789404,0.9790249078585026,0.28499795,0.7225615231160756
0.059500000000000004,1.71149375,1.0,2670.146123311794,0.48807984193229254,1.2943172493002604,0.9792308075918589,0.2849357375,0.7237798366209451
0.06,1.71,1.0,2667.9058640290873,0.49095131638336653,1.293663245035398,0.9794316787943621,0.284873,0.72500605393903
0.0605,1.7084937500000001,1.0,2665.6683947786732,0.4938066795876265,1.293003578594713,0.9796276718392989,0.2848097375,0.7262401241412368
0.061,1.7069750000000001,1.0,2663.434864071565,0.49664602202431457,1.2923382393885656,0.9798189312978062,0.28474595,0.727481995507633
0.0615,1.7054437500000001,1.0,2661.206418493001,0.499469434172673,1.2916672168273156,0.9800055962052113,0.2846816375,0.7287316155236214
0.062,1.7039,1.0,2658.9842027104983,0.502277006511944,1.2909905003213231,0.9801878003131794,0.2846168,0.7299889308761035
0.0625,1.70234375,1.0,2656.7693594834736,0.5050688295213696,1.290308079280948,0.9803656723285232,0.2845514375,0.731253887449639
0.063,1.7007750000000001,1.0,2654.5630296762674,0.5078449936801922,1.2896199431165505,0.9805393361394751,0.28448555,0.7325264303225959
0.0635,1.69919375,1.0,2652.3663522735537,0.5106055894676539,1.2889260812384902,0.9807089110301689,0.28441913750000003,0.7338065037632953
0.064,1.6976,1.0,2650.1775083878983,0.5133506540736941,1.2882265103252721,0.9808745093872889,0.2843522,0.7350940011024101
0.0645,1.69599375,1.0,2647.9987208042635,0.5160803289656437,1.287521209784898,0.9810362451697233,0.2842847375,0.7363888836856782
0.065,1.694375,1.0,2645.8309597873867,0.5187947154133785,1.2868101705553951,0.9811942258523173,0.28421675,0.7376910907716363
0.0655,1.69274375,1.0,2643.6742605426157,0.5214938942408585,1.2860933921966407,0.9813485540148192,0.2841482375,0.7390005450938111
0.066,1.6911,1.0,2641.528658256306,0.5241779462720435,1.2853708742685113,0.9814993285737785,0.2840792,0.7403171687475304
0.0665,1.6894437500000001,1.0,2639.3941880964817,0.5268469523308934,1.2846426163308844,0.9816466449379013,0.2840096375,0.7416408831897607
0.067,1.687775,1.0,2637.2708852135684,0.5295009932413683,1.283908617943637,0.9817905951557427,0.28393955,0.7429716092389476
0.0675,1.68609375,1.0,2635.158784741897,0.5321401498274281,1.2831688786666462,0.9819312680561688,0.2838689375,0.744309267074854
0.068,1.6844000000000001,1.0,2633.0579218001867,0.5347645029130327,1.282423398059789,0.9820687493819871,0.2837978,0.7456537762383992
0.0685,1.68269375,1.0,2630.9683314926106,0.537374133322142,1.2816721756829426,0.982203121917124,0.2837261375,0.7470050556314973
0.069,1.680975,1.0,2628.8900489097996,0.539969121878716,1.2809152110959838,0.9823344656077021,0.28365395,0.7483630235168968
0.0695,1.67924375,1.0,2626.82310912953,0.5425495494067147,1.2801525038587902,0.9824628576773506,0.28358123749999997,0.7497275975180183
0.07,1.6775,1.0,2624.767547218124,0.5451154967300978,1.2793840535312384,0.9825883727370585,0.283508,0.7510986946187951
0.07050000000000001,1.67574375,1.0,2622.723398231016,0.5476670446728256,1.2786098596732056,0.982711082889867,0.2834342375,0.7524762311635098
0.07100000000000001,1.673975,1.0,2620.6906972138067,0.5502042740588577,1.277829921844569,0.9828310578306733,0.28335995,0.7538601228566348
0.07150000000000001,1.67219375,1.0,2618.6694792032586,0.5527272657121542,1.2770442396052055,0.9829483649414069,0.2832851375,0.7552502847626705
0.07200000000000001,1.6704,1.0,2616.65977922839,0.555236100456675,1.2762528125149923,0.9830630693818215,0.2832098,0.7566466313059838
0.0725,1.66859375,1.0,2614.661632311125,0.5577308591163801,1.2754556401338066,0.9831752341761312,0.2831339375,0.7580490762706468
0.073,1.6667750000000001,1.0,2612.675073467685,0.5602116225152293,1.2746527220215254,0.9832849202957088,0.28305755,0.7594575328002766
0.0735,1.66494375,1.0,2610.700137709215,0.5626784714771828,1.2738440577380254,0.9833921867380468,0.2829806375,0.7608719133978731
0.074,1.6631,1.0,2608.736860042768,0.5651314868262002,1.2730296468431843,0.9834970906021773,0.2829032,0.7622921299256571
0.0745,1.6612437500000001,1.0,2606.7852754726136,0.5675707493862416,1.272209488896879,0.9835996871607242,0.2828252375,0.7637180936049106
0.075,1.659375,1.0,2604.847014419056,0.5699963352853302,1.271383568614307,0.9837000290154186,0.28274675,0.7651497407084304
0.0755,1.65749375,1.0,2602.917017787879,0.57240831604495,1.2705519329547772,0.9837981695570944,0.2826677375,0.7665868991531688
