Time [s],Phi [rad],STIM [ ],Fsee [N],Gamma [ ],Lcerel [ ],q [ ],Lmtc [m],fisomrel [ ]
0.0,1.8,1.0,17.967932742534437,3.6432764974868735e-05,1.3793396594423573,0.005000350170272176,0.288653,0.5411397409890192
0.0005,1.79999375,1.0,18.286127236429376,0.005645437714778833,1.3793013456445484,0.013014060197125154,0.2886527375,0.541232427271157
0.001,1.799975,1.0,21.647432045888984,0.011222980581605656,1.3789353360300378,0.035746449617161925,0.28865195,0.5421173823590635
0.0015,1.79994375,1.0,31.140075069320492,0.016769237843751672,1.3780401719201134,0.07079035498280248,0.2886506375,0.5442781518323058
0.002,1.7999,1.0,53.73655821210849,0.022284384987816538,1.3763581370917266,0.11494121150243368,0.2886488,0.5483244663419806
0.0025,1.79984375,1.0,97.37913114633086,0.02776859651645676,1.3739226375423557,0.1648176621986182,0.28864643749999996,0.5541513428997709
0.003,1.7997750000000001,1.0,161.2974790595755,0.03322204595585301,1.371201649662761,0.21753089502512932,0.28864354999999997,0.5606165028305001
0.0035,1.79969375,1.0,238.06712861718015,0.03864490585549807,1.3685729170365126,0.2708619738975798,0.2886401375,0.5668176174336608
0.004,1.7996,1.0,321.875356771845,0.04403734779892725,1.3661452739651267,0.32315698093164474,0.2886362,0.5725052243399308
0.0045000000000000005,1.7994937500000001,1.0,409.69104518730796,0.04939954240891773,1.3639128804014944,0.37326344799777433,0.2886317375,0.5777022177228561
0.005,1.799375,1.0,499.84554686793894,0.05473165933867589,1.3618491634600454,0.42046165065355856,0.28862675,0.582478261808882
0.0055,1.79924375,1.0,591.2264328186045,0.060033867318030225,1.3599303179201212,0.4643720040137131,0.2886212375,0.586894662761226
0.006,1.7991000000000001,1.0,682.954791959131,0.06530633409974383,1.3581384782705876,0.5048622027613219,0.2886152,0.5909975458610581
0.006500000000000001,1.79894375,1.0,774.313904079037,0.0705492264652386,1.3564598690944238,0.5419674060965449,0.2886086375,0.5948225820318438
0.007,1.798775,1.0,864.7203640710611,0.07576271049884731,1.354883376457214,0.575828577160099,0.28860155,0.5983985622268093
0.0075,1.79859375,1.0,953.6622486944176,0.08094695085147877,1.3534003347343382,0.6066480533751318,0.2885939375,0.601748097607327
0.008,1.7984,1.0,1040.770517555056,0.08610211175610628,1.3520025801482674,0.6346575586851854,0.2885858,0.6048921669928655
0.0085,1.79819375,1.0,1125.724211247093,0.09122835634166124,1.3506834381647412,0.6600983812426594,0.2885771375,0.6078479789443754
0.009000000000000001,1.797975,1.0,1208.270035860582,0.09632584639456836,1.3494369818046341,0.6832079632917402,0.28856795,0.6106307262349102
0.0095,1.79774375,1.0,1288.2529210746786,0.10139474393165106,1.3482573509088291,0.7042118417378976,0.2885582375,0.6132551579654485
0.01,1.7975,1.0,1365.541653614026,0.10643520932130808,1.3471395709309866,0.7233199775687571,0.288548,0.6157337955798806
0.0105,1.79724375,1.0,1440.0268466917328,0.11144740129182523,1.3460793490448295,0.7407248068828954,0.2885372375,0.6180774367497037
0.011,1.796975,1.0,1511.6628859937975,0.11643147857148836,1.345072392424081,0.7566005625541917,0.28852595000000003,0.6202966963862278
0.0115,1.79669375,1.0,1580.4429071922075,0.12138759910788686,1.344114637725699,0.7711039747043411,0.2885141375,0.6224015181853029
0.012,1.7964,1.0,1646.3817733223816,0.1263159202854919,1.3432023638560817,0.7843753948952882,0.28850180000000003,0.62440094848086
0.0125,1.79609375,1.0,1709.484516443602,0.13121659725067697,1.3423324678642425,0.7965402179586275,0.2884889375,0.6263025556313053
0.013000000000000001,1.7957750000000001,1.0,1769.7897330656365,0.1360897850309744,1.341501876033772,0.8077100231105736,0.28847555,0.6281137393667545
0.0135,1.79544375,1.0,1827.348301991699,0.14093563767338335,1.3407077424685003,0.8179840635626285,0.2884616375,0.6298413081059249
0.014,1.7951000000000001,1.0,1882.2509229192706,0.1457543099757535,1.339947098536009,0.8274504684669539,0.2884472,0.6314922519035366
0.0145,1.79474375,1.0,1934.5473669275661,0.15054595332203702,1.3392177053471725,0.8361877963217617,0.2884322375,0.6330719017187463
0.015,1.794375,1.0,1984.3020135020286,0.15531071879282918,1.3385173891689304,0.8442658956792859,0.28841675,0.6345853865760553
0.0155,1.79399375,1.0,2031.5978967505093,0.16004875746872532,1.3378439762682222,0.8517469025302645,0.2884007375,0.6360377796533065
0.016,1.7936,1.0,2076.517038243883,0.16476021914094183,1.3371954809745,0.858686209110651,0.2883842,0.6374336977371673
0.0165,1.7931937500000001,1.0,2119.1642270386797,0.16944525443025332,1.3365698352138735,0.8651331798573905,0.2883671375,0.638777889107481
0.017,1.792775,1.0,2159.607684121965,0.17410401037979548,1.3359654854204444,0.8711320371661436,0.28834955,0.640073956014685
0.0175,1.7923437500000001,1.0,2197.923414862075,0.17873663381999458,1.3353809079652676,0.8767223269432525,0.2883314375,0.641325403610946
0.018000000000000002,1.7919,1.0,2234.197166086345,0.18334327158127692,1.3348145792193988,0.8819394601525802,0.2883128,0.6425357064481407
0.0185,1.79144375,1.0,2268.5104446736073,0.1879240690940828,1.3342651066509397,0.8868152287161506,0.2882936375,0.6437080308534309
0.019,1.790975,1.0,2300.9605201794398,0.1924791734054719,1.3337310184243036,0.891378172480222,0.28827395,0.6448456866756286
0.0195,1.79049375,1.0,2331.6179883287996,0.1970087276404609,1.3332111767430963,0.8956540492371584,0.2882537375,0.6459512490225798
0.02,1.79,1.0,2360.5525240743073,0.20151287413621882,1.3327045093790975,0.8996660858540791,0.288233,0.6470271346900959
0.0205,1.78949375,1.0,2387.8389477532332,0.20599175522991475,1.3322099441040878,0.9034352474165095,0.2882117375,0.6480757431070118
0.021,1.788975,1.0,2413.556790439008,0.2104455132587178,1.3317264086898473,0.9069804882684177,0.28818995000000003,0.6490994571994146
0.021500000000000002,1.78844375,1.0,2437.761767771341,0.21487428796636468,1.3312531013411288,0.9103190284877062,0.2881676375,0.6501000728695275
0.022,1.7879,1.0,2460.5703918643085,0.2192782231533343,1.3307886707121004,0.9134663736300422,0.2881448,0.6510805335730919
0.0225,1.78734375,1.0,2482.02775257173,0.22365745635015036,1.3303324854895495,0.9164367514771476,0.28812143749999997,0.6520422481833437
0.023,1.786775,1.0,2502.179771274144,0.22801212495323261,1.3298839299226117,0.9192431071666766,0.28809755,0.6529865841161142
0.0235,1.7861937817323608,1.0,2521.0761406266597,0.23234236635900082,1.329442388260422,0.9218972338214135,0.28807313883275915,0.6539149005652721
0.024,1.785607172411324,1.0,2539.1062638288495,0.23664831796387487,1.329007244752116,0.9244098909669854,0.2880485012412756,0.6548285487902464
0.0245,1.7850205630902873,1.0,2556.581691070672,0.24093011643149836,1.3285779139688896,0.926790914355283,0.28802386364979204,0.6557288088388169
0.025,1.7844339537692506,1.0,2573.512307720441,0.24518789811409622,1.3281542438686251,0.9290493783585037,0.2879992260583085,0.6566160466550093
0.025500000000000002,1.783847344448214,1.0,2589.9067054177053,0.24942179800313108,1.327736098503846,0.9311935972317845,0.287974588466825,0.6574905922751191
0.026000000000000002,1.7832607351271774,1.0,2605.780762097161,0.2536319488477582,1.3273232777819872,0.9332311856281359,0.2879499508753415,0.658352907595842
0.0265,1.7826741258061407,1.0,2621.1508115427355,0.25781848339713276,1.3269155816104836,0.9351691377260947,0.2879253132838579,0.6592034518503802
0.027,1.782087516485104,1.0,2636.0336202097446,0.2619815344004101,1.3265128098967698,0.9370138861012755,0.2879006756923744,0.6600426816751144
0.0275,1.7815009071640673,1.0,2650.4338583868794,0.26612121782119075,1.3261148779110854,0.9387713645530438,0.2878760381008908,0.6608708112405544
0.028,1.7809142978430306,1.0,2664.3819032293045,0.2702376822216582,1.325721466788974,0.9404470231499418,0.2878514005094073,0.6616885397730845
0.0285,1.7803276885219939,1.0,2677.9027710831774,0.27433106981408684,1.3253323115035718,0.9420458980053674,0.28782676291792375,0.6624964511854048
0.029,1.7797410792009574,1.0,2691.0084823859647,0.2784015054239401,1.3249472698207803,0.9435726540277092,0.28780212532644023,0.6632948719260875
0.029500000000000002,1.7791544698799207,1.0,2703.7113242916444,0.2824491138766818,1.324566199506501,0.9450316075548792,0.28777748773495665,0.6640841267152622
0.03,1.778567860558884,1.0,2716.0238379228686,0.2864740199977756,1.324188958326636,0.9464267568681457,0.2877528501434731,0.6648645385812841
0.0305,1.7779812512378472,1.0,2727.958806070829,0.2904763486126851,1.3238154040470864,0.94776180967334,0.28772821255198955,0.6656364288961166
0.031,1.7773946419168105,1.0,2739.5292413447332,0.29445622454687403,1.3234453944337548,0.9490402078837546,0.287703574960506,0.6664001174094158
0.0315,1.776808032595774,1.0,2750.7483747688498,0.29841377262580604,1.323078787252542,0.9502651499989153,0.2876789373690225,0.6671559222813351
0.032,1.7762214232747373,1.0,2761.6296448287753,0.3023491176749447,1.32271544026935,0.9514396113384385,0.287654299777539,0.6679041601140294
0.0325,1.7756348139537006,1.0,2772.1866869656883,0.30626238451975374,1.3223552112500807,0.9525663623596886,0.2876296621860554,0.6686451459818745
0.033,1.7750482046326639,1.0,2782.433323519969,0.3101536979856969,1.3219979579606356,0.9536479852612908,0.2876050245945719,0.6693791934603979
0.0335,1.7744615953116272,1.0,2792.383554122237,0.3140231828982377,1.3216435381669165,0.954686889051261,0.28758038700308836,0.6701066146539137
0.034,1.7738749859905907,1.0,2802.0515465338553,0.3178709640828399,1.3212918096348247,0.9556853232380961,0.2875557494116048,0.6708277202218735
0.0345,1.773288376669554,1.0,2811.450172284351,0.3216971639651222,1.320942643167317,0.956645391099001,0.28753111182012125,0.6715427927193119
0.035,1.7727017673485173,1.0,2820.5852293915104,0.3255018957318227,1.3205959740831756,0.9575690648090595,0.28750647422863773,0.6722519815103947
0.035500000000000004,1.7721151580274805,1.0,2829.4755929312837,0.3292852951124635,1.3202516217498768,0.9584581840988692,0.2874818366371542,0.6729556720872891
0.036000000000000004,1.7715285487064438,1.0,2838.129091427936,0.3330474781558862,1.3199095054731511,0.9593144785090804,0.28745719904567063,0.6736540443492471
0.0365,1.7709419393854071,1.0,2846.5536427224624,0.3367885609109323,1.3195695445587292,0.9601395700607027,0.2874325614541871,0.6743472773932602
0.037,1.7703553300643706,1.0,2854.757250043647,0.3405086594264434,1.3192316583123411,0.9609349811576128,0.28740792386270353,0.6750355495253593
0.0375,1.769768720743334,1.0,2862.7479982244986,0.3442078897512611,1.3188957660397176,0.9617021418234141,0.28738328627122,0.6757190382714978
0.038,1.7691821114222972,1.0,2870.5340500622447,0.34788636793422684,1.3185617870465889,0.9624423963354781,0.2873586486797365,0.6763979203880222
0.0385,1.7685955021012605,1.0,2878.1236428233115,0.3515442100241822,1.3182296406386855,0.9631570093124674,0.28733401108825296,0.6770723718717253
0.039,1.7680088927802238,1.0,2885.5250848922633,0.3551815320699687,1.3178992461217378,0.963847171305831,0.2873093734967694,0.677742567969486
0.0395,1.7674222834591873,1.0,2892.74675256559,0.358798450120428,1.3175705228014762,0.9645140039406412,0.28728473590528586,0.6784086831874907
0.04,1.7668356741381506,1.0,2899.7970869892565,0.36239508022440153,1.317243389983631,0.9651585646465413,0.28726009831380234,0.6790708913000438
0.0405,1.7662490648171139,1.0,2906.6828807486113,0.3659715337871524,1.3169177820403366,0.9657818515006509,0.28723546072231876,0.6797293349063575
0.041,1.7656624554960771,1.0,2913.4074210159006,0.3695279147260062,1.3165936646353695,0.96638480814483,0.28721082313083524,0.6803840928340152
0.0415,1.7650758461750404,1.0,2919.985522155402,0.3730643596691797,1.3162709024201145,0.9669683230831443,0.2871861855393517,0.6810354473289746
0.042,1.764489236854004,1.0,2926.421650756711,0.37658097634104093,1.315949451607754,0.9675332388999286,0.2871615479478682,0.6816834949896671
0.0425,1.7639026275329672,1.0,2932.720307059341,0.3800778724659577,1.3156292684114708,0.9680803526043482,0.2871369103563846,0.6823283320218104
0.043000000000000003,1.7633160182119305,1.0,2938.8860237016247,0.38355515576829796,1.3153103090444476,0.9686104185592469,0.2871122727649011,0.6829700542420121
0.043500000000000004,1.7627294088908938,1.0,2944.9233645104914,0.38701293397242964,1.3149925297198666,0.9691241511932778,0.2870876351734175,0.6836087570812468
0.044,1.762142799569857,1.0,2950.836923335285,0.3904513148027206,1.314675886650911,0.9696222275143698,0.287062997581934,0.6842445355882113
0.0445,1.7615561902488204,1.0,2956.631322923068,0.39387040598353884,1.3143603360507627,0.9701052894409203,0.28703835999045046,0.6848774844325622
0.045,1.7609695809277839,1.0,2962.3112138367105,0.39727031523925227,1.3140458341326051,0.9705739459656068,0.28701372239896694,0.6855076979080239
0.0455,1.7603829716067472,1.0,2967.8812734157573,0.40065115029422876,1.3137323371096203,0.9710287751653618,0.28698908480748336,0.6861352699353812
0.046,1.7597963622857105,1.0,2973.3462047797725,0.40401301887283625,1.313419801194991,0.9714703260698428,0.28696444721599984,0.6867602940653457
0.0465,1.7592097529646737,1.0,2978.710735873373,0.40735602869944265,1.3131081826018998,0.9718991203996261,0.28693980962451626,0.6873828634812991
0.047,1.758623143643637,1.0,2983.9796185551722,0.4106802874984159,1.3127974375435294,0.9723156541843793,0.28691517203303274,0.6880030710019192
0.0475,1.7580365343226005,1.0,2989.1570604579556,0.4139859000871587,1.3124875271602923,0.9727203992469492,0.2868905344415492,0.6886209992641761
0.048,1.7574499250015638,1.0,2994.242075354918,0.4172729477307921,1.3121784578434668,0.9731138048531958,0.2868658968500657,0.6892366404925856
0.0485,1.7568633156805271,1.0,2999.2454058675776,0.42054157414469095,1.3118701342994272,0.9734962995458868,0.2868412592585821,0.6898501891966111
0.049,1.7562767063594904,1.0,3004.169325703354,0.4237918781270193,1.3115625349630726,0.9738682910545117,0.2868166216670986,0.6904616926255872
0.0495,1.7556900970384537,1.0,3009.016120290667,0.4270239584759412,1.3112556382693021,0.9742301680225053,0.28679198407561507,0.691071197849392
0.05,1.7551034877174172,1.0,3013.7880864382028,0.4302379139896208,1.3109494226530143,0.9745823010732819,0.2867673464841315,0.6916787517594295
0.0505,1.7545168783963805,1.0,3018.487532004186,0.43343384346622205,1.3106438665491082,0.9749250438074616,0.28674270889264797,0.6922844010695786
0.051000000000000004,1.7539302690753438,1.0,3023.1167755753704,0.4366118457039091,1.310338948392483,0.9752587337363038,0.28671807130116445,0.6928881923171166
0.051500000000000004,1.753343659754307,1.0,3027.6781461574496,0.43977201950084593,1.3100346466180377,0.9755836931559638,0.2866934337096809,0.6934901718636113
0.052000000000000005,1.7527570504332703,1.0,3032.173982874811,0.44291446365519666,1.3097309396606713,0.9759002299668132,0.28666879611819734,0.6940903858957831
0.0525,1.7521704411122336,1.0,3036.606634681323,0.44603927696512524,1.3094278059552826,0.9762086384417263,0.2866441585267138,0.6946888804263391
0.053,1.7515838317911971,1.0,3040.9784600806443,0.44914655822879596,1.3091252239367706,0.9765091999469276,0.28661952093523024,0.6952857012947751
0.0535,1.7509972224701604,1.0,3045.2918268577364,0.45223640624437267,1.3088231720400345,0.9768021836187206,0.2865948833437467,0.6958808941681481
0.054,1.7504106131491237,1.0,3049.5491118198956,0.45530891981001953,1.308521628699973,0.9770878469991414,0.2865702457522632,0.6964745045418239
0.0545,1.749824003828087,1.0,3053.752700548581,0.45836419772390063,1.3082205723514855,0.9773664366333707,0.2865456081607797,0.6970665777401872
0.055,1.7492373945070503,1.0,3057.9049871614784,0.4614023387841799,1.3079199814294704,0.9776381886315011,0.2865209705692961,0.6976571589173297
0.0555,1.7486507851860138,1.0,3062.0083740847112,0.46442344178902156,1.3076198343688272,0.9779033291970693,0.2864963329778126,0.6982462930577018
0.056,1.748064175864977,1.0,3066.0612470290794,0.4674275648020402,1.3073201441221527,0.9781620733843541,0.28647169538632905,0.6988339573237861
0.0565,1.7474775665439404,1.0,3070.069218613874,0.4704148492736052,1.3070208616802121,0.9784146314445651,0.28644705779484547,0.6994202502970027
0.057,1.7468909572229037,1.0,3074.034281881019,0.47338539479157427,1.3067219691740486,0.9786612029820202,0.28642242020336195,0.7000052092665625
0.0575,1.746304347901867,1.0,3077.9574971676197,0.4763392907304743,1.3064234567733408,0.9789019790672961,0.2863977826118784,0.7005888556730757
0.058,1.7457177385808302,1.0,3081.839928717233,0.47927662646483216,1.3061253146477667,0.9791371431102415,0.28637314502039485,0.701171210879483
0.0585,1.7451311292597937,1.0,3085.6826445982333,0.48219749136917467,1.3058275329670048,0.9793668712280282,0.2863485074289113,0.701752296171287
0.059000000000000004,1.744544519938757,1.0,3089.486716623627,0.48510197481802875,1.3055301019007333,0.9795913325927079,0.2863238698374278,0.7023321327567843
0.059500000000000004,1.7439579106177203,1.0,3093.2532202740836,0.48799016618592117,1.3052330116186304,0.9798106897595634,0.2862992322459442,0.7029107417672866
0.06,1.7433713012966836,1.0,3096.9832346224835,0.49086215484737883,1.3049362522903745,0.9800250989774616,0.2862745946544607,0.7034881442573377
0.0605,1.742784691975647,1.0,3100.6778422605794,0.4937180301769286,1.304639814085644,0.9802347104823237,0.2862499570629772,0.7040643612049245
0.061,1.7421980826546104,1.0,3104.3381292280005,0.49655788154909736,1.3043436871741168,0.9804396687747573,0.28622531947149366,0.7046394135116817
0.0615,1.7416114733335737,1.0,3107.965184943198,0.4993817983384119,1.3040478617254716,0.9806401128828164,0.2862006818800101,0.7052133220030883
0.062,1.741024864012537,1.0,3111.560102137084,0.5021898699193992,1.3037523279093868,0.9808361766107961,0.28617604428852655,0.7057861074286619
0.0625,1.7404382546915003,1.0,3115.123976787912,0.5049821856665859,1.3034570758955402,0.9810279887749019,0.286151406697043,0.7063577904621441
0.063,1.7398516453704636,1.0,3118.6579080591364,0.5077588349544991,1.3031620958536105,0.9812156734265814,0.28612676910555945,0.7069283917016782
0.0635,1.739265036049427,1.0,3122.1629982387803,0.5105199071576656,1.302867377953276,0.9813993500642492,0.28610213151407593,0.7074979316699855
0.064,1.7386784267283903,1.0,3125.6403526814424,0.5132654916506122,1.3025729123642147,0.9815791338340905,0.2860774939225924,0.7080664308145321
0.0645,1.7380918174073536,1.0,3129.091079752094,0.5159956778078657,1.3022786892561051,0.9817551357205848,0.28605285633110883,0.7086339095076882
0.065,1.737505208086317,1.0,3132.516290772437,0.5187105550039531,1.3019846987986257,0.9819274627273434,0.2860282187396253,0.7092003880468857
0.0655,1.7369185987652802,1.0,3135.915072898312,0.5214101708599957,1.3016909483513797,0.9820962160537641,0.2860035811481418,0.7097658535805011
0.066,1.7363319894442437,1.0,3139.2900816642714,0.5240946600360152,1.3013974150169614,0.9822614977346312,0.2859789435566582,0.7103303514703239
0.0665,1.735745380123207,1.0,3142.641965167232,0.5267641065039169,1.3011040929552466,0.9824234036417658,0.2859543059651747,0.7108938941505044
0.067,1.7351587708021703,1.0,3145.971217329459,0.529418590626448,1.3008109776464623,0.9825820261453628,0.28592966837369116,0.7114564914776136
0.0675,1.7345721614811336,1.0,3149.278333491973,0.5320581927663555,1.3005180645708354,0.982737454435675,0.28590503078220764,0.7120181532735944
0.068,1.7339855521600969,1.0,3152.5638103939204,0.5346829932863862,1.3002253492085933,0.9828897746547824,0.28588039319072406,0.7125788893258234
0.0685,1.7333989428390602,1.0,3155.828146152882,0.5372930725492874,1.2999328270399628,0.9830390700220182,0.28585575559924054,0.7131387093871675
0.069,1.7328123335180237,1.0,3159.071840244585,0.539888510917806,1.2996404935451713,0.9831854209533983,0.28583111800775696,0.7136976231760401
0.0695,1.732225724196987,1.0,3162.2953934845805,0.5424693887546891,1.2993483442044458,0.9833289051753796,0.28580648041627343,0.7142556403764562
0.07,1.7316391148759502,1.0,3165.4993080089243,0.5450357864226836,1.2990563744980133,0.9834695978332564,0.2857818428247899,0.7148127706380869
