Time [s],Phi [rad],STIM [ ],Fsee [N],Gamma [ ],Lcerel [ ],q [ ],Lmtc [m],fisomrel [ ]
0.0,1.8,1.0,17.967643241815423,1.113550930529355e-05,1.3793396918755512,0.005000033020040982,0.288653,0.541139662524751
0.0005,1.79999375,1.0,18.277312797956256,0.005620282356699106,1.3793023246238396,0.012943666241741557,0.2886527375,0.5412300591037991
0.001,1.799975,1.0,21.619751769079247,0.011197966325195947,1.3789381621690013,0.03561449237847477,0.28865195,0.5421105524616698
0.0015,1.79994375,1.0,31.072307634522943,0.016744363897531204,1.378045942043093,0.07060980271073011,0.2886506375,0.5442642401299437
0.002,1.7999,1.0,53.58878551032199,0.022259650564788708,1.3763677166514325,0.11472742691242319,0.2886488,0.5483014727761065
0.0025,1.79984375,1.0,97.12952729885995,0.02774400083396923,1.373934656983397,0.16458510815477675,0.28864643749999996,0.5541226795494554
0.003,1.7997750000000001,1.0,160.9720071327744,0.033197588235700175,1.3712138257113613,0.21729099290681425,0.28864354999999997,0.5605876772982624
0.0035,1.79969375,1.0,237.69899801562585,0.038620585323833036,1.3685842516723055,0.2706233708336892,0.2886401375,0.5667909739131587
0.004,1.7996,1.0,321.4834729152198,0.04401316368622404,1.3661556500409466,0.3229259517133211,0.2886362,0.5724809947164917
0.0045000000000000005,1.7994937500000001,1.0,409.2850894822928,0.04937549394991919,1.3639224071656746,0.3730441431146695,0.2886317375,0.5776801070240465
0.005,1.799375,1.0,499.4312190156409,0.05470774577224424,1.3618579659111052,0.42025647626623563,0.28862675,0.582457948044252
0.0055,1.79924375,1.0,590.8083188571103,0.060010087888244516,1.3599384852844654,0.464182045987372,0.2886212375,0.5868759145762905
0.006,1.7991000000000001,1.0,682.5360519763307,0.06528268805391209,1.3581460885817775,0.5046876345332586,0.2886152,0.5909801633723647
0.006500000000000001,1.79894375,1.0,773.8990296659282,0.07052571310247772,1.356466950242648,0.5418077775161924,0.2886086375,0.5948064840073517
0.007,1.798775,1.0,864.3034901933707,0.0757393289234896,1.3548901094254964,0.5756831760219182,0.28860155,0.5983833234437476
0.0075,1.79859375,1.0,953.2602149045928,0.080923700480969,1.3534065177225256,0.6065157372182284,0.2885939375,0.6017341620894074
0.008,1.7984,1.0,1040.3763084601949,0.08607899181500447,1.3520083834834804,0.6345373389508582,0.2885858,0.6048791388946014
0.0085,1.79819375,1.0,1125.3370076667384,0.09120536605192958,1.3506889190169176,0.6599891914365861,0.2885771375,0.6078357209143681
0.009000000000000001,1.797975,1.0,1207.8943313424384,0.0963029851087522,1.3494421149735705,0.6831087290858614,0.28856795,0.6106192866160649
0.0095,1.79774375,1.0,1287.8862713550582,0.10137201079669113,1.3482622023310358,0.7041216050450935,0.2885582375,0.6132443827408696
0.01,1.7975,1.0,1365.18720244417,0.10641260374343557,1.347144126257391,0.7232378146269599,0.288548,0.6157237104751037
0.0105,1.79724375,1.0,1439.6857857664882,0.11142492257592396,1.3460836173923028,0.7406498891970342,0.2885372375,0.6180680158566907
0.011,1.796975,1.0,1511.3342700748806,0.11640912592109479,1.3450764063754368,0.7565321540622137,0.28852595000000003,0.6202878627647144
0.0115,1.79669375,1.0,1580.12088301038,0.1213653716857191,1.344118484605192,0.7710414405373468,0.2885141375,0.6223930757430686
0.012,1.7964,1.0,1646.068785453457,0.1262938175738349,1.343206027137225,0.7843181228748569,0.28850180000000003,0.6243929302827882
0.0125,1.79609375,1.0,1709.1847394725794,0.13119461870288412,1.3423359111423414,0.7964876544869495,0.2884889375,0.6262950380814507
0.013000000000000001,1.7957750000000001,1.0,1769.5015893134425,0.13606792978649823,1.341505128804311,0.8076617020902399,0.28847555,0.6281066549756091
0.0135,1.79544375,1.0,1827.077642188448,0.1409139051234799,1.3407107493516768,0.8179395384497395,0.2884616375,0.6298347744777388
0.014,1.7951000000000001,1.0,1881.9873409106367,0.14573269890045512,1.339949983760346,0.8274094085239586,0.2884472,0.6314859966241727
0.0145,1.79474375,1.0,1934.2958201865515,0.1505244635083488,1.3392204213518129,0.8361498478554645,0.2884322375,0.6330660259499317
0.015,1.794375,1.0,1984.0643276926307,0.15528934971424108,1.3385199231289078,0.8442307556209144,0.28841675,0.6345799159591785
0.0155,1.79399375,1.0,2031.372593019435,0.1600275082852121,1.3378463500944602,0.8517143121475287,0.2884007375,0.636032664948506
0.016,1.7936,1.0,2076.3038732818036,0.16473908897906062,1.3371977024759234,0.8586559333560447,0.2883842,0.6374289204239754
0.0165,1.7931937500000001,1.0,2118.9582625437683,0.16942424256008304,1.336571959964593,0.8651050238254638,0.2883671375,0.6387733283341592
0.017,1.792775,1.0,2159.4111004383954,0.17408311660453293,1.3359674943157236,0.8711058054003924,0.28834955,0.6400696516684128
0.0175,1.7923437500000001,1.0,2197.7356695575572,0.17871585756527789,1.3353828097416907,0.876697851951751,0.2883314375,0.6413213358729877
0.018000000000000002,1.7919,1.0,2234.014898809755,0.1833226118951855,1.3348164104548699,0.8819165989869184,0.2883128,0.6425317962057274
0.0185,1.79144375,1.0,2268.33716215107,0.1879035256313724,1.3342668343975186,0.8867938354111857,0.2882936375,0.6437043476462433
0.019,1.790975,1.0,2300.7874118134005,0.19245874401459848,1.3337327322198906,0.8913581450846344,0.28827395,0.6448420390467053
0.0195,1.79049375,1.0,2331.4558813591475,0.1969884128071895,1.3332127710352755,0.8956352506548861,0.2882537375,0.6459478610299525
0.02,1.79,1.0,2360.4066556118228,0.20149267377575683,1.3327059351464259,0.8996484052978293,0.288233,0.6470241094334894
0.0205,1.78949375,1.0,2387.708806615935,0.2059716686869119,1.3322112088560953,0.9034185972793763,0.2882117375,0.6480730634897061
0.021,1.788975,1.0,2413.4359823718337,0.21042553930726615,1.3317275764670367,0.9069648013701018,0.28818995000000003,0.6490969866431963
0.021500000000000002,1.78844375,1.0,2437.66282064968,0.21485442684671652,1.331254053039486,0.9103042058148622,0.2881676375,0.6500980623243411
0.022,1.7879,1.0,2460.459145215945,0.21925847148635363,1.3307897357408354,0.9134524158513084,0.2881448,0.651078286761825
0.0225,1.78734375,1.0,2481.905036452452,0.22363781512293684,1.330333655234132,0.9164235941944575,0.28812143749999997,0.652039783863704
0.023,1.786775,1.0,2502.0541007152437,0.22799259448396225,1.3298851229959028,0.9192306770144795,0.28809755,0.6529840740624302
0.0235,1.78619375,1.0,2520.962313916771,0.2323229462969259,1.329443450502674,0.9218854496665475,0.28807313749999996,0.653912668752845
0.024,1.7856,1.0,2538.6878253757377,0.23662900728932384,1.329007949230972,0.9243986649599145,0.2880482,0.6548270706085144
0.0245,1.78499375,1.0,2555.2907721771976,0.24091091418865224,1.3285779306573235,0.9267801478489794,0.2880227375,0.6557287738678288
0.025,1.784375,1.0,2570.8247347748065,0.24516880185773945,1.3281527846442216,0.9290389008406675,0.28799675,0.6566191005428672
0.025500000000000002,1.78374375,1.0,2585.3497437626847,0.24940280721780983,1.3277318553218238,0.9311831657977213,0.2879702375,0.6574994611202651
0.026000000000000002,1.7831000000000001,1.0,2598.9207147172424,0.25361306541695006,1.3273145481302087,0.9332205138461447,0.2879432,0.6583711306834099
0.0265,1.78244375,1.0,2611.5779852367273,0.2577997077770802,1.326900415721137,0.9351579222655056,0.2879156375,0.6592350707951141
0.027,1.781775,1.0,2623.3628954865744,0.2619628656201204,1.3264890107463694,0.937001808920759,0.28788755,0.6600922380799015
0.0275,1.7810937500000001,1.0,2634.3177029377175,0.2661026702679906,1.3260798858576668,0.9387580845655323,0.2878589375,0.6609435843081983
0.028,1.7804,1.0,2644.4855015426638,0.270219253042611,1.3256725937067897,0.9404321996201069,0.2878298,0.6617900564677688
0.0285,1.77969375,1.0,2653.910145348392,0.2743127452659016,1.325266686945499,0.942029186067677,0.2878001375,0.6626325968223813
0.029,1.778975,1.0,2662.628632615678,0.27838327356656567,1.3248617876527227,0.9435537029959432,0.28776995,0.6634719991169558
0.029500000000000002,1.7782437500000001,1.0,2670.690136630742,0.28243097329324385,1.3244574113127032,0.9450100503006308,0.2877392375,0.6643092737380718
0.03,1.7775,1.0,2678.1238027886898,0.28645597034200737,1.3240532625648636,0.9464022334039102,0.287708,0.6651450351437105
0.0305,1.77674375,1.0,2684.958679317459,0.29045839032753884,1.323649050752531,0.9477339672464992,0.2876762375,0.6659798850350309
0.031,1.775975,1.0,2691.224190655062,0.2944383588645211,1.323244485219032,0.9490087005290216,0.28764395,0.6668144221156985
0.0315,1.7751937500000001,1.0,2696.950102413436,0.29839600156763674,1.3228392753076934,0.9502296381135787,0.2876111375,0.6676492420880209
0.032,1.7744,1.0,2702.166488215209,0.3023314440515685,1.3224331303618426,0.9513997612790376,0.2875778,0.6684849376436959
0.0325,1.77359375,1.0,2706.903698404159,0.30624481193099895,1.3220257597248057,0.9525218460587891,0.2875439375,0.6693220984491763
0.033,1.772775,1.0,2711.174672282912,0.31013622163153487,1.321617033788866,0.9535984960888076,0.28750955,0.6701609807935314
0.0335,1.7719437500000002,1.0,2715.0267711567985,0.3140058089651953,1.3212065107760944,0.9546321098148821,0.2874746375,0.6710024790658379
0.034,1.7711000000000001,1.0,2718.4844111760426,0.31785369648423717,1.3207939601159508,0.9556249471393,0.2874392,0.6718470508709367
0.0345,1.7702437500000001,1.0,2721.565318667355,0.32168000299481453,1.3203792135478696,0.9565791260529677,0.2874032375,0.672695024000155
0.035,1.7693750000000001,1.0,2724.2873435901524,0.3254848473030812,1.319962102811284,0.9574966277221013,0.28736675,0.6735467243768538
0.035500000000000004,1.76849375,1.0,2726.668446982728,0.32926834821519124,1.319542459645628,0.9583793069117422,0.2873297375,0.6744024760319586
0.036000000000000004,1.7676,1.0,2728.7266890357973,0.3330306245372986,1.3191201157903358,0.9592289015006095,0.2872922,0.675262601077687
0.0365,1.76669375,1.0,2730.4802177944616,0.33677179507555716,1.3186949029848412,0.9600470411758883,0.2872541375,0.6761274196794729
0.037,1.765775,1.0,2731.947258487041,0.34049197863612096,1.3182666529685778,0.9608352553870549,0.28721555,0.6769972500260806
0.0375,1.76484375,1.0,2733.1461034822905,0.3441912940251439,1.3178351974809797,0.9615949806294399,0.2871764375,0.6778724082979166
0.038,1.7639,1.0,2734.0951028738973,0.34786986004878,1.3174003682614805,0.9623275671208139,0.28713679999999997,0.6787532086335348
0.0385,1.76294375,1.0,2734.799886429582,0.3515277869984309,1.316962113004638,0.9630342941558994,0.28709663750000003,0.679639728697816
0.039,1.761975,1.0,2735.2867459767162,0.35516520008362096,1.3165201921222125,0.9637163514868474,0.28705595,0.680532423402161
0.0395,1.7609937500000001,1.0,2735.5719533335537,0.3587822155479968,1.3160744573450347,0.9643748664716315,0.2870147375,0.681431560631511
0.04,1.76,1.0,2735.665416509271,0.3623789450259365,1.3156248184281134,0.965010906161665,0.286973,0.6823372895160091
0.0405,1.7589937500000001,1.0,2735.577065068803,0.365955500151818,1.3151711851264574,0.9656254770908685,0.2869307375,0.6832497578634705
0.041,1.757975,1.0,2735.316846739279,0.3695119925600194,1.314713467195075,0.966219529340202,0.28688795,0.6841691121366531
0.0415,1.75694375,1.0,2734.8947241971873,0.3730485338849187,1.3142515743889756,0.9667939602883389,0.2868446375,0.685095497430007
0.042,1.7559,1.0,2734.3206720366707,0.376565235760894,1.3137854164631675,0.9673496180757241,0.28680079999999997,0.6860290574459074
0.0425,1.75484375,1.0,2733.6046739177996,0.3800622098223233,1.3133149031726594,0.9678873048066391,0.2867564375,0.6869699344703669
0.043000000000000003,1.753775,1.0,2732.7567198951774,0.3835395677035846,1.31283994427246,0.9684077795115633,0.28671155,0.6879182693482273
0.043500000000000004,1.75269375,1.0,2731.7868039282057,0.386997421039056,1.3123604495175785,0.9689117608900187,0.28666613750000003,0.6888742014578326
0.044,1.7516,1.0,2730.6975410525315,0.39043587416261094,1.3118763957343853,0.969399934040958,0.2866202,0.6898377352797485
0.0445,1.75049375,1.0,2729.5032001276136,0.39385504337955335,1.3113876538742073,0.969872941960092,0.2865737375,0.6908090848683573
0.045,1.7493750000000001,1.0,2728.2142459375373,0.3972550390283089,1.3108941294218728,0.97033139630221,0.28652675,0.691788393785127
0.0455,1.74824375,1.0,2726.836004944217,0.40063596600440643,1.3103957745495551,0.9707758803081736,0.2864792375,0.6927757115490489
0.046,1.7471,1.0,2725.373802887145,0.40399792920337496,1.3098925414294282,0.9712069478023178,0.2864312,0.6937710866275832
0.0465,1.7459437500000001,1.0,2723.832963944484,0.40734103352074336,1.3093843822336657,0.9716251249543466,0.28638263750000004,0.6947745664218528
0.047,1.744775,1.0,2722.218809945217,0.41066538385204054,1.3088712491344414,0.9720309119195006,0.28633355,0.6957861972516894
0.0475,1.74359375,1.0,2720.5366596322037,0.41397108509279545,1.3083530943039288,0.9724247843664726,0.28628393750000003,0.6968060243405371
0.048,1.7424,1.0,2718.791827975337,0.41725824213853696,1.307829869914302,0.9728071949017421,0.2862338,0.6978340918002037
0.0485,1.74119375,1.0,2716.9896255363587,0.4205269598847941,1.3073015281377345,0.9731785743982471,0.2861831375,0.6988704426154757
0.049,1.739975,1.0,2715.1353578831922,0.4237773432270957,1.3067680211464001,0.9735393332356455,0.28613195,0.6999151186285772
0.0495,1.73874375,1.0,2713.2310650524587,0.4270094854708779,1.3062293308333712,0.9738898631023505,0.2860802375,0.7009681024787808
0.05,1.7375,1.0,2711.2838573252807,0.43022349949537936,1.3056853928383951,0.9742305366184218,0.286028,0.7020294662156762
0.0505,1.73624375,1.0,2709.299555079125,0.43341949455754003,1.3051361544878253,0.9745617095052055,0.2859752375,0.7030992577308101
0.051000000000000004,1.734975,1.0,2707.2807457051185,0.43659756835306046,1.304581592545813,0.9748837218047899,0.28592195,0.7041774664612765
0.051500000000000004,1.73369375,1.0,2705.230013520263,0.4397578185776411,1.3040216837765104,0.9751968981426856,0.2858681375,0.7052640809747943
0.052000000000000005,1.7324,1.0,2703.1499396077215,0.44290034292698244,1.3034564049440693,0.9755015485593053,0.2858138,0.7063590889618017
0.0525,1.73109375,1.0,2701.0431016694065,0.44602523909678493,1.3028857328126418,0.9757979692895814,0.28575893750000003,0.707462477227516
0.053,1.729775,1.0,2698.912073889913,0.4491326047827492,1.3023096441463795,0.9760864434943796,0.28570355000000003,0.7085742316839585
0.0535,1.72844375,1.0,2696.7594268128487,0.4522225376805756,1.3017281157094343,0.9763672419470786,0.2856476375,0.709694337341946
0.054,1.7271,1.0,2694.587727229235,0.4552951354859646,1.301141124265958,0.9766406236784191,0.2855912,0.7108227783030447
0.0545,1.7257437500000001,1.0,2692.3995380774504,0.45835049589461685,1.3005486465801026,0.9769068365824958,0.2855342375,0.7119595377514942
0.055,1.724375,1.0,2690.1974183552425,0.4613887166022327,1.29995065941602,0.9771661179865385,0.28547675,0.7131045979460932
0.0555,1.72299375,1.0,2687.9839230444,0.46440989530451265,1.299347139537862,0.9774186951869275,0.2854187375,0.714257940212053
0.056,1.7216,1.0,2685.7616030461177,0.46741412969715723,1.2987380637097803,0.9776647859537146,0.2853602,0.7154195449328165
0.0565,1.72019375,1.0,2683.533871440916,0.4704015150459454,1.2981234007543299,0.9779045983227088,0.28530113749999997,0.7165894066411774
0.057,1.718775,1.0,2681.2974053441026,0.47337214403969574,1.297503181217831,0.9781383350724033,0.28524155,0.7177674016749693
0.0575,1.71734375,1.0,2679.0558321547305,0.47632611005866704,1.2968773719304696,0.9783661871443559,0.2851814375,0.7189535268994185
0.058,1.7159,1.0,2676.813404832377,0.4792635064078817,1.2962459339254029,0.9785883374118237,0.2851208,0.7201477890072252
0.0585,1.71444375,1.0,2674.5726161581724,0.48218442614076984,1.2956088443333709,0.9788049622744527,0.2850596375,0.7213501631118906
0.059000000000000004,1.7129750000000001,1.0,2672.3334266554743,0.48508896217404585,1.2949661035089415,0.9790162323722758,0.28499795,0.7225605796580116
0.059500000000000004,1.71149375,1.0,2670.096743200442,0.4879772061941684,1.2943177031101296,0.9792223110220126,0.2849357375,0.723778984808602
0.06,1.71,1.0,2667.8614458349307,0.49084924920537865,1.2936636534157444,0.9794233560913846,0.284873,0.7250052891024157
0.0605,1.7084937500000001,1.0,2665.6264164745744,0.4937051822119176,1.2930039647045939,0.9796195193106931,0.2848097375,0.7262394026383581
0.061,1.7069750000000001,1.0,2663.391048061476,0.4965450956233122,1.2923386425703955,0.9798109462605363,0.28474595,0.7274812438140896
0.0615,1.7054437590516536,1.0,2661.1777374330445,0.49936907980365336,1.2916674849398024,0.9799977659707031,0.2846816378801694,0.7287311168013078
0.062,1.7039067347525447,1.0,2659.279523903369,0.5021772235297453,1.290990822178495,0.9801801303046795,0.28461708285960685,0.7299883335710573
0.0625,1.7023697104534359,1.0,2657.9432303817825,0.5049696155617818,1.2903089894448998,0.9803581857212819,0.2845525278390443,0.7312522023197738
0.063,1.700832686154327,1.0,2657.1321299968304,0.5077463443585574,1.2896223211878035,0.9805320732219346,0.2844879728184817,0.7325220378500918
0.0635,1.6992956618552182,1.0,2656.7995385973077,0.5105074982893807,1.2889312452992032,0.9807019334310771,0.28442341779791913,0.7337969881691699
0.064,1.6977586375561093,1.0,2656.9075787743204,0.5132531643900473,1.2882361099132775,0.9808678977680053,0.28435886277735656,0.7350763550448374
0.0645,1.6962216132570003,1.0,2657.421869522133,0.5159834292320394,1.287537231996747,0.981030091351465,0.284294307756794,0.7363595032386763
0.065,1.6946845889578914,1.0,2658.309970113121,0.5186983788390678,1.2868349114312614,0.9811886339718403,0.2842297527362314,0.737645834133356
0.0655,1.6931475646587826,1.0,2659.5457179115783,0.5213980975476651,1.2861293908568885,0.9813436382555,0.28416519771566884,0.7389348586985521
0.066,1.6916105403596737,1.0,2661.0831011566856,0.5240826762098173,1.285421096073475,0.981495222351759,0.28410064269510626,0.7402257586614034
0.0665,1.6900735160605649,1.0,2662.9027969799563,0.526752197969978,1.2847102073046173,0.9816434878494084,0.2840360876745437,0.7415181691854651
0.067,1.688536491761456,1.0,2664.98550264383,0.5294067459726006,1.2839969047739108,0.9817885328427991,0.2839715326539811,0.742811728567724
0.0675,1.6869994674623472,1.0,2667.311925536691,0.5320464033621386,1.2832813687049518,0.9819304520813704,0.28390697763341854,0.7441060782673762
0.068,1.6854624431632383,1.0,2669.8627738880227,0.5346712532830453,1.2825637793213358,0.9820693371118203,0.283842422612856,0.7454008629325365
0.0685,1.6839254188641295,1.0,2672.618748203315,0.5372813788797743,1.2818443168466593,0.9822052764133284,0.28377786759229345,0.7466957304248721
0.069,1.6823883945650207,1.0,2675.56053342003,0.539876863296779,1.2811231615045178,0.9823383555262104,0.2837133125717309,0.747990331842171
0.0695,1.6808513702659118,1.0,2678.669658714988,0.5424577891699552,1.280400485564004,0.9824686567700995,0.2836487575511683,0.7492843357636184
0.07,1.679314345966803,1.0,2681.9360571053408,0.5450242353607927,1.2796763839845369,0.9825962559480803,0.28358420253060573,0.7505775517899678
0.07050000000000001,1.677777321667694,1.0,2685.3362810191156,0.5475762897199195,1.2789510742442747,0.9827212326017252,0.28351964751004316,0.7518695732715726
0.07100000000000001,1.6762402973685853,1.0,2688.861551409154,0.5501140310617112,1.278224639036044,0.9828436569944407,0.2834550924894806,0.753160236713211
0.07150000000000001,1.6747032730694764,1.0,2692.503074397167,0.5526375382005435,1.277497161052671,0.982963597132047,0.283390537468918,0.7544493801266197
0.07200000000000001,1.6731662487703673,1.0,2696.252039285856,0.5551468899507922,1.2767687229869824,0.9830811188524153,0.28332598244835544,0.7557368430362086
0.0725,1.6716292244712587,1.0,2700.099616723127,0.5576421651268326,1.276039407531804,0.9831962859109972,0.28326142742779287,0.7570224664843451
0.073,1.6700922001721497,1.0,2704.0369570173966,0.5601234425430408,1.2753092973799625,0.9833091600624643,0.2831968724072303,0.7583060930361971
0.0735,1.6685551758730408,1.0,2708.0551886050316,0.5625908010137922,1.2745784752242837,0.9834198011386539,0.2831323173866677,0.7595875667841436
0.074,1.667018151573932,1.0,2712.145416668877,0.5650443193534626,1.2738470237575945,0.983528267123015,0.28306776236610515,0.7608667333517458
