Time [s],Phi [rad],STIM [ ],Fsee [N],Gamma [ ],Lcerel [ ],q [ ],Lmtc [m],fisomrel [ ]
0.0,1.8,1.0,17.966723125629766,1.0208983856244619e-05,1.3793397949592636,0.005000027772840759,0.288653,0.5411394131385965
0.0005,1.79999375,1.0,18.276165657861927,0.005619361028325097,1.3793024520487918,0.012941095585615493,0.2886527375,0.5412297508602488
0.001,1.799975,1.0,21.61796427554859,0.011197050164745431,1.378938344733144,0.035609670173714025,0.28865195,0.5421101112592632
0.0015,1.79994375,1.0,31.069060428904507,0.01674345287601633,1.3780462186874147,0.07060320371458666,0.2886506375,0.5442635731382253
0.002,1.7999,1.0,53.58259673141671,0.022258744653384704,1.3763681181351417,0.11471961189385049,0.2886488,0.5483005090925128
0.0025,1.79984375,1.0,97.1196225126765,0.027743100004011513,1.373935134257552,0.16457660462976684,0.28864643749999996,0.55412154135136
0.003,1.7997750000000001,1.0,160.95937873214473,0.03319669245868629,1.3712142983933646,0.21728221809794007,0.28864354999999997,0.5605865582535781
0.0035,1.79969375,1.0,237.68487972206552,0.038619694571420254,1.3685846865452203,0.2706146413790574,0.2886401375,0.5667899516720719
0.004,1.7996,1.0,321.4685546732434,0.044012277930228196,1.366156045162516,0.3229174977426318,0.2886362,0.5724800720374538
0.0045000000000000005,1.7994937500000001,1.0,409.26971732404894,0.049374613162312966,1.363922768004567,0.3730361170015088,0.2886317375,0.5776792695404789
0.005,1.799375,1.0,499.41559784468615,0.0547068699251585,1.3618582978563993,0.42024896638926657,0.28862675,0.5824571819912927
0.0055,1.79924375,1.0,590.7926013230349,0.060009216953972024,1.3599387923643553,0.46417509248107863,0.2886212375,0.5868752096661017
0.006,1.7991000000000001,1.0,682.5203571308584,0.06528182200489369,1.3581463738701824,0.5046812438419935,0.2886152,0.5909795117462995
0.006500000000000001,1.79894375,1.0,773.8833324751414,0.07052485191103038,1.356467218202276,0.541801935322928,0.2886086375,0.5948058748314127
0.007,1.798775,1.0,864.2881987236872,0.07573847256341465,1.3548903564302968,0.575677849779858,0.28860155,0.5983827643902325
0.0075,1.79859375,1.0,953.2448775378525,0.08092284892152918,1.3534067536259218,0.6065108958376166,0.2885939375,0.6017336303940913
0.008,1.7984,1.0,1040.3620848123633,0.08607814503847791,1.352008592896957,0.6345329330333649,0.2885858,0.604878668771379
0.0085,1.79819375,1.0,1125.3226449519811,0.091204524016546,1.3506891223387423,0.6599851929241101,0.2885771375,0.6078352661775595
0.009000000000000001,1.797975,1.0,1207.882160211929,0.09630214797735906,1.3494422812784224,0.6831050824262713,0.28856795,0.6106189159914922
0.0095,1.79774375,1.0,1287.8750868129302,0.10137117849766097,1.3482623503331004,0.7041182846362949,0.2885582375,0.6132440540193396
0.01,1.7975,1.0,1365.1626515170135,0.10641177564283315,1.3471444418022611,0.7232348813636932,0.288548,0.6157230118807289
0.0105,1.79724375,1.0,1439.6530650622142,0.11142409882131918,1.346084026915616,0.7406472694444375,0.2885372375,0.6180671119702525
0.011,1.796975,1.0,1511.3127408063776,0.11640830722274431,1.345076669364649,0.7565297035095251,0.28852595000000003,0.620287283992987
0.0115,1.79669375,1.0,1580.11234599861,0.12136455809295277,1.344118586593101,0.771039133318725,0.2885141375,0.6223928519169851
0.012,1.7964,1.0,1646.0517726983285,0.12629300807137275,1.3432062262683566,0.784316053508383,0.28850180000000003,0.6243924944216632
0.0125,1.79609375,1.0,1709.158892792623,0.13119381312451425,1.342336208034879,0.7964857995735092,0.2884889375,0.6262943898861607
0.013000000000000001,1.7957750000000001,1.0,1769.486301603613,0.1360671292451429,1.3415053013901939,0.8076599534345169,0.28847555,0.628106279089263
0.0135,1.79544375,1.0,1827.0706240556244,0.1409131097606932,1.3407108273222772,0.8179378961809647,0.2884616375,0.6298346050553871
0.014,1.7951000000000001,1.0,1881.9719352739583,0.14573190776516665,1.3399501523999482,0.8274079286221663,0.2884472,0.6314856310052679
0.0145,1.79474375,1.0,1934.2636538154907,0.15052367560768523,1.339220768671823,0.8361485448832598,0.2884322375,0.6330652745589846
0.015,1.794375,1.0,1984.034953617718,0.15528856628763502,1.3385202362954154,0.8442295427689671,0.28841675,0.6345792398548984
0.0155,1.79399375,1.0,2031.3574745334647,0.16002673022584535,1.3378465093892948,0.851713142510253,0.2884007375,0.6360323217266235
0.016,1.7936,1.0,2076.2998536120713,0.1647383163719918,1.3371977443680594,0.8586548136882546,0.2883842,0.6374288303351177
0.0165,1.7931937500000001,1.0,2118.9449165965134,0.16942347367575006,1.3365720976463076,0.8651040116482547,0.2883671375,0.6387730327996315
0.017,1.792775,1.0,2159.3830249013236,0.1740823505373292,1.3359677812280437,0.8711049061297684,0.28834955,0.6400690369155146
0.0175,1.7923437500000001,1.0,2197.706246305839,0.17871509513900283,1.3353831077935052,0.8766970182578507,0.2883314375,0.641320698363425
0.018000000000000002,1.7919,1.0,2234.0032033262587,0.18332185491137237,1.3348165279616955,0.881915774966057,0.2883128,0.6425315452923317
0.0185,1.79144375,1.0,2268.342254387552,0.18790277424466456,1.3342667836234583,0.8867930228511837,0.2882936375,0.6437044558865692
0.019,1.790975,1.0,2300.799083196407,0.19245799752910614,1.3337326166696375,0.8913573679599287,0.28827395,0.6448422849835358
0.0195,1.79049375,1.0,2331.4560892088525,0.19698766915492386,1.3332127689910767,0.8956345476074428,0.2882537375,0.6459478653740414
0.02,1.79,1.0,2360.391256238321,0.20149193209471322,1.3327060856676438,0.8996477792963133,0.288233,0.6470237900501099
0.0205,1.78949375,1.0,2387.6940742534143,0.2059709309794782,1.3322113520319434,0.9034180078446399,0.2882117375,0.6480727601438399
0.021,1.788975,1.0,2413.435821220951,0.21042480739008856,1.3317275780248026,0.906964217339203,0.28818995000000003,0.6490969833475719
0.021500000000000002,1.78844375,1.0,2437.6773355296095,0.21485370084198704,1.3312539134305033,0.9103036265271122,0.2881676375,0.6500983572607675
0.022,1.7879,1.0,2460.4829299938674,0.21925775085061622,1.3307895080333274,0.9134518511876156,0.2881448,0.6510787671398892
0.0225,1.78734375,1.0,2481.9201028848593,0.22363709693141887,1.3303335116175568,0.9164230755238075,0.28812143749999997,0.6520400864235125
0.023,1.786775,1.0,2502.055553012451,0.2279918779430854,1.329885109208119,0.9192302096863866,0.28809755,0.6529841030699854
0.0235,1.78619375,1.0,2520.9510750877294,0.2323222316629709,1.3294435568008347,0.921885028699152,0.28807313749999996,0.6539124454158648
0.024,1.7856,1.0,2538.6824634230106,0.2366282979736956,1.3290079997675626,0.924398257094214,0.2880482,0.6548269645693481
0.0245,1.78499375,1.0,2555.2966619247386,0.24091021118797828,1.3285778753269446,0.9267797436529287,0.2880227375,0.655728889813874
0.025,1.784375,1.0,2570.8422393673422,0.2451681056185376,1.3281526206976235,0.9290384995814888,0.28799675,0.656619443652046
0.025500000000000002,1.78374375,1.0,2585.3692546792668,0.2494021155780924,1.3277316730982418,0.9311827811754104,0.2879702375,0.6574998419905204
0.026000000000000002,1.7831000000000001,1.0,2598.9291292514117,0.2536123753793613,1.3273144697474415,0.9332201633184216,0.2879432,0.6583712943046913
0.0265,1.78244375,1.0,2611.571803520326,0.25779901863137644,1.3269004731652083,0.9351576086396001,0.2879156375,0.6592349510343205
0.027,1.781775,1.0,2623.3412062235807,0.2619621772992201,1.326489211842579,0.9370015313161756,0.28788755,0.6600918193571796
0.0275,1.7810937500000001,1.0,2634.2966989620663,0.2661019869229571,1.3260800801947474,0.9387578199967708,0.2878589375,0.660943180166413
0.028,1.7804,1.0,2644.473393650006,0.27021857637999597,1.325672705518127,0.9404319367667663,0.2878298,0.661789824236299
0.0285,1.77969375,1.0,2653.9070901159107,0.2743120745477451,1.3252667151091309,0.9420289242049238,0.2878001375,0.662632538399603
0.029,1.778975,1.0,2662.6342164755893,0.2783826103036129,1.3248617362641726,0.9435534430635917,0.28776995,0.6634721055849082
0.029500000000000002,1.7782437500000001,1.0,2670.6917725850626,0.28243031252500783,1.3244573962796657,0.9450098061121633,0.2877392375,0.6643093048450892
0.03,1.7775,1.0,2678.1172765733686,0.2864553100893383,1.3240533224520232,0.9464020085762417,0.287708,0.6651449113769294
0.0305,1.77674375,1.0,2684.942896282699,0.2904577294523277,1.323649195399629,0.9477337617016557,0.2876762375,0.6659795864705764
0.031,1.775975,1.0,2691.206466532362,0.29443770020075477,1.3232446474664903,0.949008505667833,0.28764395,0.6668140876411492
0.0315,1.7751937500000001,1.0,2696.938202923706,0.2983953483574967,1.3228393841204318,0.9502294455191529,0.2876111375,0.6676490180508301
0.032,1.7744,1.0,2702.162995803726,0.3023307974326715,1.322433162266705,0.9513995682203356,0.2875778,0.6684848720366479
0.0325,1.77359375,1.0,2706.9059897534326,0.3062441709363974,1.3220257388105614,0.9525216550382567,0.2875439375,0.6693221414015054
0.033,1.772775,1.0,2711.1925589827456,0.3101355923787924,1.3216168706572526,0.9535982982038942,0.28750955,0.6701613153974364
0.0335,1.7719437500000002,1.0,2715.0482840361765,0.3140051852699748,1.3212063147120299,0.9546319160342039,0.2874746375,0.6710028807050906
0.034,1.7711000000000001,1.0,2718.4987493701733,0.31785307289547177,1.3207938295235706,0.9556247667972976,0.2874392,0.6718473180472013
0.0345,1.7702437500000001,1.0,2721.56475037154,0.3216793701039446,1.3203792187209886,0.9565789638645126,0.2874032375,0.6726950134302581
0.035,1.7693750000000001,1.0,2724.2798585214246,0.3254842118205265,1.3199621709128366,0.9574964768037502,0.28736675,0.673546585410538
0.035500000000000004,1.76849375,1.0,2726.660093919524,0.32926771525933746,1.3195425356112875,0.9583791622148893,0.2873297375,0.6744023212216488
0.036000000000000004,1.7676,1.0,2728.7215698390996,0.33302999763449753,1.3191201623285143,0.9592287596933429,0.2872922,0.6752625063629552
0.0365,1.76669375,1.0,2730.480482776188,0.3367711761601267,1.31869490057669,0.9600469005334101,0.2872541375,0.6761274245740234
0.037,1.765775,1.0,2731.9531030004655,0.34049136805034513,1.3182665998679872,0.9608351156900667,0.28721555,0.6769973578076228
0.0375,1.76484375,1.0,2733.155765608743,0.3441906905192728,1.3178351097145795,0.9615948430699409,0.2871764375,0.6778725862012793
0.038,1.7639,1.0,2734.1048620799857,0.3478692607810298,1.3174002796286393,0.9623274342147833,0.28713679999999997,0.6787533880473904
0.0385,1.76294375,1.0,2734.8168323333516,0.3515271960497361,1.3169619591223396,0.9630341604341773,0.28709663750000003,0.6796400397618888
0.039,1.761975,1.0,2735.3081572867723,0.3551646135395118,1.3165199977078537,0.9637162184383735,0.28705595,0.6805328158514679
0.0395,1.7609937500000001,1.0,2735.5853257554686,0.35878161741724574,1.316074335929894,0.9643747413264607,0.2870147375,0.6814318053777948
0.04,1.76,1.0,2735.6687026702593,0.3623783337415148,1.3156247885918393,0.9650107900443176,0.286973,0.6823373495738417
0.0405,1.7589937500000001,1.0,2735.576973002228,0.36595488600759085,1.3151711859623776,0.9656253662154043,0.2869307375,0.6832497561832538
0.041,1.757975,1.0,2735.318440028689,0.36951138345720713,1.3147134527280855,0.9662194209241104,0.28688795,0.6841691411733646
0.0415,1.75694375,1.0,2734.9014212348234,0.37304793533209685,1.314251513575539,0.9667938525069036,0.2868446375,0.6850956193095753
0.042,1.7559,1.0,2734.3342458480574,0.3765646508739933,1.3137852931913139,0.9673495100187622,0.28680079999999997,0.6860293041353355
0.0425,1.75484375,1.0,2733.625252497417,0.3800616393246297,1.313314716261986,0.9678871964375358,0.2867564375,0.6869703079517576
0.043000000000000003,1.753775,1.0,2732.782786998603,0.38353900992573936,1.3128397074741318,0.9684076716285224,0.28671155,0.6879187417968738
0.043500000000000004,1.75269375,1.0,2731.8152002657826,0.3869968719190555,1.3123601915143273,0.9689116550894431,0.28666613750000003,0.6888747154245306
0.044,1.7516,1.0,2730.730846347821,0.3904353345463113,1.311876093069148,0.9693998284941254,0.2866202,0.6898383372829214
0.0445,1.75049375,1.0,2729.5380805914306,0.3938545070492401,1.3113873368251705,0.9698728380515135,0.2865737375,0.6908097144927545
0.045,1.7493750000000001,1.0,2728.24525792941,0.397254498669575,1.3108938474689704,0.9703312966951017,0.28652675,0.6917889528250656
0.0455,1.74824375,1.0,2726.8607312945574,0.4006354186490495,1.3103955496871238,0.9707757861165255,0.2864792375,0.6927761566786617
0.046,1.7471,1.0,2725.3928501600562,0.4039973762293967,1.3098923681662067,0.9712068586558097,0.2864312,0.6937714290572073
0.0465,1.7459437500000001,1.0,2723.8445384706597,0.40734046634064075,1.3093842769163209,0.9716250407542703,0.28638263750000004,0.6947747742250169
0.047,1.744775,1.0,2722.225366062848,0.41066480784622894,1.3088711894622016,0.9720308316409961,0.28633355,0.6957863147965713
0.0475,1.74359375,1.0,2720.5425975682388,0.4139705119556395,1.3083530402415235,0.9724247065542917,0.28628393750000003,0.6968061306562798
0.048,1.7424,1.0,2718.800003010149,0.41725767968853084,1.3078297954601907,0.9728071186222012,0.2862338,0.6978342379685496
0.0485,1.74119375,1.0,2717.0013497505456,0.4205264120645612,1.3073014213241072,0.9731784992291727,0.2861831375,0.698870651952116
0.049,1.739975,1.0,2715.150402090187,0.4237768101033889,1.306767884039177,0.9735392592562435,0.28613195,0.6999153868690244
0.0495,1.73874375,1.0,2713.2509208953015,0.42700897482467226,1.3062291498113041,0.973889790239532,0.2860802375,0.7009684560135392
0.05,1.7375,1.0,2711.3066632489563,0.43022300724806956,1.3056851848463922,0.9742304654531089,0.286028,0.7020298717009792
0.0505,1.73624375,1.0,2709.3213821277236,0.43341900839323916,1.3051359553503457,0.9745616409218246,0.2859752375,0.7030996452564792
0.051000000000000004,1.734975,1.0,2707.298826104087,0.43659707927983926,1.3045814275290681,0.9748836563692055,0.28592195,0.7041777870036832
0.051500000000000004,1.73369375,1.0,2705.2427390737444,0.4397573209275283,1.3040215675884639,0.9751968361051258,0.2858681375,0.7052643062533581
0.052000000000000005,1.7324,1.0,2703.1568600082996,0.4428998343559645,1.3034563417344367,0.9755014898575747,0.2858138,0.7063592112919412
0.0525,1.73109375,1.0,2701.044922733697,0.4460247205848061,1.3028857161728906,0.975797913552501,0.28575893750000003,0.70746250937001
0.053,1.729775,1.0,2698.910655733323,0.4491320806337115,1.3023096571097297,0.9760863900453964,0.28570355000000003,0.7085742066906814
0.0535,1.72844375,1.0,2696.75239393216,0.4522220135748474,1.3017281800225882,0.976367192655261,0.2856476375,0.709694213585002
0.054,1.7271,1.0,2694.579032311557,0.45529461520472725,1.301141203809887,0.9766405766127866,0.2855912,0.7108226255354977
0.0545,1.7257437500000001,1.0,2692.3930197428654,0.45834998199857685,1.3005487062361583,0.9769067898079788,0.2855342375,0.7119594234048834
0.055,1.724375,1.0,2690.194037280403,0.4613882102812299,1.299950690372404,0.9771660710668444,0.28547675,0.7131045387280555
0.0555,1.72299375,1.0,2687.9817666321733,0.46440939637752,1.299347159289627,0.9774186491252863,0.2854187375,0.7142579025039242
0.056,1.7216,1.0,2685.760981261108,0.46741363588204643,1.298738069407406,0.9776647403353947,0.2853602,0.7154195340776017
0.0565,1.72019375,1.0,2683.5324608437713,0.470401024578635,1.2981234136854722,0.9779045541978968,0.28530113749999997,0.7165893820552321
0.057,1.718775,1.0,2681.297935428357,0.47337165629494893,1.297503176356449,0.9781382909059437,0.28524155,0.7177674108986721
0.0575,1.71734375,1.0,2679.0593120177555,0.4763256248012323,1.2968773400034406,0.9783661423781265,0.2851814375,0.7189535873484744
0.058,1.7159,1.0,2676.816385178138,0.4792630237284896,1.2962459065698904,0.9785882938370286,0.2851208,0.7201478406906372
0.0585,1.71444375,1.0,2674.5750040825087,0.4821839463113192,1.2956088224062987,0.9788049199294854,0.2850596375,0.7213502044501319
0.059000000000000004,1.7129810893555382,1.0,2672.624576045317,0.4850884852621727,1.294966179018862,0.9790161963150189,0.2849982057529326,0.7225604376116475
0.059500000000000004,1.7115184276653272,1.0,2671.237836227621,0.48797673186445367,1.294318362135406,0.9792223077173596,0.2849367739619437,0.7237777477995282
0.06,1.7100557659751163,1.0,2670.372423578969,0.4908487774015657,1.293665757483756,0.9794234316840382,0.2848753421709549,0.7250013484741448
0.0605,1.7085931042849054,1.0,2669.9873969441733,0.4937047128674517,1.2930087389992524,0.9796197382747234,0.284813910379966,0.726230481090778
0.061,1.7071304425946945,1.0,2670.0412297865055,0.4965446291669336,1.292347687365909,0.9798113914218376,0.2847524785889772,0.7274643803947856
0.0615,1.7056677809044836,1.0,2670.498758864835,0.4993686160282993,1.2916829258367115,0.9799985457460781,0.2846910467979883,0.7287023940540034
0.062,1.7042051192142726,1.0,2671.3293502717743,0.5021767623140645,1.2910147368302243,0.9801813478772762,0.28462961500699946,0.7299439507258779
0.0625,1.7027424575240617,1.0,2672.5024335916823,0.5049691568867447,1.2903434027650111,0.9803599390055637,0.2845681832160106,0.7311884836442428
0.063,1.7012797958338508,1.0,2673.996189611928,0.5077458856173865,1.2896691260872344,0.9805344507869711,0.28450675142502174,0.7324355784179143
0.0635,1.6998171341436399,1.0,2675.771790418581,0.5105070408202803,1.2889922657176225,0.9807050185449128,0.28444531963403286,0.7336845355720507
0.064,1.698354472453429,1.0,2677.80370380828,0.5132527106979662,1.288313058534365,0.9808717662439157,0.284383887843044,0.7349348860923465
0.0645,1.696891810763218,1.0,2680.0751214604734,0.5159829804508174,1.287631661391335,0.9810348091691049,0.28432245605205514,0.7361863117514682
0.065,1.6954291490730071,1.0,2682.569239542164,0.518697935279207,1.2869482311424059,0.9811942585015765,0.2842610242610663,0.73743849695231
0.0655,1.6939664873827962,1.0,2685.269251364104,0.5213976603835082,1.2862629246414503,0.9813502214982706,0.2841995924700774,0.7386911287491178
0.066,1.6925038256925853,1.0,2688.158340583586,0.524082240964094,1.2855758987423418,0.9815028016627549,0.2841381606790886,0.73994389686704
0.0665,1.6910411640023744,1.0,2691.2196749515206,0.5267517622213376,1.2848873102989529,0.9816520989074431,0.2840767288880997,0.7411964937201152
0.067,1.6895785023121634,1.0,2694.4364006064307,0.5294063093556121,1.284197316165157,0.98179820970773,0.2840152970971109,0.7424486144276844
0.0675,1.6881158406219525,1.0,2697.794894115718,0.5320459653392631,1.2835060434146053,0.981941225669232,0.283953865306122,0.7437000106740943
0.068,1.6866531789317416,1.0,2701.2825906938947,0.5346708142081988,1.2828136092381055,0.9820812348929091,0.28389243351513316,0.7449504541763909
0.0685,1.685190517241531,1.0,2704.8825218721263,0.5372809436072823,1.2821201708212013,0.9822183246454584,0.2838310017241443,0.7461996467341077
0.069,1.6837278555513198,1.0,2708.5872151939807,0.5398764341527901,1.2814257983514659,0.9823525747465252,0.28376956993315544,0.7474474490505105
0.0695,1.682265193861109,1.0,2712.389183258774,0.5424573664609991,1.2807305620164722,0.9824840623665261,0.28370813814216655,0.748693723054578
0.07,1.6808025321708981,1.0,2716.2809223225763,0.5450238211481857,1.2800345320037931,0.982612862134447,0.2836467063511777,0.7499383319050272
0.07050000000000001,1.6793398704806872,1.0,2720.254911008508,0.547575878830627,1.2793377785010014,0.9827390462405726,0.2835852745601889,0.7511811399940226
0.07100000000000001,1.6778772087904763,1.0,2724.303609126028,0.5501136201245994,1.2786403716956702,0.9828626845344149,0.2835238427692,0.75242201295057
0.07150000000000001,1.6764145471002654,1.0,2728.4194566002666,0.5526371256463799,1.2779423817753723,0.9829838446180957,0.2834624109782111,0.7536608176436007
0.07200000000000001,1.6749518854100545,1.0,2732.5948725094663,0.5551464760122449,1.2772438789276808,0.9831025919354259,0.2834009791872223,0.7548974221847369
0.0725,1.6734892237198435,1.0,2736.8233330598027,0.5576417499824668,1.276544923547162,0.9832189893075882,0.28333954739623346,0.7561317132024692
0.073,1.6720265620296326,1.0,2741.103378273126,0.5601230195322143,1.2758455299246922,0.9833330951257646,0.2832781156052446,0.7573636595043549
0.0735,1.6705639003394217,1.0,2745.4216315672106,0.56259037889238,1.275145820321143,0.9834449720227281,0.2832166838142557,0.7585930406881547
