Time [s],Phi [rad],STIM [ ],Fsee [N],Gamma [ ],Lcerel [ ],q [ ],Lmtc [m],fisomrel [ ]
0.0,1.8,1.0,17.968870287676896,3.9413944285898224e-05,1.3793395544095812,0.005000409567151778,0.288653,0.541139995090371
0.0005,1.79999375,1.0,18.287990014624487,0.005648402172032177,1.3793011387845127,0.013022373851049207,0.2886527375,0.5412329276682777
0.001,1.799975,1.0,21.651472759428177,0.011225928410597911,1.3789349236268789,0.03576201099204932,0.28865195,0.542118379004756
0.0015,1.79994375,1.0,31.1488438628618,0.01677216913775503,1.3780394257517612,0.07081163461167242,0.2886506375,0.5442799508204039
0.002,1.7999,1.0,53.7547823433461,0.02228729983957602,1.3763569566012928,0.11496640048685122,0.2886488,0.5483272998016985
0.0025,1.79984375,1.0,97.40934034489972,0.027771495018204292,1.3739211838920091,0.16484505923276782,0.28864643749999996,0.554154809428566
0.003,1.7997750000000001,1.0,161.33656022729807,0.033224928199297205,1.3712001884454263,0.2175591563781554,0.28864354999999997,0.5606199620474489
0.0035,1.79969375,1.0,238.1111548350571,0.03864777193183386,1.3685715620687509,0.2708900815435376,0.2886401375,0.5668208024049776
0.004,1.7996,1.0,321.92210756443586,0.04404019779884004,1.3661440365462885,0.32318419594951,0.2886362,0.5725081138443565
0.0045000000000000005,1.7994937500000001,1.0,409.7393905331086,0.04940237642258926,1.3639117461718298,0.37328928164482317,0.2886317375,0.5777048501217148
0.005,1.799375,1.0,499.8948230735482,0.05473447745580473,1.3618481168231986,0.42048581965744036,0.28862675,0.582480677141278
0.0055,1.79924375,1.0,591.2761038970185,0.06003666962769856,1.3599293478459875,0.4643943806105164,0.2886212375,0.5868968895381446
0.006,1.7991000000000001,1.0,683.004489272004,0.0653091206906567,1.358137575211003,0.5048827666136066,0.2886152,0.5909996084884668
0.006500000000000001,1.79894375,1.0,774.3645433846765,0.07055199744195036,1.356459004903918,0.5419861947237036,0.2886086375,0.5948245466291727
0.007,1.798775,1.0,864.7684449668202,0.07576546590355851,1.3548826000026484,0.575845718782071,0.28860155,0.5984003195642866
0.0075,1.79859375,1.0,953.7104063015812,0.0809496907883771,1.3533995941926706,0.6066636352338695,0.2885939375,0.6017497666596165
0.008,1.7984,1.0,1040.8191860162867,0.08610483636447981,1.3520018637534659,0.6346717034392046,0.2885858,0.6048937752362451
0.0085,1.79819375,1.0,1125.77193966099,0.09123106564824751,1.3506827626360896,0.660111228617544,0.2885771375,0.6078494897637758
0.009000000000000001,1.797975,1.0,1208.318045665918,0.09632854055058171,1.349436325914639,0.6832196265981729,0.28856795,0.610632187918617
0.0095,1.79774375,1.0,1288.3000956291405,0.10139742308703278,1.3482567267564338,0.7042224456453364,0.2885582375,0.6132565442247915
0.01,1.7975,1.0,1365.578416779893,0.10643787327317326,1.347139098492921,0.7233296913077142,0.288548,0.6157348415099556
0.0105,1.79724375,1.0,1440.055905567208,0.11145005016564245,1.3460789853989286,0.7407337026559024,0.2885372375,0.6180782393662252
0.011,1.796975,1.0,1511.689964988442,0.11643411244498822,1.3450720616812084,0.7566086896328282,0.28852595000000003,0.6202974242572714
0.0115,1.79669375,1.0,1580.4789949373128,0.12139021861870516,1.3441142066483138,0.7711113530432964,0.2885141375,0.6224024642308724
0.012,1.7964,1.0,1646.4176121344615,0.1263185251193275,1.3432019444127001,0.784382148480041,0.28850180000000003,0.6244018665540239
0.0125,1.79609375,1.0,1709.51575540656,0.13121918732091048,1.3423321090667357,0.7965464308873641,0.2884889375,0.626303338972961
0.013000000000000001,1.7957750000000001,1.0,1769.8174460289542,0.13609236040363296,1.3415015632041936,0.807715744539528,0.28847555,0.6281144206922583
0.0135,1.79544375,1.0,1827.3868820165628,0.14093819899565216,1.3407073138835446,0.8179892813072583,0.2884616375,0.6298422393694509
0.014,1.7951000000000001,1.0,1882.2886666127074,0.14575685694775775,1.3399466854021043,0.8274552794346707,0.2884472,0.6314931475896772
0.0145,1.79474375,1.0,1934.5764748700597,0.15054848573660756,1.3392173910738128,0.836192269504732,0.2884322375,0.6330725816105739
0.015,1.794375,1.0,1984.3249911945954,0.1553132368388594,1.3385171442126103,0.8442700541095838,0.28841675,0.6345859154149835
0.0155,1.79399375,1.0,2031.6162132885013,0.16005126081816137,1.3378437832888392,0.8517507698990239,0.2884007375,0.6360381954498847
0.016,1.7936,1.0,2076.547990898455,0.1647627091794434,1.3371951584104886,0.8586897569924132,0.2883842,0.6374343914047369
0.0165,1.7931937500000001,1.0,2119.1991942299987,0.16944773084956571,1.3365694744990175,0.8651364640508985,0.2883671375,0.6387786633783648
0.017,1.792775,1.0,2159.63934774643,0.17410647288322087,1.3359651618573498,0.8711351027855258,0.28834955,0.6400746492926173
0.0175,1.7923437500000001,1.0,2197.948804238889,0.1787390823351016,1.3353806507884087,0.8767252015427669,0.2883314375,0.6413259536885951
0.018000000000000002,1.7919,1.0,2234.217831900331,0.18334570625990063,1.3348143715951182,0.8819421560738769,0.2883128,0.6425361497875196
0.0185,1.79144375,1.0,2268.528143646903,0.18792648997224878,1.3342649301836507,0.8868177564876024,0.2882936375,0.6437084070450227
0.019,1.790975,1.0,2300.977571617021,0.1924815807898369,1.3337308496163174,0.8913805405488358,0.28827395,0.6448460459641931
0.0195,1.79049375,1.0,2331.6349567367806,0.19701112162126871,1.3332110098651346,0.8956562693557536,0.2882537375,0.6459516036500548
0.02,1.79,1.0,2360.56973725803,0.2015152547631976,1.3327043411345663,0.8996681691678111,0.288233,0.6470274916779788
0.0205,1.78949375,1.0,2387.856489654484,0.205994122512277,1.3322097736290768,0.9034372045235431,0.2882117375,0.6480761042899157
0.021,1.788975,1.0,2413.574495008717,0.2104478671651604,1.3317262375531305,0.9069823292726882,0.28818995000000003,0.649099819256518
0.021500000000000002,1.78844375,1.0,2437.790992340526,0.21487662867898596,1.331252820255551,0.9103207389513455,0.2881676375,0.6501006666860449
0.022,1.7879,1.0,2460.5928998818035,0.21928055053081208,1.330788455232713,0.9134679994011967,0.2881448,0.6510809881529191
0.0225,1.78734375,1.0,2482.037647852513,0.22365977068486662,1.330332391167821,0.9164383103590773,0.28812143749999997,0.6520424468920588
0.023,1.786775,1.0,2502.1812513594423,0.22801442642959252,1.329883915871367,0.9192445964428722,0.28809755,0.6529866136778474
0.0235,1.78619375,1.0,2521.0821436412375,0.2323446550534328,1.329442317153842,0.9218986326729598,0.28807313749999996,0.6539150499627147
0.024,1.7856,1.0,2538.800972723635,0.2366505938448304,1.3290068828257382,0.9244111626058036,0.2880482,0.6548293082056473
0.0245,1.78499375,1.0,2555.3959023035313,0.24093237920636013,1.3285769430371914,0.9267920099656017,0.2880227375,0.6557308434449435
0.025,1.784375,1.0,2570.922039122544,0.2451901468036071,1.328151873306641,0.9290501709974179,0.28799675,0.6566210077976473
0.025500000000000002,1.78374375,1.0,2585.4477676441848,0.24942403435721242,1.3277309398278165,0.9311938711857035,0.2879702375,0.6575013746159952
0.026000000000000002,1.7831000000000001,1.0,2599.014435185896,0.2536341738139094,1.3273136751158248,0.9332306986682678,0.2879432,0.6583729530681516
0.0265,1.78244375,1.0,2611.6645104880067,0.25782069712043143,1.3268996116857732,0.9351676242845801,0.2879156375,0.6592367470653403
0.027,1.781775,1.0,2623.441489599427,0.2619837362235118,1.3264882820527688,0.937011060071405,0.28788755,0.6600937553642592
0.0275,1.7810937500000001,1.0,2634.3898066079196,0.2661234230698838,1.326079218731919,0.9387669115035102,0.2878589375,0.6609449716555527
0.028,1.7804,1.0,2644.5547492163896,0.2702398896062808,1.3256719542383308,0.9404406242157658,0.2878298,0.6617913846383501
0.0285,1.77969375,1.0,2653.9748724803926,0.274333263985918,1.325266090284038,0.9420372343084561,0.2878001375,0.662633834538699
0.029,1.778975,1.0,2662.6999211032994,0.2784036809127466,1.3248611315851484,0.9435613855525908,0.28776995,0.6634733583712273
0.029500000000000002,1.7782437500000001,1.0,2670.7617470514615,0.2824512676280949,1.3244567532777833,0.9450173958509036,0.2877392375,0.6643106353712999
0.03,1.7775,1.0,2678.1909056727586,0.28647615053400255,1.3240526468062164,0.9464092670022511,0.287708,0.6651463077100943
0.0305,1.77674375,1.0,2685.018380174518,0.2904784560325092,1.3236485036147223,0.9477407101109662,0.2876762375,0.665981014374844
0.031,1.775975,1.0,2691.2755422000114,0.29445831052565463,1.3232440151475746,0.9490151703614126,0.28764395,0.6668153911711561
0.0315,1.7751937500000001,1.0,2696.994114515466,0.2984158404154784,1.3228388728490477,0.9502358493901458,0.2876111375,0.6676500707192489
0.032,1.7744,1.0,2702.2057143660954,0.3023511717093531,1.3224327720134632,0.9514057258646742,0.2875778,0.6684856745271495
0.0325,1.77359375,1.0,2706.933694038748,0.30626442178456825,1.3220254859409557,0.9525275802065372,0.2875439375,0.6693226607286076
0.033,1.772775,1.0,2711.219840950072,0.3101557290476773,1.3216166218392569,0.9536039905094097,0.28750955,0.6701618257547973
0.0335,1.7719437500000002,1.0,2715.08362531804,0.3140252133135076,1.321205992620367,0.9546373803678718,0.2874746375,0.6710035405126427
0.034,1.7711000000000001,1.0,2718.5446792400658,0.3178729943968863,1.3207934111962873,0.9556300128263345,0.2874392,0.6718481738936535
0.0345,1.7702437500000001,1.0,2721.6227809870434,0.32169919211264075,1.3203786904790185,0.9565840029087642,0.2874032375,0.6726960927517516
0.035,1.7693750000000001,1.0,2724.3378400724096,0.3255039262755982,1.319961643380561,0.9575013290306923,0.28736675,0.6735476618788607
0.035500000000000004,1.76849375,1.0,2726.709883098169,0.32928731670058586,1.3195420828129159,0.958383843404901,0.2873297375,0.6744032439782641
0.036000000000000004,1.7676,1.0,2728.759040376147,0.3330494832024311,1.319119821688084,0.9592332815399862,0.2872922,0.6752631996357319
0.0365,1.76669375,1.0,2730.505533326075,0.336790545595961,1.3186946729180657,0.9600512709202482,0.2872541375,0.6761278872884156
0.037,1.765775,1.0,2731.9696626489326,0.34051062369600305,1.3182664494148622,0.9608393389458886,0.28721555,0.6769976631915082
0.0375,1.76484375,1.0,2733.1657637327194,0.3442098295876397,1.3178350188962922,0.9615989239156604,0.2871764375,0.6778727702907958
0.038,1.7639,1.0,2734.110331081812,0.3478882832221334,1.3174002299593845,0.9623313775782135,0.28713679999999997,0.6787534885896996
0.0385,1.76294375,1.0,2734.826088267981,0.35154611327229746,1.3169618750712848,0.9630379678716652,0.28709663750000003,0.67964020966612
0.039,1.761975,1.0,2735.323860666068,0.3551834317369955,1.3165198551218997,0.9637198950605993,0.28705595,0.6805331036786084
0.0395,1.7609937500000001,1.0,2735.6145045951225,0.3588003506150912,1.3160740710011354,0.9643782897904537,0.2870147375,0.6814323394157182
0.04,1.76,1.0,2735.7089030756947,0.3623969819054481,1.3156244235988985,0.965014217866461,0.286973,0.6823380842725226
0.0405,1.7589937500000001,1.0,2735.6179618056303,0.36597343760692974,1.3151708138050957,0.9656286846557119,0.2869307375,0.6832505042265105
0.041,1.757975,1.0,2735.352605353328,0.36952982971839987,1.314713142509633,0.9662226391457232,0.28688795,0.6841697638128554
0.0415,1.75694375,1.0,2734.9237735689103,0.37306627023872196,1.314251310602417,0.966796977689622,0.2868446375,0.6850960260990537
0.042,1.7559,1.0,2734.3424182131234,0.37658287116675965,1.313785218973354,0.967352547465149,0.28680079999999997,0.6860294526589421
0.0425,1.75484375,1.0,2733.6194998042756,0.3800797445013766,1.313314768512351,0.9678901496720624,0.2867564375,0.6869702035460841
0.043000000000000003,1.753775,1.0,2732.765984682116,0.3835570022414363,1.3128398601093139,0.9684105424902021,0.28671155,0.6879184372665337
0.043500000000000004,1.75269375,1.0,2731.7928422911423,0.3870147563858025,1.3123603946541493,0.9689144438183689,0.28666613750000003,0.6888743107509696
0.044,1.7516,1.0,2730.7070345744155,0.3904531098854875,1.3118763094608574,0.9694025353177662,0.2866202,0.6898379068784295
0.0445,1.75049375,1.0,2729.516013054704,0.39387217707935224,1.3113875374097468,0.9698754645582816,0.2865737375,0.6908093161539973
0.045,1.7493750000000001,1.0,2728.2294314726446,0.3972720746047559,1.3108939913587672,0.9703338445267413,0.28652675,0.6917886675287462
0.0455,1.74824375,1.0,2726.852661206438,0.4006529066205172,1.3103956230767198,0.970778258109114,0.2864792375,0.6927760113992822
0.046,1.7471,1.0,2725.391072965357,0.4040147772854549,1.309892384332405,0.971209258799563,0.2864312,0.6937713971070694
0.0465,1.7459437500000001,1.0,2723.850035935004,0.40735779075838774,1.3093842268946236,0.9716273724604059,0.28638263750000004,0.6947748729235206
0.047,1.744775,1.0,2722.2349169749264,0.4106820511981344,1.3088711025321764,0.9720330989605058,0.28633355,0.6957864860349419
0.0475,1.74359375,1.0,2720.5510798676537,0.4139876627635137,1.308352963013864,0.972426913701566,0.28628393750000003,0.6968062825273299
0.048,1.7424,1.0,2718.803884618909,0.41727472961334433,1.3078297601084867,0.9728092690409716,0.2862338,0.6978343073710189
0.0485,1.74119375,1.0,2716.998686810091,0.42054335590644504,1.3073014455848455,0.9731805956190996,0.2861831375,0.6988706044051793
0.049,1.739975,1.0,2715.140837001378,0.4237936458016346,1.3067679712117413,0.9735413035983239,0.28613195,0.6999152163221694
0.0495,1.73874375,1.0,2713.235680187559,0.42702570345773166,1.3062292887579743,0.9738917838203569,0.2860802375,0.7009681846517386
0.05,1.7375,1.0,2711.288555304521,0.4302396330335551,1.3056853499923453,0.974232408887996,0.286028,0.7020295497450808
0.0505,1.73624375,1.0,2709.2972078899274,0.4334355196804535,1.3051361759022817,0.9745635365972378,0.2859752375,0.7030992160578182
0.051000000000000004,1.734975,1.0,2707.269003881076,0.4366134805621816,1.304581699711751,0.9748855062441805,0.28592195,0.704177258293051
0.051500000000000004,1.73369375,1.0,2705.212146044336,0.43977362896954686,1.304021846912282,0.9751986407527167,0.2858681375,0.7052637646685109
0.052000000000000005,1.7324,1.0,2703.128737359367,0.44291606074821593,1.3034565986019075,0.9755032501709673,0.2858138,0.706358714173982
0.0525,1.73109375,1.0,2701.0208780525504,0.44604087174385554,1.302885935878661,0.9757996307483575,0.28575893750000003,0.7074620849710065
0.053,1.729775,1.0,2698.8906654966845,0.4491481578021324,1.3023098398405748,0.976088065666338,0.28570355000000003,0.7085738543863712
0.0535,1.72844375,1.0,2696.7401941179487,0.45223801476871317,1.301728291585682,0.9763688257243381,0.2856476375,0.7096939989055664
0.054,1.7271,1.0,2694.5715553112445,0.4553105384892645,1.3011412722120155,0.9766421699840553,0.2855912,0.7108224941662271
0.0545,1.7257437500000001,1.0,2692.3868373632336,0.4583658248094531,1.3005487628176078,0.9769083463749406,0.2855342375,0.7119593149515477
0.055,1.724375,1.0,2690.18812538316,0.46140396957494567,1.2999507445004923,0.9771675922635267,0.28547675,0.7131044351836747
0.0555,1.72299375,1.0,2687.977501242351,0.46442506863140887,1.2993471983587015,0.9774201349890383,0.2854187375,0.7142578279170798
0.056,1.7216,1.0,2685.7570435203343,0.46742921782450936,1.2987381054902685,0.977666192367544,0.2853602,0.7154194653319044
0.0565,1.72019375,1.0,2683.5288274602067,0.4704165129999138,1.298123446993226,0.9779059731667433,0.28530113749999997,0.7165893187272872
0.057,1.718775,1.0,2681.294924931378,0.47338705000328896,1.2975032039656067,0.9781396775533238,0.28524155,0.717767358514664
0.0575,1.71734375,1.0,2679.0574043995166,0.4763409246803015,1.2968773575054438,0.9783674975146798,0.2851814375,0.718953554211049
0.058,1.7159,1.0,2676.8183309057513,0.479278232876618,1.2962458887107702,0.9785896172566603,0.2851208,0.7201478744322894
0.0585,1.71444375,1.0,2674.574908583535,0.4821990525805916,1.2956088232832161,0.9788062145369457,0.2850596375,0.7213502027969143
0.059000000000000004,1.7129750000000001,1.0,2672.329513271427,0.48510348617719606,1.294966139458593,0.9790174594989304,0.28499795,0.7225605120309117
0.059500000000000004,1.71149375,1.0,2670.0877662376697,0.487991642027645,1.2943177856100765,0.9792235144008061,0.2849357375,0.7237788299540213
0.06,1.71,1.0,2667.8501835336547,0.4908636074916151,1.293663756961748,0.9794245359265897,0.284873,0.7250050951757381
0.0605,1.7084937500000001,1.0,2665.6172803448926,0.4937194699287832,1.2930040487376897,0.9796206746736599,0.2848097375,0.7262392456100815
0.061,1.7069750000000001,1.0,2663.389570994438,0.49655931669882597,1.292338656161983,0.9798120754341662,0.28474595,0.7274812184738708
0.0615,1.7054437500000001,1.0,2661.1675689464637,0.49938323516142014,1.29166757445871,0.9799988774613456,0.2846816375,0.7287309502849899
0.062,1.7039,1.0,2658.9517868112753,0.5021913126762424,1.2909907988519524,0.9801812147216576,0.2846168,0.7299883768606586
0.0625,1.70234375,1.0,2656.7427363496095,0.5049836366029695,1.2903083245657923,0.9803592161335977,0.2845514375,0.7312534333156973
0.063,1.7007750000000001,1.0,2654.540928478367,0.5077602943012782,1.289620146824311,0.9805330057939865,0.28448555,0.7325260540607927
0.0635,1.69919375,1.0,2652.3468732766323,0.5105213731308453,1.2889262608515906,0.9807027031924782,0.28441913750000003,0.733806172800761
0.064,1.6976,1.0,2650.1610799915807,0.5132669604513473,1.2882266618717129,0.9808684234149838,0.2843522,0.7350937225328102
0.0645,1.69599375,1.0,2647.984057046122,0.5159971436224612,1.2875213451087597,0.9810302773366614,0.2842847375,0.7363886355448007
0.065,1.694375,1.0,2645.81631204582,0.5187120100038635,1.2868103057868128,0.9811883718050756,0.28421675,0.7376908434135043
0.0655,1.69274375,1.0,2643.658351786961,0.5214116469552311,1.286093539129954,0.9813428098141,0.2841482375,0.739000277002862
0.066,1.6911,1.0,2641.5106822651064,0.5240961418362405,1.2853710403622651,0.9814936906690879,0.2840792,0.7403168664622399
0.0665,1.6894437500000001,1.0,2639.3738086840726,0.5267655820065688,1.2846428047078278,0.9816411101438132,0.2840096375,0.7416405412246857
0.067,1.687775,1.0,2637.245162107185,0.5294200238489929,1.2839088558107932,0.9817851599225867,0.28393955,0.742971178546576
0.0675,1.68609375,1.0,2635.1277345543836,0.5320595830902887,1.28316916590967,0.9819259299838998,0.2838689375,0.7443087483355286
0.068,1.6844000000000001,1.0,2633.022655154599,0.5346843513883075,1.282423724439219,0.9820635063780015,0.2837978,0.7456531883733423
0.0685,1.68269375,1.0,2630.9298723517236,0.5372944077812777,1.2816725317491295,0.9821979718716034,0.2837261375,0.7470044160013891
0.069,1.680975,1.0,2628.849334724712,0.5398898313074275,1.2809155881890917,0.9823294063959712,0.28365395,0.7483623479348745
0.0695,1.67924375,1.0,2626.7809909868197,0.5424707010049853,1.2801528941087945,0.9824578871620401,0.28358123749999997,0.7497269002629674
0.07,1.6775,1.0,2624.7247899847243,0.5450370959121792,1.2793844498579277,0.9825834887700842,0.283508,0.7510979884489257
0.07050000000000001,1.67574375,1.0,2622.6806806976433,0.5475890950672377,1.278610255786181,0.9827062833142396,0.2834342375,0.7524755273302259
0.07100000000000001,1.673975,1.0,2620.648612236619,0.5501267775083889,1.2778303122432435,0.9828263404821516,0.28335995,0.753859431118692
0.07150000000000001,1.67219375,1.0,2618.6285338436123,0.5526502222738612,1.277044619578805,0.9829437276500038,0.2832851375,0.7552496134006226
0.07200000000000001,1.6704,1.0,2616.6203948908533,0.5551595084018828,1.2762531781425552,0.9830585099731751,0.2832098,0.7566459871369186
0.0725,1.66859375,1.0,2614.624144879945,0.557654714930682,1.2754559882841834,0.9831707504727504,0.2831339375,0.7580484646632137
0.073,1.6667750000000001,1.0,2612.6397334409926,0.5601359208984871,1.2746530503533793,0.9832805101181012,0.28305755,0.7594569576900003
0.0735,1.66494375,1.0,2610.6671103319995,0.5626032053435264,1.273844364699832,0.9833878479057382,0.2829806375,0.7608713773027594
0.074,1.6631,1.0,2608.706225437684,0.5650566473040282,1.2730299316732316,0.9834928209346308,0.2829032,0.7622916339620869
0.0745,1.6612437500000001,1.0,2606.757028769138,0.5674963258182206,1.2722097516232675,0.9835954844781659,0.2828252375,0.7637176375038234
0.075,1.659375,1.0,2604.8194704628368,0.5699223199243322,1.2713838248996292,0.9836958920529247,0.28274675,0.7651492971391818
0.0755,1.65749375,1.0,2602.8935007799223,0.572334708660591,1.270552151852006,0.9837940954844304,0.2826677375,0.7665865214548759
