Time [s],Phi [rad],STIM [ ],Fsee [N],Gamma [ ],Lcerel [ ],q [ ],Lmtc [m],fisomrel [ ]
0.0,1.8,1.0,20.573049334362402,0.00165062805750543,1.3790576805451298,0.005696480531610589,0.288653,0.5418216671548034
0.0005,1.79999375,1.0,21.329610388402358,0.007250578648106171,1.3789763627354417,0.0181140325318529,0.2886527375,0.5420182285963487
0.001,1.799975,1.0,25.907579032647256,0.012819117943619594,1.3785200323339377,0.04465949910613047,0.28865195,0.5431204882714118
0.0015,1.79994375,1.0,38.27261324950854,0.0183564221370395,1.3774644635683304,0.0826574412338685,0.2886506375,0.545665110787859
0.002,1.7999,1.0,66.36397426402776,0.02386266643219599,1.3755832346736625,0.1287825259148999,0.2886488,0.5501825058420553
0.0025,1.79984375,1.0,116.32210194027857,0.02933802505021086,1.3730515239900989,0.17974074439419876,0.28864643749999996,0.5562262769408951
0.003,1.7997750000000001,1.0,184.55130459224813,0.034782671235900675,1.3703614171223306,0.23283727043702307,0.28864354999999997,0.5626033823569485
0.0035,1.79969375,1.0,263.5992350296517,0.040196777262385866,1.3678071048307554,0.28602283120855765,0.2886401375,0.56861585980873
0.004,1.7996,1.0,348.6153774619646,0.04558051443422417,1.3654516020361365,0.3377919676188019,0.2886362,0.5741234903355272
0.0045000000000000005,1.7994937500000001,1.0,437.0936008397943,0.05093405308412743,1.3632803755961984,0.3871248601222994,0.2886317375,0.5791689053146845
0.005,1.799375,1.0,527.5910009384032,0.056257562649373,1.3612677885214366,0.4334091647479703,0.28862675,0.5838188296455057
0.0055,1.79924375,1.0,619.0535514791452,0.061551211487240985,1.3593930926974624,0.47634574253399287,0.2886212375,0.5881269289583966
0.006,1.7991000000000001,1.0,710.6737638789331,0.06681516720138676,1.35763979194992,0.5158575089800876,0.2886152,0.5921357755549044
0.006500000000000001,1.79894375,1.0,801.749536469781,0.07204959619247471,1.3559957312768465,0.5520158579105624,0.2886086375,0.5958770386245642
0.007,1.798775,1.0,891.7383440250499,0.07725466430598549,1.3544504151117078,0.5849831295985957,0.28860155,0.5993778801885778
0.0075,1.79859375,1.0,980.1619669641485,0.08243053601099214,1.3529956234346359,0.6149728955512771,0.2885939375,0.6026597252423239
0.008,1.7984,1.0,1066.6539751415899,0.08757737513416368,1.35162391368443,0.6422215108757146,0.2885858,0.6057417835626422
0.0085,1.79819375,1.0,1150.9259169788777,0.09269534472340443,1.3503287139650841,0.6669701510531395,0.2885771375,0.608640918914446
0.009000000000000001,1.797975,1.0,1232.7425673098003,0.0977846063887519,1.3491043209361582,0.6894535680709638,0.28856795,0.6113717254582394
0.0095,1.79774375,1.0,1311.9433005994879,0.10284532107108166,1.3479453356457625,0.709893246245414,0.2885582375,0.613947842482008
0.01,1.7975,1.0,1388.4326853457117,0.10787764981188616,1.346846622248332,0.7284940429187283,0.288548,0.6163820811062592
0.0105,1.79724375,1.0,1462.111534052409,0.11288175096860924,1.3458040290727293,0.7454432422612958,0.2885372375,0.6186848644039126
0.011,1.796975,1.0,1532.9363618557065,0.11785778271996551,1.3448134647838754,0.760910043434623,0.28852595000000003,0.6208663090042701
0.0115,1.79669375,1.0,1600.8984817086439,0.12280590259520133,1.3438710748101366,0.775046406563474,0.2885141375,0.6229358543014077
0.012,1.7964,1.0,1666.0315720616256,0.12772626821598523,1.3429730712079917,0.7879881459821498,0.28850180000000003,0.6249026544201463
0.0125,1.79609375,1.0,1728.3485397644486,0.13261903453430612,1.3421163971321066,0.7998565730515403,0.2884889375,0.6267741416241923
0.013000000000000001,1.7957750000000001,1.0,1787.8795963008788,0.1374843558385539,1.341298192334918,0.8107596562311853,0.28847555,0.6285572190973128
0.0135,1.79544375,1.0,1844.6845816298128,0.14232238631843624,1.3405156075906066,0.8207933366444697,0.2884616375,0.630258676617347
0.014,1.7951000000000001,1.0,1898.8377627803843,0.14713327927861503,1.339765940067565,0.8300428968313693,0.2884472,0.6318849042410837
0.0145,1.79474375,1.0,1950.4136265534682,0.1519171877182482,1.3390467492846458,0.8385842082611633,0.2884322375,0.6334416511464112
0.015,1.794375,1.0,1999.4736402408919,0.15667426195834627,1.3383559578198885,0.84648484527079,0.28841675,0.6349338195401335
0.0155,1.79399375,1.0,2046.0969623917122,0.16140465231991974,1.3376914882513327,0.8538049368073877,0.2884007375,0.6363662588093114
0.016,1.7936,1.0,2090.3675563067527,0.1661085081569197,1.3370513812145115,0.8605980828385834,0.2883842,0.6377435153743305
0.0165,1.7931937500000001,1.0,2132.3842260854767,0.17078597988519317,1.3364336716975704,0.8669120916722182,0.2883671375,0.6390701037885568
0.017,1.792775,1.0,2172.232756789846,0.17543721591976716,1.3358366603176042,0.8727897409117287,0.28834955,0.6403499285290757
0.0175,1.7923437500000001,1.0,2209.9805666569805,0.18006236199656167,1.3352589440246554,0.8782693745139181,0.2883314375,0.641586225929442
0.018000000000000002,1.7919,1.0,2245.704135950453,0.18466156385149674,1.3346991197687674,0.883385341568739,0.2883128,0.64278220416458
0.0185,1.79144375,1.0,2279.4882529486995,0.18923496722049235,1.3341557844999834,0.8881684618178699,0.2882936375,0.643941044914543
0.019,1.790975,1.0,2311.418489899603,0.19378271697123764,1.3336276024705753,0.8926464494064442,0.28827395,0.6450657617019635
0.0195,1.79049375,1.0,2341.5823412905597,0.19830495810780593,1.333113285346106,0.8968442634203623,0.2882537375,0.6461592446617466
0.02,1.79,1.0,2370.0601390717943,0.20280183439406768,1.3326116735784606,0.900784436916344,0.288233,0.6472240899213508
0.0205,1.78949375,1.0,2396.915085241768,0.2072734866503955,1.3321218242379484,0.9044873654765311,0.2882117375,0.648262416660897
0.021,1.788975,1.0,2422.214656553078,0.21172005569716193,1.3316427943948794,0.9079714962511741,0.28818995000000003,0.6492763294832773
0.021500000000000002,1.78844375,1.0,2446.0302504427946,0.21614168235473963,1.3311736411195632,0.9112535408615232,0.2881676375,0.6502679190931466
0.022,1.7879,1.0,2468.432664153417,0.22053850667485847,1.3307134614979712,0.914348670339481,0.2881448,0.6512391785205036
0.0225,1.78734375,1.0,2489.4902774320944,0.2249106682016944,1.330261406085197,0.9172706817520464,0.28812143749999997,0.6521919759267496
0.023,1.786775,1.0,2509.2780022919605,0.22925830756159887,1.32981659031571,0.9200321260645885,0.28809755,0.6531282421955329
0.0235,1.78619375,1.0,2527.847059701027,0.2335815604740695,1.3293783782413893,0.9226444872049088,0.28807313749999996,0.6540493748312255
0.024,1.7856,1.0,2545.250695023927,0.2378805626586037,1.3289461339141144,0.9251182471893356,0.2880482,0.6549567633385125
0.0245,1.78499375,1.0,2561.5440097975097,0.24215544983469897,1.3285192213857646,0.927462987315813,0.2880227375,0.655851789477331
0.025,1.784375,1.0,2576.7838024726784,0.24640635772185285,1.3280970047082197,0.9296874779094717,0.28799675,0.6567358274920105
0.025500000000000002,1.78374375,1.0,2591.021336663942,0.2506334203816119,1.3276789139988074,0.9317997682476319,0.2879702375,0.6576101062517926
0.026000000000000002,1.7831000000000001,1.0,2604.3111031838666,0.2548367731785959,1.3272643617455568,0.9338072439558908,0.2879432,0.6584758849849277
0.0265,1.78244375,1.0,2616.708548644092,0.2590165510484868,1.3268527629899454,0.935716692922473,0.2879156375,0.6593344111155568
0.027,1.781775,1.0,2628.251765276734,0.2631728842471311,1.326443703833896,0.9375343858306917,0.28788755,0.6601865696020648
0.0275,1.7810937500000001,1.0,2638.979699220992,0.267305903030375,1.326036770379332,0.9392660998843203,0.2878589375,0.6610332409458377
0.028,1.7804,1.0,2648.932077312965,0.2714157376540648,1.3256315487281762,0.9409171641531794,0.2878298,0.661875301252836
0.0285,1.77969375,1.0,2658.1493376735084,0.2755025183740468,1.3252276249823516,0.9424925002036438,0.2878001375,0.6627136222842439
0.029,1.778975,1.0,2666.672564094503,0.27956637544616736,1.3248245852437812,0.9439966585556225,0.28776995,0.6635490714961911
0.029500000000000002,1.7782437500000001,1.0,2674.5375190874443,0.2836074360225321,1.3244220698385256,0.9454338576960751,0.2877392375,0.6643823998778279
0.03,1.7775,1.0,2681.7854768475554,0.2876258319412856,1.3240196730783313,0.9468080022900569,0.287708,0.6652144498029696
0.0305,1.77674375,1.0,2688.4465528434584,0.291621689463685,1.3236170957886937,0.9481227265457327,0.2876762375,0.6660458396469753
0.031,1.775975,1.0,2694.548606215825,0.2955951333876322,1.3232140628038578,0.949381407821868,0.28764395,0.6668771352226527
0.0315,1.7751937500000001,1.0,2700.1198180390297,0.2995462885110294,1.3228102989580683,0.9505871855967444,0.2876111375,0.66770889951085
0.032,1.7744,1.0,2705.188660500029,0.3034752796317786,1.3224055290855707,0.9517429811558319,0.2875778,0.6685416926500422
0.0325,1.77359375,1.0,2709.7838677568293,0.3073822315477819,1.32199947802061,0.9528515154222618,0.2875439375,0.669376071921093
0.033,1.772775,1.0,2713.9324951916738,0.31126726746575045,1.3215918880382571,0.953915326704355,0.28750955,0.6702125559565979
0.0335,1.7719437500000002,1.0,2717.657182540675,0.3151305070185187,1.3211825434909024,0.9549367875014294,0.2874746375,0.6710515744793196
0.034,1.7711000000000001,1.0,2720.9938979371022,0.31897208336053817,1.3207711089338248,0.9559181039794054,0.2874392,0.6718937999788404
0.0345,1.7702437500000001,1.0,2723.9600417280053,0.32279211495743443,1.3203574195055283,0.9568613534432618,0.2874032375,0.672739552830864
0.035,1.7693750000000001,1.0,2726.57313272193,0.32659072027483305,1.3199413103445157,0.9577684794891292,0.28736675,0.6735891515785533
0.035500000000000004,1.76849375,1.0,2728.8507960977413,0.33036801777835956,1.3195226165892908,0.9586413021547692,0.2873297375,0.6744429129079499
0.036000000000000004,1.7676,1.0,2730.810751916381,0.33412412593363944,1.3191011733783564,0.9594815271881688,0.2872922,0.6753011516216714
0.0365,1.76669375,1.0,2732.47080423513,0.3378591632062983,1.3186768158502162,0.9602907545199546,0.2872541375,0.6761641806108654
0.037,1.765775,1.0,2733.848830824222,0.3415732480619616,1.3182493791433734,0.9610704860161807,0.28721555,0.6770323108254381
0.0375,1.76484375,1.0,2734.96277348668,0.345266498966255,1.3178186983963311,0.9618221325799434,0.2871764375,0.6779058512425443
0.038,1.7639,1.0,2735.8306289799057,0.34893903438480395,1.317384608747593,0.9625470206631048,0.28713679999999997,0.6787851088333463
0.0385,1.76294375,1.0,2736.4580546901666,0.3525909598103354,1.3169470577750124,0.9632464062039975,0.28709663750000003,0.6796701612492442
0.039,1.761975,1.0,2736.873523037034,0.35622240703498564,1.316505786272175,0.9639214577501196,0.28705595,0.6805615027303327
0.0395,1.7609937500000001,1.0,2737.0912599355615,0.3598334921549258,1.3160606646719122,0.9645732850313266,0.2870147375,0.6814593630330009
0.04,1.76,1.0,2737.1207922769363,0.363424326111167,1.3156116062847425,0.9652029372034318,0.286973,0.6823638838595814
0.0405,1.7589937500000001,1.0,2736.971667244625,0.36699501984472005,1.315158524421183,0.9658114041165918,0.2869307375,0.683275205627113
0.041,1.757975,1.0,2736.6534491136345,0.37054568429659607,1.314701332391752,0.9663996202856082,0.28688795,0.6841934674453316
0.0415,1.75694375,1.0,2736.175716217176,0.374076430407806,1.3142399435069672,0.9669684685546138,0.2868446375,0.6851188070941904
0.042,1.7559,1.0,2735.548058079661,0.37758736911936086,1.313774271077346,0.9675187834825876,0.28680079999999997,0.6860513610008937
0.0425,1.75484375,1.0,2734.7800727162157,0.38107861137227156,1.3133042284134064,0.9680513544736127,0.2867564375,0.6869912642164543
0.043000000000000003,1.753775,1.0,2733.881364098813,0.38455026810754916,1.3128297288256663,0.9685669286735236,0.28671155,0.6879386503917733
0.043500000000000004,1.75269375,1.0,2732.861539789591,0.3880024502662046,1.3123506856246432,0.9690662136525606,0.28666613750000003,0.6888936517532376
0.044,1.7516,1.0,2731.730208739535,0.39143526878924884,1.311867012120855,0.9695498798918298,0.2866202,0.6898563990778394
0.0445,1.75049375,1.0,2730.4955235102616,0.3948488303184884,1.3113786348545793,0.9700185634830241,0.2865737375,0.6908269953957226
0.045,1.7493750000000001,1.0,2729.163152284307,0.39824323844543535,1.3108855029395836,0.970472869160551,0.28652675,0.6918054976466905
0.0455,1.74824375,1.0,2727.7442994712856,0.4016186160069632,1.3103875151513542,0.970913369856328,0.2864792375,0.6927920613461986
0.046,1.7471,1.0,2726.2439444845822,0.40497506627915913,1.3098846268177837,0.9713406111272812,0.2864312,0.69378672851404
0.0465,1.7459437500000001,1.0,2724.6670651719846,0.4083126925381105,1.3093767932667641,0.9717551113758551,0.28638263750000004,0.6947895401402229
0.047,1.744775,1.0,2723.018637100239,0.4116315980599045,1.3088639698261877,0.9721573634554179,0.28633355,0.6958005361709433
0.0475,1.74359375,1.0,2721.303632884207,0.4149318861206286,1.3083461118239468,0.9725478361661423,0.28628393750000003,0.6968197554944328
0.048,1.7424,1.0,2719.5270215593555,0.4182136599963699,1.3078231745879336,0.97292697564979,0.2862338,0.697847235926679
0.0485,1.74119375,1.0,2717.6937680000274,0.4214770229632158,1.3072951134460402,0.9732952066911118,0.2861831375,0.6988830141970194
0.049,1.739975,1.0,2715.8088323800275,0.42472207829725356,1.3067618837261592,0.9736529339329147,0.28613195,0.6999271259336046
0.0495,1.73874375,1.0,2713.877169679192,0.42794892927457046,1.3062234407561826,0.9740005430112635,0.2860802375,0.7009796056487396
0.05,1.7375,1.0,2711.9037292332478,0.4311576791712538,1.3056797398640028,0.9743384016167427,0.286028,0.7020404867240931
0.0505,1.73624375,1.0,2709.8934543280834,0.4343484312633909,1.3051307363775118,0.9746668604872186,0.2859752375,0.7031098013957826
0.051000000000000004,1.734975,1.0,2707.847132885979,0.4375212748367782,1.3045764234874786,0.974986255252465,0.28592195,0.7041875071925259
0.051500000000000004,1.73369375,1.0,2705.76691704488,0.44067631188640294,1.3040167819268464,0.9752969069736397,0.2858681375,0.705273585162131
0.052000000000000005,1.7324,1.0,2703.6624949454776,0.44381366706211756,1.3034517235792717,0.9755991203435137,0.2858138,0.7063681487779632
0.0525,1.73109375,1.0,2701.535699846152,0.44693343522455714,1.3028812319617935,0.9758931878264417,0.28575893750000003,0.7074711713179409
0.053,1.729775,1.0,2699.3883624798505,0.450035711234357,1.30230529059145,0.9761793890217658,0.28570355000000003,0.708582625256438
0.0535,1.72844375,1.0,2697.22231097999,0.4531205899521523,1.3017238829852802,0.9764579913372752,0.2856476375,0.7097024822585618
0.054,1.7271,1.0,2695.0393708119245,0.4561881662385782,1.3011369926603225,0.9767292506218732,0.2855912,0.7108307131744163
0.0545,1.7257437500000001,1.0,2692.8413647105713,0.45923853495427003,1.3005446031336154,0.9769934117602447,0.2855342375,0.711967288033347
0.055,1.724375,1.0,2690.630112623957,0.4622717909598628,1.299946697922198,0.9772507092321063,0.28547675,0.7131121760381686
0.0555,1.72299375,1.0,2688.407431663117,0.4652880291159919,1.2993432605431086,0.977501367638426,0.2854187375,0.714265345559377
0.056,1.7216,1.0,2686.175136057499,0.46828734428329233,1.2987342745133859,0.9777456021968185,0.2853602,0.7154267641293399
0.0565,1.72019375,1.0,2683.935037117036,0.4712698313223994,1.2981197233500683,0.9779836192081607,0.28530113749999997,0.7165963984364756
0.057,1.718775,1.0,2681.6889431996296,0.4742355850939483,1.2974995905701947,0.9782156164963203,0.28524155,0.7177742143194086
0.0575,1.71734375,1.0,2679.438659684851,0.4771847004585742,1.2968738596908036,0.9784417838227485,0.2851814375,0.7189601767611131
0.058,1.7159,1.0,2677.1859889539883,0.48011727227691237,1.2962425142289336,0.978662303277569,0.2851208,0.7201542498830361
0.0585,1.71444375,1.0,2674.9327303757323,0.48303339540959794,1.2956055377016236,0.9788773496486662,0.2850596375,0.7213563969392028
0.059000000000000004,1.7129750000000001,1.0,2672.680680297913,0.4859331647172661,1.2949629136259118,0.9790870907701781,0.28499795,0.7225665803103091
0.059500000000000004,1.71149375,1.0,2670.4244284668343,0.4888166458940825,1.2943146917168955,0.9792916890546931,0.2849357375,0.7237846372435867
0.06,1.71,1.0,2668.1711821347035,0.49168395909410123,1.2936608057747023,0.9794912987798379,0.284873,0.7250106222951294
0.0605,1.7084937500000001,1.0,2665.9243772303093,0.4945352037475018,1.2930012241739182,0.9796860683667331,0.2848097375,0.7262445237008461
0.061,1.7069750000000001,1.0,2663.68434693097,0.4973704659045893,1.2923359437850497,0.9798761409602473,0.28474595,0.7274862754186999
0.0615,1.7054437500000001,1.0,2661.451423860488,0.5001898316156687,1.2916649614786029,0.9800616542440765,0.2846816375,0.7287358107324142
0.062,1.7039,1.0,2659.2259400931384,0.5029933869310451,1.2909882741250847,0.9802427406886746,0.2846168,0.7299930622503336
0.0625,1.70234375,1.0,2657.008227157362,0.5057812179010236,1.2903058785950012,0.9804195277861198,0.2845514375,0.731257961904287
0.063,1.7007750000000001,1.0,2654.7986160403175,0.5085534105759093,1.2896177717588593,0.9805921382726969,0.28448555,0.732530440948448
0.0635,1.69919375,1.0,2652.597437192333,0.511310051006007,1.2889239504871648,0.9807606903399241,0.28441913750000003,0.7338104299581962
0.064,1.6976,1.0,2650.4050205313433,0.5140512252416221,1.2882244116504242,0.9809252978347024,0.2843522,0.7350978588289758
0.0645,1.69599375,1.0,2648.221695448194,0.5167770193330594,1.2875191521191445,0.9810860704492272,0.2842847375,0.736392656775154
0.065,1.694375,1.0,2646.047790811516,0.5194875193306241,1.2868081687638315,0.9812431139012537,0.28421675,0.7376947523288825
0.0655,1.69274375,1.0,2643.8836349730723,0.5221828112846212,1.286091458454992,0.9813965301052722,0.2841482375,0.7390040733389527
0.066,1.6911,1.0,2641.729555773424,0.5248629812453557,1.2853690180631323,0.9815464173351119,0.2840792,0.7403205469696545
0.0665,1.6894437500000001,1.0,2639.5858805478756,0.5275281152631328,1.2846408444587587,0.9816928703784658,0.2840096375,0.7416440996996325
0.067,1.687775,1.0,2637.452936131861,0.5301782993882574,1.2839069345123777,0.9818359806837837,0.28393955,0.7429746573207414
0.0675,1.68609375,1.0,2635.331048867969,0.5328136196710347,1.283167285094496,0.9819758364999679,0.2838689375,0.7443121449369019
0.068,1.6844000000000001,1.0,2633.220544611896,0.5354341621617696,1.2824218930756195,0.9821125230092694,0.2837978,0.7456564869629572
0.0685,1.68269375,1.0,2631.116770396884,0.5380399730519154,1.2816708014157399,0.9822461220615183,0.2837261375,0.7470075243297667
0.069,1.680975,1.0,2629.026724915859,0.5406311827359509,1.2809139452297904,0.9823767130532556,0.28365395,0.7483652913757473
0.0695,1.67924375,1.0,2626.950641471098,0.5432078724796128,1.2801513222137773,0.9825043724418184,0.28358123749999997,0.7497297087432154
0.07,1.6775,1.0,2624.888259113482,0.5457701198441957,1.279382934642172,0.9826291740832214,0.283508,0.7511006882357395
0.07050000000000001,1.67574375,1.0,2622.839317375545,0.548318002390994,1.2786087847894456,0.9827511893590172,0.2834342375,0.7524781410655242
0.07100000000000001,1.673975,1.0,2620.8035562651885,0.5508515976813023,1.2778288749300701,0.9828704872744309,0.28335995,0.7538619778542457
0.07150000000000001,1.67219375,1.0,2618.7807162601875,0.5533709832764151,1.277043207338517,0.9829871345519582,0.2832851375,0.7552521086338888
0.07200000000000001,1.6704,1.0,2616.7705383024863,0.5558762367376269,1.2762517842892571,0.9831011957206679,0.2832098,0.7566484428475821
0.0725,1.66859375,1.0,2614.772763792131,0.5583674356262319,1.2754546080567626,0.9832127332014349,0.2831339375,0.7580508893504314
0.073,1.6667750000000001,1.0,2612.787134582247,0.560844657503525,1.2746516809155046,0.9833218073883072,0.28305755,0.7594593564103567
0.0735,1.66494375,1.0,2610.8133929734527,0.5633079799308004,1.2738430051399545,0.9834284767262146,0.2829806375,0.7608737517089249
0.074,1.6631,1.0,2608.8512817083965,0.5657574804693528,1.273028583004584,0.9835327977851988,0.2829032,0.7622939823421844
0.0745,1.6612437500000001,1.0,2606.9005439669786,0.5681932366804765,1.2722084167838645,0.9836348253313472,0.2828252375,0.7637199548214985
0.075,1.659375,1.0,2604.96092336108,0.570615326125466,1.2713825087522674,0.9837346123945924,0.28274675,0.7651515750743798
0.0755,1.65749375,1.0,2603.0321639296644,0.5730238263656159,1.2705508611842642,0.9838322103335382,0.2826677375,0.7665887484453221
