Time [s],Phi [rad],STIM [ ],Fsee [N],Gamma [ ],Lcerel [ ],q [ ],Lmtc [m],fisomrel [ ]
0.0,1.8,1.0,18.221233442605264,0.0005118552501731679,1.379311381217913,0.005067681866326709,0.288653,0.5412081507607115
0.0005,1.79999375,1.0,18.68792994003101,0.006118193455849366,1.3792569670966575,0.014392306828114675,0.2886527375,0.5413397733056279
0.001,1.799975,1.0,22.401941558743044,0.011693084536802305,1.3788589853066313,0.038271545585155456,0.28865195,0.5423018789937173
0.0015,1.79994375,1.0,32.67281779682589,0.01723670488744871,1.3779113028336576,0.07421553387832587,0.2886506375,0.5445887984393099
0.002,1.7999,1.0,56.812091958672056,0.022749229910779083,1.3761616707402324,0.11897754263051603,0.2886488,0.548795910286725
0.0025,1.79984375,1.0,102.35881884141364,0.028230834027390312,1.3736859867632025,0.16919603553878387,0.28864643749999996,0.5547155079617718
0.003,1.7997750000000001,1.0,167.65715580097233,0.03368169067944238,1.3709661503166615,0.22203950379415094,0.28864354999999997,0.5611738371149111
0.0035,1.79969375,1.0,245.186399570021,0.03910197233531783,1.368355415582734,0.27534044550203857,0.2886401375,0.5673287238867071
0.004,1.7996,1.0,329.41080284253485,0.044491850496882396,1.3659469694124022,0.3274892124685407,0.2886362,0.5729681619192549
0.0045000000000000005,1.7994937500000001,1.0,417.4600186407237,0.04985149567257003,1.3637314632321829,0.3773731006234901,0.2886317375,0.578123158976324
0.005,1.799375,1.0,507.7669803340429,0.055181077558730494,1.361681567814423,0.42430441360799137,0.28862675,0.582864934640628
0.0055,1.79924375,1.0,599.1979990954839,0.060480764635399836,1.3597751515660457,0.4679285918304725,0.2886212375,0.5872507663125921
0.006,1.7991000000000001,1.0,690.923356624932,0.06575072467991075,1.3579940972207372,0.5081298793382203,0.2886152,0.5913272524078743
0.006500000000000001,1.79894375,1.0,782.226694245591,0.07099112440768704,1.3563251735587842,0.5449546673772333,0.2886086375,0.5951287330621884
0.007,1.798775,1.0,872.5253809595953,0.07620212961727432,1.3547576152520686,0.5785506904541978,0.28860155,0.5986831454740601
0.0075,1.79859375,1.0,961.3423081143652,0.08138390529902534,1.3532824702600854,0.609123588266652,0.2885939375,0.6020136996394512
0.008,1.7984,1.0,1048.276519248043,0.08653661511958494,1.3518922897702006,0.6369069238586954,0.2885858,0.6051397206641747
0.0085,1.79819375,1.0,1133.0426286420445,0.09166042243894484,1.3505800229544833,0.6621418072357088,0.2885771375,0.6080792331161797
0.009000000000000001,1.797975,1.0,1215.4012500918757,0.09675548946485558,1.349339700481136,0.6850648968968216,0.28856795,0.6108474925629788
0.0095,1.79774375,1.0,1295.1599384215604,0.10182197690910881,1.348166087559712,0.705900840365545,0.2885582375,0.613457829953326
0.01,1.7975,1.0,1372.1987530970991,0.10686004507643743,1.347054124955738,0.7248580711688806,0.288548,0.6159229411709408
0.0105,1.79724375,1.0,1446.4580929467709,0.1118698542438379,1.3459989569886601,0.7421272000149722,0.2885372375,0.6182548525598193
0.011,1.796975,1.0,1517.878305246504,0.11685156243937204,1.3449965548203082,0.7578810882871548,0.28852595000000003,0.6204635751343051
0.0115,1.79669375,1.0,1586.4281761177126,0.12180532678754977,1.3440432093052876,0.7722751918083824,0.2885141375,0.6225582593460397
0.012,1.7964,1.0,1652.1198128465057,0.12673130415916375,1.3431352661416502,0.7854485420304155,0.28850180000000003,0.6245477969703408
0.0125,1.79609375,1.0,1714.993520165899,0.13162965103302635,1.3422692443853101,0.7975251453632421,0.2884889375,0.626440575088995
0.013000000000000001,1.7957750000000001,1.0,1775.0889390676853,0.1365005225087263,1.341442101993461,0.8086155019933714,0.28847555,0.6282439125838233
0.0135,1.79544375,1.0,1832.442553279557,0.14134407189051754,1.3406511895905102,0.8188179618559499,0.2884616375,0.6299641805821756
0.014,1.7951000000000001,1.0,1887.1180860764578,0.14616045248265397,1.3398938578008646,0.8282198919163608,0.2884472,0.6316076703738701
0.0145,1.79474375,1.0,1939.1831211540475,0.1509498165346104,1.3391676836807511,0.8368989946175786,0.2884322375,0.6331801095237053
0.015,1.794375,1.0,1988.7410538116662,0.15571231719113565,1.3384700925717414,0.8449242921223906,0.28841675,0.6346874886303469
0.0155,1.79399375,1.0,2035.8559500653826,0.16044810411524363,1.3377991376507397,0.8523573971240302,0.2884007375,0.6361343832985225
0.016,1.7936,1.0,2080.598437802986,0.16515732646439318,1.3371529685868493,0.8592532104372888,0.2883842,0.6375251140723056
0.0165,1.7931937500000001,1.0,2123.0532472404957,0.16984013339604317,1.336529735049173,0.8656606861311872,0.2883671375,0.6388639586343542
0.017,1.792775,1.0,2163.3060948096263,0.17449667308809566,1.3359277082640326,0.8716235707686668,0.28834955,0.6401548941979432
0.0175,1.7923437500000001,1.0,2201.455241332235,0.17912709435012755,1.3353451472582702,0.8771809808166126,0.2883314375,0.6414018884257942
0.018000000000000002,1.7919,1.0,2237.5766830167895,0.18373154298874184,1.3347806388068078,0.8823680352221895,0.2883128,0.6426081756380922
0.0185,1.79144375,1.0,2271.7440493411314,0.18831016382262175,1.334232877473017,0.8872162615170475,0.2882936375,0.6437767334697296
0.019,1.790975,1.0,2304.0383944636196,0.19286310167045062,1.3337005578202694,0.8917539836718967,0.28827395,0.6449105156582942
0.0195,1.79049375,1.0,2334.5416297754023,0.19739050055324403,1.33318243277569,0.8960067028414189,0.2882537375,0.646012329367579
0.02,1.79,1.0,2363.3390631055113,0.20189250482382443,1.3326772812648389,0.8999974102684533,0.288233,0.6470849060275361
0.0205,1.78949375,1.0,2390.510556357947,0.20636925779613122,1.3321839881934494,0.9037468855597979,0.2882117375,0.6481307333797649
0.021,1.788975,1.0,2416.11799489654,0.21082089964032225,1.3317016579778727,0.9072739641515224,0.28818995000000003,0.6491518179041148
0.021500000000000002,1.78844375,1.0,2440.227136667653,0.21524757052655538,1.33122939503446,0.9105957036222737,0.2881676375,0.6501501526310767
0.022,1.7879,1.0,2462.9072913155005,0.21964941062498847,1.3307663037795623,0.9137275760187138,0.2881448,0.6511277177423671
0.0225,1.78734375,1.0,2484.227075187232,0.22402655940649216,1.3303115261870144,0.9166836442395523,0.28812143749999997,0.6520864020025678
0.023,1.786775,1.0,2504.251546713358,0.22837915554182198,1.3298642655119994,0.9194767148271731,0.28809755,0.6530279538846593
0.0235,1.78619375,1.0,2523.0569582651738,0.23270733940890745,1.3294236432468451,0.922118442707036,0.28807313749999996,0.6539542833864008
0.024,1.7856,1.0,2540.6923440898468,0.23701124605401871,1.3289890603104189,0.9246195119930014,0.2880482,0.654866703431338
0.0245,1.78499375,1.0,2557.208562661123,0.24129101052342602,1.3285599176215876,0.9269896857388605,0.2880227375,0.6557665195551516
0.025,1.784375,1.0,2572.6581454584575,0.24554676786339955,1.3281356160992186,0.9292378979695692,0.28799675,0.6566550301249561
0.025500000000000002,1.78374375,1.0,2587.095153703211,0.24977865312020947,1.3277155566621792,0.9313723353978426,0.2879702375,0.657533526535708
0.026000000000000002,1.7831000000000001,1.0,2600.5703294101804,0.25398680025135084,1.3272991841237773,0.9334005167433491,0.2879432,0.6584032017599162
0.0265,1.78244375,1.0,2613.1320787025284,0.2581713428034083,1.3268859763454,0.9353293551875902,0.2879156375,0.6592651736885033
0.027,1.781775,1.0,2624.8396057377718,0.26233241616409375,1.3264753210953228,0.9371651974105106,0.28788755,0.6601207420781436
0.0275,1.7810937500000001,1.0,2635.7294580724733,0.2664701499387373,1.326066825517009,0.938913920393668,0.2878589375,0.6609707439325907
0.028,1.7804,1.0,2645.8389536932964,0.270584673732669,1.3256600967539212,0.9405809438652987,0.2878298,0.661816012060672
0.0285,1.77969375,1.0,2655.206114746303,0.27467611715121887,1.3252547419495222,0.9421712718718921,0.2878001375,0.6626573751254774
0.029,1.778975,1.0,2663.869604687858,0.27874460979971716,1.3248503682472748,0.9436895300692068,0.28776995,0.6634956576837053
0.029500000000000002,1.7782437500000001,1.0,2671.86866885741,0.2827902812834938,1.324446582790642,0.9451399992200887,0.2877392375,0.664331680215163
0.03,1.7775,1.0,2679.2183776834977,0.2868132584410302,1.3240432193404275,0.9465266746229416,0.287708,0.6651657908147055
0.0305,1.77674375,1.0,2685.997460611018,0.2908136720634524,1.3236395315471894,0.9478531869421609,0.2876762375,0.6659995332267723
0.031,1.775975,1.0,2692.2360601622113,0.2947916482379895,1.323235223403412,0.9491229638857855,0.28764395,0.666833515150977
0.0315,1.7751937500000001,1.0,2697.944292778572,0.2987473111786239,1.3228301849608555,0.9503392136874955,0.2876111375,0.6676679581573337
0.032,1.7744,1.0,2703.1324889112807,0.30268078509933816,1.3224243062712797,0.951504920631232,0.2875778,0.6685030826705485
0.0325,1.7735964615357473,1.0,2707.945367687076,0.30659219421411477,1.3220174773864446,0.9526228634239323,0.2875440513845014,0.669339107964511
0.033,1.7727921949064838,1.0,2712.842734630287,0.3104816627369361,1.3216095883581098,0.9536956318506467,0.28751027218607234,0.6701762521560177
0.0335,1.77198792827722,1.0,2717.873645113594,0.3143493143260414,1.321200523164815,0.9547256410446051,0.2874764929876432,0.6710147446385497
0.034,1.7711836616479564,1.0,2723.019558368461,0.318195270623378,1.32079045379939,0.9557151778522274,0.28744271378921415,0.6718542243341246
0.0345,1.7703793950186928,1.0,2728.2443710515777,0.3220196569433972,1.3203797113471025,0.956666397465522,0.2874089345907851,0.6726940068786584
0.035,1.7695751283894292,1.0,2733.537672804259,0.32582259233300426,1.3199683922967518,0.9575812883540492,0.28737515539235603,0.6735338900861989
0.035500000000000004,1.7687708617601656,1.0,2738.8890145847377,0.3296041958391043,1.3195565931371374,0.958461711923418,0.28734137619392697,0.6743736727761036
0.036000000000000004,1.7679665951309018,1.0,2744.2879075379587,0.3333645865086025,1.3191444103570589,0.9593094120980284,0.2873075969954979,0.6752131547762921
0.0365,1.7671623285016382,1.0,2749.7238220713584,0.337103883388404,1.3187319404453162,0.9601260240773846,0.2872738177970688,0.6760521369259038
0.037,1.7663580618723747,1.0,2755.186187138118,0.3408222055254141,1.3183192798907082,0.9609130823456821,0.2872400385986397,0.6768904210773629
0.0375,1.765553795243111,1.0,2760.6690845609473,0.3445196663247726,1.3179064827493239,0.9616720226591747,0.28720625940021066,0.6777278961286793
0.038,1.7647495286138473,1.0,2766.160398199002,0.3481963894942395,1.317493658826662,0.9624042020323769,0.2871724802017816,0.6785643386634541
0.0385,1.7639452619845837,1.0,2771.6519400380485,0.3518524941173004,1.3170808820602193,0.9631108924561085,0.2871387010033525,0.6793995989538051
0.039,1.76314099535532,1.0,2777.140219581151,0.35548809318972296,1.3166681837638976,0.963793286097617,0.2871049218049234,0.6802336141316148
0.0395,1.7623367287260565,1.0,2782.62173262215,0.35910329970727484,1.3162555952515984,0.9644525060347299,0.28707114260649436,0.6810663216583456
0.04,1.7615324620967927,1.0,2788.0929613109765,0.36269822666572366,1.315843147837223,0.9650896110015814,0.2870373634080653,0.6818976593248536
0.0405,1.7607281954675291,1.0,2793.55037424081,0.36627298706083694,1.3154308728346733,0.9657055997600293,0.28700358420963623,0.6827275652511358
0.041,1.7599239288382655,1.0,2798.990426557043,0.3698276938883824,1.3150188015578506,0.9663014151299114,0.28696980501120717,0.6835559778860191
0.0415,1.759119662209002,1.0,2804.409560087552,0.3733624601441276,1.3146069653206565,0.96687794770806,0.2869360258127781,0.6843828360067834
0.042,1.7583153955797381,1.0,2809.8042034951445,0.3768773988238402,1.3141953954369927,0.9674360393030913,0.286902246614349,0.6852080787187238
0.0425,1.7575111289504746,1.0,2815.1715876047047,0.38037261937938727,1.313784115924943,0.9679764849341961,0.2868684674159199,0.686031660054853
0.043000000000000003,1.756706862321211,1.0,2820.512328110782,0.38384822127636425,1.3133731204490688,0.9685000329966814,0.28683468821749086,0.6868535949617773
0.043500000000000004,1.7559025956919474,1.0,2825.8195198042454,0.3873043402474564,1.312962469889727,0.9690074032887214,0.2868009090190618,0.6876737641598267
0.044,1.7550983290626836,1.0,2831.0928676826684,0.3907410815332387,1.3125521659085904,0.9694992684140911,0.2867671298206327,0.6884921670467123
0.0445,1.75429406243342,1.0,2836.332076846256,0.39415855037428627,1.3121422101673315,0.9699762661294077,0.2867333506222036,0.6893088030352471
0.045,1.7534897958041564,1.0,2841.536852510442,0.39755685201117397,1.3117326043276227,0.9704390014925265,0.28669957142377456,0.6901236715533094
0.0455,1.7526855291748928,1.0,2846.7069000188494,0.4009360916844769,1.3113233500511368,0.9708880488582815,0.2866657922253455,0.6909367720438053
0.046,1.7518812625456293,1.0,2851.8419248560444,0.4042963746347701,1.3109144489995463,0.9713239537338004,0.28663201302691643,0.6917481039646317
0.0465,1.7510769959163655,1.0,2856.9416326607898,0.40763780610262845,1.3105059028345238,0.9717472345045342,0.28659823382848737,0.6925576667886392
0.047,1.7502727292871019,1.0,2862.0057292390184,0.41096049132862705,1.3100977132177418,0.9721583840411603,0.2865644546300583,0.6933654600035943
0.0475,1.7494684626578383,1.0,2867.033920576538,0.4142645355533409,1.3096898818108733,0.9725578711966355,0.2865306754316292,0.6941714831121407
0.048,1.7486641960285747,1.0,2872.025912853037,0.417550044017345,1.3092824102755902,0.972946142201873,0.2864968962332001,0.694975735631765
0.0485,1.747859929399311,1.0,2876.9814124543695,0.42081712196121435,1.3088753002735658,0.9733236219677912,0.28646311703477106,0.6957782170947531
0.049,1.7470556627700473,1.0,2881.9001259865536,0.42406587462552403,1.308468553466472,0.9736907153008262,0.286429337836342,0.6965789270481579
0.0495,1.7462513961407837,1.0,2886.7817602886475,0.4272964072508489,1.308062171515982,0.9740478080384029,0.2863955586379129,0.6973778650537555
0.05,1.7454471295115201,1.0,2891.627517740923,0.43050878173412943,1.3076561428786293,0.9743952622280272,0.2863617794394838,0.6981750565977183
0.0505,1.7446428628822563,1.0,2896.4368173154503,0.43370315773262025,1.307250471793533,0.9747334355444663,0.28632800024105476,0.6989704961181487
0.051000000000000004,1.7438385962529928,1.0,2901.210157736915,0.43687963140968666,1.3068451529735037,0.9750626615001744,0.2862942210426257,0.6997641967368212
0.051500000000000004,1.7430343296237292,1.0,2905.9480451223544,0.4400382987236258,1.3064401810909656,0.9753832585723656,0.28626044184419663,0.7005561715973732
0.052000000000000005,1.7422300629944656,1.0,2910.6509883705726,0.44317925563273475,1.3060355508183425,0.9756955310370679,0.28622666264576757,0.7013464337860769
0.0525,1.7414257963652018,1.0,2915.319499121301,0.4463025980953106,1.3056312568280586,0.9759997697260796,0.28619288344733845,0.7021349963319556
0.053,1.7406215297359382,1.0,2919.9540917155746,0.4494084220696504,1.3052272937925373,0.9762962527372511,0.2861591042489094,0.7029218722069008
0.0535,1.7398172631066746,1.0,2924.555283155609,0.4524968235140514,1.304823656384203,0.9765852461013477,0.28612532505048033,0.7037070743257823
0.054,1.739012996477411,1.0,2929.1235930667003,0.45556789838681067,1.3044203392754794,0.9768670044084947,0.28609154585205127,0.7044906155465626
0.0545,1.7382087298481474,1.0,2933.659543658775,0.4586217426462252,1.3040173371387904,0.97714177139698,0.2860577666536222,0.7052725086704051
0.055,1.7374044632188836,1.0,2938.163659688629,0.46165845225059216,1.3036146446465602,0.9774097805069722,0.2860239874551931,0.7060527664417825
0.0555,1.73660019658962,1.0,2942.6364684238547,0.46467812315820867,1.3032122564712123,0.977671255401523,0.285990208256764,0.7068314015485835
0.056,1.7357959299603565,1.0,2947.078499605494,0.4676808513273718,1.302810167285171,0.9779264104570412,0.28595642905833496,0.7076084266222153
0.0565,1.734991663331093,1.0,2951.490285413219,0.4706667327163787,1.30240837176086,0.9781754512252665,0.2859226498599059,0.7083838542377087
0.057,1.734187396701829,1.0,2955.872360430064,0.4736358632835264,1.3020068645707035,0.9784185748686155,0.28588887066147683,0.7091576969138162
0.0575,1.7333831300725655,1.0,2960.225261608011,0.47658833898711206,1.301605640387125,0.9786559705706439,0.2858550914630478,0.709929967113113
0.058,1.732578863443302,1.0,2964.549528234185,0.4795242557854328,1.3012046938825488,0.9788878199232307,0.2858213122646187,0.7107006772420921
0.0585,1.7317745968140383,1.0,2968.8456546656766,0.48244370706104434,1.3008040201410522,0.9791142970970754,0.2857875330661896,0.711469838861548
0.059000000000000004,1.7309703301847745,1.0,2973.112877751338,0.48534670959453513,1.3004036252172746,0.9793355636278349,0.28575375386776053,0.7122374424627527
0.059500000000000004,1.730166063555511,1.0,2977.353771169997,0.4882334602862084,1.3000034861122636,0.9795517880526801,0.28571997466933147,0.7130035341852324
0.06,1.7293617969262474,1.0,2981.5687447585938,0.4911040444030835,1.2996035987153196,0.9797631241838404,0.2856861954709024,0.7137681238419316
0.0605,1.7285575302969838,1.0,2985.758210116931,0.49395854721217985,1.2992039589157436,0.9799697199331248,0.2856524162724733,0.714531221202634
0.061,1.72775326366772,1.0,2989.922580585023,0.496797053980517,1.2988045626028362,0.9801717175836155,0.2856186370740442,0.7152928359940298
0.0615,1.7269489970384564,1.0,2994.0622712207505,0.49961964997511416,1.2984054056658978,0.9803692540468469,0.28558485787561516,0.71605297789978
0.062,1.7261447304091928,1.0,2998.177698777413,0.5024264204629908,1.2980064839942296,0.9805624611063518,0.2855510786771861,0.7168116565605771
0.0625,1.7253404637799292,1.0,3002.2692816828167,0.5052174507111664,1.297607793477132,0.9807514656483958,0.28551729947875704,0.7175688815742116
0.063,1.7245361971506656,1.0,3006.3374400173693,0.5079928259866602,1.2972093300039058,0.9809363898806628,0.285483520280328,0.7183246624956295
0.0635,1.7237319305214018,1.0,3010.382595493541,0.5107526315564918,1.2968110894638518,0.9811173515396049,0.28544974108189886,0.719079008836994
0.064,1.7229276638921383,1.0,3014.4051714355714,0.5134969526876804,1.2964130677462704,0.9812944640871266,0.2854159618834698,0.7198319300677453
0.0645,1.7221233972628747,1.0,3018.4055927586073,0.5162258746472456,1.2960152607404627,0.9814678368972257,0.28538218268504073,0.7205834356146552
0.065,1.7213191306336109,1.0,3022.3842859496763,0.5189394827022066,1.2956176643357291,0.9816375754331694,0.28534840348661167,0.7213335348618883
0.0655,1.7205148640043473,1.0,3026.3416790478886,0.521637862119583,1.2952202744213706,0.9818037814157553,0.28531462428818255,0.7220822371510545
0.066,1.7197105973750837,1.0,3030.278201625811,0.524321098166394,1.2948230868866875,0.9819665529831655,0.2852808450897535,0.7228295517812651
0.0665,1.71890633074582,1.0,3034.1942847703153,0.5269892761096592,1.294426097620981,0.982125984842889,0.2852470658913244,0.7235754880091856
0.067,1.7181020641165565,1.0,3038.0903610647365,0.5296424812163979,1.2940293025135514,0.9822821684161613,0.28521328669289536,0.7243200550490896
0.0675,1.7172977974872927,1.0,3041.966864570781,0.5322807987536294,1.2936326974536996,0.9824351919753402,0.2851795074944663,0.7250632620729086
0.068,1.7164935308580291,1.0,3045.824230811228,0.5349043139883733,1.293236278330726,0.9825851407746087,0.28514572829603724,0.7258051182102836
0.0685,1.7156892642287656,1.0,3049.6628967524466,0.5375131121876491,1.2928400410339318,0.9827320971743757,0.2851119490976082,0.7265456325486134
0.069,1.714884997599502,1.0,3053.4833007880216,0.5401072786184757,1.2924439814526176,0.9828761407597161,0.2850781698991791,0.7272848141331028
0.0695,1.7140807309702382,1.0,3057.2858827220534,0.5426868985478731,1.2920480954760838,0.9830173484531803,0.28504439070075,0.728022671966812
0.07,1.7132764643409746,1.0,3061.071083753462,0.5452520572428603,1.2916523789936314,0.983155794622273,0.28501061150232093,0.728759215010699
0.07050000000000001,1.712472197711711,1.0,3064.838179004399,0.5478027663851026,1.2912568379089384,0.9832915472295704,0.28497683230389187,0.729494433581908
0.07100000000000001,1.7116679310824474,1.0,3068.588717557134,0.5503391917162008,1.2908614586188902,0.9834246803190992,0.2849430531054628,0.7302283542413636
