Time [s],Phi [rad],STIM [ ],Fsee [N],Gamma [ ],Lcerel [ ],q [ ],Lmtc [m],fisomrel [ ]
0.0,1.8,1.0,18.000557647869808,0.00018816340105869418,1.3793360060982904,0.005009219994004046,0.288653,0.5411485793284367
0.0005,1.79999375,1.0,18.36827093949185,0.005796317262015543,1.3792922336410252,0.013442530278409616,0.2886527375,0.5412544690676084
0.001,1.799975,1.0,21.842277673369807,0.011373013813890923,1.378915493325056,0.03654302438711046,0.28865195,0.5421653345606806
0.0015,1.79994375,1.0,31.578265486886046,0.01691842950828292,1.3780030123550215,0.0718768974346427,0.2886506375,0.5443677380437801
0.002,1.7999,1.0,54.659006978960036,0.02243273980495665,1.3762986335515417,0.11622555509173152,0.2886488,0.5484672780205437
0.0025,1.79984375,1.0,98.91137785182974,0.02791611918046789,1.37384918873816,0.16621336761855646,0.28864643749999996,0.5543264798463634
0.003,1.7997750000000001,1.0,163.27932880970843,0.0333687411343356,1.3711277714494603,0.21896978756621055,0.28864354999999997,0.5607913815655522
0.0035,1.79969375,1.0,240.2998341774241,0.038790778189936,1.3685043596232074,0.27229242993893155,0.2886401375,0.5669787529932713
0.004,1.7996,1.0,324.24687166688904,0.044182401904863194,1.3660826166728748,0.3245415706447751,0.2886362,0.5726515235010874
0.0045000000000000005,1.7994937500000001,1.0,412.14419001134587,0.049543782876249,1.3638554113976797,0.37457745187940056,0.2886317375,0.5778355854484223
0.005,1.799375,1.0,502.34668127705595,0.0548750907326437,1.3617961038285094,0.4216907727548287,0.28862675,0.5826006991534136
0.0055,1.79924375,1.0,593.7479552030263,0.06017649417272383,1.3598811240525386,0.4655098348459263,0.2886212375,0.5870075782866115
0.006,1.7991000000000001,1.0,685.4768804886157,0.06544816093029523,1.3580926903070238,0.5059077800397649,0.2886152,0.5911021210098149
0.006500000000000001,1.79894375,1.0,776.8204242707701,0.07069025779410762,1.3564171276671595,0.5429233545754171,0.2886086375,0.5949197420455732
0.007,1.798775,1.0,867.1883604058696,0.07590295067175062,1.3548435488242174,0.5766997897779741,0.28860155,0.5984886985262603
0.0075,1.79859375,1.0,956.0913273557885,0.08108640437792064,1.3533630049589636,0.6074403792703438,0.2885939375,0.6018322280815418
0.008,1.7984,1.0,1043.1506030893156,0.0862407831602637,1.351967565128702,0.6353774573777753,0.2885858,0.6049707688053985
0.0085,1.79819375,1.0,1128.0441950913496,0.09136624984486995,1.350650618605014,0.6607523745137475,0.2885771375,0.6079213765048501
0.009000000000000001,1.797975,1.0,1210.5318283790202,0.09646296662438351,1.3494060962759913,0.683802252409666,0.28856795,0.6106995532052701
0.0095,1.79774375,1.0,1290.4488510445549,0.1015310951244981,1.3482283093220406,0.7047523338713634,0.2885582375,0.6133196574831417
0.01,1.7975,1.0,1367.652579411731,0.1065707952482275,1.3471124540254715,0.7238121979690819,0.288548,0.6157938273610171
0.0105,1.79724375,1.0,1442.0568170156437,0.11158222636024732,1.346053954595486,0.7411736387248282,0.2885372375,0.618133483765387
0.011,1.796975,1.0,1513.6320051769626,0.11656554780561892,1.3450483493195278,0.7570103303651966,0.28852595000000003,0.6203496066067256
0.0115,1.79669375,1.0,1582.3488799097602,0.12152091681457729,1.344091877122149,0.7714786931904488,0.2885141375,0.6224514671510073
0.012,1.7964,1.0,1648.202990918602,0.12644848975698647,1.3431810548159482,0.7847187504279632,0.28850180000000003,0.6244475880593532
0.0125,1.79609375,1.0,1711.2233354811488,0.1313484225838597,1.342312501509448,0.796855376866082,0.2884889375,0.6263461457600262
0.013000000000000001,1.7957750000000001,1.0,1771.4664656516798,0.13622087122606402,1.3414829531414185,0.8079997256725525,0.28847555,0.6281549512557901
0.0135,1.79544375,1.0,1828.9787511346142,0.1410659896040375,1.3406896337746883,0.8182507719106925,0.2884616375,0.6298806550971581
0.014,1.7951000000000001,1.0,1883.8075704239063,0.14588393028753757,1.339930063261571,0.8276965479985198,0.2884472,0.6315291839635981
0.0145,1.79474375,1.0,1936.0243636850182,0.1506748458463218,1.3392017614543792,0.8364152644381685,0.2884322375,0.633106393578592
0.015,1.794375,1.0,1985.702566971989,0.15543888776903095,1.3385024609989142,0.844476514594269,0.28841675,0.6346176144696383
0.0155,1.79399375,1.0,2032.9474827016356,0.1601762083029035,1.3378297596290052,0.8519421671313416,0.2884007375,0.6360684104241345
0.016,1.7936,1.0,2077.825291980693,0.1648869562695614,1.3371818494877812,0.8588675066734278,0.2883842,0.637463011403059
0.0165,1.7931937500000001,1.0,2120.4094659126345,0.1695712801121137,1.336556991401391,0.8653018457275481,0.2883671375,0.6388054577131506
0.017,1.792775,1.0,2160.7859893167656,0.1742293282736694,1.3359534461959834,0.8712892116443746,0.28834955,0.6400997512405691
0.0175,1.7923437500000001,1.0,2199.037533126953,0.17886124801838224,1.3353696241135788,0.8768690121088566,0.2883314375,0.641349538335194
0.018000000000000002,1.7919,1.0,2235.2661868716764,0.18346718758675362,1.334803840293687,0.8820765116853255,0.2883128,0.6425586368769111
0.0185,1.79144375,1.0,2269.5449643350507,0.18804729174233892,1.334254793147195,0.8869434379058109,0.2882936375,0.6437300167669828
0.019,1.790975,1.0,2301.946716635479,0.19260170459714857,1.3337212561792626,0.8914983101119344,0.28827395,0.6448664642032365
0.0195,1.79049375,1.0,2332.550890916411,0.19713057026319286,1.3332020028950498,0.8957667886776047,0.2882537375,0.6459707438352272
0.02,1.79,1.0,2361.4369375517444,0.2016340319925315,1.3326958657679058,0.8997720127274781,0.288233,0.6470454748116825
0.0205,1.78949375,1.0,2388.6888026167503,0.2061122335301161,1.3322016857977432,0.9035348721302491,0.2882117375,0.6480932396464844
0.021,1.788975,1.0,2414.382342062245,0.2105653171539332,1.3317184293728268,0.9070742811670869,0.28818995000000003,0.649116338056202
0.021500000000000002,1.78844375,1.0,2438.578492060502,0.21499342235335844,1.331245246618601,0.910407405326256,0.2881676375,0.6501166664304278
0.022,1.7879,1.0,2461.3416512286053,0.21939668861776748,1.3307812876605103,0.9135498128607306,0.2881448,0.6510961088445624
0.0225,1.78734375,1.0,2482.7393924451103,0.22377525543653598,1.3303257026239987,0.9165156454964147,0.28812143749999997,0.6520565375827856
0.023,1.786775,1.0,2502.8365133559187,0.22812926120328203,1.3298776955253184,0.9193177787054703,0.28809755,0.6529997002388563
0.0235,1.78619375,1.0,2521.6995307997613,0.23245884468581418,1.329436478336547,0.9219679453548052,0.28807313749999996,0.6539273174145847
0.024,1.7856,1.0,2539.3973901782483,0.23676414486421005,1.3290012620288634,0.9244768512242361,0.2880482,0.6548411019879311
0.0245,1.78499375,1.0,2555.977813735896,0.24104529609442235,1.3285714767751324,0.926854315638447,0.2880227375,0.6557422979904612
0.025,1.784375,1.0,2571.490156772967,0.24530243273240385,1.3281465527482192,0.929109323283702,0.28799675,0.6566321426003194
0.025500000000000002,1.78374375,1.0,2585.9852713088585,0.24953568913410726,1.327725920120989,0.9312501065454202,0.2879702375,0.6575118663292447
0.026000000000000002,1.7831000000000001,1.0,2599.5153769449207,0.25374519965548537,1.3273090090663069,0.9332842187197753,0.2879432,0.6583826931888783
0.0265,1.78244375,1.0,2612.1215350419907,0.2579310975537462,1.326895365008878,0.9352186170835121,0.2879156375,0.6592456005603076
0.027,1.781775,1.0,2623.8504047071515,0.26209351545071186,1.3264844909293703,0.9370596944323462,0.28788755,0.6601016491791771
0.0275,1.7810937500000001,1.0,2634.793638018156,0.26623258850575326,1.326075482525928,0.9388132782427492,0.2878589375,0.6609527413759032
0.028,1.7804,1.0,2644.971352484039,0.2703484455408506,1.3256681072872294,0.9404848403451569,0.2878298,0.6617993746682196
0.0285,1.77969375,1.0,2654.404219566892,0.27444121537798394,1.3252621327019531,0.9420794320133783,0.2878001375,0.6626420441013299
0.029,1.778975,1.0,2663.1134277601905,0.27851102683913337,1.3248573262587775,0.943601721753611,0.28776995,0.6634812422704024
0.029500000000000002,1.7782487574432906,1.0,2671.3667696163952,0.282558008746279,1.324453455446381,0.9450560292461624,0.2877394478126182,0.6643174593396152
0.03,1.777522446101935,1.0,2679.552851010443,0.2865822899214009,1.324050287753442,0.946446355873315,0.2877089427362813,0.6651511830577536
0.0305,1.7767961347605796,1.0,2687.696889885896,0.29058399705928184,1.3236476198842522,0.9477764153093134,0.28767843765994433,0.6659828384670237
0.031,1.776069823419224,1.0,2695.7710619860654,0.29456325902948144,1.3232457040573165,0.9490497138456524,0.28764793258360744,0.6668119094658476
0.0315,1.7753435120778684,1.0,2703.761761245259,0.29852020282385816,1.3228446611575144,0.9502694916322981,0.2876174275072705,0.667638152940337
0.032,1.774617200736513,1.0,2711.665977505199,0.3024549517664539,1.32244451476888,0.951438748980386,0.28758692243093353,0.6684615270901199
0.0325,1.7738908893951575,1.0,2719.480690773475,0.30636762918131033,1.3220452884754472,0.952560279200609,0.2875564173545966,0.6692819903404528
0.033,1.773164578053802,1.0,2727.2028716984883,0.31025835839246946,1.3216470058612504,0.9536366854004447,0.2875259122782597,0.670099501340857
0.0335,1.7724382667124465,1.0,2734.8294820567594,0.31412726272397307,1.3212496905103235,0.9546703957276462,0.28749540720192274,0.6709140189637162
0.034,1.771711955371091,1.0,2742.3574752527716,0.317974465499863,1.3208533660067006,0.9556636772201672,0.28746490212558584,0.6717255023028388
0.0345,1.7709856440297354,1.0,2749.787179504521,0.32180008063352583,1.3204580253008091,0.9566186426244939,0.2874343970492489,0.672533973279037
0.035,1.77025933268838,1.0,2757.114269315576,0.3256042417162891,1.3200637035277718,0.9575372776566232,0.28740389197291194,0.6733393676150721
0.035500000000000004,1.7695330213470244,1.0,2764.3380949113707,0.3293870707749954,1.3196704024973165,0.9584214347009052,0.287373386896575,0.6741416893086852
0.036000000000000004,1.768806710005669,1.0,2771.4597245620935,0.33314868438849515,1.319278108574448,0.9592728464515771,0.2873428818202381,0.6749409738046013
0.0365,1.7680803986643134,1.0,2778.480241118553,0.33688919913563875,1.3188868081241705,0.960093137761798,0.28731237674390114,0.675737256391513
0.037,1.7673540873229578,1.0,2785.400741710241,0.34060873159527666,1.3184964875114886,0.9608838335770437,0.28728187166756425,0.676530572202947
0.0375,1.7666277759816025,1.0,2792.2223374467944,0.34430739834625923,1.3181071331014067,0.9616463661999096,0.2872513665912273,0.6773209562181248
0.038,1.7659014646402469,1.0,2798.946153123877,0.347985315967437,1.3177187312589294,0.9623820819494591,0.28722086151489035,0.6781084432628068
0.0385,1.7651751532988913,1.0,2805.573326933349,0.3516426010376602,1.3173312683490606,0.9630922472716605,0.28719035643855345,0.6788930680101293
0.039,1.764448841957536,1.0,2812.1050101769247,0.3552793701357794,1.3169447307368052,0.9637780543516546,0.2871598513622165,0.6796748649814224
0.0395,1.7637225306161803,1.0,2818.542366984953,0.358895739840645,1.3165591047871676,0.964440626273419,0.2871293462858796,0.6804538685470249
0.04,1.7629962192748247,1.0,2824.886362461008,0.36249181731388164,1.3161743787555604,0.9650810201930579,0.28709884120954265,0.6812301091152277
0.0405,1.7622699079334694,1.0,2831.1385967707165,0.3660676988589655,1.3157905353307071,0.9657002310154649,0.2870683361332057,0.6820036281745709
0.041,1.7615435965921138,1.0,2837.302387501337,0.36962354269612335,1.315407542013271,0.9662992076447996,0.28703783105686875,0.6827744975801873
0.0415,1.7608172852507584,1.0,2843.3795436825067,0.3731594559813968,1.315025379923785,0.9668788385014773,0.28700732598053186,0.6835427614919481
0.042,1.7600909739094028,1.0,2849.3718880764272,0.3766755458708274,1.3146440301827824,0.9674399634162456,0.2869768209041949,0.6843084638722459
0.0425,1.7593646625680472,1.0,2855.2812568345093,0.38017191952045665,1.3142634739107961,0.9679833767865272,0.286946315827858,0.6850716484869845
0.043000000000000003,1.7586383512266919,1.0,2861.109499160348,0.38364868408632624,1.3138836922283594,0.9685098304967996,0.28691581075152106,0.6858323589065451
0.043500000000000004,1.7579120398853363,1.0,2866.8584769825475,0.3871059467244776,1.3135046662560055,0.9690200366228694,0.2868853056751841,0.6865906385067303
0.044,1.7571857285439807,1.0,2872.5300646337323,0.3905438145909524,1.3131263771142674,0.9695146699380375,0.28685480059884716,0.6873465304696863
0.0445,1.7564594172026253,1.0,2878.126148538539,0.3939623948417922,1.312748805923678,0.9699943702375073,0.28682429552251026,0.688100077784801
0.045,1.7557331058612697,1.0,2883.6486269088387,0.3973617946330385,1.3123719338047708,0.9704597444958829,0.2867937904461733,0.6888513232495788
0.0455,1.7550067945199141,1.0,2889.0994094474663,0.40074212112073293,1.3119957418780788,0.9709113688712611,0.2867632853698364,0.689600309470495
0.046,1.7542804831785588,1.0,2894.4804170592797,0.404103481460917,1.311620211264135,0.9713497905682231,0.28673278029349947,0.690347078863826
0.0465,1.7535541718372032,1.0,2899.7935815707297,0.40744598280963235,1.3112453230834726,0.9717755295709158,0.2867022752171625,0.6910916736564565
0.047,1.7528278604958478,1.0,2905.040845456624,0.4107697323229205,1.310871058456625,0.9721890802564499,0.2866717701408256,0.6918341358866635
0.0475,1.7521015491544922,1.0,2910.2241615754024,0.41407483715682303,1.3104973985041248,0.9725909128979334,0.28664126506448867,0.692574507404881
0.048,1.7513752378131366,1.0,2915.345492911939,0.41736140446738146,1.3101243243465055,0.9729814750656668,0.2866107599881517,0.6933128298744371
0.0485,1.7506489264717813,1.0,2920.4068123286575,0.42062954141063735,1.3097518171043,0.9733611929342831,0.2865802549118148,0.6940491447722711
0.049,1.7499226151304257,1.0,2925.406025402404,0.4238792938133086,1.309379893693381,0.9737304675713889,0.2865497498354779,0.694783422762348
0.0495,1.74919630378907,1.0,2930.349616484053,0.4271108345780541,1.3090084957332506,0.9740896913852345,0.2865192447591409,0.6955157830506175
0.05,1.7484699924477147,1.0,2935.2396167926067,0.43032427283679475,1.30863760409058,0.9744392335448696,0.28648873968280403,0.6962462670319718
0.0505,1.7477436811063591,1.0,2940.077177041995,0.43351970462791206,1.3082672074225983,0.9747794452622379,0.2864582346064671,0.6969749005990842
0.051000000000000004,1.7470173697650035,1.0,2944.8634538649153,0.43669722598978744,1.3078972943865337,0.9751106617867926,0.2864277295301301,0.6977017095326921
0.051500000000000004,1.7462910584236482,1.0,2949.5996096894414,0.43985693296080247,1.307527853639615,0.9754332032720544,0.28639722445379323,0.6984267195019498
0.052000000000000005,1.7455647470822926,1.0,2954.286812618683,0.44299892157933857,1.307158873839071,0.9757473755877673,0.2863667193774563,0.6991499560647758
0.0525,1.7448384357409372,1.0,2958.926236313953,0.4461232878837772,1.3067903436421302,0.9760534710815183,0.28633621430111933,0.6998714446681877
0.053,1.7441121243995816,1.0,2963.5190598797894,0.44923012791249983,1.3064222517060213,0.9763517692933764,0.28630570922478243,0.7005912106486343
0.0535,1.743385813058226,1.0,2968.066467752421,0.452319537703888,1.3060545866879731,0.9766425376268294,0.2862752041484455,0.7013092792323149
0.054,1.7426595017168707,1.0,2972.5696495913126,0.45539161329632316,1.3056873372452145,0.9769260319790424,0.2862446990721086,0.7020256755354928
0.0545,1.741933190375515,1.0,2977.029800172548,0.45844645072818674,1.3053204920349735,0.9772024973332288,0.28621419399577164,0.7027404245648015
0.055,1.7412068790341595,1.0,2981.448119286529,0.4614841460378603,1.3049540397144792,0.9774721683157139,0.2861836889194347,0.7034535512175377
0.0555,1.7404805676928041,1.0,2985.8258116372313,0.46450479526372523,1.3045879689409603,0.977735269720071,0.28615318384309774,0.7041650802819535
0.056,1.7397542563514485,1.0,2990.1640867449582,0.46750849444416304,1.3042222683716453,0.9779920170005362,0.28612267876676084,0.7048750364375338
0.0565,1.739027945010093,1.0,2994.4641588516806,0.4704953396175552,1.303856926663763,0.9782426167367391,0.2860921736904239,0.7055834442552698
0.057,1.7383016336687376,1.0,2998.7272468297683,0.4734654268222832,1.303491932474542,0.9784872670716425,0.286061668614087,0.7062903281979211
0.0575,1.737575322327382,1.0,3002.9545740926915,0.4764188520967285,1.3031272744612108,0.9787261581244342,0.28603116353775004,0.7069957126202735
0.058,1.7368490109860266,1.0,3007.1473685092533,0.47935571147927264,1.3027629412809985,0.9789594723800021,0.2860006584614131,0.7076996217693836
0.0585,1.736122699644671,1.0,3011.306862320682,0.482276101008297,1.3023989215911336,0.9791873850564914,0.2859701533850762,0.7084020797848197
0.059000000000000004,1.7353963883033154,1.0,3015.434292059847,0.4851801167221831,1.3020352040488445,0.979410064452345,0.28593964830873925,0.709103110698893
0.059500000000000004,1.73467007696196,1.0,3019.528175591841,0.48806779473081646,1.3016718008427002,0.9796276686509146,0.28590914323240235,0.7098026931642929
0.06,1.7339437656206045,1.0,3023.5920409177734,0.490939294872059,1.3013086808648966,0.9798403573406734,0.2858786381560654,0.7105008891436732
0.0605,1.733217454279249,1.0,3027.6267335640086,0.49379470905724443,1.3009458362472923,0.9800482797872712,0.28584813307972845,0.7111977157060521
0.061,1.7324911429378935,1.0,3031.632826777078,0.49663412265658335,1.3005832614955024,0.9802515791741939,0.2858176280033915,0.7118931852956838
0.0615,1.731764831596538,1.0,3035.6108959787784,0.4994576210402867,1.300220951115142,0.9804503932752624,0.2857871229270546,0.7125873103045905
0.062,1.7310385202551823,1.0,3039.5615187334215,0.5022652895785651,1.2998588996118259,0.9806448547000357,0.28575661785071765,0.7132801030726561
0.0625,1.730312208913827,1.0,3043.485274716345,0.5050572136416294,1.2994971014911696,0.9808350911262955,0.28572611277438076,0.713971575887717
0.063,1.7295858975724714,1.0,3047.3827456822946,0.5078334785996904,1.299135551258788,0.9810212255203852,0.2856956076980438,0.7146617409856536
0.0635,1.728859586231116,1.0,3051.25451543524,0.5105941698229588,1.2987742434202967,0.9812033763461242,0.28566510262170686,0.7153506105504761
0.064,1.7281332748897604,1.0,3055.1011697984086,0.5133393726816455,1.2984131724813102,0.9813816577629688,0.2856345975453699,0.7160381967144127
0.0645,1.7274069635484048,1.0,3058.9232965850188,0.5160691725459612,1.2980523329474436,0.9815561798140491,0.285604092469033,0.7167245115579919
0.065,1.7266806522070495,1.0,3062.721485569656,0.5187836547861167,1.2976917193243125,0.9817270486046664,0.28557358739269606,0.7174095671101236
0.0655,1.7259543408656939,1.0,3066.4963284608325,0.5214829047723227,1.2973313261175317,0.9818943664718068,0.28554308231635916,0.7180933753481825
0.066,1.7252280295243383,1.0,3070.248418873142,0.5241670078747901,1.2969711478327164,0.9820582321451765,0.2855125772400222,0.7187759481980833
0.0665,1.724501718182983,1.0,3073.978352301472,0.5268360494637295,1.2966111789754815,0.9822187409002462,0.28548207216368526,0.7194572975343587
0.067,1.7237754068416273,1.0,3077.68672609464,0.5294901149093519,1.2962514140514425,0.9823759847037546,0.2854515670873483,0.7201374351802321
0.0675,1.7230490955002717,1.0,3081.3741394305243,0.532129289581868,1.2958918475662142,0.9825300523520886,0.2854210620110114,0.7208163729076922
0.068,1.7223227841589164,1.0,3085.0411932912075,0.5347536588514884,1.295532474025412,0.9826810296029428,0.28539055693467447,0.7214941224375613
0.0685,1.7215964728175608,1.0,3088.6884904395597,0.5373633080884241,1.2951732879346507,0.9828289993006244,0.28536005185833757,0.7221706954395657
0.069,1.7208701614762054,1.0,3092.3166353956126,0.5399583226628858,1.2948142837995456,0.9829740414953543,0.2853295467820006,0.7228461035324012
0.0695,1.7201438501348498,1.0,3095.926234414582,0.5425387879450843,1.2944554561257116,0.9831162335568906,0.28529904170566367,0.7235203582837983
0.07,1.7194175387934942,1.0,3099.5163360097886,0.5451047232286901,1.2940968127206482,0.9832556468969491,0.2852685366293268,0.7241934462613392
0.07050000000000001,1.7186912274521389,1.0,3103.0889749870134,0.5476562897467192,1.293738335917737,0.9833923579522457,0.2852380315529898,0.7248654018248684
0.07100000000000001,1.7179649161107833,1.0,3106.6444610820445,0.5501935647400036,1.293380022790382,0.9835264362895934,0.28520752647665293,0.7255362315928411
