Time [s],Phi [rad],STIM [ ],Fsee [N],Gamma [ ],Lcerel [ ],q [ ],Lmtc [m],fisomrel [ ]
0.0,1.8,1.0,17.96786721817205,1.0391453367350205e-05,1.3793396667831257,0.005000028770472922,0.288653,0.5411397232298061
0.0005,1.79999375,1.0,18.27726541670361,0.0056195424743261954,1.379302329886896,0.012941599872956289,0.2886527375,0.5412300463723607
0.001,1.799975,1.0,21.61913766889693,0.011197230592978256,1.378938224888754,0.03561061349888516,0.28865195,0.5421104008869899
0.0015,1.79994375,1.0,31.07051518041701,0.016743632292189108,1.378046094748682,0.07060449246502545,0.2886506375,0.5442638719555823
0.002,1.7999,1.0,53.58464653105534,0.022258923063174837,1.376367985156235,0.11472113755675008,0.2886488,0.5483008282826407
0.0025,1.79984375,1.0,97.12238937290464,0.027743277413063684,1.3739350009305813,0.16457826585256047,0.28864643749999996,0.5541218593081829
0.003,1.7997750000000001,1.0,160.96262038658628,0.03319686887261403,1.3712141770562216,0.2172839341409582,0.28864354999999997,0.5605868455117097
0.0035,1.79969375,1.0,237.68833568014205,0.03861986999580555,1.3685845800933032,0.2706163501768906,0.2886401375,0.5667902019051128
0.004,1.7996,1.0,321.47209283144167,0.0440124523706215,1.3661559514507373,0.32291915384367276,0.2886362,0.5724802908711903
0.0045000000000000005,1.7994937500000001,1.0,409.27327914569435,0.049374786624233266,1.3639226843954193,0.37303769018972416,0.2886317375,0.5776794635919389
0.005,1.799375,1.0,499.41914793184554,0.05470704241408778,1.361858222417634,0.42025043912030213,0.28862675,0.5824573560865755
0.0055,1.79924375,1.0,590.7961236701703,0.060009388475385346,1.359938723546464,0.4641764565933061,0.2886212375,0.5868753676394841
0.006,1.7991000000000001,1.0,682.5238262023058,0.06528199256421166,1.3581463108118814,0.5046824980176107,0.2886152,0.5909796557775486
0.006500000000000001,1.79894375,1.0,773.8870299339695,0.07052502151315959,1.3564671550843876,0.5418030792789157,0.2886086375,0.5948060183228416
0.007,1.798775,1.0,864.2914590590311,0.07573864121492652,1.3548903037655562,0.5756788962065091,0.28860155,0.5983828835879823
0.0075,1.79859375,1.0,953.2488519404795,0.08092301663204654,1.3534066924956192,0.6065118402974583,0.2885939375,0.6017337681738102
0.008,1.7984,1.0,1040.3505417805757,0.08607831140884184,1.3520087628450188,0.6345339251477162,0.2885858,0.6048782872459162
0.0085,1.79819375,1.0,1125.3205739194852,0.09120468962875791,1.350689151656852,0.6599860195849613,0.2885771375,0.6078352006064971
0.009000000000000001,1.797975,1.0,1207.9055491384736,0.09630231321290146,1.3494419616957072,0.683105641495167,0.28856795,0.6106196282087242
0.0095,1.79774375,1.0,1287.8967448028566,0.10137134271214267,1.3482620637392755,0.7041188007800889,0.2885582375,0.6132446905614184
0.01,1.7975,1.0,1365.1714618825313,0.10641193867735174,1.347144328565248,0.7232354323188013,0.288548,0.6157232625796656
0.0105,1.79724375,1.0,1439.664710446158,0.11142426103110457,1.3460838811646678,0.7406477528419211,0.2885372375,0.6180674336670922
0.011,1.796975,1.0,1511.32743563954,0.1164084685252553,1.3450764898607814,0.7565301252086118,0.28852595000000003,0.6202876790349554
0.0115,1.79669375,1.0,1580.1253973901196,0.12136471833997647,1.3441184306740024,0.7710395253934734,0.2885141375,0.622393194102238
0.012,1.7964,1.0,1646.0601573621527,0.1262931670732197,1.343206128127299,0.7843164339863017,0.28850180000000003,0.6243927092342734
0.0125,1.79609375,1.0,1709.1773761853592,0.1311939717266314,1.3423359957218355,0.7964860998175476,0.2884889375,0.6262948534220008
0.013000000000000001,1.7957750000000001,1.0,1769.5106313734548,0.13606728709802593,1.3415050267271156,0.807660200825027,0.28847555,0.6281068772962758
0.0135,1.79544375,1.0,1827.0959062189206,0.1409132665908641,1.3407105464412268,0.8179381169062174,0.2884616375,0.6298352153817623
0.014,1.7951000000000001,1.0,1881.9968048785292,0.14573206360860658,1.3399498801622576,0.8274081310884867,0.2884472,0.6314862212298046
0.0145,1.79474375,1.0,1934.2839679220708,0.15052383064079677,1.339220549327636,0.8361487472592861,0.2884322375,0.6330657490875541
0.015,1.794375,1.0,1984.0547038955795,0.15528872066161048,1.3385200257310634,0.8442297306324853,0.28841675,0.6345796944484698
0.0155,1.79399375,1.0,2031.3755519229665,0.1600268835840748,1.3378463189182568,0.8517133205488071,0.2884007375,0.6360327321217587
0.016,1.7936,1.0,2076.3170076628485,0.1647384686409735,1.3371975655925041,0.8586549802500718,0.2883842,0.6374292147910998
0.0165,1.7931937500000001,1.0,2118.9638369497698,0.16942362506509037,1.3365719024570932,0.8651041596344572,0.2883671375,0.6387734517742759
0.017,1.792775,1.0,2159.400181292139,0.17408250103757092,1.335967605901527,0.8711050478458535,0.28834955,0.6400694125790695
0.0175,1.7923437500000001,1.0,2197.7270847320983,0.1787152455391512,1.335382896704096,0.8766971396172006,0.2883314375,0.6413211498672504
0.018000000000000002,1.7919,1.0,2234.0193756745102,0.18332200431508694,1.3348163654750096,0.8819158996082503,0.2883128,0.6425318922516097
0.0185,1.79144375,1.0,2268.3508191425103,0.1879029223018085,1.334266698225474,0.8867931578682615,0.2882936375,0.6437046379382649
0.019,1.790975,1.0,2300.802689449113,0.19245814443574627,1.3337325809666944,0.8913575060622986,0.28827395,0.6448423609735611
0.0195,1.79049375,1.0,2331.4566569240324,0.19698781478913097,1.333212763407606,0.89563468382366,0.2882537375,0.645947877239371
0.02,1.79,1.0,2360.3994161144815,0.20149207797697535,1.3327060059088514,0.8996478905489336,0.288233,0.6470239592862863
0.0205,1.78949375,1.0,2387.708503231818,0.2059710770107167,1.3322112118045168,0.9034180989085845,0.2882117375,0.6480730572429032
0.021,1.788975,1.0,2413.4468057550807,0.2104249522258534,1.331727471842864,0.9069643094608241,0.28818995000000003,0.6490972079870596
0.021500000000000002,1.78844375,1.0,2437.6811468355036,0.21485384395788382,1.331253876772154,0.9103037269614532,0.2881676375,0.6500984347047787
0.022,1.7879,1.0,2460.4819578121765,0.21925789254230627,1.3307895173406483,0.9134519548479304,0.2881448,0.6510787475049137
0.0225,1.78734375,1.0,2481.916923345222,0.22363723706113262,1.3303335419255975,0.9164231771845375,0.28812143749999997,0.6520400225729895
0.023,1.786775,1.0,2502.0565255196207,0.22799201754479043,1.3298850999753562,0.9192302984090392,0.28809755,0.6529841224944173
0.0235,1.78619375,1.0,2520.96730744953,0.23232237313726284,1.3294434032733327,0.9218850869537156,0.28807313749999996,0.6539127679836872
0.024,1.7856,1.0,2538.700097424393,0.23662843908239092,1.3290078335666886,0.9243983095344014,0.2880482,0.6548273133027874
0.0245,1.78499375,1.0,2555.3075966326987,0.24091035062401586,1.328577772602586,0.9267798035256336,0.2880227375,0.6557291050750105
0.025,1.784375,1.0,2570.8442220314273,0.24516824300597875,1.328152602128187,0.9290385699273886,0.28799675,0.6566194825143488
0.025500000000000002,1.78374375,1.0,2585.3659576904265,0.2494022514721207,1.3277317038906535,0.9311828559013344,0.2879702375,0.6574997776305134
0.026000000000000002,1.7831000000000001,1.0,2598.9219735774604,0.2536125092002302,1.3273145364037109,0.9332202397408442,0.2879432,0.6583711551620658
0.0265,1.78244375,1.0,2611.565797328763,0.25779915159349914,1.3269005289782667,0.9351576798338774,0.2879156375,0.6592348346738821
0.027,1.781775,1.0,2623.350056120373,0.26196231298850875,1.3264891297889436,0.9370015794450827,0.28788755,0.6600919902093697
0.0275,1.7810937500000001,1.0,2634.31174286623,0.2661021230293485,1.3260799410025241,0.9387578574686639,0.2878589375,0.6609434696294336
0.028,1.7804,1.0,2644.488633361575,0.27021871136010794,1.3256725647857905,0.9404319717123942,0.2878298,0.6617901165364958
0.0285,1.77969375,1.0,2653.919218746914,0.27431220762487657,1.3252666033055256,0.9420289608667024,0.2878001375,0.6626327703255288
0.029,1.778975,1.0,2662.642641481451,0.278382741467744,1.3248616587285116,0.9435534821475653,0.28776995,0.6634722662250003
0.029500000000000002,1.7782437500000001,1.0,2670.6986348251144,0.28243044253279964,1.3244573332215308,0.9450098451062636,0.2877392375,0.6643094353277186
0.03,1.7775,1.0,2678.1206660517028,0.28645543802522516,1.3240532913488068,0.946402049530607,0.287708,0.6651449756569048
0.0305,1.77674375,1.0,2684.947910731406,0.29045785796643414,1.3236491494435636,0.947733799341006,0.2876762375,0.6659796813279906
0.031,1.775975,1.0,2691.2147721816327,0.29443782991386636,1.323244571436117,0.9490085384106351,0.28764395,0.6668142443784473
0.0315,1.7751937500000001,1.0,2696.9469436217723,0.2983954778733078,1.322839304192671,0.9502294764173048,0.2876111375,0.6676491826160462
0.032,1.7744,1.0,2702.170405078892,0.30233092585054416,1.3224330945794294,0.9513995990673121,0.2875778,0.6684850112242754
0.0325,1.77359375,1.0,2706.911396284141,0.3062442978513615,1.3220256894625964,0.9525216864674053,0.2875439375,0.6693222427491692
0.033,1.772775,1.0,2711.196390988713,0.31013571788154554,1.3216168357083762,0.9535983297783063,0.28750955,0.6701613870820515
0.0335,1.7719437500000002,1.0,2715.0520727017715,0.3140053099468823,1.3212062801829725,0.9546319463288924,0.2874746375,0.6710029514381944
0.034,1.7711021001039564,1.0,2718.615060893026,0.31785319353756797,1.3207937186041145,0.9556247864132559,0.28743928820436615,0.6718475449749496
0.0345,1.7702593459716691,1.0,2722.3269475427605,0.32167949593701894,1.3203793243717374,0.9565790078336971,0.2874038925308101,0.6726947975609345
0.035,1.7694165918393816,1.0,2726.21759706395,0.3254843395599459,1.3199633272801206,0.9574966331500111,0.287368496857254,0.6735442257520232
0.035500000000000004,1.7685738377070943,1.0,2730.2716256354665,0.32926784241461526,1.3195458705723107,0.9583795450186461,0.2873331011836979,0.674395524873036
0.036000000000000004,1.767731083574807,1.0,2734.4736177563223,0.33303012250929376,1.3191270974913551,0.9592295070425507,0.2872977055101419,0.675248391730686
0.0365,1.7668883294425195,1.0,2738.8081218374136,0.33677129785224785,1.3187071512803008,0.9600481726593092,0.28726230983658585,0.6761025246262611
0.037,1.7660455753102322,1.0,2743.259646248434,0.34049148645174415,1.318286175182195,0.9608370932704055,0.28722691416302976,0.6769576233669932
0.0375,1.765202821177945,1.0,2747.812655819671,0.34419080631604926,1.3178643124400846,0.9615977256840889,0.28719151848947366,0.6778133892761233
0.038,1.7643600670456574,1.0,2752.4515687986373,0.3478693754534296,1.3174417062970167,0.962331438936708,0.2871561228159176,0.6786695252016537
0.0385,1.76351731291337,1.0,2757.1622761984513,0.3515273104839091,1.3170184862317733,0.9630395189715928,0.28712072714236153,0.6795257633524074
0.039,1.7626745587810828,1.0,2761.9360907217306,0.35516472545653366,1.3165947323161689,0.9637231710016203,0.2870853314688055,0.680381937084354
0.0395,1.7618318046487953,1.0,2766.757374821268,0.35878174211139174,1.3161705871125962,0.9643835373984706,0.2870499357952494,0.681237754607386
0.04,1.760989050516508,1.0,2771.6202196009194,0.36237847236278237,1.3157461049433075,0.9650216850775947,0.28701454012169336,0.6820931033581947
0.0405,1.7601462963842207,1.0,2776.5186958656936,0.36595502812500436,1.3153213401305546,0.9656386204339326,0.28697914444813727,0.6829478713592829
0.041,1.7593035422519332,1.0,2781.4468537493835,0.36951152131235676,1.3148963469965895,0.9662352934142816,0.2869437487745812,0.6838019472200366
0.0415,1.758460788119646,1.0,2786.398722406299,0.37304806383913847,1.3144711798636641,0.9668126012748476,0.28690835310102514,0.6846552201376117
0.042,1.7576180339873586,1.0,2791.36830976902,0.37656476761964836,1.3140458930540304,0.9673713920513267,0.28687295742746904,0.6855075798976291
0.0425,1.756775279855071,1.0,2796.349602371877,0.3800617445681855,1.3136205408899406,0.9679124677662391,0.28683756175391295,0.6863589168746846
0.043000000000000003,1.7559325257227838,1.0,2801.3365652393923,0.3835391065990487,1.3131951776936461,0.9684365873958898,0.2868021660803569,0.6872091220326704
0.043500000000000004,1.7550897715904965,1.0,2806.3287755255024,0.3869969522157488,1.3127698072851255,0.9689444634994014,0.2867667704068009,0.688058187662071
0.044,1.754247017458209,1.0,2811.316565134276,0.3904354078267453,1.3123445162746803,0.9694367820672509,0.2867313747332448,0.6889059411770918
0.0445,1.7534042633259217,1.0,2816.296049743794,0.3938545844557868,1.3119193392097854,0.9699141870026466,0.2866959790596887,0.6897523144991416
0.045,1.7525615091936344,1.0,2821.265704699832,0.3972545869375722,1.3114942894196548,0.970377286589618,0.28666058338613265,0.6905972820757154
0.0455,1.751718755061347,1.0,2826.2240001942473,0.4006355201068003,1.3110693802335014,0.9708266582106843,0.28662518771257656,0.6914408184985502
0.046,1.7508760009290596,1.0,2831.1694013044585,0.40399748879817016,1.310644624980539,0.9712628502163085,0.2865897920390205,0.6922828985035085
0.0465,1.7500332467967723,1.0,2836.1003680368353,0.4073405978463806,1.310220036989981,0.9716863836639451,0.2865543963654644,0.6931234969704554
0.047,1.7491904926644848,1.0,2841.015355374529,0.4106649520861305,1.3097956295910407,0.9720977539369501,0.2865190006919084,0.6939625889231209
0.0475,1.7483477385321975,1.0,2845.9128133284007,0.4139706563521188,1.3093714161129315,0.97249743225271,0.2864836050183523,0.6948001495289522
0.048,1.7475049843999102,1.0,2850.7911869927675,0.4172578154790445,1.3089474098848668,0.9728858670685412,0.2864482093447962,0.6956361540989544
0.0485,1.746662230267623,1.0,2855.6489166045103,0.42052653430160636,1.30852362423606,0.9732634853931876,0.28641281367124016,0.6964705780875204
0.049,1.7458194761353354,1.0,2860.4844376060905,0.4237769176545034,1.3081000724957248,0.9736306940110646,0.28637741799768407,0.6973033970922485
0.0495,1.744976722003048,1.0,2865.29618071318,0.42700907037243446,1.3076767679930745,0.9739878806258091,0.28634202232412803,0.6981345868537494
0.05,1.7441339678707608,1.0,2870.0847104457257,0.43022307626106504,1.3072537051015563,0.9743354112295446,0.28630662665057194,0.6989641603997638
0.0505,1.7432912137384733,1.0,2874.8482481235033,0.4334190572760585,1.3068308989702797,0.9746736407585248,0.2862712309770159,0.6997920900417411
0.051000000000000004,1.742448459606186,1.0,2879.5856019556395,0.436597124549605,1.306408359508178,0.9750029063555382,0.2862358353034598,0.7006183584933265
0.051500000000000004,1.7416057054738987,1.0,2884.296830869194,0.4397573745041223,1.3059860855363994,0.9753235275989461,0.2862004396299037,0.701442970210814
0.052000000000000005,1.7407629513416112,1.0,2888.981994696981,0.442899903562028,1.305564075876093,0.9756358098023324,0.2861650439563477,0.7022659296364456
0.0525,1.739920197209324,1.0,2893.641154170683,0.44602480814573997,1.305142329348407,0.9759400447757096,0.2861296482827916,0.7030872411984321
0.053,1.7390774430770366,1.0,2898.2743709143265,0.44913218467767585,1.3047208447744902,0.9762365115397331,0.28609425260923554,0.7039069093109727
0.0535,1.738234688944749,1.0,2902.8817074369485,0.4522221295802533,1.3042996209754913,0.976525476996212,0.28605885693567945,0.704724938374274
0.054,1.7373919348124618,1.0,2907.463227126237,0.45529473927589015,1.3038786567725589,0.9768071965579381,0.2860234612621234,0.7055413327745707
0.0545,1.7365491806801745,1.0,2912.0189942412926,0.458350110187004,1.3034579509868414,0.97708191474063,0.2859880655885673,0.7063560968841447
0.055,1.735706426547887,1.0,2916.5490739061956,0.46138833873601265,1.3030375024394873,0.9773498657195694,0.2859526699150112,0.7071692350613448
0.0555,1.7348636724155997,1.0,2921.053532103134,0.46440952134533375,1.3026173099516456,0.977611273853314,0.2859172742414552,0.7079807516506048
0.056,1.7340209182833124,1.0,2925.532435665591,0.467413754437385,1.3021973723444646,0.9778663541766944,0.28588187856789915,0.708790650982465
0.0565,1.7331781641510249,1.0,2929.985852271772,0.47040113443458414,1.301777688439093,0.9781153128651314,0.28584648289434306,0.7095989373735896
0.057,1.7323354100187376,1.0,2934.413850438057,0.47337175775934887,1.3013582570566793,0.978358347672169,0.28581108722078696,0.710405615126787
0.0575,1.7314926558864503,1.0,2938.816499512288,0.4763257208340969,1.3009390770183722,0.9785956483419674,0.2857756915472309,0.7112106885310276
0.058,1.7306499017541628,1.0,2943.193928764405,0.4792630745251737,1.3005201466280163,0.9788273930457404,0.28574029587367483,0.7120141628529196
0.0585,1.7298071476218755,1.0,2947.5467048400383,0.48218394298141365,1.300101460372436,0.9790537589593495,0.28570490020011874,0.712816050645189
0.059000000000000004,1.7289643934895882,1.0,2951.875205359046,0.4850884539984086,1.299683014410439,0.9792749165929896,0.2856695045265627,0.713616361204951
0.059500000000000004,1.7281216393573007,1.0,2956.1797487990716,0.48797669388058174,1.2992648054320415,0.9794910263377342,0.2856341088530066,0.7144151027733494
0.06,1.7272788852250134,1.0,2960.4606551192055,0.4908487489323563,1.2988468301272587,0.9797022423751317,0.28559871317945057,0.715212283555132
0.0605,1.726436131092726,1.0,2964.7182457420654,0.4937047054581556,1.2984290851861064,0.9799087129657368,0.2855633175058945,0.7160079117186977
0.061,1.7255933769604386,1.0,2968.9528435373163,0.4965446497624029,1.2980115672986006,0.9801105807220906,0.28552792183233844,0.7168019953961469
0.0615,1.7247506228281513,1.0,2973.1647728044427,0.49936866814952147,1.297594273154757,0.9803079828671029,0.28549252615878234,0.7175945426833288
0.062,1.723907868695864,1.0,2977.354359256514,0.5021768469239345,1.297177199444591,0.9805010514787174,0.28545713048522625,0.7183855616398908
0.0625,1.7230651145635765,1.0,2981.521930003919,0.5049692723900653,1.2967603428581187,0.9806899137216926,0.2854217348116702,0.7191750602893234
0.063,1.7222223604312892,1.0,2985.667813537936,0.5077460308523372,1.2963437000853557,0.9808746920672625,0.2853863391381142,0.7199630466190075
0.0635,1.7213796062990019,1.0,2989.7923397151944,0.5105072086151733,1.2959272678163174,0.9810555045013999,0.2853509434645581,0.7207495285802601
0.064,1.7205368521667146,1.0,2993.8958397422048,0.513252891982997,1.29551104274102,0.9812324647223524,0.285315547791002,0.7215345140883773
0.0645,1.719694098034427,1.0,2997.9786461598633,0.5159831672602314,1.295095021549479,0.9814056823280788,0.28528015211744595,0.7223180110226803
0.065,1.7188513439021398,1.0,3002.0410928282636,0.5186981207513001,1.29467920093171,0.9815752629941731,0.28524475644388986,0.7231000272265589
0.0655,1.7180085897698523,1.0,3006.0835149121995,0.521397838760626,1.294263577577729,0.9817413086428202,0.28520936077033376,0.7238805705075125
0.066,1.717165835637565,1.0,3010.1062488662237,0.5240824075926325,1.2938481481775514,0.9819039176033044,0.2851739650967777,0.7246596486371932
0.0665,1.7163230815052777,1.0,3014.109632420498,0.5267519135517428,1.2934329094211932,0.9820631847645422,0.2851385694232217,0.7254372693514473
0.067,1.7154803273729904,1.0,3018.094004566406,0.5294064429423803,1.29301785799867,0.9822192017200949,0.2851031737496656,0.7262134403503548
0.0675,1.7146375732407029,1.0,3022.059705543201,0.5320460820689681,1.2926029905999976,0.9823720569060804,0.2850677780761095,0.7269881692982708
0.068,1.7137948191084156,1.0,3026.0070768239284,0.5346709172359296,1.2921883039151916,0.9825218357323801,0.28503238240255346,0.7277614638238636
0.0685,1.712952064976128,1.0,3029.9364611021524,0.5372810347476881,1.2917737946342676,0.9826686207075102,0.28499698672899737,0.7285333315201539
0.069,1.7121093108438408,1.0,3033.847873959073,0.539876493450583,1.2913594622779,0.9828124899751202,0.2849615910554413,0.7293037746847351
0.0695,1.7112665567115535,1.0,3037.7415772354693,0.5424573695544272,1.2909453042479944,0.9829535200656632,0.28492619538188524,0.7300727995409503
0.07,1.7104238025792662,1.0,3041.618452539894,0.5450237932601316,1.2905313126182778,0.983091788016678,0.2848907997083292,0.7308404221565705
0.07050000000000001,1.7095810484469787,1.0,3045.4787171274015,0.5475758407371799,1.2901174852011899,0.9832273652901596,0.2848554040347731,0.7316066478971218
0.07100000000000001,1.7087382943146914,1.0,3049.322589078706,0.5501135881550554,1.2897038198091706,0.9833603210168705,0.284820008361217,0.7323714821045142
