Time [s],Phi [rad],STIM [ ],Fsee [N],Gamma [ ],Lcerel [ ],q [ ],Lmtc [m],fisomrel [ ]
0.0,1.8,1.0,18.43614711524052,0.0006985126896685173,1.3792875422431636,0.005125721458626463,0.288653,0.5412658172804221
0.0005,1.79999375,1.0,18.95647744970523,0.006303803894715966,1.3792275719226297,0.014961971009469052,0.2886527375,0.5414108695588863
0.001,1.799975,1.0,22.809452667366916,0.011877653847887784,1.3788182826938449,0.03928617686779479,0.28865195,0.5424002190589485
0.0015,1.79994375,1.0,33.40082390832418,0.017420238910552256,1.3778511536316875,0.07557672249343284,0.2886506375,0.5447337554183765
0.002,1.7999,1.0,58.165131231410456,0.022931734453184933,1.3760769256807963,0.12057181139240121,0.2886488,0.5489991899568905
0.0025,1.79984375,1.0,104.45665291850142,0.028412314863001838,1.3735880180091047,0.17091906034187734,0.28864643749999996,0.5549489566327452
0.003,1.7997750000000001,1.0,170.27010941414213,0.03386215355115682,1.3708706893770468,0.22380966811882205,0.28864354999999997,0.5613996548501086
0.0035,1.79969375,1.0,248.07393372673369,0.03928142295363155,1.3682680996956709,0.2770958702701278,0.2886401375,0.5675338225336078
0.004,1.7996,1.0,332.4478199792723,0.044670294539389456,1.3658676885901442,0.3291851997714147,0.2886362,0.5731531710641112
0.0045000000000000005,1.7994937500000001,1.0,420.5826734118351,0.050028938791967084,1.3636590206318575,0.3789804220535238,0.2886317375,0.5782911884983362
0.005,1.799375,1.0,510.929622387475,0.05535752535316118,1.3616150205033966,0.4258065104345159,0.28862675,0.5830184213849747
0.0055,1.79924375,1.0,602.3732319139516,0.06065622268498981,1.3597136333732387,0.46931817891087896,0.2886212375,0.5873919067774975
0.006,1.7991000000000001,1.0,694.092214167041,0.06592519856999424,1.3579369127576542,0.5094061706654683,0.2886152,0.5914578012931107
0.006500000000000001,1.79894375,1.0,785.3638528764199,0.07116461961415758,1.3562719599448156,0.5461212422203693,0.2886086375,0.5952496510110961
0.007,1.798775,1.0,875.6211256440799,0.07637465169320395,1.3547078897967264,0.5796135381200783,0.28860155,0.5987956406758719
0.0075,1.79859375,1.0,964.3802965938148,0.08155545961866248,1.3532359768105466,0.6100901479429034,0.2885939375,0.6021184460672799
0.008,1.7984,1.0,1051.245924100883,0.08670720710938441,1.351848767490297,0.6377851415124575,0.2885858,0.6052373878047159
0.0085,1.79819375,1.0,1135.9384481602028,0.09183005770339228,1.3505391949157277,0.6629396178306581,0.2885771375,0.6081705128438567
0.009000000000000001,1.797975,1.0,1218.2094623924575,0.09692417309719917,1.3493014702581372,0.6857900202052803,0.28856795,0.6109326622305604
0.0095,1.79774375,1.0,1297.878173804082,0.10198971432510728,1.348130237899246,0.7065604336800341,0.2885582375,0.6135374281256838
0.01,1.7975,1.0,1374.8338775895522,0.10702684181586253,1.3470203595747536,0.7254586758297786,0.288548,0.6159976723233695
0.0105,1.79724375,1.0,1449.005458869817,0.11203571543240953,1.3459671637550232,0.7426748511464026,0.2885372375,0.6183250051125795
0.011,1.796975,1.0,1520.3262787698668,0.11701649297189932,1.344966728435264,0.7583812739914214,0.28852595000000003,0.6205291972980576
0.0115,1.79669375,1.0,1588.7793724728544,0.12196933197739618,1.3440151869105617,0.7727327573947771,0.2885141375,0.6226197422668729
0.012,1.7964,1.0,1654.385581712434,0.1268943895894717,1.3431088034882592,0.7858677771695306,0.28850180000000003,0.6246057046200737
0.0125,1.79609375,1.0,1717.1767746801074,0.13179182221886454,1.3422442166040547,0.7979099198429775,0.2884889375,0.6264952047228218
0.013000000000000001,1.7957750000000001,1.0,1777.174760538715,0.13666178381612334,1.341418598797078,0.8089693401275387,0.28847555,0.6282950905466835
0.0135,1.79544375,1.0,1834.4322580025716,0.14150442833179663,1.3406291226064595,0.8191439267175709,0.2884616375,0.6300121200011275
0.014,1.7951000000000001,1.0,1889.0185319118743,0.1463199089712941,1.3398730879185026,0.828520685478215,0.2884472,0.6316526916732839
0.0145,1.79474375,1.0,1941.0187136248917,0.15110837942273167,1.3391478934208676,0.8371769572337283,0.2884322375,0.6332229157786602
0.015,1.794375,1.0,1990.501182407939,0.15586999092104897,1.338451353563744,0.8451816353966666,0.28841675,0.6347279377259873
0.0155,1.79399375,1.0,2037.5310794055047,0.1606048931190262,1.3377815108744615,0.852596086034941,0.2884007375,0.6361723562224683
0.016,1.7936,1.0,2082.1894320773536,0.1653132356694435,1.33713640788035,0.8594749627966529,0.2883842,0.63756072219877
0.0165,1.7931937500000001,1.0,2124.567296126545,0.16999516778839932,1.3365141334389192,0.8658670163295568,0.2883671375,0.6388974425888179
0.017,1.792775,1.0,2164.755599215962,0.17465083816561636,1.3359129112120156,0.8718158188306486,0.28834955,0.6401865946462645
0.0175,1.7923437500000001,1.0,2202.8456015742854,0.1792803951711469,1.335331077351054,0.8773603672959193,0.2883314375,0.6414319788347622
0.018000000000000002,1.7919,1.0,2238.905439514558,0.1838839838950364,1.334767301155639,0.8825356757619375,0.2883128,0.6426366520311536
0.0185,1.79144375,1.0,2273.0114184150652,0.18846174942733027,1.3342202519253739,0.8873731513509661,0.2882936375,0.6438036454175371
0.019,1.790975,1.0,2305.2473330298076,0.193013836858074,1.3336885989598635,0.89190101159639,0.28827395,0.6449359659572813
0.0195,1.79049375,1.0,2335.693095571872,0.19754038990798428,1.3331711170068536,0.8961446743985528,0.2882537375,0.6460363737002726
0.02,1.79,1.0,2364.4402475254756,0.20204155385733535,1.3326665256847343,0.9001270389986076,0.288233,0.6471077254108674
0.0205,1.78949375,1.0,2391.561496812952,0.20651747092983197,1.3321737817970662,0.9038688316595105,0.2882117375,0.6481523555058515
0.021,1.788975,1.0,2417.1195680297537,0.21096828137942816,1.33169198264371,0.9073888235836421,0.28818995000000003,0.6491722852356022
0.021500000000000002,1.78844375,1.0,2441.181066236308,0.21539412546007797,1.331220225524526,0.9107040151230718,0.2881676375,0.6501695223325323
0.022,1.7879,1.0,2463.816153957766,0.21979514342573536,1.3307576077393743,0.9138298272645086,0.2881448,0.6511460616151983
0.0225,1.78734375,1.0,2485.093243899984,0.22417147455372183,1.3303032742410794,0.9167802791089767,0.28812143749999997,0.6521037851582343
0.023,1.786775,1.0,2505.0802495088433,0.2285232581406146,1.3298564020954529,0.9195681328342138,0.28809755,0.6530444961627644
0.0235,1.78619375,1.0,2523.84725573412,0.2328506337987025,1.3294161722175881,0.9222050189352208,0.28807313749999996,0.6539699792140061
0.024,1.7856,1.0,2541.4442252423023,0.2371537366273885,1.3289819771282751,0.9247015874764879,0.2880482,0.6548815648111321
0.0245,1.78499375,1.0,2557.9229549728716,0.24143270172607567,1.328553209348304,0.9270675709013052,0.2880227375,0.6557805759787296
0.025,1.784375,1.0,2573.336922915194,0.2456876641941671,1.3281292613984637,0.929311875675996,0.28799675,0.6566683284888352
0.025500000000000002,1.78374375,1.0,2587.7411430675056,0.24991875913106576,1.3277095257995446,0.9314426636668257,0.2879702375,0.6575461310594313
0.026000000000000002,1.7831000000000001,1.0,2601.185069063441,0.2541261199269465,1.3272934598731394,0.9334674342716422,0.2879432,0.6584151502687172
0.0265,1.78244375,1.0,2613.720594255512,0.2583098812751076,1.3268805094572096,0.9353930768948875,0.2879156375,0.659276570589908
0.027,1.781775,1.0,2625.4020730595225,0.2624701777615579,1.3264701078276429,0.937225927847528,0.28788755,0.6601315966039772
0.0275,1.7810937500000001,1.0,2636.266250406476,0.2666071389625485,1.326061860495235,0.9389718478456118,0.2878589375,0.6609810686555674
0.028,1.7804,1.0,2646.3506417410176,0.2707208944543306,1.3256553729707818,0.9406362418421492,0.2878298,0.6618258228802965
0.0285,1.77969375,1.0,2655.6934665295644,0.2748115738131554,1.325250250765079,0.9422241004443591,0.2878001375,0.6626666912539965
0.029,1.778975,1.0,2664.3335852185746,0.27887930661527416,1.3248460993889217,0.943740037068,0.28776995,0.6635045016320242
0.029500000000000002,1.7782437500000001,1.0,2672.310439642773,0.282924222436938,1.3244425243531062,0.9451883213139503,0.2877392375,0.6643400777786483
0.03,1.7775,1.0,2679.6574240851573,0.28694644820075227,1.3240391914657232,0.9465729161082016,0.287708,0.6651741147775522
0.0305,1.77674375,1.0,2686.4144891974393,0.2909461143589429,1.3236357104899017,0.9478974909093666,0.2876762375,0.6660074199480119
0.031,1.775975,1.0,2692.6134314333945,0.29492334763466604,1.323231769704877,0.949165461552215,0.28764395,0.6668406347367772
0.0315,1.7751937500000001,1.0,2698.2802147818666,0.2988782720697368,1.3228271138476695,0.9503800089659422,0.2876111375,0.6676742811377037
0.032,1.7744,1.0,2703.4410879668285,0.3028110117059703,1.3224214876552993,0.951544092478965,0.2875778,0.6685088785017337
0.0325,1.77359375,1.0,2708.1225572676262,0.3067216905851819,1.3220146358647868,0.9526604679680997,0.2875439375,0.6693449435231784
0.033,1.772775,1.0,2712.3513607837995,0.3106104327491866,1.3216063032131522,0.9537317043126056,0.28750955,0.6701829902218432
0.0335,1.7719437500000002,1.0,2716.154444144582,0.31447736223979966,1.3211962344374157,0.9547601983295199,0.2874746375,0.671023529920997
0.034,1.7711000000000001,1.0,2719.549590193227,0.3183225952345964,1.3207842593947892,0.9557481957870496,0.2874392,0.6718668970807928
0.0345,1.7702437500000001,1.0,2722.5729031269702,0.3221462647978663,1.3203700424935274,0.9566977820030339,0.2874032375,0.6727137623491564
0.035,1.7693750000000001,1.0,2725.243865047676,0.32594849094543965,1.3199534008424711,0.9576109210015663,0.28736675,0.6735644811522226
0.035500000000000004,1.76849375,1.0,2727.579305637811,0.3297293913733022,1.319534176678532,0.9584894537828826,0.2873297375,0.6744193556580762
0.036000000000000004,1.7676,1.0,2729.5961488849316,0.3334890837774397,1.3191122122386214,0.9593351055028858,0.2872922,0.6752786862250416
0.0365,1.76669375,1.0,2731.311402645192,0.3372276858538378,1.318687349759651,0.9601494940776664,0.2872541375,0.676142771374904
0.037,1.765775,1.0,2732.742148758089,0.3409453152984824,1.3182594314785325,0.960934138055857,0.28721555,0.6770119077645449
0.0375,1.76484375,1.0,2733.9055337137947,0.3446420898073591,1.3178282996321773,0.9616904638285763,0.2871764375,0.6778863901559915
0.038,1.7639,1.0,2734.8187598715326,0.34831812707645377,1.3173937964574973,0.962419812239416,0.28713679999999997,0.6787665113848749
0.0385,1.76294375,1.0,2735.4990772304077,0.3519735448017521,1.316955764191404,0.9631234446504278,0.28709663750000003,0.6796525623273058
0.039,1.761975,1.0,2735.9588422417073,0.35560845420577053,1.316514089861564,0.9638025513941284,0.28705595,0.6805447414512303
0.0395,1.7609937500000001,1.0,2736.212609227796,0.359222974294918,1.3160686408319706,0.9644582535621172,0.2870147375,0.6814432853400216
0.04,1.76,1.0,2736.2775735642567,0.36281722716757786,1.3156192607363886,0.9650916064497216,0.286973,0.682348476569565
0.0405,1.7589937500000001,1.0,2736.1631513177263,0.3663913233095756,1.3151658640294888,0.9657036096815237,0.2869307375,0.6832604532861792
0.041,1.757975,1.0,2735.8787760414593,0.36994537320673665,1.3147083651659424,0.9662952068998127,0.28688795,0.6841793523424103
0.0415,1.75694375,1.0,2735.433895767704,0.3734794873448866,1.3142466786004203,0.9668672894785745,0.2868446375,0.6851053092748856
0.042,1.7559,1.0,2734.837970162288,0.3769937762098509,1.3137807187875936,0.9674206999540814,0.28680079999999997,0.6860384582816998
0.0425,1.75484375,1.0,2734.1004678416257,0.3804883502874551,1.3133104001821334,0.967956235196403,0.2867564375,0.6869789321993349
0.043000000000000003,1.753775,1.0,2733.2308638512513,0.38396332006352457,1.3128356372387109,0.9684746493438393,0.28671155,0.6879268624791126
0.043500000000000004,1.75269375,1.0,2732.23863730775,0.38741879602388496,1.3123563444119968,0.968976656520222,0.28666613750000003,0.6888823791631826
0.044,1.7516,1.0,2731.133269201732,0.3908548886543616,1.3118724361566625,0.9694629333531604,0.2866202,0.6898456108600398
0.0445,1.75049375,1.0,2729.9242403642666,0.39427170844078013,1.3113838269273788,0.9699341213096577,0.2865737375,0.6908166847195798
0.045,1.7493750000000001,1.0,2728.6137379632537,0.3976693496840282,1.3108904974677078,0.9703908316056361,0.28652675,0.6917955949753865
0.0455,1.74824375,1.0,2727.214139412918,0.4010479357854404,1.310392335890796,0.9708336415099303,0.2864792375,0.6927825185594874
0.046,1.7471,1.0,2725.7349810397536,0.40440758179025577,1.309889256081088,0.9712630999005576,0.2864312,0.6937775796094066
0.0465,1.7459437500000001,1.0,2724.1806047875993,0.4077483901087891,1.3093812191252303,0.971679730005108,0.28638263750000004,0.6947808075656449
0.047,1.744775,1.0,2722.5553509911265,0.4110704631513553,1.308868186109869,0.9720840292242154,0.28633355,0.6957922308966815
0.0475,1.74359375,1.0,2720.8635577989917,0.4143739033282692,1.3083501181216506,0.9724764706461202,0.28628393750000003,0.6968118770866203
0.048,1.7424,1.0,2719.1095606300764,0.4176588130498457,1.3078269762472214,0.9728575044587302,0.2862338,0.6978397726227441
0.0485,1.74119375,1.0,2717.297691664772,0.42092529472639967,1.307298721573228,0.9732275592670043,0.2861831375,0.6988759429829712
0.049,1.739975,1.0,2715.4322793678757,0.424173450768246,1.3067653151863161,0.97358704332282,0.28613195,0.6999204126232148
0.0495,1.73874375,1.0,2713.5176480466575,0.4274033835856995,1.3062267181731326,0.9739363456738918,0.2860802375,0.7009732049646454
0.05,1.7375,1.0,2711.558117441855,0.4306151955890751,1.3056828916203238,0.9742758372377517,0.286028,0.702034342380859
0.0505,1.73624375,1.0,2709.5580023522007,0.4338089891886876,1.3051337966145358,0.9746058718063119,0.2859752375,0.7031038461849461
0.051000000000000004,1.734975,1.0,2707.5216122926886,0.436984866794852,1.3045793942424149,0.9749267869860785,0.28592195,0.7041817366164655
0.051500000000000004,1.73369375,1.0,2705.4532511862535,0.440142930817883,1.3040196455906077,0.9752389050786745,0.2858681375,0.7052680328283205
0.052000000000000005,1.7324,1.0,2703.357217089149,0.44328328366809555,1.3034545117457603,0.9755425339059483,0.2858138,0.7063627528735402
0.0525,1.73109375,1.0,2701.2369911800574,0.4464059984905821,1.3028839612025653,0.975837964972234,0.28575893750000003,0.7074658993821521
0.053,1.729775,1.0,2699.0972176516484,0.44951121197134686,1.3023079517790006,0.9761254829030113,0.28570355000000003,0.708577494550974
0.0535,1.72844375,1.0,2696.939547180646,0.45259901877363634,1.3017264686022982,0.9764053571908354,0.2856476375,0.7096975068392422
0.054,1.7271,1.0,2694.7655967013698,0.45566951281415824,1.3011394970864594,0.9766778456065262,0.2855912,0.7108259033626094
0.0545,1.7257437500000001,1.0,2692.5769807502115,0.45872278800962024,1.300547022645486,0.9769431948614817,0.2855342375,0.7119626504430284
0.055,1.724375,1.0,2690.3753114172832,0.4617589382767301,1.2999490306933794,0.9772016411724568,0.28547675,0.7131077136036421
0.0555,1.72299375,1.0,2688.162198302968,0.46477805753219553,1.2993455066441415,0.9774534107929453,0.2854187375,0.7142610575636551
0.056,1.7216,1.0,2685.9392484787404,0.46778023969272425,1.2987364359117732,0.9776987205134047,0.2853602,0.7154226462331984
0.0565,1.72019375,1.0,2683.708066453089,0.47076557867502394,1.2981218039102769,0.9779377781323885,0.28530113749999997,0.716592442708171
0.057,1.718775,1.0,2681.470254142288,0.47373416839580235,1.2975015960536533,0.9781707829005019,0.28524155,0.7177704092650794
0.0575,1.71734375,1.0,2679.227410845041,0.47668610277176715,1.2968757977559047,0.9783979259389566,0.2851814375,0.718956507355852
0.058,1.7159,1.0,2676.981133222816,0.4796214757196261,1.2962443944310322,0.9786193906343669,0.2851208,0.7201506976026499
0.0585,1.71444375,1.0,2674.7330152846375,0.4825403811560869,1.2956073714930374,0.9788353530113193,0.2850596375,0.7213529397926575
0.059000000000000004,1.7129750000000001,1.0,2672.4846483760125,0.4854429129978572,1.2949647143559222,0.9790459820841269,0.28499795,0.7225631928728611
0.059500000000000004,1.71149375,1.0,2670.237621173479,0.48832916516164476,1.2943164084336878,0.9792514401890922,0.2849357375,0.7237814149448172
0.06,1.71,1.0,2667.993346132374,0.491199225826516,1.2936624407359267,0.9794518829166913,0.284873,0.7250075602711044
0.0605,1.7084937500000001,1.0,2665.752174858629,0.494053135339428,1.293002808007719,0.9796474564931789,0.2848097375,0.7262415640930862
0.061,1.7069750000000001,1.0,2663.5176474024115,0.4968910631629417,1.292337477650147,0.9798383102545194,0.28474595,0.7274834156924419
0.0615,1.7054437500000001,1.0,2661.2900968199447,0.4997130935925219,1.2916664465312646,0.980024582597053,0.2846816375,0.7287330483667889
0.062,1.7039,1.0,2659.069855618084,0.5025193109236336,1.290989711519125,0.9802064066739294,0.2846168,0.729990394738573
0.0625,1.70234375,1.0,2656.8572557577013,0.5053097994517417,1.2903072694817812,0.9803839106314002,0.2845514375,0.7312553867539301
0.063,1.7007750000000001,1.0,2654.652628658328,0.5080846434723112,1.2896191172872868,0.980557217832747,0.28448555,0.7325279556815458
0.0635,1.69919375,1.0,2652.456305202525,0.510843927280807,1.2889252518036953,0.9807264470705805,0.28441913750000003,0.7338080321115155
0.064,1.6976,1.0,2650.2686157401836,0.513587735172694,1.2882256698990602,0.9808917127681942,0.2843522,0.7350955459542028
0.0645,1.69599375,1.0,2648.089890093848,0.5163161514434372,1.2875203684414342,0.9810531251706127,0.2842847375,0.7363904264391005
0.065,1.694375,1.0,2645.9204575633194,0.5190292603885016,1.2868093442988713,0.9812107905259358,0.28421675,0.7376926021136847
0.0655,1.69274375,1.0,2643.760646931192,0.521727146303352,1.2860925943394246,0.9813648112575305,0.2841482375,0.7390020008422751
0.066,1.6911,1.0,2641.6107864682767,0.5244098934834536,1.2853701154311472,0.9815152861276047,0.2840792,0.7403185498048908
0.0665,1.6894437500000001,1.0,2639.471203939411,0.5270775862242709,1.284641904442093,0.9816623103926421,0.2840096375,0.7416421754961047
0.067,1.687775,1.0,2637.3422266090283,0.5297303088212693,1.2839079582403148,0.9818059759511661,0.28393955,0.7429728037239021
0.0675,1.68609375,1.0,2635.2241812478824,0.5323681455699134,1.2831682736938663,0.981946371484255,0.2838689375,0.744310359608532
0.068,1.6844000000000001,1.0,2633.117394138865,0.5349911807656684,1.2824228476708008,0.9820835825892186,0.2837978,0.7456547675813636
0.0685,1.68269375,1.0,2631.0221910838395,0.5375994987039991,1.2816716770391716,0.9822176919068093,0.2837261375,0.7470059513837392
0.069,1.680975,1.0,2628.938897410536,0.5401931836803705,1.2809147586670322,0.9823487792423256,0.28365395,0.7483638340658261
0.0695,1.67924375,1.0,2626.8678379792423,0.5427723199902474,1.2801520894224356,0.9824769216809377,0.28358123749999997,0.7497283379854708
0.07,1.6775,1.0,2624.8093371904247,0.545336991929095,1.2793836661734355,0.9826021936975521,0.283508,0.7510993848070484
0.07050000000000001,1.67574375,1.0,2622.7637189918523,0.547887283792378,1.2786094857880852,0.9827246672615055,0.2834342375,0.7524768955003149
0.07100000000000001,1.673975,1.0,2620.7280040141163,0.5504232776057048,1.2778295757729765,0.982844413203245,0.28335995,0.7538607360516834
0.07150000000000001,1.67219375,1.0,2618.704666106519,0.5529450476911394,1.277043913072548,0.9829614972442946,0.2832851375,0.7552508617010539
0.07200000000000001,1.6704,1.0,2616.695040342259,0.5554526726694413,1.276252485168032,0.9830759836700586,0.2832098,0.7566472080308875
0.0725,1.66859375,1.0,2614.697695220763,0.5579462316293962,1.2754553052154922,0.9831879358408715,0.2831339375,0.758049664632143
0.073,1.6667750000000001,1.0,2612.71179167107,0.5604258035738383,1.274652380887865,0.9832974148104028,0.28305755,0.7594581303336325
0.0735,1.66494375,1.0,2610.739685598407,0.562891467187255,1.273843690176076,0.9834044783217005,0.2829806375,0.7608725553276446
0.074,1.6631,1.0,2608.7784988519857,0.5653433006560503,1.2730292597025041,0.983509184376819,0.2829032,0.7622928040379546
0.0745,1.6612437500000001,1.0,2606.8284953216694,0.5677813811154628,1.2722090869060048,0.9836115877923599,0.2828252375,0.7637187914725738
0.075,1.659375,1.0,2604.889938547238,0.5702057857007313,1.271383169225434,0.9837117416437534,0.28274675,0.7651504319552278
0.0755,1.65749375,1.0,2602.9566447088314,0.5726165912064696,1.2705515641080856,0.9838096999237899,0.2826677375,0.7665875355824887
