Time [s],Phi [rad],STIM [ ],Fsee [N],Gamma [ ],Lcerel [ ],q [ ],Lmtc [m],fisomrel [ ]
0.0,1.8,1.0,17.967078291997744,1.1921071393467134e-05,1.3793397551684676,0.0050000378228684545,0.288653,0.5411395094028286
0.0005,1.79999375,1.0,18.27706476002796,0.0056210635124057055,1.3793023521756902,0.012945848827215028,0.2886527375,0.541229992455321
0.001,1.799975,1.0,21.620120007013796,0.011198743099236458,1.3789381245602685,0.03561859003521435,0.28865195,0.5421106433505944
0.0015,1.79994375,1.0,31.073922168482405,0.016745136314484075,1.3780458044989292,0.07061541305565254,0.2886506375,0.5442645717498642
0.002,1.7999,1.0,53.59287226892676,0.022260418649092336,1.3763674515444744,0.1147340718000412,0.2886488,0.5483021091132582
0.0025,1.79984375,1.0,97.13678532865647,0.02774476460992782,1.3739343072618633,0.16459233679313276,0.28864643749999996,0.5541235135605562
0.003,1.7997750000000001,1.0,160.98166030176395,0.033198347727479406,1.3712134644050091,0.21729844956815308,0.28864354999999997,0.5605885326671909
0.0035,1.79969375,1.0,237.71002481680458,0.03862134055546323,1.3685839120327923,0.27063078665443224,0.2886401375,0.5667917722914632
0.004,1.7996,1.0,321.49528315059524,0.044013914681601575,1.3661553372439195,0.3229331317667989,0.2886362,0.5724817251523968
0.0045000000000000005,1.7994937500000001,1.0,409.29737636425637,0.049376240732808226,1.3639221187539954,0.3730509585076061,0.2886317375,0.5776807764081725
0.005,1.799375,1.0,499.44380191389286,0.05470848836628301,1.3618576985319883,0.4202628522663703,0.28862675,0.5824585650928975
0.0055,1.79924375,1.0,590.8210486540186,0.06001082631689913,1.359938236580212,0.46418794893138443,0.2886212375,0.5868764854831867
0.006,1.7991000000000001,1.0,682.5488306556766,0.06528342234055833,1.3581458563035413,0.5046930590281672,0.2886152,0.5909806939177396
0.006500000000000001,1.79894375,1.0,773.8975523236057,0.07052644306973772,1.3564669754615732,0.5418128905613661,0.2886086375,0.5948064266749942
0.007,1.798775,1.0,864.3249230282362,0.07574005507287171,1.3548897632222225,0.5756876062827433,0.28860155,0.5983841070155448
0.0075,1.79859375,1.0,953.2870111954513,0.08092442262079226,1.3534061055744508,0.6065197121637405,0.2885939375,0.6017350910162631
0.008,1.7984,1.0,1040.3891156392906,0.08607970976766965,1.3520081949257694,0.6345410679327085,0.2885858,0.6048795621973901
0.0085,1.79819375,1.0,1125.3487050819338,0.0912060799694495,1.3506887534266323,0.6599925854615922,0.2885771375,0.6078360912629933
0.009000000000000001,1.797975,1.0,1207.9146173524146,0.0963036952846344,1.3494418377898512,0.6831117463849721,0.28856795,0.6106199043432761
0.0095,1.79774375,1.0,1287.9009776989108,0.1013727169100613,1.3482620077268859,0.7041243847251949,0.2885582375,0.613244814968235
0.01,1.7975,1.0,1365.1888263236335,0.1064133055252273,1.3471441053863105,0.72324042843855,0.288548,0.6157237566822009
0.0105,1.79724375,1.0,1439.6859893534186,0.1114256204161603,1.3460836148442794,0.7406522802424302,0.2885372375,0.618068021480601
0.011,1.796975,1.0,1511.3367989478904,0.11640982001347158,1.3450763754842956,0.7565343235484481,0.28852595000000003,0.6202879307481551
0.0115,1.79669375,1.0,1580.1354931611872,0.12136606225081098,1.3441183100648122,0.7710433584537553,0.2885141375,0.6223934587950821
0.012,1.7964,1.0,1646.0786470499038,0.12629450400064118,1.3432059117095456,0.7843199011174857,0.28850180000000003,0.6243931829324605
0.0125,1.79609375,1.0,1709.1857070796675,0.13119530094258108,1.3423359000277924,0.7964893268348019,0.2884889375,0.6262950623474534
0.013000000000000001,1.7957750000000001,1.0,1769.5083717815285,0.136068608273011,1.341505052235969,0.8076632123368971,0.28847555,0.628106821738865
0.0135,1.79544375,1.0,1827.0947124159698,0.1409145804450507,1.340710559704155,0.8179408849056177,0.2884616375,0.6298351865627595
0.014,1.7951000000000001,1.0,1881.9995511638997,0.14573337031686445,1.3399498500998719,0.8274106679891292,0.2884472,0.6314862864064881
0.0145,1.79474375,1.0,1934.2841629846407,0.15052512950366398,1.3392205472214282,0.836151099236332,0.2884322375,0.633065753644116
0.015,1.794375,1.0,1984.0552964634362,0.155290012050293,1.3385200194135145,0.8442319050102152,0.28841675,0.6345797080876077
0.0155,1.79399375,1.0,2031.3840037535804,0.16002816827308738,1.3378462298664775,0.8517153091958354,0.2884007375,0.6360329239955589
0.016,1.7936,1.0,2076.333721241952,0.16473974679616643,1.3371973914081532,0.858656799271528,0.2883842,0.6374295893735228
0.0165,1.7931937500000001,1.0,2118.981826966289,0.16942489624364948,1.3365717168663775,0.8651058458655821,0.2883671375,0.6387738501454687
0.017,1.792775,1.0,2159.418463667744,0.17408376523965594,1.3359674190689865,0.8711066160821382,0.28834955,0.6400698128958036
0.0175,1.7923437500000001,1.0,2197.7405656509327,0.17871650213386234,1.3353827601454111,0.8766986140390849,0.2883314375,0.6413214419555027
0.018000000000000002,1.7919,1.0,2234.02715787156,0.18332325318134854,1.334816287285992,0.881917290614634,0.2883128,0.6425320592092603
0.0185,1.79144375,1.0,2268.3566630966025,0.18790416391820788,1.3342666399563108,0.8867944631667313,0.2882936375,0.6437047621566266
0.019,1.790975,1.0,2300.8129600044986,0.19245937957442016,1.333732479285384,0.8913587175512264,0.28827395,0.6448425773916797
0.0195,1.79049375,1.0,2331.472513615442,0.1969890439000853,1.3332126074575477,0.895635806765986,0.2882537375,0.6459482086458619
0.02,1.79,1.0,2360.397728053445,0.20149329760863008,1.3327060224088096,0.8996489824739682,0.288233,0.6470239242758568
0.0205,1.78949375,1.0,2387.6966365574317,0.20597228828814476,1.3322113271302676,0.9034191469536588,0.2882117375,0.6480728129028901
0.021,1.788975,1.0,2413.4424714546262,0.2104261578636292,1.3317275137403266,0.906965281339307,0.28818995000000003,0.6490971193484102
0.021500000000000002,1.78844375,1.0,2437.692110057186,0.21485504516446344,1.3312537713245693,0.9103046132830254,0.2881676375,0.6500986574720979
0.022,1.7879,1.0,2460.50581211653,0.21925908902002755,1.3307892889685777,0.9134527664297263,0.2881448,0.651079229284639
0.0225,1.78734375,1.0,2481.9469445497166,0.2236384282597016,1.3303332557579342,0.916423931925818,0.28812143749999997,0.652040625447587
0.023,1.786775,1.0,2502.0817207450013,0.22799320171286566,1.3298848607782208,0.9192310195964963,0.28809755,0.6529846257312943
0.0235,1.78619375,1.0,2520.9789544476744,0.2323235482088998,1.32944329311502,0.9218857913831303,0.28807313749999996,0.6539129994309025
0.024,1.7856,1.0,2538.70007423471,0.2366296041965654,1.3290078337852516,0.9243989947848202,0.2880482,0.6548273128441846
0.0245,1.78499375,1.0,2555.307804883238,0.24091150854324114,1.3285777706462119,0.9267804526597577,0.2880227375,0.6557291091746347
0.025,1.784375,1.0,2570.853219694318,0.2451693962421613,1.328152517857054,0.9290391728315047,0.28799675,0.656619658877793
0.025500000000000002,1.78374375,1.0,2585.3828935135366,0.24940340044980808,1.3277315457177952,0.9311834171051274,0.2879702375,0.657500108231584
0.026000000000000002,1.7831000000000001,1.0,2598.944718812962,0.25361365432266375,1.3273143245284527,0.9332207653305227,0.2879432,0.6583715974441415
0.0265,1.78244375,1.0,2611.587792229974,0.2578002910172105,1.3269003245890436,0.9351581809025906,0.2879156375,0.6592352607894705
0.027,1.781775,1.0,2623.3623073279814,0.26196344368993063,1.326489016199585,0.9370020691712544,0.28788755,0.6600922267252141
0.0275,1.7810937500000001,1.0,2634.3084421581552,0.2661032418417849,1.3260799715419627,0.9387583434678306,0.2878589375,0.6609434061198751
0.028,1.7804,1.0,2644.4783777971206,0.27021982132133754,1.3256726594915769,0.9404324439505055,0.2878298,0.6617899198331743
0.0285,1.77969375,1.0,2653.9131427076723,0.27431331304499756,1.3252666593153675,0.9420294071938538,0.2878001375,0.6626326541384588
0.029,1.778975,1.0,2662.645065116412,0.2783838443317235,1.3248616364237265,0.9435538992214715,0.28776995,0.6634723124365389
0.029500000000000002,1.7782437500000001,1.0,2670.7070136869506,0.28243154250047386,1.324457256227045,0.9450102376138936,0.2877392375,0.6643095946480158
0.03,1.7775,1.0,2678.132349633067,0.2864565348702074,1.3240531841357146,0.94640242199028,0.287708,0.6651451972305633
0.0305,1.77674375,1.0,2684.9548813144925,0.2904589487598827,1.3236490855601266,0.9477341614614163,0.2876762375,0.6659798131890748
0.031,1.775975,1.0,2691.2088213144475,0.29443891148845835,1.323244625910673,0.9490088993878765,0.28764395,0.6668141320786642
0.0315,1.7751937500000001,1.0,2696.9287272701486,0.29839655037250207,1.322839470769009,0.9502298357577497,0.2876111375,0.6676488396479152
0.032,1.7744,1.0,2702.1155162048194,0.30233198698436553,1.3224335960177718,0.9513999835342408,0.2875778,0.6684839800990062
0.0325,1.77359375,1.0,2706.8647658673935,0.306245353339318,1.3220261150821042,0.9525220477581622,0.2875439375,0.6693213686387991
0.033,1.772775,1.0,2711.183611377783,0.3101367707446791,1.3216169522617993,0.9535986425848331,0.28750955,0.6701611480160443
0.0335,1.7719437500000002,1.0,2715.0793201320685,0.3140063605077685,1.3212060318566499,0.9546322064798115,0.2874746375,0.6710034601368139
0.034,1.7711000000000001,1.0,2718.5592852134573,0.31785424393590594,1.320793278166449,0.9556250161192765,0.2874392,0.6718484460561965
0.0345,1.7702437687177113,1.0,2721.631947569162,0.32168054233641113,1.3203786154909898,0.9565791990349517,0.2874032382861439,0.6726962459696317
0.035,1.7693819527811456,1.0,2724.6472734684035,0.3254853770166037,1.3199619681300652,0.9574967451301334,0.2873670420168081,0.673546999203875
0.035500000000000004,1.7685201368445798,1.0,2727.8908717809313,0.3292688692838034,1.3195432603834683,0.9583795171793656,0.28733084574747236,0.6744008442075988
0.036000000000000004,1.7676583209080141,1.0,2731.371791840248,0.3330311379983711,1.3191224136979063,0.9592292595442632,0.2872946494781366,0.6752579243482857
0.0365,1.7667965049714482,1.0,2735.0441241763333,0.3367723041673418,1.31869984903559,0.960047659121004,0.28725845320880083,0.6761173667879217
0.037,1.7659346890348826,1.0,2738.8748290093818,0.34049248854432396,1.3182758696591106,0.960836286475501,0.28722225693946507,0.6769785420686762
0.0375,1.765072873098317,1.0,2742.8502594405186,0.34419180670885086,1.317850602278114,0.9615965977746117,0.2871860606701293,0.6778411818604598
0.038,1.764211057161751,1.0,2746.956739842502,0.34787037424045564,1.3174241736022456,0.9623299614875598,0.28714986440079354,0.6787050191738886
0.0385,1.7633492412251854,1.0,2751.180562419061,0.3515283067186717,1.3169967103411513,0.9630376646352798,0.2871136681314578,0.6795697883701793
0.039,1.7624874252886196,1.0,2755.507984120705,0.3551657197230322,1.316568339204476,0.9637209185294571,0.287077471862122,0.680435225170025
0.0395,1.761625609352054,1.0,2759.9252239159014,0.3587827288330704,1.316139186901866,0.964380864047974,0.28704127559278625,0.6813010666614384
0.04,1.760763793415488,1.0,2764.4184604187967,0.36237944962831964,1.3157093801429662,0.9650185764887542,0.2870050793234505,0.6821670513065818
0.0405,1.7599019774789224,1.0,2768.98130298329,0.36595599072222096,1.3152789781956322,0.9656350628407115,0.2869688830541147,0.6830330545533102
0.041,1.7590401615423565,1.0,2773.5963553214883,0.3695124747984074,1.314848139393817,0.9662312846838832,0.28693268678477896,0.683898753572231
0.0415,1.758178345605791,1.0,2778.2561218940136,0.3730490136937659,1.3144169323584982,0.9668081405717501,0.2868964905154432,0.6847640071628558
0.042,1.7573165296692252,1.0,2782.9552572190187,0.3765657169325977,1.313985406135177,0.9673664777246279,0.2868602942461075,0.6856287140756632
0.0425,1.7564547137326594,1.0,2787.688398159695,0.38006269403920373,1.3135536097693534,0.9679070974135248,0.28682409797677166,0.6864927735988777
0.043000000000000003,1.7555928977960937,1.0,2792.4501636042874,0.38354005453788503,1.313121592306528,0.9684307579214257,0.28678790170743595,0.6873560855593892
0.043500000000000004,1.7547310818595279,1.0,2797.235154198136,0.38699790795294275,1.3126894027922011,0.9689381772850075,0.28675170543810014,0.6882185503235223
0.044,1.7538692659229622,1.0,2802.0379521309196,0.39043636380867786,1.3122570902718733,0.9694300358351069,0.2867155091687644,0.6890800687976504
0.0445,1.7530074499863963,1.0,2806.8531209752964,0.3938555316293915,1.311824703791045,0.969906978552573,0.28667931289942866,0.6899405424286575
0.045,1.7521456340498307,1.0,2811.675205580546,0.39725552093938465,1.3113922923952166,0.9703696172546054,0.2866431166300929,0.6907998732042473
0.0455,1.7512838181132648,1.0,2816.503055163883,0.4006364291901781,1.3109598664458066,0.9708185280073414,0.28660692036075713,0.6916580403699174
0.046,1.7504220021766992,1.0,2821.329928256319,0.40399837532890165,1.310527486252098,0.9712542646237282,0.28657072409142137,0.6925149243684731
0.0465,1.7495601862401335,1.0,2826.1507939075004,0.40734147286352795,1.3100951966373895,0.9716773513808059,0.2865345278220856,0.6933704369337332
0.047,1.7486983703035677,1.0,2830.9643055019474,0.41066582403738133,1.3096630093888868,0.9720882827921169,0.28649833155274984,0.6942245555364102
0.0475,1.747836554367002,1.0,2835.7691119958054,0.4139715310937863,1.309230936293796,0.9724875292630369,0.2864621352834141,0.6950772577769845
0.048,1.7469747384304362,1.0,2840.5638579452034,0.4172586962760672,1.3087989891393228,0.9728755384922948,0.2864259390140783,0.6959285213856263
0.0485,1.7461129224938705,1.0,2845.3471835377622,0.42052742182754843,1.3083671797126732,0.9732527367794466,0.28638974274474255,0.6967783242221042
0.049,1.7452511065573046,1.0,2850.117724626748,0.42377780999155445,1.3079355198010534,0.9736195302454339,0.2863535464754068,0.6976266442756858
0.0495,1.744389290620739,1.0,2854.874112768837,0.42700996301140953,1.307504021191669,0.9739763059727451,0.286317350206071,0.6984734596650304
0.05,1.7435274746841731,1.0,2859.614975264702,0.4302239831304382,1.307072695671726,0.974323433071164,0.28628115393673526,0.6993187486380725
0.0505,1.7426656587476075,1.0,2864.3389352026006,0.4334199725919648,1.3066415550284305,0.9746612636745903,0.2862449576673995,0.7001624895718943
0.051000000000000004,1.7418038428110418,1.0,2869.0446115052546,0.4365980336393137,1.3062106110489882,0.9749901338739725,0.2862087613980637,0.7010046609725934
0.051500000000000004,1.740942026874476,1.0,2873.730618979742,0.4397582685158094,1.305779875520605,0.9753103645909758,0.286172565128728,0.7018452414751383
0.052000000000000005,1.7400802109379103,1.0,2878.3955683701247,0.4429007794647762,1.3053493602304869,0.9756222623966468,0.2861363688593922,0.7026842098432156
0.0525,1.7392183950013445,1.0,2883.0412499363388,0.44602563500818926,1.3049190488099045,0.9759261149727808,0.2861001725900565,0.70352159972214
0.053,1.7383565790647788,1.0,2887.66423347856,0.4491329793262641,1.3044889710795926,0.9762222081428802,0.2860639763207207,0.7043573548816678
0.0535,1.737494763128213,1.0,2892.264523414324,0.45222290653252684,1.304059126439579,0.9765108082305625,0.28602778005138496,0.7051914784081634
0.054,1.7366329471916473,1.0,2896.842153878107,0.45529551035823135,1.3036295140327951,0.9767921700510224,0.2859915837820492,0.7060239738782164
0.0545,1.7357711312550816,1.0,2901.3971596711226,0.45835088453463135,1.3032001330021723,0.977066537557662,0.28595538751271343,0.706854844857988
0.055,1.7349093153185158,1.0,2905.9295762568745,0.46138912279298083,1.302770982490642,0.9773341443963712,0.28591919124337767,0.707684094903225
0.0555,1.7340474993819501,1.0,2910.439439756908,0.46441031886453354,1.3023420616411354,0.9775952144270585,0.2858829949740419,0.7085117275592725
0.056,1.7331856834453843,1.0,2914.926786946199,0.46741456648054336,1.3019133695965843,0.9778499622146241,0.28584679870470614,0.709337746361085
0.0565,1.7323238675088186,1.0,2919.391655249036,0.4704019593722641,1.30148490549992,0.9780985934913997,0.2858106024353704,0.7101621548332409
0.057,1.7314620515722527,1.0,2923.834082734544,0.47337259127094966,1.3010566684940739,0.978341305592938,0.2857744061660346,0.7109849564899532
0.0575,1.730600235635687,1.0,2928.254108112361,0.4763265559078538,1.3006286577219772,0.9785782878688865,0.28573820989669885,0.7118061548350838
0.058,1.7297384196991212,1.0,2932.6517707284343,0.4792639470142304,1.3002008723265617,0.978809722070565,0.2857020136273631,0.7126257533621538
0.0585,1.7288766037625556,1.0,2937.0271105605575,0.4821848583213334,1.2997733114507586,0.9790357827167412,0.2856658173580273,0.7134437555543575
0.059000000000000004,1.7280147878259897,1.0,2941.380168214369,0.4850893835604165,1.2993459742374993,0.9792566374389935,0.28562962108869155,0.714260164884574
0.059500000000000004,1.727152971889424,1.0,2945.7109849187545,0.4879776164627336,1.2989188598297154,0.979472447307956,0.2855934248193558,0.7150749848153792
0.06,1.7262911559528584,1.0,2950.0196025219093,0.49084965075953846,1.2984919673703381,0.9796833671416413,0.2855572285500201,0.7158882187990594
0.0605,1.7254293400162926,1.0,2954.306077843679,0.4937055568199855,1.298065295876863,0.9798895439329014,0.28552103228068426,0.7166998705160654
0.061,1.724567524079727,1.0,2958.5708136335734,0.4965454037077928,1.2976388413522937,0.9800911188443663,0.28548483601134855,0.7175099493573474
0.0615,1.723705708143161,1.0,2962.81416831747,0.49936934956528334,1.2972126002006108,0.980288234620747,0.28544863974201273,0.7183184639094129
0.062,1.7228438922065954,1.0,2967.036399262254,0.5021774780542628,1.2967865697198167,0.9804810229171077,0.285412443472677,0.7191254210266085
0.0625,1.7219820762700295,1.0,2971.23776501454,0.5049698728365372,1.296360747207913,0.980669610497373,0.2853762472033412,0.7199308275330595
0.063,1.7211202603334639,1.0,2975.418525289093,0.5077466175739122,1.295935129962902,0.9808541194526929,0.2853400509340055,0.720734690222705
0.0635,1.7202584443968982,1.0,2979.5789409553527,0.5105077959281936,1.295509715282785,0.9810346674084903,0.28530385466466973,0.7215370158593346
0.064,1.7193966284603324,1.0,2983.719274026074,0.5132534915611875,1.2950845004655644,0.9812113677208613,0.28526765839533397,0.7223378111766208
0.0645,1.7185348125237667,1.0,2987.8397876448967,0.5159837881346994,1.2946594828092421,0.981384329662947,0.2852314621259982,0.7231370828781567
0.065,1.7176729965872009,1.0,2991.9407460745224,0.5186987693105353,1.2942346596118197,0.9815536586018588,0.28519526585666244,0.7239348376374892
0.0655,1.7168111806506352,1.0,2996.0224146849123,0.5213985187505009,1.2938100281712994,0.9817194561667038,0.2851590695873267,0.7247310820981513
0.066,1.7159493647140693,1.0,3000.085059941997,0.5240831201164022,1.2933855857856829,0.981881820408213,0.2851228733179909,0.7255258228736982
0.0665,1.7150875487775037,1.0,3004.128949395786,0.5267526570700449,1.2929613297529723,0.9820408459504564,0.28508667704865515,0.7263190665477368
0.067,1.7142257328409378,1.0,3008.154351669573,0.5294072132732349,1.2925372573711693,0.9821966241350828,0.2850504807793194,0.7271108196739613
0.0675,1.7133639169043722,1.0,3012.1615364486756,0.532046872387778,1.292113365938276,0.9823492431585092,0.2850142845099836,0.7279010887761826
0.068,1.7125021009678063,1.0,3016.150774469452,0.53467171807548,1.291689652752294,0.9824987882024491,0.28497808824064785,0.7286898803483614
0.0685,1.7116402850312407,1.0,3020.1223375086042,0.5372818339981468,1.291266115111226,0.9826453415581445,0.2849418919713121,0.7294772008546369
0.069,1.710778469094675,1.0,3024.076498372689,0.539877303817584,1.2908427503130728,0.9827889827446525,0.2849056957019763,0.7302630567293609
0.0695,1.7099166531581091,1.0,3028.013530887439,0.5424582111955977,1.290419555655837,0.9829297886215038,0.28486949943264056,0.7310474543771242
0.07,1.7090548372215435,1.0,3031.933709887696,0.5450246397939936,1.2899965284375206,0.9830678334960434,0.2848333031633048,0.731830400172788
0.07050000000000001,1.7081930212849776,1.0,3035.8373112073677,0.5475766732745776,1.2895736659561252,0.983203189225734,0.2847971068939691,0.7326119004615128
0.07100000000000001,1.707331205348412,1.0,3039.7246116688575,0.5501143952991554,1.289150965509653,0.9833359253156932,0.28476091062463327,0.7333919615587867
