Time [s],Phi [rad],STIM [ ],Fsee [N],Gamma [ ],Lcerel [ ],q [ ],Lmtc [m],fisomrel [ ]
0.0,1.8,1.0,17.971460217788916,8.532221222555001e-05,1.3793392642750721,0.005001907663423273,0.288653,0.5411406970001498
0.0005,1.79999375,1.0,18.306020590047403,0.005694052930906764,1.3792991370477226,0.0131509512464075,0.2886527375,0.5412377698815465
0.001,1.799975,1.0,21.703784362937093,0.01127132310481152,1.3789295880718366,0.03600216903215497,0.28865195,0.5421312732261103
0.0015,1.79994375,1.0,31.274294110957527,0.016817309203644715,1.3780287622137497,0.071139792218968,0.2886506375,0.5443056598824627
0.002,1.7999,1.0,54.02597115569508,0.022332186705349304,1.376339413600581,0.11535467072699163,0.2886488,0.5483694061567945
0.0025,1.79984375,1.0,97.86523936075615,0.027816130104181068,1.3738992735846143,0.16526723070791394,0.28864643749999996,0.5542070574390874
0.003,1.7997750000000001,1.0,161.92955561927485,0.033269312917726515,1.371178038442669,0.2179945427692,0.28864354999999997,0.5606723972508052
0.0035,1.79969375,1.0,238.78107065844006,0.03869190768705898,1.3685509599162424,0.27132302171048994,0.2886401375,0.566869228140358
0.004,1.7996,1.0,322.63480259441815,0.04408408598736029,1.3661251837602757,0.32360333016571735,0.2886362,0.5725521358944654
0.0045000000000000005,1.7994937500000001,1.0,410.4773918247745,0.04944601843315238,1.3638944402309308,0.37368710131806315,0.2886317375,0.5777450139318163
0.005,1.799375,1.0,500.64789057407654,0.054777874669825984,1.361832127926546,0.4208579759030089,0.28862675,0.5825175739800628
0.0055,1.79924375,1.0,592.035659966366,0.06007982341680016,1.3599145188193396,0.46473891977276494,0.2886212375,0.5869309283898064
0.006,1.7991000000000001,1.0,683.764682164279,0.06535203242093145,1.3581237656901504,0.5051993841658367,0.2886152,0.5910311493874563
0.006500000000000001,1.79894375,1.0,775.1204030608485,0.07059466850316873,1.356446109056522,0.5422756789713529,0.2886086375,0.5948538626864348
0.007,1.798775,1.0,865.4974621072696,0.07580789733651173,1.354870829806518,0.5761097025687583,0.28860155,0.598426958394239
0.0075,1.79859375,1.0,954.4487492194197,0.08099188452955851,1.3533882426940742,0.6069035253082204,0.2885939375,0.6017753505280425
0.008,1.7984,1.0,1041.5446887231535,0.08614679349984838,1.3519911864125584,0.6348896482420213,0.2885858,0.6049177445404321
0.0085,1.79819375,1.0,1126.4682478290824,0.09127278727526913,1.3506729089999994,0.6603093095423711,0.2885771375,0.6078715270837952
0.009000000000000001,1.797975,1.0,1209.0026347369621,0.0963700283546423,1.3494269747606624,0.6833995802284415,0.28856795,0.6106530271352404
0.0095,1.79774375,1.0,1288.962828577105,0.10143867813441022,1.3482479595430157,0.7043861214126186,0.2885582375,0.6132760161802491
0.01,1.7975,1.0,1366.2099888160762,0.10647889660425161,1.3471309832459208,0.7234787834201449,0.288548,0.6157528076234702
0.0105,1.79724375,1.0,1440.653447531573,0.11149084295523615,1.3460715085076203,0.740869710272172,0.2885372375,0.6180947417068244
0.011,1.796975,1.0,1512.2842145737368,0.11647467722283505,1.3450648042617295,0.7567327744120297,0.28852595000000003,0.6203133955988978
0.0115,1.79669375,1.0,1581.0583298055553,0.1214305561393491,1.3441072870180566,0.7712248002889007,0.2885141375,0.6224176499396454
0.012,1.7964,1.0,1646.964576286457,0.1263586359652149,1.3431955435254863,0.7844861324885317,0.28850180000000003,0.6244158766079274
0.0125,1.79609375,1.0,1710.0337103758234,0.1312590729608692,1.3423261605329035,0.7966418942980019,0.2884889375,0.6263163259400535
0.013000000000000001,1.7957750000000001,1.0,1770.3176815785916,0.13613202239777386,1.3414959168644125,0.8078034917523192,0.28847555,0.6281267180004282
0.0135,1.79544375,1.0,1827.8746450713172,0.14097763905288857,1.340701895720733,0.8180700572649239,0.2884616375,0.6298540122841159
0.014,1.7951000000000001,1.0,1882.7502560867772,0.14579607538589287,1.3399416332834908,0.8275298222754024,0.2884472,0.6315041006395175
0.0145,1.79474375,1.0,1935.0133844485827,0.1505874838040803,1.3392126741216215,0.8362611762953321,0.2884322375,0.6330827860818197
0.015,1.794375,1.0,1984.7349101022874,0.155352015508128,1.3385127744635206,0.8443338700179716,0.28841675,0.6345953492506686
0.0155,1.79399375,1.0,2032.0224729218849,0.16008982332594013,1.3378395032421595,0.8518098947270948,0.2884007375,0.6360474172483765
0.016,1.7936,1.0,2076.943044394979,0.16480105610129372,1.337191041687471,0.8587446483211503,0.2883842,0.6374432442784381
0.0165,1.7931937500000001,1.0,2119.5677366072496,0.1694858620209416,1.3365656728673168,0.8651875530108426,0.2883671375,0.6387868234928902
0.017,1.792775,1.0,2159.980108921103,0.1741443892716366,1.3359616798495584,0.8711827327046113,0.28834955,0.6400821099255831
0.0175,1.7923437500000001,1.0,2198.270659205161,0.17877678554852686,1.3353773907485607,0.8767696514368234,0.2883314375,0.6413329265774467
0.018000000000000002,1.7919,1.0,2234.5301637494194,0.1833831980925843,1.3348112337918114,0.8819836756647635,0.2883128,0.6425428498941486
0.0185,1.79144375,1.0,2268.8455884393497,0.18796377345408646,1.3342617652230577,0.8868565582320131,0.2882936375,0.6437151540496346
0.019,1.790975,1.0,2301.2851721675197,0.19251865523770717,1.3337278045007466,0.8914168869873308,0.28827395,0.6448525271145137
0.0195,1.79049375,1.0,2331.923617898759,0.19704798704812015,1.3332081710833255,0.8956903828084166,0.2882537375,0.6459576362350297
0.02,1.79,1.0,2360.8415544535333,0.20155191248999918,1.3327016844292414,0.8997002251198835,0.288233,0.6470331287562037
0.0205,1.78949375,1.0,2388.113040065717,0.20603057348123033,1.3322072805025622,0.9034673624916265,0.2882117375,0.6480813864192984
0.021,1.788975,1.0,2413.827799733105,0.21048411431030703,1.3317237891162101,0.9070107129693791,0.28818995000000003,0.6491049991530107
0.021500000000000002,1.78844375,1.0,2438.052822067131,0.21491267541967563,1.3312503020195086,0.910347461763466,0.2881676375,0.6501059866453582
0.022,1.7879,1.0,2460.8470766879464,0.2193163955299151,1.3307860219520884,0.9134932166969605,0.2881448,0.651086121432119
0.0225,1.78734375,1.0,2482.2726008067684,0.22369541336160462,1.3303301516535797,0.916462154749011,0.28812143749999997,0.652047164886872
0.023,1.786775,1.0,2502.394243737861,0.22804986763532312,1.329881893863613,0.9192671730343697,0.28809755,0.6529908676688647
0.0235,1.78619375,1.0,2521.2768613484686,0.23237989663103342,1.3294404755723508,0.9219200263868197,0.28807313749999996,0.6539189191794113
0.024,1.7856,1.0,2538.9760938422073,0.2366856367105206,1.3290052323692336,0.9244314591766066,0.2880482,0.6548327712808246
0.0245,1.78499375,1.0,2555.5708412126983,0.24096722768545392,1.3285752996599716,0.9268112549401488,0.2880227375,0.6557342871599486
0.025,1.784375,1.0,2571.105397889013,0.24522480301134728,1.3281501560434552,0.92906842267548,0.28799675,0.6566246016857653
0.025500000000000002,1.78374375,1.0,2585.6254809644934,0.24945849614371457,1.3277292801185752,0.9312112166508573,0.2879702375,0.6575048436000016
0.026000000000000002,1.7831000000000001,1.0,2599.178112587845,0.2536684405380697,1.327312150484222,0.9332472098786694,0.2879432,0.6583761356677105
0.0265,1.78244375,1.0,2611.8115083818175,0.2578547696499266,1.3268982457392864,0.9351833595409338,0.2879156375,0.6592395948105139
0.027,1.781775,1.0,2623.574971889507,0.2620176169347992,1.326487044482659,0.9370260653335756,0.28788755,0.6600963322225071
0.0275,1.7810937500000001,1.0,2634.512234035549,0.2661571120474278,1.3260780860159107,0.9387812291311465,0.2878589375,0.6609473272327817
0.028,1.7804,1.0,2644.6757802196457,0.2702733910691387,1.3256708365962089,0.9404542852309535,0.2878298,0.6617937059653234
0.0285,1.77969375,1.0,2654.0998976526926,0.27436658217381354,1.3252649378095465,0.9420502730390738,0.2878001375,0.6626362252288007
0.029,1.778975,1.0,2662.819225649854,0.27843681340299764,1.3248600336456853,0.9435738507123481,0.28776995,0.6634756330986105
0.029500000000000002,1.7782437500000001,1.0,2670.8689610856113,0.2824842127982365,1.3244557680943878,0.9450293286585779,0.2877392375,0.6643126739485996
0.03,1.7775,1.0,2678.28480738904,0.28650890840107546,1.324051785145416,0.946420699950465,0.287708,0.665148088469608
0.0305,1.77674375,1.0,2685.1029263495357,0.29051102825306,1.3236477287885322,0.9477516677179518,0.2876762375,0.6659826136799257
0.031,1.775975,1.0,2691.3483350216825,0.2944906948856955,1.3232433488105988,0.9490256815631112,0.28764395,0.6668167648268799
0.0315,1.7751937500000001,1.0,2697.0595822140194,0.29844803934264535,1.32283827420066,0.9502459348042811,0.2876111375,0.6676513032880724
0.032,1.7744,1.0,2702.276202580079,0.3023831924294484,1.322432128078734,0.951415397294138,0.2875778,0.6684869986690656
0.0325,1.77359375,1.0,2707.0196375410965,0.30629627555811173,1.3220247015037752,0.9525368518428806,0.2875439375,0.6693242717519277
0.033,1.772775,1.0,2711.311539634417,0.31018741014064255,1.3216157855347375,0.953612892123493,0.28750955,0.6701635411188577
0.0335,1.7719437500000002,1.0,2715.1737527781765,0.3140567175890481,1.3212051712305748,0.954645937799957,0.2874746375,0.6710052231337281
0.034,1.7711000000000001,1.0,2718.6282935031227,0.31790431931533547,1.3207926496502411,0.9556382482740065,0.2874392,0.6718497319208472
0.0345,1.7702437500000001,1.0,2721.6973331531135,0.3217303367315118,1.3203780118526904,0.9565919351911718,0.2874032375,0.6726974793409355
0.035,1.7693750000000001,1.0,2724.4031810528913,0.32553489124958435,1.3199610488968767,0.9575089738311507,0.28736675,0.6735488749643191
0.035500000000000004,1.76849375,1.0,2726.7682686443413,0.3293181042815603,1.3195415518417537,0.9583912134937027,0.2873297375,0.6744043260413388
0.036000000000000004,1.7676,1.0,2728.81513459015,0.33308009723944665,1.3191193117462758,0.9592403869791007,0.2872922,0.675264237469972
0.0365,1.76669375,1.0,2730.557084713247,0.33682098456353693,1.3186942044239354,0.9600581262784745,0.2872541375,0.6761288394980705
0.037,1.765775,1.0,2732.0189102275826,0.34054089226557027,1.3182660019773753,0.9608459552267162,0.28721555,0.6769985713818155
0.0375,1.76484375,1.0,2733.218132179552,0.3442399386427424,1.3178345432085006,0.9616053099238991,0.2871764375,0.6778737345135325
0.038,1.7639,1.0,2734.167887956192,0.3479182381661825,1.317399707233175,0.96233754330736,0.28713679999999997,0.6787545467101239
0.0385,1.76294375,1.0,2734.8813596533373,0.3515759053070199,1.3169613731672616,0.9630439280099181,0.28709663750000003,0.6796412242344514
0.039,1.761975,1.0,2735.37176815853,0.3552130545363838,1.3165194201266248,0.9637256619970396,0.28705595,0.6805339817688303
0.0395,1.7609937500000001,1.0,2735.6523675593194,0.35882980032540346,1.3160737272271277,0.9643838737496923,0.2870147375,0.6814330323875998
0.04,1.76,1.0,2735.7364398740856,0.36242625714520815,1.315624173584634,0.9650196270339769,0.286973,0.6823385875287529
0.0405,1.7589937500000001,1.0,2735.637290107704,0.36600253946692707,1.3151706383150075,0.965633925294527,0.2869307375,0.6832508569646389
0.041,1.757975,1.0,2735.3682416309694,0.36955876176168945,1.3147130005341117,0.9662277157050125,0.28688795,0.6841700487717355
0.0415,1.75694375,1.0,2734.9377934194713,0.3730950306515278,1.3142511832938608,0.9668018953069213,0.2868446375,0.6850962812449244
0.042,1.7559,1.0,2734.357481000208,0.3766114628362398,1.3137850821797894,0.9673573113375203,0.28680079999999997,0.6860297264075983
0.0425,1.75484375,1.0,2733.641808005237,0.38010817923755336,1.313314565892492,0.9678947634900448,0.2867564375,0.6869706084170895
0.043000000000000003,1.753775,1.0,2732.797718605482,0.38358528703245565,1.3128395718331967,0.9684150118823966,0.28671155,0.6879190124209892
0.043500000000000004,1.75269375,1.0,2731.832162113076,0.387042893397934,1.31236003740313,0.9689187762651105,0.28666613750000003,0.6888750224283013
0.044,1.7516,1.0,2730.752091403686,0.3904811055109757,1.3118759000035198,0.9694067385642833,0.2866202,0.6898387212914365
0.0445,1.75049375,1.0,2729.564461427295,0.39390003054856804,1.3113870970355936,0.969879545239974,0.2865737375,0.6908101906879649
0.045,1.7493750000000001,1.0,2728.2762278049117,0.39729977568769836,1.3108935659005785,0.9703378094751551,0.28652675,0.6917895111021131
0.0455,1.74824375,1.0,2726.8943455122276,0.40068044810535386,1.3103952439997022,0.970782113208929,0.2864792375,0.6927767618060119
0.046,1.7471,1.0,2725.4257676508155,0.40404215497852186,1.3098920687341917,0.9712130090264907,0.2864312,0.6937720208406983
0.0465,1.7459437500000001,1.0,2723.8774443052816,0.40738500348418966,1.309383977505275,0.9716310219172188,0.28638263750000004,0.6947753649968609
0.047,1.744775,1.0,2722.256321487902,0.4107091007993445,1.3088709077141787,0.9720366509112616,0.28633355,0.6957868697953422
0.0475,1.74359375,1.0,2720.569340170459,0.4140145541009737,1.308352796762131,0.9724303706040935,0.28628393750000003,0.6968066094673853
0.048,1.7424,1.0,2718.818213036984,0.41730145233004773,1.3078296296128142,0.9728126336314391,0.2862338,0.6978345635600689
0.0485,1.74119375,1.0,2717.013140217502,0.42056992034107726,1.3073013139071155,0.9731838700141419,0.2861831375,0.698870862471175
0.049,1.739975,1.0,2715.1592172717233,0.423820064808745,1.306767803701117,0.9735444902359418,0.28613195,0.6999155440446203
0.0495,1.73874375,1.0,2713.2595189732033,0.42705198492409646,1.306229071424415,0.9738948857961773,0.2860802375,0.7009686091024891
0.05,1.7375,1.0,2711.317117105576,0.4302657798781771,1.3056850895066052,0.974235429943115,0.286028,0.7020300575680445
0.0505,1.73624375,1.0,2709.3350802122573,0.4334615488620325,1.3051358303772842,0.974566478685744,0.2859752375,0.7030998884565218
0.051000000000000004,1.734975,1.0,2707.316473363327,0.43663939106670807,1.304581266466048,0.9748883717407467,0.28592195,0.7041780998658744
0.051500000000000004,1.73369375,1.0,2705.2643579388746,0.4397994056832495,1.304021370202493,0.9752014334193363,0.2858681375,0.7052646889674704
0.052000000000000005,1.7324,1.0,2703.1817914291937,0.44294169190270216,1.3034561140162153,0.9755059734582757,0.2858138,0.7063596519967402
0.0525,1.73109375,1.0,2701.0718272524864,0.44606634891611163,1.302885470336811,0.9758022877990487,0.28575893750000003,0.7074629842437783
0.053,1.729775,1.0,2698.9375145884737,0.4491734759145234,1.302309411593876,0.9760906593188396,0.28570355000000003,0.7085746800438918
0.0535,1.72844375,1.0,2696.781898229413,0.45226317208898303,1.3017279102170072,0.9763713585166904,0.2856476375,0.7096947327681048
0.054,1.7271,1.0,2694.608018448196,0.45533553663053605,1.3011409386358002,0.9766446441579432,0.2855912,0.7108231348136137
0.0545,1.7257437500000001,1.0,2692.418910882455,0.4583906687302279,1.3005484692798515,0.9769107638798377,0.2855342375,0.7119598775941907
0.055,1.724375,1.0,2690.216989277989,0.4614286567159716,1.2999504802293023,0.9771699540528067,0.28547675,0.7131049407213359
0.0555,1.72299375,1.0,2688.004032534609,0.46444958587141133,1.2993469553443648,0.977422441136347,0.2854187375,0.7142582918560549
0.056,1.7216,1.0,2685.7835745635334,0.46745358736270015,1.2987378623777788,0.9776684454548488,0.2853602,0.7154199285138881
0.0565,1.72019375,1.0,2683.556766854311,0.47044075166480653,1.2981231908693303,0.9779081756360678,0.28530113749999997,0.7165898056947988
0.057,1.718775,1.0,2681.324759036233,0.47341116925269894,1.2975029303588055,0.9781418317276468,0.28524155,0.7177678776400629
0.0575,1.71734375,1.0,2679.0886988635452,0.47636493060134577,1.2968770703859909,0.9783696056171484,0.2851814375,0.7189540978285441
0.058,1.7159,1.0,2676.8497322041235,0.47930212618571555,1.2962456004906726,0.9785916814282528,0.2851208,0.7201484189729618
0.0585,1.71444375,1.0,2674.6090030301525,0.4822228464807766,1.2956085102126367,0.9788082358946615,0.2850596375,0.7213507930161527
0.059000000000000004,1.7129750000000001,1.0,2672.367653410711,0.4851271819614975,1.2949657890916697,0.9790194387131199,0.28499795,0.7225611711273234
0.059500000000000004,1.71149375,1.0,2670.1268235077587,0.4880152231028467,1.2943174266675574,0.9792254528768859,0.2849357375,0.7237795036983002
0.06,1.71,1.0,2667.887651573445,0.4908870603797924,1.2936634124800865,0.9794264349908658,0.284873,0.7250057403397658
0.0605,1.7084937500000001,1.0,2665.6512739510417,0.49374278426730334,1.2930037360690427,0.9796225355695642,0.2848097375,0.7262398298774961
0.061,1.7069750000000001,1.0,2663.4188250772663,0.49658248524034787,1.2923383869742129,0.9798138993189072,0.28474595,0.7274817203485822
0.0615,1.7054437500000001,1.0,2661.1914374875173,0.4994062537738944,1.2916673547353827,0.9800006654029273,0.2846816375,0.7287313589976543
0.062,1.7039,1.0,2658.9702418237293,0.5022141803429114,1.2909906288923385,0.9801829676962359,0.2846168,0.7299886922730909
0.0625,1.70234375,1.0,2656.756366844038,0.5050063554223673,1.2903081989848668,0.9803609350231365,0.2845514375,0.7312536658232238
0.063,1.7007750000000001,1.0,2654.5509394353576,0.5077828694872305,1.2896200545527536,0.9805346913841843,0.28448555,0.7325262244925383
0.0635,1.69919375,1.0,2652.3550846285466,0.5105438130124696,1.2889261851357852,0.9807043561709369,0.28441913750000003,0.7338063123178635
0.064,1.6976,1.0,2650.16662489443,0.5132892327480301,1.288226610721793,0.9808700427294975,0.2843522,0.735093816555574
0.0645,1.69599375,1.0,2647.9872851367973,0.5160192517302465,1.2875213153184313,0.9810318639875397,0.2842847375,0.7363886901707883
0.065,1.694375,1.0,2645.818945813727,0.5187339800890866,1.2868102814712163,0.9811899277346504,0.28421675,0.7376908878903115
0.0655,1.69274375,1.0,2643.661648329746,0.521433498698937,1.2860935086830392,0.9813443366365757,0.2841482375,0.7390003325555734
0.066,1.6911,1.0,2641.5154340597815,0.5241178884341844,1.2853709964567916,0.9814951896921271,0.2840792,0.7403169463688068
0.0665,1.6894437500000001,1.0,2639.380344350523,0.5267872301692157,1.2846427442953654,0.9816425823887236,0.2840096375,0.7416406508928675
0.067,1.687775,1.0,2637.2564205208837,0.5294416047784176,1.2839087517016516,0.981786606850261,0.28393955,0.742971367051052
0.0675,1.68609375,1.0,2635.1437038635604,0.5320810931361771,1.2831690181785422,0.9819273519777395,0.2838689375,0.7443090151269146
0.068,1.6844000000000001,1.0,2633.0422356458657,0.5347057761168809,1.2824235432289284,0.9820649035830521,0.2837978,0.7456535147640868
0.0685,1.68269375,1.0,2630.952057110749,0.5373157345949156,1.281672326355702,0.9821993445163093,0.2837261375,0.7470047849660936
0.069,1.680975,1.0,2628.8732094779934,0.5399110494446682,1.2809153670617544,0.9823307547870564,0.28365395,0.7483627440961729
0.0695,1.67924375,1.0,2626.805733945218,0.5424918015405253,1.280152664849977,0.9824592116797167,0.28358123749999997,0.7497273098770934
0.07,1.6775,1.0,2624.7496716889514,0.5450580717568738,1.2793842192232616,0.9825847898635698,0.283508,0.751098399390971
0.07050000000000001,1.67574375,1.0,2622.705063865716,0.5476099409681006,1.2786100296844995,0.9827075614975621,0.2834342375,0.7524759290790889
0.07100000000000001,1.673975,1.0,2620.671951612981,0.5501474900485923,1.2778300957365825,0.9828275963302221,0.28335995,0.7538598147417137
0.07150000000000001,1.67219375,1.0,2618.6503760505134,0.5526707998727357,1.277044416882402,0.9829449617949437,0.2832851375,0.7552499715379141
0.07200000000000001,1.6704,1.0,2616.6403782814405,0.5551799513149177,1.2762529926248494,0.9830597231008769,0.2832098,0.7566463139853792
0.0725,1.66859375,1.0,2614.6419993930654,0.557675025249525,1.2754558224668164,0.9831719433196604,0.2831339375,0.758048755960235
0.073,1.6667750000000001,1.0,2612.655280458228,0.5601561025509444,1.2746529059111946,0.9832816834682091,0.28305755,0.7594572106968638
0.0735,1.66494375,1.0,2610.6802625364844,0.5626232640935627,1.2738442424608754,0.9833890025877612,0.2829806375,0.760871590787721
0.074,1.6631,1.0,2608.7169866748095,0.5650765907517666,1.2730298316187505,0.983493957819377,0.2829032,0.7622918081831529
0.0745,1.6612437500000001,1.0,2606.765741382233,0.567516156614901,1.2722096705859292,0.9835966039904357,0.2828252375,0.7637177781871809
0.075,1.659375,1.0,2604.8286814921007,0.5699419932446168,1.2713837391945935,0.9836969910425889,0.28274675,0.765149445474365
