Time [s],Phi [rad],STIM [ ],Fsee [N],Gamma [ ],Lcerel [ ],q [ ],Lmtc [m],fisomrel [ ]
0.0,1.8,1.0,17.97392563467715,7.958948560217173e-05,1.3793389881084626,0.005001660837345486,0.288653,0.5411413651174991
0.0005,1.79999375,1.0,18.306292165645733,0.005688352360343872,1.3792991069052039,0.013134835373166478,0.2886527375,0.5412378427962843
0.001,1.799975,1.0,21.699614582782317,0.011265654509942331,1.3789300131351898,0.03597211552025388,0.28865195,0.5421302459992503
0.0015,1.79994375,1.0,31.260948251990698,0.01681167240510769,1.3780298956223163,0.07109874849868666,0.2886506375,0.5443029273462394
0.002,1.7999,1.0,53.994438523394216,0.022326581524800885,1.376341451157254,0.11530612551156462,0.2886488,0.5483645157552685
0.0025,1.79984375,1.0,97.81060095944751,0.027810556364259276,1.3739018967867664,0.16521446250753116,0.28864643749999996,0.5542008022297777
0.003,1.7997750000000001,1.0,161.85764685359476,0.03326377044207994,1.3711807222687746,0.21794013642217747,0.28864354999999997,0.5606660440562207
0.0035,1.79969375,1.0,238.6993473504027,0.03868639630032277,1.3685534716322458,0.27126893172216887,0.2886401375,0.5668633244509547
0.004,1.7996,1.0,322.547529760362,0.04407860551514825,1.366127491252377,0.3235509728717214,0.2886362,0.5725467479248743
0.0045000000000000005,1.7994937500000001,1.0,410.3867749615779,0.0494405687020449,1.3638965643348104,0.3736374121781862,0.2886317375,0.577740084391968
0.005,1.799375,1.0,500.55521377274255,0.05477245550728912,1.3618340949625927,0.42081149644777716,0.28862675,0.582513034829724
0.0055,1.79924375,1.0,591.9420735993101,0.060074434651614314,1.3599163454182635,0.46469589183069415,0.2886212375,0.5869267356529377
0.006,1.7991000000000001,1.0,683.6709630491295,0.065346673882472,1.3581254677589367,0.5051598444591421,0.2886152,0.5910272619338099
0.006500000000000001,1.79894375,1.0,775.0264604825815,0.07058934002339456,1.3564477114841658,0.5422395363523679,0.2886086375,0.5948502199544035
0.007,1.798775,1.0,865.4057916513873,0.07580259879110322,1.3548723095804418,0.576076754992627,0.28860155,0.5984236093528159
0.0075,1.79859375,1.0,954.3539495808191,0.0809866156346106,1.3533896999255306,0.6068736035655966,0.2885939375,0.6017720662836208
0.008,1.7984,1.0,1041.4513800153402,0.08614155414712923,1.3519925594435054,0.6348624653543701,0.2885858,0.6049146622972268
0.0085,1.79819375,1.0,1126.378189220158,0.0912675773437797,1.350674183271047,0.66028460800329,0.2885771375,0.6078686772550517
0.009000000000000001,1.797975,1.0,1208.916141676424,0.09636484766374016,1.349428156067688,0.6833771239050233,0.28856795,0.6106503946018352
0.0095,1.79774375,1.0,1288.8769019301058,0.10143352648982326,1.34824909612897,0.7043657118760125,0.2885582375,0.6132734918538121
0.01,1.7975,1.0,1366.1249324861767,0.10647377384897773,1.3471320760493495,0.7234602128128834,0.288548,0.6157503883216475
0.0105,1.79724375,1.0,1440.5642330801466,0.11148574860454054,1.3460726247269776,0.7408528214396455,0.2885372375,0.6180922781077185
0.011,1.796975,1.0,1512.2012389162167,0.11646961159881487,1.3450658175367314,0.7567173349778902,0.28852595000000003,0.6203111657133521
0.0115,1.79669375,1.0,1580.9845941332223,0.12142551923086677,1.3441081676534579,0.7712106461218444,0.2885141375,0.6224157173283793
0.012,1.7964,1.0,1646.898659195134,0.12635362750992474,1.3431963148686412,0.7844731400436704,0.28850180000000003,0.6244141883309454
0.0125,1.79609375,1.0,1709.9694080627648,0.1312540924452173,1.3423268989737651,0.7966299754018412,0.2884889375,0.6263147137723394
0.013000000000000001,1.7957750000000001,1.0,1770.25389792197,0.13612706974019076,1.3414966367692627,0.8077925437168879,0.28847555,0.6281251501125072
0.0135,1.79544375,1.0,1827.8070124556032,0.14097271397445016,1.3407026469532457,0.818060002121101,0.2884616375,0.6298523799714669
0.014,1.7951000000000001,1.0,1882.681969389821,0.14579117798033783,1.3399423806455812,0.8275205596237976,0.2884472,0.6315024803603787
0.0145,1.79474375,1.0,1934.9467983309569,0.15058261394312347,1.339213392962591,0.8362526202770347,0.2884322375,0.6330812309783382
0.015,1.794375,1.0,1984.6740370597217,0.15534717314363736,1.338513423343632,0.8443259386994882,0.28841675,0.6345939483934152
0.0155,1.79399375,1.0,2031.964111599159,0.16008500803836886,1.3378401180669486,0.8518025402046522,0.2884007375,0.6360460925526474
0.016,1.7936,1.0,2076.8868419946916,0.16479626767962985,1.337191627330376,0.8587378183720095,0.2883842,0.6374419848797601
0.0165,1.7931937500000001,1.0,2119.5143882912557,0.1694811003501072,1.3365662231516842,0.8651811978079544,0.2883671375,0.6387856423259272
0.017,1.792775,1.0,2159.9314007424255,0.17413965433248763,1.335962177548642,0.8711768046175831,0.28834955,0.6400810435483887
0.0175,1.7923437500000001,1.0,2198.22555835869,0.17877207704579884,1.3353778475565774,0.8767641157153964,0.2883314375,0.6413319495163174
0.018000000000000002,1.7919,1.0,2234.49131125924,0.18337851645578782,1.3348116241066073,0.8819784918319803,0.2883128,0.6425420164639539
0.0185,1.79144375,1.0,2268.807009070839,0.18795911808961524,1.3342621498519187,0.8868517115777789,0.2882936375,0.6437143341083338
0.019,1.790975,1.0,2301.2435652106956,0.1925140257876554,1.3337282163801485,0.8914123574442833,0.28827395,0.6448516504838163
0.0195,1.79049375,1.0,2331.8784487464322,0.19704338339028243,1.3332086152789342,0.8956861456787976,0.2882537375,0.6459566922955843
0.02,1.79,1.0,2360.795132963945,0.2015473347378706,1.3327021381359125,0.8996962517166437,0.288233,0.6470321660707659
0.0205,1.78949375,1.0,2388.0643218786386,0.20602602130498285,1.3322077539298338,0.9034636340648364,0.2882117375,0.648080383382956
0.021,1.788975,1.0,2413.7815177348425,0.21047958823445878,1.331724236467217,0.9070072008312055,0.28818995000000003,0.6491040527431182
0.021500000000000002,1.78844375,1.0,2438.0059571341244,0.21490817474613266,1.3312507527489328,0.910344155098932,0.2881676375,0.6501050344491881
0.022,1.7879,1.0,2460.798677481389,0.21931191982570464,1.3307864852767768,0.9134901016976973,0.2881448,0.6510851439994794
0.0225,1.78734375,1.0,2482.2238261969023,0.22369096245887485,1.3303306165525444,0.9164592149781898,0.28812143749999997,0.6520461854847446
0.023,1.786775,1.0,2502.348398759327,0.22804544163134335,1.3298823290780313,0.9192643897505766,0.28809755,0.6529899520473644
0.0235,1.78619375,1.0,2521.2348107797716,0.23237549465256258,1.3294408732679577,0.9219173863325797,0.28807313749999996,0.6539180836111144
0.024,1.7856,1.0,2538.9491533076325,0.23668126065536454,1.3290054862708311,0.9244289338192894,0.2880482,0.6548322385321874
0.0245,1.78499375,1.0,2555.549599996874,0.2409628765944812,1.3285754991970873,0.9268088514628665,0.2880227375,0.6557338690286508
0.025,1.784375,1.0,2571.083588275741,0.24522047620498788,1.328150360300161,0.9290661425857325,0.28799675,0.65662417421835
0.025500000000000002,1.78374375,1.0,2585.6000272722886,0.24945419322195989,1.3277295178334865,0.9312090563786796,0.2879702375,0.6575043467494595
0.026000000000000002,1.7831000000000001,1.0,2599.149172823272,0.25366416138047254,1.3273124200504987,0.9332451613109675,0.2879432,0.658375572961371
0.0265,1.78244375,1.0,2611.782509232825,0.25785051441560114,1.326898515204632,0.9351814104987731,0.2879156375,0.6592390330261703
0.027,1.781775,1.0,2623.545075979335,0.2620133839328267,1.3264873216574034,0.9370242099426707,0.28788755,0.6600957550923956
0.0275,1.7810937500000001,1.0,2634.4837969974596,0.26615290354806415,1.3260783491170929,0.9387794592308425,0.2878589375,0.6609467800927018
0.028,1.7804,1.0,2644.649209709371,0.27026920696199674,1.3256710819552948,0.940452594930594,0.2878298,0.6617931963586341
0.0285,1.77969375,1.0,2654.074999812565,0.2743624221765553,1.3252651673141693,0.9420486576284063,0.2878001375,0.6626357491456807
0.029,1.778975,1.0,2662.7954620736596,0.2784326771936707,1.3248602523358763,0.9435723062669301,0.28776995,0.6634751800136185
0.029500000000000002,1.7782437500000001,1.0,2670.8454469625526,0.2824801000152738,1.3244559841625758,0.9450278519676478,0.2877392375,0.6643122268529795
0.03,1.7775,1.0,2678.260310047925,0.28650481864329536,1.3240520099364277,0.9464192884520679,0.287708,0.6651476239035758
0.0305,1.77674375,1.0,2685.0758641529433,0.29050696107966634,1.323647976799592,0.9477503194405517,0.2876762375,0.6659821017650855
0.031,1.775975,1.0,2691.3272372890033,0.2944866547078482,1.3232435419358488,0.949024384442229,0.28764395,0.6668163666988749
0.0315,1.7751937500000001,1.0,2697.042490681669,0.2984440237864181,1.322838430487999,0.9502446874022933,0.2876111375,0.6676509815052469
0.032,1.7744,1.0,2702.2587355172236,0.302379198906986,1.3224322876457393,0.9514142009392287,0.2875778,0.6684866705469874
0.0325,1.77359375,1.0,2706.998760612756,0.3062923022587784,1.322024892053845,0.9525357065626392,0.2875439375,0.6693238804136142
0.033,1.772775,1.0,2711.285572502352,0.31018345603102193,1.3216160223570914,0.9536117967408847,0.28750955,0.6701630553673561
0.0335,1.7719437500000002,1.0,2715.142374423514,0.3140527824129432,1.3212054572002532,0.9546448900215849,0.2874746375,0.6710046373239041
0.034,1.7711000000000001,1.0,2718.592546389492,0.31790040359376875,1.3207929752281056,0.9556372447712598,0.2874392,0.6718490658300384
0.0345,1.7702437500000001,1.0,2721.659626348529,0.32172644176272513,1.3203783550854236,0.9565909716748144,0.2874032375,0.6726967780381322
0.035,1.7693750000000001,1.0,2724.3672924287844,0.325531019109039,1.3199613754169819,0.9575080451198558,0.28736675,0.6735482086775293
0.035500000000000004,1.76849375,1.0,2726.7252711432634,0.32931424782728963,1.3195419428700543,0.9583903246783284,0.2873297375,0.6744035291671906
0.036000000000000004,1.7676,1.0,2728.772155555803,0.333076261888513,1.3191197024600159,0.9592395307402042,0.2872922,0.6752634422890018
0.0365,1.76669375,1.0,2730.52526147586,0.3368171794171987,1.3186944936299843,0.9600572928172657,0.2872541375,0.6761282516898213
0.037,1.765775,1.0,2731.998374586647,0.34053711589496444,1.3182661885528715,0.960845142888685,0.28721555,0.676998192678661
0.0375,1.76484375,1.0,2733.2053404415265,0.3442361868034281,1.3178346594015893,0.9616045198294335,0.2871764375,0.6778734989893997
0.038,1.7639,1.0,2734.160057420861,0.3479145076242074,1.3173997783490494,0.9623367760971535,0.28713679999999997,0.6787544027550201
0.0385,1.76294375,1.0,2734.876470051864,0.3515721938389202,1.3169614175681637,0.9630431838681501,0.28709663750000003,0.6796411344808042
0.039,1.761975,1.0,2735.368562689773,0.35520936092918426,1.316519449231844,0.9637249406733893,0.28705595,0.6805339230164865
0.0395,1.7609937500000001,1.0,2735.6503535627494,0.35882612437661743,1.3160737455130018,0.9643831745802083,0.2870147375,0.6814329955273666
0.04,1.76,1.0,2735.735889177472,0.36242259966283746,1.3156241785845495,0.9650189489608303,0.286973,0.6823385774643763
0.0405,1.7589937500000001,1.0,2735.639239088067,0.3659989022694622,1.3151706206193985,0.9656332668846833,0.2869307375,0.6832508925331098
0.041,1.757975,1.0,2735.366714211109,0.3695551401271841,1.3147130144028827,0.9662270799589918,0.28688795,0.6841700209357493
0.0415,1.75694375,1.0,2734.9351281792165,0.37309143310737986,1.3142512074957975,0.96680128094358,0.2868446375,0.6850962327405397
0.042,1.7559,1.0,2734.358134181852,0.3766078960656134,1.3137850762478915,0.9673567151779416,0.28680079999999997,0.6860297382783958
0.0425,1.75484375,1.0,2733.643304437349,0.3801046374100103,1.3133145523007999,0.9678941856398761,0.2867564375,0.6869706355757315
0.043000000000000003,1.753775,1.0,2732.798218051982,0.38358176554869633,1.312839567296157,0.9684144522021406,0.28671155,0.6879190214730653
0.043500000000000004,1.75269375,1.0,2731.830459173897,0.38703938888979716,1.3123600528755976,0.9689182343765371,0.28666613750000003,0.6888749916057202
0.044,1.7516,1.0,2730.7476152496783,0.39047761584143836,1.3118759406807563,0.9694062138568186,0.2866202,0.6898386403842264
0.0445,1.75049375,1.0,2729.5572753857464,0.39389655481174585,1.3113871623532676,0.9698790368770281,0.2865737375,0.6908100609744253
0.045,1.7493750000000001,1.0,2728.2670288123672,0.3972963142088451,1.310893649534766,0.9703373164003477,0.28652675,0.691789345277277
0.0455,1.74824375,1.0,2726.884463451437,0.4006770024408619,1.3103953338668868,0.970781634152187,0.2864792375,0.692776583908367
0.046,1.7471,1.0,2725.417164588787,0.4040387279159219,1.3098921469912639,0.9712125425099933,0.2864312,0.6937718661771203
0.0465,1.7459437500000001,1.0,2723.869024904543,0.40738159113856115,1.309384054113449,0.971630567661591,0.28638263750000004,0.6947752138403269
0.047,1.744775,1.0,2722.2464358048933,0.4107056998292492,1.308870997690855,0.972036209103479,0.28633355,0.6957866925556627
0.0475,1.74359375,1.0,2720.5611136245407,0.41401117288041256,1.3083528716610122,0.9724299398415711,0.28628393750000003,0.6968064621760438
0.048,1.7424,1.0,2718.816716517037,0.41729811125788946,1.3078296432423122,0.9728122128098232,0.2862338,0.6978345368026493
0.0485,1.74119375,1.0,2717.016900059025,0.4205666159275181,1.307301279653147,0.9731834592103614,0.2861831375,0.6988709296031199
0.049,1.739975,1.0,2715.1653168669327,0.42381678785513677,1.3067677481119078,0.9735440897528816,0.28613195,0.6999156528008581
0.0495,1.73874375,1.0,2713.265616238806,0.42704872800658367,1.306229015836987,0.9738944958124179,0.2860802375,0.7009687176642552
0.05,1.7375,1.0,2711.3214438192495,0.43026253734769704,1.305685050046776,0.9742350505115448,0.286028,0.7020301344958547
0.0505,1.73624375,1.0,2709.3364412880555,0.4334583168443152,1.3051358179596668,0.9745661097325875,0.2859752375,0.7030999126214448
0.051000000000000004,1.734975,1.0,2707.314246073386,0.43663616746227635,1.304581286794051,0.9748880130649478,0.28592195,0.7041780603790819
0.051500000000000004,1.73369375,1.0,2705.2584910878313,0.43979619016741867,1.3040214237683205,0.9752010846922463,0.2858681375,0.7052645851080461
0.052000000000000005,1.7324,1.0,2703.1728044890747,0.4429384859255805,1.303456196100867,0.9755056342236034,0.2858138,0.7063594931377299
0.0525,1.73109375,1.0,2701.060809464097,0.4460631557025999,1.3028855710100826,0.9758019574730297,0.28575893750000003,0.7074627897764547
0.053,1.729775,1.0,2698.926124037003,0.4491703004643154,1.3023095157143585,0.9760903371905892,0.28570355000000003,0.7085744793002233
0.0535,1.72844375,1.0,2696.77086719967,0.45226001922337017,1.3017280110914076,0.9763710443943184,0.2856476375,0.7096945386569624
0.054,1.7271,1.0,2694.5960687187767,0.4553324076259475,1.301141047955425,0.9766443386180147,0.2855912,0.7108229248606772
0.0545,1.7257437500000001,1.0,2692.405752152102,0.45838756226888566,1.3005485897087128,0.9769104666802876,0.2855342375,0.7119596467605351
0.055,1.724375,1.0,2690.2039944543053,0.46142557969050385,1.2999505992067473,0.977169664844601,0.28547675,0.7131047131234479
0.0555,1.72299375,1.0,2687.9881222100103,0.4644465562448058,1.2993471010754176,0.9774221630315556,0.2854187375,0.7142580136407644
0.056,1.7216,1.0,2685.771191125554,0.4674505877028576,1.2987379758510578,0.977668173034927,0.2853602,0.715419712322745
0.0565,1.7201995837284823,1.0,2683.8196187815793,0.47043776883025956,1.2981234159253983,0.9779079158414274,0.28530138251659626,0.7165893777964669
0.057,1.7187991602847819,1.0,2682.428602949696,0.4734081941327552,1.2975037192381085,0.9781416093908448,0.28524256473196086,0.7177663808657293
0.0575,1.7173987368410815,1.0,2681.55546738814,0.4763619578521898,1.2968792763968255,0.9783694680005256,0.2851837469473254,0.7189499210653612
0.058,1.715998313397381,1.0,2681.158325601775,0.47929915327915806,1.2962504692314174,0.9785916967811146,0.28512492916269,0.7201392202811385
0.0585,1.7145978899536807,1.0,2681.199286453868,0.482219873258716,1.2956176442755447,0.9788084906586156,0.2850661113780546,0.7213335726816885
0.059000000000000004,1.7131974665099803,1.0,2681.6421618594127,0.48512421034550457,1.2949811334783607,0.9790200360290588,0.28500729359341914,0.722532305139737
0.059500000000000004,1.7117970430662797,1.0,2682.4541288018754,0.48801225649670904,1.2943412387056399,0.9792265102981474,0.28494847580878374,0.7237348061136146
0.06,1.7103966196225793,1.0,2683.6060427064986,0.49088410287163065,1.2936982286616947,0.979428082128274,0.28488965802414834,0.7249405308704812
0.0605,1.7089961961788789,1.0,2685.0786801083564,0.49373983707231217,1.2930522815251526,0.9796249085460297,0.2848308402395129,0.7261491080768581
0.061,1.7075957727351785,1.0,2686.8291202645405,0.49657955559724654,1.2924037929293346,0.9798171528855218,0.2847720224548775,0.7273597636496774
0.0615,1.706195349291478,1.0,2688.83538793199,0.4994033479454696,1.2917529666083176,0.9800049616432331,0.2847132046702421,0.7285720869746362
0.062,1.7047949258477777,1.0,2691.080627876583,0.5022113018018423,1.2910999594751529,0.9801884732398045,0.2846543868856067,0.7297857576325395
0.0625,1.7033945024040773,1.0,2693.547989461705,0.5050035048512255,1.2904449284428914,0.98036782095502,0.2845955691009712,0.7310004577225884
0.063,1.701994078960377,1.0,2696.2206193344887,0.5077800447784803,1.2897880304245843,0.980543133161311,0.2845367513163358,0.732215871883419
0.0635,1.7005936555166763,1.0,2699.08165465716,0.5105410092684675,1.289129422333283,0.980714533545027,0.28447793353170037,0.7334316873125705
0.064,1.699193232072976,1.0,2702.114216885336,0.5132864860060481,1.288469261082038,0.9808821413161962,0.28441911574706497,0.7346475937843844
0.0645,1.6977928086292755,1.0,2705.301406091043,0.516016562676083,1.287807703583901,0.981046071407453,0.28436029796242956,0.7358632836663308
0.065,1.6963923851855751,1.0,2708.6298086635265,0.5187313246461235,1.2871448746988299,0.9812064329003654,0.28430148017779416,0.7370785106319939
0.0655,1.6949919617418747,1.0,2712.0856334491623,0.5214308594675803,1.2864809025275217,0.9813633313382463,0.28424266239315876,0.7382930245121704
0.066,1.6935915382981743,1.0,2715.654842455512,0.5241152549676904,1.285815917179184,0.9815168686847648,0.2841838446085233,0.7395065736193297
0.0665,1.6921911148544737,1.0,2719.3296331291403,0.526784594338594,1.2851499917052764,0.9816671402658863,0.2841250268238879,0.7407190122145433
0.067,1.6907906914107733,1.0,2723.102187423487,0.5294389607724316,1.2844831991572576,0.9818142381161787,0.2840662090392525,0.7419301957820539
0.0675,1.689390267967073,1.0,2726.9646703356393,0.5320784374613431,1.2838156125865874,0.9819582511175371,0.28400739125461705,0.7431399810334827
0.068,1.6879898445233725,1.0,2730.9092285612533,0.534703107597469,1.2831473050447246,0.982099265131141,0.28394857346998165,0.7443482259117018
0.0685,1.6865894210796721,1.0,2734.9279892673394,0.5373130543729494,1.282478349583129,0.9822373631230256,0.28388975568534625,0.7455547895943611
0.069,1.6851889976359717,1.0,2739.0130589838227,0.5399083609799247,1.2818088192532595,0.9823726252836164,0.2838309379007108,0.7467595324970782
0.0695,1.6837885741922713,1.0,2743.1570894279553,0.5424891096753661,1.281138781967288,0.9825051288427263,0.2837721201160754,0.7479623254909111
0.07,1.682388150748571,1.0,2747.359355355404,0.5450553731631604,1.2804682454442755,0.9826349451010752,0.28371330233144,0.7491631482698011
0.07050000000000001,1.6809877273048703,1.0,2751.604625193188,0.5476072498918447,1.2797973487210201,0.9827621506525912,0.28365448454680453,0.750361746328724
0.07100000000000001,1.67958730386117,1.0,2755.889882795754,0.5501448177955467,1.2791261199148267,0.9828868132901266,0.28359566676216913,0.7515580649913705
0.07150000000000001,1.6781868804174696,1.0,2760.2121031239208,0.5526681548083939,1.2784545871429998,0.9830089986180954,0.28353684897753373,0.7527520500606555
0.07200000000000001,1.6767864569737692,1.0,2764.56825204675,0.5551773388645138,1.277782778522844,0.9831287701384868,0.28347803119289827,0.7539436478192878
0.0725,1.6753860335300688,1.0,2768.955286161149,0.557672447898034,1.277110722171664,0.9832461893329602,0.28341921340826287,0.7551328050302897
0.073,1.6739856100863684,1.0,2773.3701526281743,0.5601535598430822,1.2764384462067646,0.9833613157412232,0.28336039562362747,0.7563194689374672
0.0735,1.672585186642668,1.0,2777.809789027722,0.5626207526337859,1.27576597874545,0.9834742070358852,0.28330157783899207,0.7575035872658291
