Time [s],Phi [rad],STIM [ ],Fsee [N],Gamma [ ],Lcerel [ ],q [ ],Lmtc [m],fisomrel [ ]
0.0,1.8,1.0,17.96749483376547,1.9253228836925866e-05,1.3793397085020258,0.005000098285192865,0.288653,0.5411396223010143
0.0005,1.79999375,1.0,18.27991594439772,0.0056283545422468806,1.379302035479734,0.012966222830516287,0.2886527375,0.5412307585488858
0.001,1.799975,1.0,21.628415900260652,0.011205993232164783,1.3789372773722055,0.035656810499918666,0.28865195,0.5421126907453451
0.0015,1.79994375,1.0,31.093821243358185,0.01675234577990233,1.378044109565225,0.0706677228122446,0.2886506375,0.5442686582367227
0.002,1.7999,1.0,53.63594798983792,0.02226758767510378,1.3763646578482864,0.11479601918259902,0.2886488,0.5483088148046629
0.0025,1.79984375,1.0,97.20937240704633,0.027751893423376254,1.373930810438296,0.16465972975811544,0.28864643749999996,0.5541318526943853
0.003,1.7997750000000001,1.0,161.07623104975102,0.03320543655392014,1.371209925309916,0.21736797695747856,0.28864354999999997,0.5605969111970875
0.0035,1.79969375,1.0,237.81694348239859,0.038628389619188075,1.3685806192102017,0.2706999412449048,0.2886401375,0.5667995125721439
0.004,1.7996,1.0,321.60906608489734,0.0440209242056499,1.3661523239688136,0.3230000938863544,0.2886362,0.5724887616461638
0.0045000000000000005,1.7994937500000001,1.0,409.41521823414126,0.0493832109389821,1.3639193528553188,0.3731145242933043,0.2886317375,0.5776871958461924
0.005,1.799375,1.0,499.5640466838382,0.05471541947517473,1.361855143571888,0.42032232369159966,0.28862675,0.5824644613219654
0.0055,1.79924375,1.0,590.9423868839611,0.060017718547642346,1.3599358661086067,0.464243010517465,0.2886212375,0.5868819269408391
0.006,1.7991000000000001,1.0,682.6703348582014,0.06529027591129337,1.358143647828541,0.504743660313616,0.2886152,0.5909857382655168
0.006500000000000001,1.79894375,1.0,774.0347279680451,0.07053325839505509,1.356464633911729,0.5418589800781817,0.2886086375,0.5948117499049013
0.007,1.798775,1.0,864.4402253978323,0.07574683190059657,1.3548879008237387,0.5757298103855778,0.28860155,0.5983883222223223
0.0075,1.79859375,1.0,953.396262664235,0.08093116136910995,1.3534044252606978,0.6065581357988761,0.2885939375,0.6017388782084052
0.008,1.7984,1.0,1040.510137655269,0.08608641085635584,1.3520064131984793,0.6345758574106619,0.2885858,0.6048835620763441
0.0085,1.79819375,1.0,1125.4691017686393,0.09121274347044073,1.3506870491239,0.6600241700915416,0.2885771375,0.6078399029871535
0.009000000000000001,1.797975,1.0,1208.0302294555252,0.09631032140599126,1.3494402581351301,0.683140460808714,0.28856795,0.6106234247272118
0.0095,1.79774375,1.0,1288.007174852706,0.1013793055890078,1.3482606024882995,0.7041505416650952,0.2885582375,0.6132479360793579
0.01,1.7975,1.0,1365.3003775399811,0.10641985761230638,1.347142671692355,0.7232641870890414,0.288548,0.6157269307726209
0.0105,1.79724375,1.0,1439.7947896735702,0.11143213588803748,1.3460822531630297,0.7406739358689517,0.2885372375,0.6180710269311245
0.011,1.796975,1.0,1511.4379047341774,0.11641629880826687,1.345075140460011,0.756554119596061,0.28852595000000003,0.6202906487133408
0.0115,1.79669375,1.0,1580.2200857073744,0.12137250421198785,1.344117299494586,0.7710615322641817,0.2885141375,0.6223956766216626
0.012,1.7964,1.0,1646.1649558082281,0.1263009099365561,1.343204901500476,0.784336524701325,0.28850180000000003,0.6243953940881654
0.0125,1.79609375,1.0,1709.2858232969775,0.13120167149539735,1.3423347500463696,0.7965045001854896,0.2884889375,0.6262975730570461
0.013000000000000001,1.7957750000000001,1.0,1769.6056931664655,0.13607494320985317,1.3415039535758089,0.8076771571544996,0.28847555,0.6281092145793743
0.0135,1.79544375,1.0,1827.1792487146383,0.14092087940126505,1.3407096205323352,0.8179537652389723,0.2884616375,0.6298372272854341
0.014,1.7951000000000001,1.0,1882.0687231510735,0.1457396334525283,1.339949092911594,0.8274225983673432,0.2884472,0.6314879280248228
0.0145,1.79474375,1.0,1934.369052645889,0.15053135907548842,1.3392196306268676,0.8361620548734731,0.2884322375,0.6330677365987614
0.015,1.794375,1.0,1984.1395186985987,0.15529620693480528,1.3385191215038497,0.8442420370701657,0.28841675,0.6345816466079779
0.0155,1.79399375,1.0,2031.4482442715619,0.16003432724998737,1.3378455530094155,0.8517247600300836,0.2884007375,0.6360343823716907
0.016,1.7936,1.0,2076.3796638526264,0.16474587024054305,1.3371969126104402,0.8586656263100261,0.2883842,0.6374306190241938
0.0165,1.7931937500000001,1.0,2119.0181692452115,0.16943098487123925,1.3365713419503067,0.8651140789593742,0.2883671375,0.6387746549036024
0.017,1.792775,1.0,2159.466690208385,0.17408982085200464,1.3359669262327203,0.8711142457921999,0.28834955,0.6400708688703376
0.0175,1.7923437500000001,1.0,2197.7942613504797,0.17872252440667838,1.3353822162241713,0.8767057111800672,0.2883314375,0.6413226053589388
0.018000000000000002,1.7919,1.0,2234.0773528939126,0.1833292415981529,1.3348157829715952,0.881923924984428,0.2883128,0.6425331360749926
0.0185,1.79144375,1.0,2268.401036147222,0.18791011848932052,1.3342661975219272,0.8868006799729984,0.2882936375,0.6437057053387498
0.019,1.790975,1.0,2300.8438563885825,0.1924652994868934,1.3337321734040908,0.8913645698973391,0.28827395,0.644843228427876
0.0195,1.79049375,1.0,2331.5037594948094,0.19699493120016173,1.3332123001568652,0.8956412930419249,0.2882537375,0.6459488616842193
0.02,1.79,1.0,2360.4481140602684,0.20149915567871118,1.3327055299131498,0.8996540915200038,0.288233,0.6470249692768182
0.0205,1.78949375,1.0,2387.745232430249,0.20597811445756356,1.3322108548552407,0.9034239526392718,0.2882117375,0.6480738135087698
0.021,1.788975,1.0,2413.467979729953,0.2104319490717408,1.3317272671654348,0.9069698503109297,0.28818995000000003,0.6490976410043121
0.021500000000000002,1.78844375,1.0,2437.6933887190294,0.21486080105626468,1.331253759026028,0.9103089658308909,0.2881676375,0.6500986834538461
0.022,1.7879,1.0,2460.485284476573,0.21926480937843132,1.3307894854923576,0.9134569139673042,0.2881448,0.6510788146929252
0.0225,1.78734375,1.0,2481.929579936081,0.223644117085342,1.3303334212804259,0.9164278445390603,0.28812143749999997,0.6520402767384206
0.023,1.786775,1.0,2502.0804820611183,0.22799886115156343,1.3298848725379462,0.9192346915662036,0.28809755,0.652984600990507
0.0235,1.78619375,1.0,2520.9918374077915,0.23232917808287148,1.3294431712671684,0.9218892430886771,0.28807313749999996,0.6539132554382372
0.024,1.7856,1.0,2538.719630216375,0.23663520438504207,1.3290076494703427,0.924402254285871,0.2880482,0.6548276995854596
0.0245,1.78499375,1.0,2555.321802335548,0.24091707656385106,1.328577639149719,0.9267835522024449,0.2880227375,0.6557293847283068
0.025,1.784375,1.0,2570.855294993113,0.24517493050889227,1.3281524984200517,0.9290421327866258,0.28799675,0.6566196995557334
0.025500000000000002,1.78374375,1.0,2585.370087262602,0.24940890036016744,1.3277316653222866,0.9311862512546543,0.2879702375,0.6574998582432422
0.026000000000000002,1.7831000000000001,1.0,2598.9345120531266,0.2536191239292483,1.3273144196058266,0.9332234573458732,0.2879432,0.6583713989735359
0.0265,1.78244375,1.0,2611.588282453946,0.2578057323249064,1.3269003200336114,0.9351607288199798,0.2879156375,0.6592352702867426
0.027,1.781775,1.0,2623.372103948454,0.2619688566559133,1.3264889253685799,0.9370044839786213,0.28788755,0.6600924158535392
0.0275,1.7810937500000001,1.0,2634.3275905681107,0.2661086280310406,1.3260797943736724,0.9387606339720638,0.2878589375,0.660943774557473
0.028,1.7804,1.0,2644.4971853627894,0.2702251775590598,1.325672485811828,0.9404346295804135,0.2878298,0.6617902805648745
0.0285,1.77969375,1.0,2653.9240851880795,0.2743186363487425,1.3252665584459866,0.9420315031129445,0.2878001375,0.6626328633823456
0.029,1.778975,1.0,2662.646665767999,0.278389132810803,1.3248616216928875,0.9435559120754101,0.28776995,0.6634723429562095
0.029500000000000002,1.7782437500000001,1.0,2670.7069553926585,0.28243679917428344,1.3244572567627184,0.9450121638414126,0.2877392375,0.6643095935395773
0.03,1.7775,1.0,2678.1376696235407,0.2864617629584525,1.324053135317488,0.946404259127448,0.287708,0.6651452981215109
0.0305,1.77674375,1.0,2684.968714616509,0.2904641498922599,1.3236489587820435,0.9477359113274608,0.2876762375,0.665980074870214
0.031,1.775975,1.0,2691.2303778554956,0.29444408570465525,1.3232444285812321,0.9490105677299182,0.28764395,0.6668145388749768
0.0315,1.7751937500000001,1.0,2696.953292134879,0.29840169612458817,1.3228392461399014,0.9502314319065394,0.2876111375,0.6676493021422836
0.032,1.7744,1.0,2702.168401519099,0.30233710688100823,1.3224331128828983,0.9514014839560201,0.2875778,0.6684849735862377
0.0325,1.77359375,1.0,2706.9028871489045,0.30625044112286587,1.322025767129524,0.9525235024816916,0.2875439375,0.6693220832418421
0.033,1.772775,1.0,2711.1823637573993,0.3101418220446335,1.3216169636404411,0.9536000792171356,0.28750955,0.6701611246769872
0.0335,1.7719437500000002,1.0,2715.044300307437,0.31401138148034846,1.3212063510188754,0.9546336222443984,0.2874746375,0.6710028063301627
0.034,1.7711000000000001,1.0,2718.5071794567734,0.317859238861963,1.320793752742439,0.9556263965208798,0.2874392,0.6718474751320885
0.0345,1.7702437500000001,1.0,2721.589625264585,0.3216855136214292,1.320378992288744,0.9565805188388726,0.2874032375,0.6726954760843399
0.035,1.7693750000000001,1.0,2724.3103892142467,0.32549032519069915,1.319961893135403,0.9574979692499066,0.28736675,0.6735471522359981
0.035500000000000004,1.76849375,1.0,2726.688336927408,0.32927379300172505,1.319542278760028,0.9583806014816616,0.2873297375,0.6744028446583183
0.036000000000000004,1.7676,1.0,2728.742435568371,0.33303603648645885,1.3191199726402316,0.95923015244675,0.2872922,0.6752628924174038
0.0365,1.76669375,1.0,2730.491741940135,0.3367771750768528,1.3186947982536261,0.9600482509319216,0.2872541375,0.6761276325448997
0.037,1.765775,1.0,2731.955391270311,0.34049732820485895,1.3182665790778236,0.9608364255467525,0.28721555,0.6769974000066947
0.0375,1.76484375,1.0,2733.152586688933,0.34419661530242945,1.3178351385904366,0.9615961120024861,0.2871764375,0.6778725276696365
0.038,1.7639,1.0,2734.098477565328,0.3478751468516577,1.317400337612608,0.9623286615153216,0.28713679999999997,0.6787532706741151
0.0385,1.76294375,1.0,2734.814459096912,0.351533050880812,1.3169619806731871,0.9630353433781356,0.28709663750000003,0.6796399961981191
0.039,1.761975,1.0,2735.311931678698,0.3551704406015321,1.316519963436513,0.9637173578814148,0.28705595,0.6805328850323612
0.0395,1.7609937500000001,1.0,2735.602072406876,0.3587874287402469,1.316074183878796,0.9643758358020094,0.2870147375,0.6814321118793147
0.04,1.76,1.0,2735.696085216156,0.36238412802338527,1.3156245399762458,0.9650118430612917,0.286973,0.6823378500152526
0.0405,1.7589937500000001,1.0,2735.605196735872,0.3659606511773762,1.3151709297050735,0.9656263851288056,0.2869307375,0.6832502712654324
0.041,1.757975,1.0,2735.340652377653,0.36951711092864864,1.3147132510414887,0.9662204110822352,0.28688795,0.6841695459786253
0.0415,1.75694375,1.0,2734.9137126527867,0.3730536200036314,1.314251401961702,0.9667948173538417,0.2868446375,0.6850958430009719
0.042,1.7559,1.0,2734.33564972129,0.3765702911287535,1.3137852804419237,0.9673504511905713,0.28680079999999997,0.6860293296491815
0.0425,1.75484375,1.0,2733.617744171457,0.38006723703044387,1.3133147844583637,0.9678881138524477,0.2867564375,0.6869701716830647
0.043000000000000003,1.753775,1.0,2732.759209863875,0.38354454881552674,1.3128399216530808,0.968408569057502,0.28671155,0.6879183144773413
0.043500000000000004,1.75269375,1.0,2731.7818149322597,0.38700236088221696,1.3123604948467023,0.9689125303306346,0.28666613750000003,0.6888741111579186
0.044,1.7516,1.0,2730.697747243469,0.39044079037806995,1.3118763938605984,0.969400677841541,0.2866202,0.6898377390067247
0.0445,1.75049375,1.0,2729.512297942054,0.3938599418198505,1.3113875711786294,0.9698736593490985,0.2865737375,0.6908092490927107
0.045,1.7493750000000001,1.0,2728.230759503974,0.3972599197243232,1.310893979284655,0.9703320892744783,0.28652675,0.6917886914685986
0.0455,1.74824375,1.0,2726.858424788984,0.4006408286082526,1.3103955706625356,0.970776550737854,0.2864792375,0.6927761151565015
0.046,1.7471,1.0,2725.400586142979,0.40400277298840354,1.3098922977961311,0.9712075974516676,0.2864312,0.6937715681333991
0.0465,1.7459437500000001,1.0,2723.8625345500977,0.40734585738154044,1.3093841131693011,0.9716257554818393,0.28638263750000004,0.6947750973164702
0.047,1.744775,1.0,2722.249558834893,0.41067018630442814,1.3088709692659062,0.9720315248873024,0.28633355,0.6957867485482769
0.0475,1.74359375,1.0,2720.5669449152397,0.4139758642738312,1.3083528185698057,0.9724253812473477,0.28628393750000003,0.6968065665818128
0.048,1.7424,1.0,2718.8199751041284,0.4172629958065142,1.30782961356486,0.972807777085428,0.2862338,0.6978345950653986
0.0485,1.74119375,1.0,2717.0139274628914,0.42053168541924196,1.3073013067349288,0.9731791431973501,0.2861831375,0.6988708765274401
0.049,1.739975,1.0,2715.1540752028814,0.423782037628779,1.3067678505638725,0.973539889891092,0.28613195,0.6999154523610384
0.0495,1.73874375,1.0,2713.2456861389755,0.4270141569518899,1.3062291975355507,0.9738904081448886,0.2860802375,0.7009683628084589
0.05,1.7375,1.0,2711.2940221917042,0.4302281479053394,1.3056853001338233,0.9742310706896663,0.286028,0.7020296469454539
0.0505,1.73624375,1.0,2709.3037696675533,0.4334241123378902,1.305136116036274,0.9745622330615453,0.2859752375,0.7030993325583468
0.051000000000000004,1.734975,1.0,2707.2758426821915,0.4366021347478999,1.3045816372949692,0.9748842348283991,0.28592195,0.7041773795367214
0.051500000000000004,1.73369375,1.0,2705.21967083991,0.4397623441110457,1.3040217782084251,0.9751974000502414,0.2858681375,0.7052638978794233
0.052000000000000005,1.7324,1.0,2703.137259600931,0.4429048363724806,1.303456520761068,0.975502038902933,0.2858138,0.7063588648201132
0.0525,1.73109375,1.0,2701.030611812562,0.4460297074773576,1.3028858469373246,0.9757984477570216,0.28575893750000003,0.707462256776338
0.053,1.729775,1.0,2698.901727614475,0.4491370533708299,1.3023097387216216,0.9760869099088945,0.28570355000000003,0.7085740493433192
0.0535,1.72844375,1.0,2696.752604350728,0.4522269699980503,1.3017281780983851,0.976367696267136,0.2856476375,0.7096942172877205
0.054,1.7271,1.0,2694.585236489332,0.45529955330417193,1.301141147052042,0.9766410659971907,0.2855912,0.7108227345413918
0.0545,1.7257437500000001,1.0,2692.4016155486993,0.4583548992343478,1.3005486275670186,0.9769072671271994,0.2855342375,0.7119595741950941
0.055,1.724375,1.0,2690.2037300314414,0.461393103733731,1.2999506016277416,0.9771665371176521,0.28547675,0.7131047084922062
0.0555,1.72299375,1.0,2687.9935653654993,0.46441426274747444,1.2993470512186376,0.9774191033973012,0.2854187375,0.7142581088224056
0.056,1.7216,1.0,2685.7731038523057,0.46741847222073124,1.2987379583241327,0.9776651838675987,0.2853602,0.715419745715334
0.0565,1.72019375,1.0,2683.5443246220734,0.4704058280986544,1.298123304928654,0.9779049873777463,0.28530113749999997,0.7165895888342372
0.057,1.718775,1.0,2681.309203596549,0.473376426326397,1.2975030730166277,0.9781387141723005,0.28524155,0.7177676069695889
0.0575,1.71734375,1.0,2679.0697134585635,0.4763303628491119,1.2968772445724803,0.9783665563131219,0.2851814375,0.7189537680326904
0.058,1.7159,1.0,2676.8284712273876,0.4792677334555202,1.296245795636584,0.9785886977289263,0.2851208,0.7201480502794875
0.0585,1.71444375,1.0,2674.58891632499,0.48218862963610626,1.2956086946575778,0.9788053141608962,0.2850596375,0.7213504452896777
0.059000000000000004,1.7129750000000001,1.0,2672.3477720955048,0.48509314227313804,1.2949659717271682,0.9790165777027648,0.28499795,0.7225608275607379
0.059500000000000004,1.71149375,1.0,2670.1073300790977,0.4879813627050296,1.2943176058149364,0.9792226508929045,0.2849357375,0.7237791674341956
0.06,1.71,1.0,2667.869877977734,0.4908533822701952,1.2936635758904627,0.9794236898955961,0.284873,0.7250054342960028
0.0605,1.7084937500000001,1.0,2665.6289339260575,0.49370929194540353,1.2930039415493828,0.979619849105176,0.2848097375,0.7262394459072892
0.061,1.7069758027294428,1.0,2663.4379455971243,0.49654918266625564,1.292338573556387,0.9798112668998551,0.2847459837146366,0.72748137248411
0.0615,1.7054552824879263,1.0,2661.716197988329,0.49937314390551,1.2916677324895196,0.9799980968213834,0.28468212186449293,0.7287306563278764
0.062,1.7039347622464098,1.0,2660.5461755850474,0.5021812646914403,1.2909918167401004,0.9801804938209469,0.2846182600143492,0.7299864878517086
0.0625,1.7024142420048936,1.0,2659.8843640999357,0.504973634029712,1.2903112236299163,0.9803586070432349,0.2845543981642055,0.7312480657987905
0.063,1.700893721763377,1.0,2659.689675065009,0.5077503403471956,1.2896263297602364,0.980532579042649,0.28449053631406185,0.7325146336403534
0.0635,1.6993732015218606,1.0,2659.921465982102,0.51051147198051,1.288937508882931,0.980702547032879,0.2844266744639181,0.7337854463026985
0.064,1.697852681280344,1.0,2660.5478003756925,0.5132571157062165,1.2882450555384726,0.9808686391520718,0.28436281261377444,0.7350599105791545
0.0645,1.6963321610388276,1.0,2661.536819407702,0.5159873583008764,1.2875492642673343,0.9810309789508569,0.28429895076363076,0.7363374381993455
0.065,1.694811640797311,1.0,2662.8639888397406,0.5187022842130152,1.28685036270924,0.9811896820936645,0.28423508891348703,0.7376175682830913
0.0655,1.6932911205557946,1.0,2664.492222227213,0.5214019823316021,1.286148694377072,0.9813448662197407,0.28417122706334336,0.7388996323542637
0.066,1.691770600314278,1.0,2666.3911893083373,0.5240865399419535,1.285444540739707,0.9814966417216242,0.2841073652131997,0.7401830808733985
0.0665,1.6902500800727616,1.0,2668.5431896280156,0.526756040317715,1.2847380671689281,0.9816451092441826,0.28404350336305595,0.7414675800538998
0.067,1.6887295598312453,1.0,2670.9305312721335,0.5294105667325312,1.2840294390365186,0.9817903659689489,0.28397964151291233,0.742752798981507
0.0675,1.6872090395897288,1.0,2673.5355226638476,0.5320502024600474,1.283318821714261,0.9819325057619905,0.2839157796627686,0.7440384096378916
0.068,1.6856885193482123,1.0,2676.3404649676813,0.5346750307739087,1.2826063805739385,0.982071619314513,0.2838519178126249,0.7453240869225071
0.0685,1.6841679991066958,1.0,2679.3276450986978,0.53728513494776,1.281892280987334,0.9822077942766029,0.28378805596248124,0.7466095086726974
0.069,1.6826474788651793,1.0,2682.4793293387897,0.5398805982552464,1.2811766883262308,0.9823411153844829,0.2837241941123375,0.747894355682059
0.0695,1.6811269586236628,1.0,2685.780256861727,0.5424615024623565,1.2804597450605366,0.9824716634151974,0.28366033226219384,0.7491783526804172
0.07,1.6796064383821463,1.0,2689.217412186722,0.5450279295320724,1.2797415728677692,0.9825995155480085,0.28359647041205016,0.750461264060799
0.07050000000000001,1.6780859181406298,1.0,2692.774574897893,0.5475799638539206,1.279022322542435,0.982724747944628,0.28353260856190643,0.7517428046014838
0.07100000000000001,1.6765653978991133,1.0,2696.4434915282723,0.5501176845059448,1.278302071699398,0.9828474306360542,0.28346874671176275,0.7530228217086197
0.07150000000000001,1.675044877657597,1.0,2700.215892523187,0.552641170566189,1.2775808979535208,0.9829676314021368,0.2834048848616191,0.7543011641942509
0.07200000000000001,1.6735243574160805,1.0,2704.0834905855754,0.5551505011126967,1.2768588789196673,0.9830854158608816,0.28334102301147535,0.7555776822810746
0.0725,1.672003837174564,1.0,2708.0379791547966,0.5576457552235119,1.2761360922127007,0.9832008475536642,0.28327716116133167,0.7568522276068202
0.073,1.6704833169330475,1.0,2712.0710310184145,0.5601270119766785,1.2754126154474847,0.9833139880265681,0.283213299311188,0.7581246532282394
0.0735,1.668962796691531,1.0,2716.174297058265,0.56259435045024,1.2746885262388823,0.9834248969080452,0.2831494374610443,0.7593948136247158
0.074,1.6674422764500145,1.0,2720.340350105124,0.5650478483397903,1.2739638935978357,0.9835336315241471,0.2830855756109006,0.7606625797344189
