Time [s],Phi [rad],STIM [ ],Fsee [N],Gamma [ ],Lcerel [ ],q [ ],Lmtc [m],fisomrel [ ]
0.0,1.8,1.0,17.967012644645397,1.0000401747281383e-05,1.3793397625231893,0.0050000266539067815,0.288653,0.5411394916098544
0.0005,1.79999375,1.0,18.276358155792035,0.0056191536161966284,1.3793024306657369,0.012940515924707748,0.2886527375,0.5412298025863006
0.001,1.799975,1.0,21.617985562803216,0.01119684391603511,1.3789383425589439,0.03560858136633959,0.28865195,0.5421101165136495
0.0015,1.79994375,1.0,31.068749983628177,0.016743247784198,1.3780462451364273,0.07060171257660851,0.2886506375,0.5442635093694144
0.002,1.7999,1.0,53.58163223169395,0.02225854071196959,1.3763681807070733,0.11471784565906495,0.2886488,0.5483003589006625
0.0025,1.79984375,1.0,97.11781383032316,0.0277428972065463,1.3739352214137364,0.164574683364871,0.28864643749999996,0.5541213335021045
0.003,1.7997750000000001,1.0,160.9569250923809,0.03319649079875456,1.3712143902354403,0.21728023646905012,0.28864354999999997,0.5605863408231193
0.0035,1.79969375,1.0,237.6820498378775,0.038619494042641506,1.3685847737131147,0.27061267082251195,0.2886401375,0.5667897467692986
0.004,1.7996,1.0,321.4655058266801,0.044012078526257464,1.3661561259147839,0.322915590001276,0.2886362,0.5724798834664444
0.0045000000000000005,1.7994937500000001,1.0,409.26653237785075,0.04937441487684029,1.3639228427673598,0.3730343062731142,0.2886317375,0.5776790960208023
0.005,1.799375,1.0,499.4123254882867,0.05470667275190653,1.361858367393669,0.4202472724997517,0.28862675,0.5824570215152693
0.0055,1.79924375,1.0,590.7892831704017,0.06000902088671271,1.3599388571929822,0.4641735243340051,0.2886212375,0.5868750608501593
0.006,1.7991000000000001,1.0,682.5170189110777,0.0652816270374193,1.3581464345501069,0.5046798028637838,0.2886152,0.5909793731474682
0.006500000000000001,1.79894375,1.0,773.8805408955375,0.07052465803634042,1.3564672658563504,0.5418006120047788,0.2886086375,0.5948057664952107
0.007,1.798775,1.0,864.2848753223926,0.07573827977701808,1.3548904101138544,0.5756766494990055,0.28860155,0.5983826428865442
0.0075,1.79859375,1.0,953.2415170825808,0.08092265722201271,1.3534068053131971,0.60650980508283,0.2885939375,0.601733513897704
0.008,1.7984,1.0,1040.356061264853,0.08607795438626002,1.3520086815815318,0.6345319659112453,0.2885858,0.6048784696786729
0.0085,1.79819375,1.0,1125.3178977905982,0.09120433447517588,1.3506891895409134,0.6599843052947996,0.2885771375,0.6078351158773511
0.009000000000000001,1.797975,1.0,1207.8777373287871,0.09630195938613104,1.3494423417123689,0.6831042737628854,0.28856795,0.6106187813092347
0.0095,1.79774375,1.0,1287.8721654060432,0.1013709909371124,1.348262388991405,0.7041175392324414,0.2885582375,0.6132439681568858
0.01,1.7975,1.0,1365.1655298888516,0.10641158938384081,1.347144404807362,0.7232341655324991,0.288548,0.6157230937848929
0.0105,1.79724375,1.0,1439.6586222198553,0.11142391373099941,1.346083957363435,0.7406466002187643,0.2885372375,0.618067265483623
0.011,1.796975,1.0,1511.3065836912929,0.11640812259660119,1.3450767445767844,0.7565291584891999,0.28852595000000003,0.6202871184703084
0.0115,1.79669375,1.0,1580.1101085280022,0.12136437453820609,1.3441186133232197,0.7710386144906692,0.2885141375,0.6223927932541595
0.012,1.7964,1.0,1646.0648415742137,0.12629282604741895,1.3432060732995057,0.7843155011289333,0.28850180000000003,0.6243928292421376
0.0125,1.79609375,1.0,1709.17807879681,0.13119363243273696,1.342335987651177,0.7964852623630897,0.2884889375,0.6262948710423892
0.013000000000000001,1.7957750000000001,1.0,1769.4932029100012,0.13606694896944754,1.3415052234799325,0.8076595123730412,0.28847555,0.6281064487752595
0.0135,1.79544375,1.0,1827.072726824654,0.14091292990399856,1.3407108039607538,0.8179375088908573,0.2884616375,0.6298346558176555
0.014,1.7951000000000001,1.0,1881.9856871583145,0.14573172958233438,1.3399500018633062,0.8274075250688365,0.2884472,0.6314859573760783
0.0145,1.79474375,1.0,1934.28493166425,0.15052349937882872,1.3392205389215341,0.8361481434895323,0.2884322375,0.6330657716000764
0.015,1.794375,1.0,1984.0442794565158,0.15528839066785527,1.3385201368693822,0.8442292126182631,0.28841675,0.6345794545087204
0.0155,1.79399375,1.0,2031.3462925168412,0.16002655399765375,1.3378466272081861,0.8517129045669256,0.2884007375,0.6360320678700666
0.016,1.7936,1.0,2076.286448710826,0.1647381406026771,1.3371978840713583,0.8586546002663248,0.2883842,0.6374285299036953
0.0165,1.7931937500000001,1.0,2118.9519638441334,0.16942330018127247,1.3365720249442476,0.8651037515785602,0.2883671375,0.6387731888550023
0.017,1.792775,1.0,2159.4089391600496,0.17408217953818142,1.3359675164024079,0.8711046087647916,0.28834955,0.6400696043443808
0.0175,1.7923437500000001,1.0,2197.7341611622405,0.17871492547814563,1.3353828250213933,0.8766967339401416,0.2883314375,0.6413213031909104
0.018000000000000002,1.7919,1.0,2234.0142098716383,0.18332168480590674,1.3348164173767583,0.881915552430494,0.2883128,0.6425317814253584
0.0185,1.79144375,1.0,2268.3367893947775,0.18790260341308046,1.3342668381142277,0.8867928554800621,0.2882936375,0.6437043397229486
0.019,1.790975,1.0,2300.7929796384988,0.1924578275002737,1.3337326770966864,0.8913572129701348,0.28827395,0.6448421563707871
0.0195,1.79049375,1.0,2331.463151212002,0.1969875015374368,1.333212699536425,0.8956343722308547,0.2882537375,0.6459480129708167
0.02,1.79,1.0,2360.413248924233,0.2014917674795816,1.3327058707002262,0.899647581535815,0.288233,0.6470242461785854
0.0205,1.78949375,1.0,2387.7142602932845,0.2059707672817201,1.3322111558548724,0.9034178248579803,0.2882117375,0.6480731757830667
0.021,1.788975,1.0,2413.441796254269,0.2104246428988641,1.3317275202671461,0.9069640732128919,0.28818995000000003,0.6490971055402109
0.021500000000000002,1.78844375,1.0,2437.668993774424,0.21485353499257234,1.3312539936642511,0.9103035182329386,0.2881676375,0.6500981877598351
0.022,1.7879,1.0,2460.472333184592,0.21925758540465382,1.3307896094834992,0.9134517534723411,0.2881448,0.6510785531178382
0.0225,1.78734375,1.0,2481.919807374362,0.2236369342366511,1.3303335144344242,0.9164229651408871,0.28812143749999997,0.6520400804891648
0.023,1.786775,1.0,2502.066841860695,0.2279917184191459,1.3298850020344621,0.9192300853290464,0.28809755,0.6529843285482236
0.0235,1.78619375,1.0,2520.971269377201,0.23232207488271997,1.3294433658010505,0.9218848957666665,0.28807313749999996,0.6539128467145257
0.024,1.7856,1.0,2538.693128210197,0.23662814055795509,1.3290078992516257,0.9243981460417505,0.2880482,0.6548271754784188
0.0245,1.78499375,1.0,2555.2944716000447,0.24091005237543298,1.3285778959036247,0.9267796582466531,0.2880227375,0.6557288466949833
0.025,1.784375,1.0,2570.8264702188026,0.24516794412850904,1.3281527683901686,0.9290384387301528,0.28799675,0.6566191345595292
0.025500000000000002,1.78374375,1.0,2585.3554037979466,0.24940195502484738,1.3277318024594544,0.9311827208470349,0.2879702375,0.6574995716093022
0.026000000000000002,1.7831000000000001,1.0,2598.9279585141667,0.25361221840288733,1.3273144806530437,0.9332200882921063,0.2879432,0.658371271539631
0.0265,1.78244375,1.0,2611.585086634133,0.25779886566279664,1.3269003497309437,0.9351575172743324,0.2879156375,0.6592352083730443
0.027,1.781775,1.0,2623.368751304308,0.2619620282047433,1.326488956453162,0.937001424693565,0.28788755,0.6600923511292263
0.0275,1.7810937500000001,1.0,2634.3218400343485,0.266101837428895,1.3260798475797055,0.9387577204330937,0.2878589375,0.6609436639107016
0.028,1.7804,1.0,2644.488082735642,0.2702184247354195,1.3256725698705825,0.9404318541279935,0.2878298,0.6617901059754164
0.0285,1.77969375,1.0,2653.9119743143574,0.2743119215244848,1.3252666700858,0.9420288570527274,0.2878001375,0.6626326317962223
0.029,1.778975,1.0,2662.629563625898,0.27838245388701016,1.3248617790845838,0.9435533894813336,0.28776995,0.6634720168686195
0.029500000000000002,1.7782437500000001,1.0,2670.6910245572567,0.28243015805687494,1.3244574031534084,0.9450097504520591,0.2877392375,0.664309290621641
0.03,1.7775,1.0,2678.125387119946,0.2864551598760768,1.324053248026418,0.94640194563917,0.287708,0.6651450651898241
0.0305,1.77674375,1.0,2684.961403861285,0.29045758480291656,1.323649025782892,0.9477336903947191,0.2876762375,0.6659799365745696
0.031,1.775975,1.0,2691.2282016673794,0.29443755829569485,1.3232444485021093,0.9490084337973409,0.28764395,0.6668144978079311
0.0315,1.7751937500000001,1.0,2696.9552470736394,0.2983952058127124,1.3228392282633499,0.9502293810567486,0.2876111375,0.6676493389487395
0.032,1.7744,1.0,2702.1723134136714,0.30233065281226995,1.3224330771458928,0.9513995137716887,0.2875778,0.66848504707344
0.0325,1.77359375,1.0,2706.9094498060194,0.3062440247526682,1.3220257072290178,0.9525216082701299,0.2875439375,0.669322206261642
0.033,1.772775,1.0,2711.188892228073,0.31013544164409707,1.3216169040990182,0.9535982592833901,0.28750955,0.670161246804091
0.0335,1.7719437500000002,1.0,2715.04066218963,0.3140050303882612,1.3212063841759207,0.9546318814427375,0.2874746375,0.6710027384076238
0.034,1.7711000000000001,1.0,2718.49811351958,0.31785292060279324,1.3207938353148951,0.9556247269806069,0.2874392,0.6718473061988519
0.0345,1.7702437500000001,1.0,2721.5788811827942,0.32167923083145716,1.3203790900903063,0.9565789139139846,0.2874032375,0.6726952762528935
0.035,1.7693750000000001,1.0,2724.3007235321998,0.325484079618017,1.3199619810765193,0.9574964234369989,0.28736675,0.6735469727856795
0.035500000000000004,1.76849375,1.0,2726.6815098178454,0.32926758550623675,1.3195423408478995,0.9583791103439735,0.2873297375,0.6744027181296073
0.036000000000000004,1.7676,1.0,2728.7392083164796,0.33302986703988047,1.3191200019788123,0.9592287125438964,0.2872922,0.6752628327074071
0.0365,1.76669375,1.0,2730.4918750835727,0.3367710427627121,1.3186947970436225,0.9600468597548851,0.2872541375,0.6761276350042229
0.037,1.765775,1.0,2731.957643325826,0.3404912312184957,1.3182665586166955,0.9608350814577457,0.28721555,0.6769974415379003
0.0375,1.76484375,1.0,2733.154713396125,0.3441905509509954,1.3178351192723967,0.9615948141793155,0.2871764375,0.6778725668274916
0.038,1.7639,1.0,2734.1013434093666,0.3478691205039751,1.317400311585091,0.9623274081688666,0.28713679999999997,0.6787533233599718
0.0385,1.76294375,1.0,2734.8132354123777,0.3515270545632476,1.316961991785206,0.9630341349791387,0.28709663750000003,0.6796399737358259
0.039,1.761975,1.0,2735.303819352656,0.3551644684871599,1.3165200370961658,0.9637161936477133,0.28705595,0.6805327363413323
0.0395,1.7609937500000001,1.0,2735.590959816321,0.358781486171218,1.316074284775428,0.9643747116317345,0.2870147375,0.6814319084939464
0.04,1.76,1.0,2735.6847991142727,0.36237821897403855,1.3156246424465128,0.9650107556490676,0.286973,0.6823376437516293
0.0405,1.7589937500000001,1.0,2735.5955014834403,0.3659547782542378,1.3151710177329399,0.9656253319245317,0.2869307375,0.6832500943277515
0.041,1.757975,1.0,2735.3332495866753,0.3695112753704322,1.3147133182582296,0.9662193902523758,0.28688795,0.6841694110679029
0.0415,1.75694375,1.0,2734.9082412017406,0.3730478216812382,1.3142514516459018,0.9667938277450829,0.2868446375,0.6850957434261589
0.042,1.7559,1.0,2734.330686099665,0.37656452854527217,1.3137853255194765,0.9673494922957174,0.28680079999999997,0.6860292394408042
0.0425,1.75484375,1.0,2733.610803112129,0.38006150732115057,1.3133148475024736,0.9678871857784338,0.2867564375,0.686970045709508
0.043000000000000003,1.753775,1.0,2732.75881738766,0.38353886936748977,1.3128399252184135,0.9684076670094155,0.28671155,0.6879183073639586
0.043500000000000004,1.75269375,1.0,2731.784957838303,0.3869967260429062,1.312360466290816,0.9689116544884184,0.28666613750000003,0.6888741680439543
0.044,1.7516,1.0,2730.6966224679068,0.39043518337418304,1.311876404082142,0.9693998301637791,0.2866202,0.6898377186759964
0.0445,1.75049375,1.0,2729.4957248046367,0.3938543396889702,1.311387721822075,0.9698728432609766,0.2865737375,0.6908089499313075
0.045,1.7493750000000001,1.0,2728.2036356038,0.3972543309205597,1.310894225888614,0.9703313014856194,0.28652675,0.6917882025163247
0.0455,1.74824375,1.0,2726.8250129083153,0.40063526035713976,1.310395874511902,0.9707757883326426,0.2864792375,0.692775513667065
0.046,1.7471,1.0,2725.364514415912,0.4039972312868987,1.3098926259220818,0.9712068578752375,0.2864312,0.6937709196400406
0.0465,1.7459437500000001,1.0,2723.8267967669153,0.4073403469980248,1.3093844383492956,0.9716250365266552,0.28638263750000004,0.6947744556992694
0.047,1.744775,1.0,2722.2165148706176,0.41066471077870637,1.308871270023687,0.9720308246803246,0.28633355,0.6957861561031715
0.0475,1.74359375,1.0,2720.5383212714137,0.4139704259171316,1.3083530791753981,0.9724246982377672,0.28628393750000003,0.6968060540913605
0.048,1.7424,1.0,2718.796865551852,0.41725759570148885,1.307829824034572,0.9728071100329598,0.2862338,0.6978341818713152
0.0485,1.74119375,1.0,2716.996793776265,0.42052632341996643,1.3073014628313513,0.9731784911610705,0.2861831375,0.6988705706049478
0.049,1.739975,1.0,2715.1427479713834,0.42377671236075254,1.3067679537958787,0.9735392522188038,0.28613195,0.6999152503950562
0.0495,1.73874375,1.0,2713.2393656470063,0.4270088658120355,1.306229255158297,0.9738897844629988,0.2860802375,0.7009682502716665
0.05,1.7375,1.0,2711.291279354439,0.4302228870620036,1.3056853251487492,0.9742304608935598,0.286028,0.7020295981782636
0.0505,1.73624375,1.0,2709.3031162841044,0.43341887939884516,1.3051361219973776,0.9745616372662986,0.2859752375,0.7030993209579129
0.051000000000000004,1.734975,1.0,2707.279497901576,0.43659694611074834,1.3045816039343252,0.9748836530408141,0.28592195,0.7041774443392661
0.051500000000000004,1.73369375,1.0,2705.2151891161407,0.439757189801247,1.3040218191280248,0.9751968380111716,0.2858681375,0.7052638185398168
0.052000000000000005,1.7324,1.0,2703.1259263613624,0.44289970864453193,1.3034566242771564,0.9755014944117385,0.2858138,0.7063586644844158
0.0525,1.73109375,1.0,2701.0378882433783,0.4460246014445393,1.3028857804497123,0.9757979050500486,0.28575893750000003,0.7074623852084461
0.053,1.729775,1.0,2698.92600204341,0.44913196603192723,1.3023095168294974,0.9760863694149154,0.28570355000000003,0.7085744771502419
0.0535,1.7284484775743072,1.0,2696.9987137520857,0.45222190023735354,1.3017280626003165,0.9763671738791828,0.2856478360581209,0.7096944395390928
0.054,1.727121849067198,1.0,2695.6092840949086,0.45529450189147624,1.3011416469459745,0.9766405923920344,0.2855921176608223,0.7108217744727873
0.0545,1.725795220560089,1.0,2694.738513588868,0.458349868506856,1.3005504896128814,0.9769068865273711,0.28553639926352375,0.7119560050811775
0.055,1.7244685920529799,1.0,2694.344643661615,0.46138809697509997,1.2999549703391702,0.9771663162360754,0.28548068086622513,0.7130963513036592
0.0555,1.723141963545871,1.0,2694.3794336468777,0.46440928447320384,1.299355529504423,0.9774191341283855,0.28542496246892657,0.7142419226885413
0.056,1.7218153350387617,1.0,2694.8127570705383,0.4674135255355937,1.2987524427788493,0.9776655723727914,0.285369244071628,0.7153921490231836
0.0565,1.7204887065316528,1.0,2695.6145708067716,0.4704009146966956,1.2981459858326583,0.9779058535409604,0.28531352567432944,0.7165464640684704
0.057,1.7191620780245436,1.0,2696.754893636524,0.4733715464909356,1.2975364343360591,0.9781401910903559,0.2852578072770308,0.7177043056204846
0.0575,1.7178354495174346,1.0,2698.2042147916673,0.4763255153062801,1.2969240600436611,0.9783687895832833,0.28520208887973225,0.7188651229821057
0.058,1.7165088210103254,1.0,2699.93728045017,0.47926291445773134,1.2963090960298378,0.9785918430888756,0.28514637048243363,0.720028442633866
0.0585,1.7151821925032165,1.0,2701.927210084004,0.4821838382958517,1.2956917903643024,0.9788095388725074,0.28509065208513507,0.721193766298321
0.059000000000000004,1.7138555639961073,1.0,2704.155660446988,0.48508837816989603,1.295072313145755,0.9790220522479125,0.2850349336878365,0.7223607462207062
0.059500000000000004,1.7125289354889983,1.0,2706.6042906553726,0.4879766254291193,1.294450834472896,0.9792295516704383,0.28497921529053793,0.7235290372392067
0.06,1.7112023069818894,1.0,2709.254754318456,0.4908486714227764,1.2938275244444253,0.9794321990633847,0.28492349689323937,0.7246982968075915
0.0605,1.7098756784747802,1.0,2712.088692311361,0.4937046075001223,1.2932025531590434,0.9796301501264181,0.28486777849594075,0.7258681850160023
0.061,1.708549049967671,1.0,2715.098603033848,0.4965445183642712,1.292575991587089,0.9798235488195703,0.2848120600986422,0.7270385495753562
0.0615,1.707222421460562,1.0,2718.253479505011,0.4993685048362118,1.2919481247955682,0.9800125462272815,0.2847563417013436,0.7282088406516305
0.062,1.705895792953453,1.0,2721.5440544641283,0.5021766540116811,1.2913190394149312,0.9801972763340284,0.284700623304045,0.729378881614674
0.0625,1.7045691644463439,1.0,2724.9612704315723,0.5049690528442408,1.2906888200520559,0.9803778680300533,0.28464490490674643,0.7305485009462483
0.063,1.7032425359392347,1.0,2728.4960555888033,0.5077457882874529,1.29005755131382,0.9805544454557894,0.28458918650944787,0.7317175284624704
0.0635,1.7019159074321257,1.0,2732.1393217306277,0.5105069472948792,1.2894253178071011,0.9807271282143925,0.2845334681121493,0.7328857953197019
0.064,1.7005892789250168,1.0,2735.8819623760023,0.5132526168200816,1.2887922041387774,0.9808960315732717,0.2844777497148507,0.7340531340199832
0.0645,1.6992626504179076,1.0,2739.71485103795,0.5159828838166219,1.2881582949157262,0.9810612666552666,0.2844220313175521,0.735219378416012
0.065,1.6979360219107984,1.0,2743.6288396512587,0.5186978352380621,1.2875236747448258,0.9812229406200743,0.28436631292025355,0.7363843637156622
0.0655,1.6966093934036894,1.0,2747.6147571599795,0.521397558037964,1.2868884282329538,0.9813811568364886,0.28431059452295493,0.7375479264860502
0.066,1.6952827648965805,1.0,2751.667428196509,0.5240821332873103,1.2862526035947779,0.9815360128562921,0.28425487612565636,0.7387099710944227
0.0665,1.6939561363894713,1.0,2755.779115082039,0.526751649102174,1.2856162721033924,0.9816876044360993,0.2841991577283578,0.7398703606816357
0.067,1.6926295078823623,1.0,2759.9395127436014,0.5294061977255387,1.2849795280438776,0.9818360254095533,0.28414343933105923,0.7410289177164822
0.0675,1.6913028793752531,1.0,2764.1452046424233,0.532045860494964,1.2843424032085506,0.9819813626737481,0.2840877209337606,0.7421855795203636
0.068,1.6899762508681442,1.0,2768.392764545404,0.5346707187480098,1.2837049293897282,0.9821237001671631,0.28403200253646205,0.7433402839284735
0.0685,1.688649622361035,1.0,2772.67875626749,0.537280853822235,1.2830671383797274,0.9822631189918792,0.2839762841391635,0.7444929692905365
0.069,1.687322993853926,1.0,2776.999733437116,0.5398763470551996,1.282429061970865,0.9823996975299438,0.28392056574186486,0.7456435744714839
0.0695,1.6859963653468168,1.0,2781.3522392839277,0.5424572797844629,1.281790731955458,0.9825335115541991,0.2838648473445663,0.7467920388520639
0.07,1.6846697368397079,1.0,2785.732806448583,0.5450237333475846,1.2811521801258232,0.9826646343338745,0.28380912894726773,0.74793830232939
0.07050000000000001,1.6833431083325987,1.0,2790.137956815258,0.5475757890821239,1.2805134382742778,0.9827931367352256,0.28375341054996917,0.7490823053174201
0.07100000000000001,1.6820164798254897,1.0,2794.5642013665656,0.5501135283256406,1.2798745381931385,0.9829190873174809,0.2836976921526706,0.7502239887473772
0.07150000000000001,1.6806898513183806,1.0,2799.008040060786,0.5526370324156942,1.279235511674722,0.9830425524243473,0.283641973755372,0.7513632940681001
0.07200000000000001,1.6793632228112716,1.0,2803.4659617316347,0.5551463826898442,1.2785963905113455,0.9831635962713082,0.2835862553580734,0.7525001632463325
0.0725,1.6780365943041624,1.0,2807.9385272438767,0.557641643146099,1.277957169902328,0.9832822783745061,0.2835305369607748,0.7536346036348481
0.073,1.6767099657970534,1.0,2812.4204158985244,0.5601229103858454,1.2773178977300008,0.983398660606088,0.2834748185634762,0.7547665293323113
