Time [s],Phi [rad],STIM [ ],Fsee [N],Gamma [ ],Lcerel [ ],q [ ],Lmtc [m],fisomrel [ ]
0.0,1.8,1.0,19.835560571446514,0.0013971383986865445,1.3791355987453835,0.005499841991408996,0.288653,0.5416332836861594
0.0005,1.79999375,1.0,20.534563909485907,0.006998510865897391,1.3790588891944908,0.01723498000587248,0.2886527375,0.5418187452890266
0.001,1.799975,1.0,24.915432889704615,0.012568464062780216,1.3786135015318706,0.04319711762712089,0.28865195,0.5428948228883171
0.0015,1.79994375,1.0,36.78618864025346,0.018107174225823978,1.37757969361614,0.0807503369930704,0.2886506375,0.5453876752829779
0.002,1.7999,1.0,63.9710702147109,0.02361481660450722,1.3757240063749816,0.12658408164859325,0.2886488,0.5498452520201939
0.0025,1.79984375,1.0,112.97201827267902,0.029091565464419385,1.3732001083711778,0.17738707784622001,0.28864643749999996,0.5558727012491746
0.003,1.7997750000000001,1.0,180.59588022225637,0.03453759409347039,1.370500434103352,0.2304342916704305,0.28864354999999997,0.5622749627845272
0.0035,1.79969375,1.0,259.3433266939879,0.03995307480744446,1.3679320936720785,0.28365065072576445,0.2886401375,0.5683226225959213
0.004,1.7996,1.0,344.2048154074993,0.045338178954551486,1.3655641371991158,0.3355077989033094,0.2886362,0.5738611657967666
0.0045000000000000005,1.7994937500000001,1.0,432.611284633231,0.050693076931408225,1.3633824508230499,0.3849653134933156,0.2886317375,0.5789323802099291
0.005,1.799375,1.0,523.0772431859722,0.05601793816362699,1.3613613094525516,0.4313946548295511,0.28862675,0.5836033291796467
0.0055,1.79924375,1.0,614.5532125689583,0.061312931138128024,1.3594791444952703,0.4744843832517961,0.2886212375,0.5879296705132289
0.006,1.7991000000000001,1.0,706.2013490308071,0.06657822335555046,1.3577195875989334,0.5141493916403196,0.2886152,0.5919537520664828
0.006500000000000001,1.79894375,1.0,797.3464520231704,0.07181398151509928,1.3560696786132822,0.5504553575997001,0.2886086375,0.5957091325645214
0.007,1.798775,1.0,887.4019093013213,0.07702037108109208,1.354519459823143,0.5835618969219749,0.28860155,0.599221787648938
0.0075,1.79859375,1.0,975.924572214743,0.08219755709642833,1.3530599673556418,0.613680552027778,0.2885939375,0.6025148579427078
0.008,1.7984,1.0,1062.5254297298231,0.08734570311413296,1.3516840024825736,0.6410472776689324,0.2885858,0.605607022952287
0.0085,1.79819375,1.0,1146.9028294172613,0.09246497193355219,1.3503850781457343,0.6659033846601626,0.2885771375,0.6085149777194123
0.009000000000000001,1.797975,1.0,1228.8504928610246,0.09755552600674444,1.3491570045455543,0.6884838274006901,0.28856795,0.6112544202065554
0.0095,1.79774375,1.0,1308.1887228493597,0.10261752601480703,1.3479945965071742,0.709010913320604,0.2885582375,0.6138385229649521
0.01,1.7975,1.0,1384.7931335498758,0.10765113199272736,1.3468930371843728,0.7276904551238047,0.288548,0.6162794029113563
0.0105,1.79724375,1.0,1458.6012534584024,0.11265650350281972,1.3458476504989998,0.7447102835693057,0.2885372375,0.618588656391332
0.011,1.796975,1.0,1529.5729309782362,0.11763379916534128,1.344854282268762,0.7602403816781589,0.28852595000000003,0.6207765433702076
0.0115,1.79669375,1.0,1597.6778448067816,0.12258317584028158,1.3439093190326525,0.7744335867005554,0.2885141375,0.6228519779416366
0.012,1.7964,1.0,1662.9262001662332,0.12750479002004486,1.343009217345651,0.787426513249317,0.28850180000000003,0.624823586785472
0.0125,1.79609375,1.0,1725.3620325042607,0.13239879819560504,1.3421505260895097,0.799340932561645,0.2884889375,0.6266996731398972
0.013000000000000001,1.7957750000000001,1.0,1785.0291066732163,0.13726535552150237,1.3413302189408425,0.8102853259086009,0.28847555,0.6284875052225656
0.0135,1.79544375,1.0,1841.9638466186693,0.14210461496086635,1.340545701096699,0.8203562528587554,0.2884616375,0.6301933209966765
0.014,1.7951000000000001,1.0,1896.229198259255,0.1469167294768266,1.3397943777541288,0.8296394887940862,0.2884472,0.631823280761111
0.0145,1.79474375,1.0,1947.9038208120353,0.15170185141100265,1.3390737455635349,0.8382112787416675,0.2884322375,0.6333832750941174
0.015,1.794375,1.0,1997.0758334576858,0.15646013324934957,1.3383814304613717,0.8461394532933207,0.28841675,0.6348788505067471
0.0155,1.79399375,1.0,2043.8218960100467,0.16119172566076287,1.3377153795149146,0.8534844727516547,0.2884007375,0.6363148036961008
0.016,1.7936,1.0,2088.208675111264,0.16589677723426655,1.3370738105790314,0.8603002753883208,0.2883842,0.6376953004519492
0.0165,1.7931937500000001,1.0,2130.316449270523,0.17057543655888469,1.33645494150859,0.8666349663773875,0.2883671375,0.6390244653522044
0.017,1.792775,1.0,2170.237281049004,0.17522785215132677,1.3358569970149048,0.8725315109034487,0.28834955,0.6403063697580684
0.0175,1.7923437500000001,1.0,2208.0551137018033,0.17985417079436258,1.335278398552212,0.8780283922388097,0.2883314375,0.6415446283936992
0.018000000000000002,1.7919,1.0,2243.8725918311056,0.18445454115413418,1.3347174774181343,0.8831600613354095,0.2883128,0.6427430175728341
0.0185,1.79144375,1.0,2277.7553694354465,0.18902910718966978,1.3341730238398093,0.8879575441591617,0.2882936375,0.643904305286219
0.019,1.790975,1.0,2309.776105505528,0.19357801285999776,1.3336438280443752,0.8924487204212633,0.28827395,0.6450312372700746
0.0195,1.79049375,1.0,2340.013887130594,0.1981014021241463,1.3331286802589706,0.8966586836906151,0.2882537375,0.6461265382299635
0.02,1.79,1.0,2368.54994944181,0.20259941831877207,1.3326264071615908,0.9006100649385355,0.288233,0.6471928356465932
0.0205,1.78949375,1.0,2395.4630603755268,0.20707220422357736,1.3321359106664472,0.9043233167827303,0.2882117375,0.6482325792275823
0.021,1.788975,1.0,2420.834543220841,0.2115199031809694,1.3316561129677456,0.9078169425321059,0.28818995000000003,0.6492481592191519
0.021500000000000002,1.78844375,1.0,2444.7240943100055,0.2159426542299516,1.3311861843542752,0.9111077537921974,0.2881676375,0.6502414263165053
0.022,1.7879,1.0,2467.1947620274354,0.22034059640952744,1.3307252951148254,0.9142110029105318,0.2881448,0.6512142192959556
0.0225,1.78734375,1.0,2488.3126690420836,0.22471386875870045,1.330272615538185,0.917140549162269,0.28812143749999997,0.6521683655151985
0.023,1.786775,1.0,2508.146749802912,0.22906261031647407,1.3298273159131435,0.9199090052834172,0.28809755,0.6531056813696794
0.0235,1.78619375,1.0,2526.7565889581824,0.23338695720097058,1.3293886790861738,0.9225278862232387,0.28807313749999996,0.6540277362559491
0.024,1.7856,1.0,2544.211755106752,0.23768705048860703,1.328955914319442,0.9250076915033938,0.2880482,0.6549362450072063
0.0245,1.78499375,1.0,2560.5625940513096,0.24196302508797887,1.3285284307806033,0.9273580503080534,0.2880227375,0.6558324941608238
0.025,1.784375,1.0,2575.8570790321064,0.24621501469168672,1.3281056750773694,0.9295877818682572,0.28799675,0.6567176848916572
0.025500000000000002,1.78374375,1.0,2590.1446285024176,0.25044315299233116,1.3276870938174516,0.9317049692961149,0.2879702375,0.6575930119434714
0.026000000000000002,1.7831000000000001,1.0,2603.4759822513965,0.2546475736825128,1.3272721336085616,0.933717031013013,0.2879432,0.6584596637860327
0.0265,1.78244375,1.0,2615.903084316769,0.25882841045483224,1.3268602410584103,0.9356307843752116,0.2879156375,0.6593188227526721
0.027,1.781775,1.0,2627.4684478394306,0.2629857941129842,1.3264509602813157,0.9374525162127091,0.28788755,0.6601714621537208
0.0275,1.7810937500000001,1.0,2638.2213515748,0.26711985920388387,1.3260437812006733,0.9391880118562508,0.2878589375,0.6610186630751513
0.028,1.7804,1.0,2648.211182263668,0.27123073895489447,1.3256382007483969,0.9408426082553422,0.2878298,0.6618614866497028
0.0285,1.77969375,1.0,2657.470839360097,0.2753185610870186,1.325233874898326,0.9424212547837822,0.2878001375,0.6627006588603958
0.029,1.778975,1.0,2666.033810239706,0.2793834533212587,1.3248304596243,0.943928527292649,0.28776995,0.6635369021054403
0.029500000000000002,1.7782437500000001,1.0,2673.934118883317,0.2834255433786175,1.324427610900158,0.9453686611118348,0.2877392375,0.6643709352219888
0.03,1.7775,1.0,2681.2062771843043,0.2874449589800975,1.3240249846997396,0.9467455807422063,0.287708,0.6652034735023391
0.0305,1.77674375,1.0,2687.8852388805462,0.29144182784670125,1.3236222369968842,0.9480629266062359,0.2876762375,0.666035228702591
0.031,1.775975,1.0,2694.0063561104316,0.29541627769943146,1.323219023765431,0.9493240791804919,0.28764395,0.6668669090437553
0.0315,1.7751937500000001,1.0,2699.597508781307,0.299368431518293,1.3228150725422683,0.9505321881990398,0.2876111375,0.6676990718735016
0.032,1.7744,1.0,2704.694686120927,0.30329842032807885,1.322410039462635,0.9516901781479269,0.2875778,0.668532418538591
0.0325,1.77359375,1.0,2709.3224065313443,0.30720636748494595,1.3220036879397783,0.9528007833419274,0.2875439375,0.6693674265088708
0.033,1.772775,1.0,2713.502946540596,0.3110923946439435,1.3215958038103115,0.9538665549647698,0.28750955,0.6702045247818866
0.0335,1.7719437500000002,1.0,2717.2587715948002,0.3149566234601209,1.3211861729108478,0.9548898735608167,0.2874746375,0.6710441400857238
0.034,1.7711000000000001,1.0,2720.6125170387027,0.3187991755885272,1.3207745810780007,0.9558729624766531,0.2874392,0.6718866968566108
0.0345,1.7702437500000001,1.0,2723.5869701132724,0.32262017268421195,1.3203608141483836,0.956817900092788,0.2874032375,0.6727326172135997
0.035,1.7693750000000001,1.0,2726.2050529703474,0.3264197364022242,1.3199446579586096,0.9577266309670829,0.28736675,0.6735823209303199
0.035500000000000004,1.76849375,1.0,2728.4875155688137,0.33019798608779166,1.3195259191747057,0.9586009776333138,0.2873297375,0.6744361829577787
0.036000000000000004,1.7676,1.0,2730.4494155720936,0.33395503561744994,1.3191044571094808,0.9594426523003199,0.2872922,0.67529446891857
0.0365,1.76669375,1.0,2732.124364432656,0.33769101981569283,1.3186799632445707,0.9602532486783002,0.2872541375,0.6761577838853287
0.037,1.765775,1.0,2733.5253446141583,0.34140605333745694,1.3182523172580958,0.9610342769830655,0.28721555,0.6770263474485088
0.0375,1.76484375,1.0,2734.6653948634143,0.3451002508376787,1.3178213988281762,0.9617871559047769,0.2871764375,0.6779003777005783
0.038,1.7639,1.0,2735.557603720157,0.34877372697129444,1.317387087632932,0.9625132191636061,0.28713679999999997,0.6787800912113695
0.0385,1.76294375,1.0,2736.2151033477267,0.35242659639324075,1.316949263350484,0.9632137215267751,0.28709663750000003,0.6796657030025048
0.039,1.761975,1.0,2736.6510636845755,0.356058973758454,1.3165078056589516,0.9638898443365888,0.28705595,0.6805574265209033
0.0395,1.7609937500000001,1.0,2736.878686917516,0.35967097372187073,1.3160625942364557,0.9645427005940524,0.2870147375,0.6814554736113572
0.04,1.76,1.0,2736.911202274931,0.3632627109384273,1.315613508761116,0.9651733396381722,0.286973,0.6823600544881918
0.0405,1.7589937500000001,1.0,2736.7618611418616,0.3668343000630602,1.315160428911053,0.965782751457045,0.2869307375,0.6832713777059984
0.041,1.757975,1.0,2736.4439324953178,0.37038585575070593,1.3147032343643865,0.9663718706632859,0.28688795,0.6841896501294452
0.0415,1.75694375,1.0,2735.9679707768555,0.37391748765636956,1.3142418295653413,0.9669415814148125,0.2868446375,0.685115027268581
0.042,1.7559,1.0,2735.34411697586,0.3774293078339452,1.313776122809056,0.9674927202256098,0.28680079999999997,0.6860476554684827
0.0425,1.75484375,1.0,2734.5863550777717,0.3809214369932532,1.3133059875640507,0.9680260768571459,0.2867564375,0.6869877492235807
0.043000000000000003,1.753775,1.0,2733.7017285272177,0.3843939824196997,1.312831360363016,0.9685424017173656,0.28671155,0.6879353953234211
0.043500000000000004,1.75269375,1.0,2732.697285426229,0.38784705139869075,1.3123521777386415,0.9690424054596534,0.28666613750000003,0.6888906794066585
0.044,1.7516,1.0,2731.5800769552607,0.3912807512156323,1.3118683762236183,0.9695267614811766,0.2866202,0.6898536859427413
0.0445,1.75049375,1.0,2730.357155885353,0.3946951891559307,1.3113798923506361,0.9699961082403511,0.2865737375,0.6908244982133491
0.045,1.7493750000000001,1.0,2729.035575178,0.3980904725049919,1.3108866626523854,0.9704510514081799,0.28652675,0.6918031982935648
0.0455,1.74824375,1.0,2727.6223866751075,0.4014667085482219,1.3103886236615565,0.9708921658668752,0.2864792375,0.6927898670327954
0.046,1.7471,1.0,2726.124639878333,0.40482400457102685,1.3098857119108398,0.9713199975679855,0.2864312,0.6937845840354337
0.0465,1.7459437500000001,1.0,2724.5493808172996,0.4081624678588128,1.3093778639329254,0.9717350652611543,0.28638263750000004,0.6947874276412637
0.047,1.744775,1.0,2722.9036510073925,0.41148220569698585,1.3088650162605038,0.9721378621036698,0.28633355,0.6957984749056083
0.0475,1.74359375,1.0,2721.185687852088,0.4147833084663694,1.3083471855246465,0.9725288606981968,0.28628393750000003,0.6968176440657821
0.048,1.7424,1.0,2719.4050216204487,0.41806589303850705,1.3078242855652018,0.9729085069364386,0.2862338,0.69784505489883
0.0485,1.74119375,1.0,2717.5742120148266,0.42133007847539017,1.3072962025346548,0.9732772236522693,0.2861831375,0.6988808798079733
0.049,1.739975,1.0,2715.6962349229466,0.4245759638247938,1.3067629097816855,0.9736354171354303,0.28613195,0.6999251185659231
0.0495,1.73874375,1.0,2713.774063502827,0.427803648134493,1.3062243806549734,0.9739834745985776,0.2860802375,0.7009777700652997
0.05,1.7375,1.0,2711.810667932927,0.4310132304522629,1.3056805885031981,0.9743217652424042,0.286028,0.7020388323097528
0.0505,1.73624375,1.0,2709.8090151785013,0.4342048098258786,1.3051315066750395,0.9746506412520514,0.2859752375,0.7031083024050393
0.051000000000000004,1.734975,1.0,2707.772068773833,0.4373784853031151,1.3045771085191775,0.9749704387298155,0.28592195,0.7041861765500548
0.051500000000000004,1.73369375,1.0,2705.702788619986,0.4405343559317475,1.3040173673842914,0.9752814785687516,0.2858681375,0.7052724500278214
0.052000000000000005,1.7324,1.0,2703.6041307981445,0.44367252075955094,1.3034522566190614,0.9755840672714053,0.2858138,0.7063671171964264
0.0525,1.73109375,1.0,2701.4790473992834,0.44679307883430036,1.302881749572167,0.9758784977175651,0.28575893750000003,0.7074701714799208
0.053,1.729775,1.0,2699.33048636904,0.44989612920377103,1.3023058195922876,0.9761650498846295,0.28570355000000003,0.7085816053591685
0.0535,1.72844375,1.0,2697.161391368521,0.4529817709157379,1.3017244400281034,0.9764439915238903,0.2856476375,0.7097014103626513
0.054,1.7271,1.0,2694.974701650995,0.45605010301797605,1.301137584228294,0.9767155787957836,0.2855912,0.7108295770572295
0.0545,1.7257437500000001,1.0,2692.7733519540034,0.4591012245582606,1.300545225541539,0.976980056866925,0.2855342375,0.7119660950388567
0.055,1.724375,1.0,2690.5602724074483,0.46213523458436656,1.2999473373165182,0.9772376604715306,0.28547675,0.7131109529232489
0.0555,1.72299375,1.0,2688.3346314276105,0.4651522126138522,1.2993439273123522,0.9774886146306151,0.2854187375,0.7142640726441876
0.056,1.7216,1.0,2686.1012447365524,0.4681522725364806,1.2987349515569793,0.9777331351613617,0.2853602,0.7154254742291111
0.0565,1.72019375,1.0,2683.863000728059,0.47113551565890865,1.2981203836727673,0.9779714287601199,0.28530113749999997,0.7165951429808739
0.057,1.718775,1.0,2681.620891743239,0.47410203268388706,1.2975002146258983,0.97820369365526,0.28524155,0.7177730302855372
0.0575,1.71734375,1.0,2679.375908490612,0.4770519143141669,1.296874435382555,0.9784301200039809,0.2851814375,0.7189590867866364
0.058,1.7159,1.0,2677.1290400389157,0.4799852512524989,1.2962430369089195,0.9786508902835352,0.2851208,0.7201532623819533
0.0585,1.71444375,1.0,2674.8812738108477,0.48290213420163414,1.2956060101711742,0.9788661796604744,0.2850596375,0.7213555062202797
0.059000000000000004,1.7129750000000001,1.0,2672.6335955784157,0.48580265386432336,1.2949633461355015,0.9790761563393114,0.28499795,0.7225657666981772
0.059500000000000004,1.71149375,1.0,2670.38698946101,0.4886869009433175,1.2943150357680835,0.9792809818918999,0.2849357375,0.7237839914567339
0.06,1.71,1.0,2668.142437924121,0.4915549661413675,1.293661070035103,0.9794808115687392,0.284873,0.725010127378311
0.0605,1.7084937500000001,1.0,2665.9009217810562,0.4944069401612243,1.293001439902742,0.979675794593329,0.2848097375,0.7262441205832904
0.061,1.7069750000000001,1.0,2663.663420195568,0.49724291370563867,1.292336136337183,0.9798660744406171,0.28474595,0.727485916426811
0.0615,1.7054437500000001,1.0,2661.4309106865144,0.5000629774773615,1.2916651503046084,0.9800517891005203,0.2846816375,0.7287354594955044
0.062,1.7039,1.0,2659.2043691349113,0.5028672221791439,1.2909884727712004,0.9802330713274156,0.2846168,0.729992693604223
0.0625,1.70234375,1.0,2656.9847697916302,0.5056557385137366,1.2903060947031415,0.9804100488764598,0.2845514375,0.7312575617927635
0.063,1.7007750000000001,1.0,2654.7723300939606,0.5084286083139958,1.2896180140269846,0.9805828444236553,0.28448555,0.7325299934664073
0.0635,1.69919375,1.0,2652.5658416204624,0.5111858950928958,1.2889242418131468,0.980751575429701,0.28441913750000003,0.7338098931527368
0.064,1.6976,1.0,2650.3701900674623,0.5139277357425575,1.288224732936527,0.9809163575508141,0.2843522,0.7350972682514912
0.0645,1.69599375,1.0,2648.185449967681,0.5166542123154206,1.2875194865956028,0.9810773004437573,0.2842847375,0.7363920434559981
0.065,1.694375,1.0,2646.0116957667724,0.5193654068639251,1.2868085019888509,0.981234509797334,0.28421675,0.737694142815406
0.0655,1.69274375,1.0,2643.8490018249654,0.5220614014405107,1.2860917783147483,0.9813880875030067,0.2841482375,0.7390034897343907
0.066,1.6911,1.0,2641.697442418989,0.5247422780976174,1.2853693147717722,0.9815381318169888,0.2840792,0.740320006972861
0.0665,1.6894437500000001,1.0,2639.557091743746,0.5274081188876849,1.2846411105583997,0.981684737514291,0.2840096375,0.7416436166456661
0.067,1.687775,1.0,2637.428023913485,0.5300590058631532,1.2839071648731077,0.981827996035178,0.28393955,0.7429742402223024
0.0675,1.68609375,1.0,2635.310312964316,0.532695021076462,1.2831674769143735,0.9819679956244594,0.2838689375,0.7443117985266191
0.068,1.6844000000000001,1.0,2633.204032855279,0.5353162465800512,1.282422045880674,0.9821048214640102,0.2837978,0.7456562117365255
0.0685,1.68269375,1.0,2631.1092574702416,0.5379227644263607,1.2816708709704867,0.9822385557988988,0.2837261375,0.7470073993836972
0.069,1.680975,1.0,2629.02606062,0.5405146566678302,1.280913951382288,0.9823692780574689,0.28365395,0.748365280353283
0.0695,1.67924375,1.0,2626.954516043426,0.5430920053568996,1.2801512863145554,0.9824970649657042,0.28358123749999997,0.7497297728836096
0.07,1.6775,1.0,2624.8946974097935,0.5456548925460089,1.2793828749657659,0.9826219906561898,0.283508,0.7511007945658905
0.07050000000000001,1.67574375,1.0,2622.8466783202116,0.5482034002875976,1.2786087165343965,0.9827441267719519,0.2834342375,0.7524782623439297
0.07100000000000001,1.673975,1.0,2620.8105323095915,0.5507376106341059,1.2778288102189241,0.982863542565458,0.28335995,0.7538620925138299
0.07150000000000001,1.67219375,1.0,2618.786332848398,0.5532576056379734,1.2770431552178263,0.9829803049930268,0.2832851375,0.755252200723697
0.07200000000000001,1.6704,1.0,2616.774153344712,0.5557634673516402,1.2762517507295796,0.983094478804894,0.2832098,0.7566485019733489
0.0725,1.66859375,1.0,2614.7740671455563,0.5582552778275458,1.2754545959526615,0.9832061266311576,0.2831339375,0.7580509106140179
0.073,1.6667750000000001,1.0,2612.78613671112,0.5607331069084488,1.2746516901861478,0.9833153083567213,0.28305755,0.7594593401718505
0.0735,1.66494375,1.0,2610.810452956343,0.5631970421874848,1.2738430324642795,0.9834220829486451,0.2829806375,0.7608737039884169
0.074,1.6631,1.0,2608.8468504113353,0.5656471624407214,1.273028624204257,0.983526507077022,0.2829032,0.762293910603095
0.0745,1.6612437500000001,1.0,2606.8951399225616,0.568083542798336,1.272208467046387,0.9836286354074525,0.2828252375,0.7637198675645922
0.075,1.659375,1.0,2604.955132673102,0.5705062583905053,1.2713825626309758,0.9837285208733245,0.28274675,0.7651514818234837
0.0755,1.65749375,1.0,2603.026640178526,0.5729153843474066,1.2705509125983296,0.9838262147403724,0.2826677375,0.7665886597328158
