Time [s],Phi [rad],STIM [ ],Fsee [N],Gamma [ ],Lcerel [ ],q [ ],Lmtc [m],fisomrel [ ]
0.0,1.8,1.0,20.282479248108963,0.0015558493650185727,1.3790882108124785,0.005619178366790769,0.288653,0.5417478584916897
0.0005,1.79999375,1.0,21.01801422126628,0.007156331589167225,1.3790085202810805,0.017782006266563816,0.2886527375,0.5419405024054396
0.001,1.799975,1.0,25.52215296518128,0.012725399536338923,1.3785561266966444,0.04411006353733804,0.28865195,0.543033351213119
0.0015,1.79994375,1.0,37.700054020153786,0.018263229415691456,1.3775085796764026,0.08194256959113928,0.2886506375,0.5455589039244426
0.002,1.7999,1.0,65.45029439326079,0.023769996448157363,1.375636680996313,0.12795953310241148,0.2886488,0.5500544766902877
0.0025,1.79984375,1.0,115.05269282813677,0.029245874871905962,1.373107570374116,0.17886033158900452,0.28864643749999996,0.556092923882411
0.003,1.7997750000000001,1.0,183.0594030782341,0.034691037947156,1.3704136747088487,0.2319388716395251,0.28864354999999997,0.5624799412904568
0.0035,1.79969375,1.0,261.9992023807911,0.04010565796236654,1.3678539758816417,0.2851362572991212,0.2886401375,0.5685059069772596
0.004,1.7996,1.0,346.9570786213167,0.04548990623797077,1.3654938294314105,0.3369385577620994,0.2886362,0.5740250658404433
0.0045000000000000005,1.7994937500000001,1.0,435.4125301684849,0.05084395314589825,1.3633185967950485,0.3863181389406363,0.2886317375,0.5790803482872352
0.005,1.799375,1.0,525.8968501692354,0.05616796807828916,1.3613028427010618,0.43265676462986485,0.28862675,0.5837380607657263
0.0055,1.79924375,1.0,617.3707144161292,0.061462119507190015,1.3594252338010822,0.4756505485762164,0.2886212375,0.5880532567188694
0.006,1.7991000000000001,1.0,708.9975234604175,0.06672657489365225,1.3576696694915746,0.5152196445939874,0.2886152,0.5920676260388641
0.006500000000000001,1.79894375,1.0,800.1063395542449,0.0719615009206706,1.3560233040421845,0.5514330754687791,0.2886086375,0.5958144355194077
0.007,1.798775,1.0,890.1135963502086,0.07716706302007677,1.3544762646349762,0.5844524390945514,0.28860155,0.599319444548579
0.0075,1.79859375,1.0,978.5779259060943,0.08234342620514482,1.3530196604455897,0.6144903084674301,0.2885939375,0.6026056101367363
0.008,1.7984,1.0,1065.1129054251257,0.08749075401874506,1.3516463295149899,0.6417830121153201,0.2885858,0.6056915144726887
0.0085,1.79819375,1.0,1149.4186200865076,0.09260920920925919,1.3503498199079906,0.6665718274484301,0.2885771375,0.60859376176798
0.009000000000000001,1.797975,1.0,1231.2898292838386,0.09769895421935482,1.3491239756394686,0.6890914293372465,0.28856795,0.6113279643931497
0.0095,1.79774375,1.0,1310.5485285447553,0.10276014973044294,1.3479636271135584,0.7095636990653856,0.2885582375,0.613907251932323
0.01,1.7975,1.0,1387.0710428398222,0.1077929557565605,1.3468639800443978,0.7281939636508706,0.288548,0.6163436841446417
0.0105,1.79724375,1.0,1460.7935847231488,0.1127975316355075,1.3458204007713541,0.7451695598425041,0.2885372375,0.6186487576860332
0.011,1.796975,1.0,1531.6843890455993,0.11777403627536503,1.3448286530750053,0.7606599284586735,0.28852595000000003,0.6208329082221864
0.0115,1.79669375,1.0,1599.7090640551,0.12272262638266941,1.3438851943502341,0.7748174672095227,0.2885141375,0.622904888733105
0.012,1.7964,1.0,1664.8772331029209,0.12764345854357623,1.3429865036311366,0.7877783622512944,0.28850180000000003,0.624873272726047
0.0125,1.79609375,1.0,1727.226823920086,0.13253668857435186,1.3421292123221649,0.7996640179537229,0.2884889375,0.626746180088696
0.013000000000000001,1.7957750000000001,1.0,1786.8163600491396,0.13740247243164727,1.3413101353120827,0.8105824904054383,0.28847555,0.628531223001428
0.0135,1.79544375,1.0,1843.6782070950326,0.1422409628740324,1.3405267363102802,0.8206300439317642,0.2884616375,0.6302345084753473
0.014,1.7951000000000001,1.0,1897.8708240622464,0.1470523126600772,1.3397764790261473,0.8298921907617939,0.2884472,0.6318620672850577
0.0145,1.79474375,1.0,1949.4731418130457,0.15183667428140235,1.3390568634053817,0.83844492319649,0.2884322375,0.6334197811789042
0.015,1.794375,1.0,1998.5690263405659,0.1565941994290446,1.3383655660174258,0.8463558629895113,0.28841675,0.6349130858855454
0.0155,1.79399375,1.0,2045.2493598069234,0.16132503980831187,1.3377003876677624,0.8536852242182865,0.2884007375,0.6363470923757748
0.016,1.7936,1.0,2089.577215180909,0.16602934376425962,1.3370595909976868,0.8604867875610114,0.2883842,0.6377258677183422
0.0165,1.7931937500000001,1.0,2131.629033953293,0.17070725964194328,1.336441438648494,0.8668085189441186,0.2883671375,0.639053438648379
0.017,1.792775,1.0,2171.4935029681274,0.17535893578641834,1.3358441932614789,0.8726932585312946,0.28834955,0.6403337941726608
0.0175,1.7923437500000001,1.0,2209.254641871858,0.17998451905452187,1.335266277679117,0.8781793690045551,0.2883314375,0.641570545443843
0.018000000000000002,1.7919,1.0,2245.012955779413,0.18458415796617236,1.3347060466190284,0.883301200522316,0.2883128,0.6427674182291481
0.0185,1.79144375,1.0,2278.8404331452325,0.1891579970398559,1.3341622284739652,0.8880896682189874,0.2882936375,0.64392731205776
0.019,1.790975,1.0,2310.808622094512,0.19370617997215883,1.333633626851769,0.8925725721271299,0.28827395,0.645052943347368
0.0195,1.79049375,1.0,2340.995441876951,0.1982288504596675,1.3331190453602815,0.8967749351708693,0.2882537375,0.6461470077112714
0.02,1.79,1.0,2369.4846453612554,0.20272615219896822,1.3326172876073443,0.9007193175789164,0.288233,0.6472121810737665
0.0205,1.78949375,1.0,2396.3470021012886,0.2071982265753107,1.3321273348354263,0.9044261309324872,0.2882117375,0.6482507444359586
0.021,1.788975,1.0,2421.6743944841214,0.21164521830487937,1.3316480076593864,0.9079138042532331,0.28818995000000003,0.6492653029832895
0.021500000000000002,1.78844375,1.0,2445.5265152813276,0.21606726652943278,1.331178478175324,0.9111991041989029,0.2881676375,0.6502577027853205
0.022,1.7879,1.0,2467.9638850527303,0.22046451001940837,1.3307179424015414,0.9142972476490021,0.2881448,0.6512297275946771
0.0225,1.78734375,1.0,2489.050036150588,0.22483708754524365,1.3302655963563412,0.9172220621025766,0.28812143749999997,0.6521831500745864
0.023,1.786775,1.0,2508.85125894042,0.2291851378773761,1.3298206360580265,0.9199861317749074,0.28809755,0.6531197322394096
0.0235,1.78619375,1.0,2527.429024332868,0.23350879807670677,1.3293823268397782,0.9226009385730876,0.28807313749999996,0.6540410802474921
0.024,1.7856,1.0,2544.849197416634,0.23780820713266757,1.3289499133082514,0.9250769602148544,0.2880482,0.6549488346125443
0.0245,1.78499375,1.0,2561.1695535746967,0.24208350180757682,1.328522734994449,0.9274237898460711,0.2880227375,0.6558444279074203
0.025,1.784375,1.0,2576.4368985699516,0.24633481562476556,1.328100250137802,0.9296502272121134,0.28799675,0.6567290365418104
0.025500000000000002,1.78374375,1.0,2590.699461910486,0.25056228210756487,1.3276819169777407,0.9317643378289117,0.2879702375,0.6576038306307176
0.026000000000000002,1.7831000000000001,1.0,2604.006775919348,0.2547660347793058,1.327267193753695,0.9337735242025879,0.2879432,0.6584699741472622
0.0265,1.78244375,1.0,2616.4095613118407,0.25894620716331945,1.3268555387050955,0.9356845892719872,0.2879156375,0.659328625056766
0.027,1.781775,1.0,2627.9527352193836,0.2631029308387158,1.3264464738423423,0.9375038019880615,0.28788755,0.6601808026655005
0.0275,1.7810937500000001,1.0,2638.681481619572,0.26723633880872777,1.3260395272404994,0.9392369395457254,0.2878589375,0.6610275085356876
0.028,1.7804,1.0,2648.6471487497997,0.2713465649348556,1.3256341777829475,0.9408893241426166,0.2878298,0.6618698413891064
0.0285,1.77969375,1.0,2657.88301072972,0.27543373700809953,1.3252300781299204,0.9424658936037368,0.2878001375,0.6627085340548656
0.029,1.778975,1.0,2666.4229310717446,0.27949798281945964,1.324826880941652,0.9439712132596989,0.28776995,0.663544315745274
0.029500000000000002,1.7782437500000001,1.0,2674.301310919512,0.2835394301599361,1.3244242388783765,0.9454095088447048,0.2877392375,0.6643779120796751
0.03,1.7775,1.0,2681.553039962173,0.287558206820529,1.3240218046003278,0.9467846960966554,0.287708,0.6652100451005962
0.0305,1.77674375,1.0,2688.2134500230754,0.2915544405922385,1.32361923076774,0.9481004074258643,0.2876762375,0.6660414332821949
0.031,1.775975,1.0,2694.317567875053,0.2955282588196949,1.3232161764765362,0.9493600166468766,0.28764395,0.6668727782649508
0.0315,1.7751937500000001,1.0,2699.89335881555,0.29947978519222845,1.3228123685988813,0.9505666672569307,0.2876111375,0.6677046386466199
0.032,1.7744,1.0,2704.976965881506,0.3034091504397989,1.3224074619745665,0.9517232776299162,0.2875778,0.6685377183135155
0.0325,1.77359375,1.0,2709.5908953163557,0.3073164765546443,1.322001238468089,0.952832578499164,0.2875439375,0.6693724567124262
0.033,1.772775,1.0,2713.757863729178,0.31120188552900263,1.3215934799439473,0.9538971156372346,0.28750955,0.6702092909998151
0.0335,1.7719437500000002,1.0,2717.5007776893217,0.3150654993551119,1.3211839682666389,0.9549192646019865,0.2874746375,0.6710486560219857
0.034,1.7711000000000001,1.0,2720.842714375239,0.31890744002521004,1.3207724853006617,0.9559012441401376,0.2874392,0.6718909842922092
0.0345,1.7702437500000001,1.0,2723.8069032789926,0.3227278295315351,1.320358812910514,0.9568451283847172,0.2874032375,0.6727367059648162
0.035,1.7693750000000001,1.0,2726.4167089653893,0.32652678986632505,1.319942732960693,0.9577528579676122,0.28736675,0.6735862488062586
0.035500000000000004,1.76849375,1.0,2728.679047199835,0.3303044323584743,1.319524177932128,0.9586262634177608,0.2873297375,0.6744397312397888
0.036000000000000004,1.7676,1.0,2730.634863305678,0.3340608915809834,1.3191027717813633,0.9594670338699801,0.2872922,0.6752978987291174
0.0365,1.76669375,1.0,2732.3023165631625,0.3377962859792376,1.3186783465303207,0.9602767711207655,0.2872541375,0.6761610696833573
0.037,1.765775,1.0,2733.694778573476,0.3415107307230803,1.318250778325652,0.9610569824326214,0.28721555,0.677029470966571
0.0375,1.76484375,1.0,2734.825677884711,0.3452043409823547,1.3178199433140083,0.9618090837490424,0.2871764375,0.6779033279077824
0.038,1.7639,1.0,2735.7084932906832,0.348877231926904,1.317385717642041,0.9625344062335377,0.28713679999999997,0.678782864275659
0.0385,1.76294375,1.0,2736.3567474701485,0.3525295187265716,1.3169479774564012,0.9632342022715147,0.28709663750000003,0.6796683022522212
0.039,1.761975,1.0,2736.784000965633,0.3561613165512007,1.3165065989037406,0.9639096509845081,0.28705595,0.6805598624055699
0.0395,1.7609937500000001,1.0,2737.003846503249,0.3597727405706346,1.31606145813071,0.9645618633012054,0.2870147375,0.6814577636616375
0.04,1.76,1.0,2737.0299036514693,0.36336390595471657,1.315612431283961,0.9651918866252478,0.286973,0.6823622232749585
0.0405,1.7589937500000001,1.0,2736.8758138209873,0.36693492787328985,1.3151593945101447,0.9658007091358144,0.2869307375,0.6832734567984661
0.041,1.757975,1.0,2736.553549075338,0.370485921089754,1.3147022392660506,0.9663892650030776,0.28688795,0.6841916473244052
0.0415,1.75694375,1.0,2736.0768533896753,0.3740169972228821,1.3142408410439161,0.9669584348313851,0.2868446375,0.6851170083546309
0.042,1.7559,1.0,2735.456772252789,0.37752826737505224,1.3137750999201676,0.9675090530441136,0.28680079999999997,0.6860497023918649
0.0425,1.75484375,1.0,2734.6939090339642,0.38101984184581816,1.313305010858454,0.9680419165891563,0.2867564375,0.6869897008003316
0.043000000000000003,1.753776217690625,1.0,2733.84942615628,0.3844918309347337,1.3128305688224247,0.9685577796967721,0.28671160114300626,0.6879369745224434
0.043500000000000004,1.7527067351416332,1.0,2733.3880695815687,0.38794434472000566,1.3123517671000446,0.9690573564292524,0.2866666828759486,0.688891497415432
0.044,1.7516372525926414,1.0,2733.374496699306,0.3913774928317492,1.311868898265893,0.9695413468261397,0.28662176460889094,0.6898526476225066
0.0445,1.7505677700436495,1.0,2733.763231486914,0.3947913843120854,1.3113823753253844,0.9700104236618422,0.2865768463418333,0.6908195674002597
0.045,1.7494982874946576,1.0,2734.52417506519,0.39818612636485173,1.3108924723930793,0.9704652140861361,0.2865319280747756,0.6917916792388982
0.0455,1.7484288049456658,1.0,2735.627292018132,0.40156182619388575,1.310399463583539,0.9709063132565936,0.28648700980771796,0.6927684088235053
0.046,1.747359322396674,1.0,2737.0430133181057,0.4049185908530946,1.3099036191750357,0.9713342859812407,0.2864420915406603,0.6937491926728776
0.0465,1.746289839847682,1.0,2738.744259043695,0.40825652679523283,1.3094051870970853,0.9717496671370105,0.28639717327360265,0.6947335146601328
0.047,1.74522035729869,1.0,2740.7056029426712,0.41157574022060944,1.3089044004018295,0.9721529640586474,0.286352255006545,0.6957208909833743
0.0475,1.744150874749698,1.0,2742.9071371586215,0.4148763353242314,1.3084014421280412,0.9725446554492795,0.28630733673948733,0.6967109390731647
0.048,1.7430813922007062,1.0,2745.328954627362,0.41815841630110556,1.307896495314494,0.9729251968593672,0.28626241847242967,0.6977032786130477
0.0485,1.7420119096517144,1.0,2747.9521689273256,0.42142208668956,1.3073897336846132,0.9732950212989419,0.286217500205372,0.6986975498255822
0.049,1.7409424271027225,1.0,2750.7653295658542,0.424667445503132,1.3068812635137945,0.973654536090998,0.28617258193831435,0.6996935271179114
0.0495,1.7398729445537306,1.0,2753.7362742907694,0.4278946059893934,1.3063713784747584,0.9740041438237758,0.2861276636712567,0.7006906200621058
0.05,1.7388034620047388,1.0,2756.8547740361837,0.4311036676510229,1.3058601733723492,0.9743442134416239,0.28608274540419903,0.7016886299254991
0.0505,1.737733979455747,1.0,2760.110588180422,0.43429472999069935,1.3053477430114113,0.9746750969397832,0.2860378271371414,0.7026873591767766
0.051000000000000004,1.736664496906755,1.0,2763.4934618712323,0.43746789251110135,1.304834182196789,0.9749971302963101,0.2859929088700837,0.7036866114936697
0.051500000000000004,1.7355950143577632,1.0,2766.9931235497043,0.4406232547149077,1.3043195857333267,0.9753106343448545,0.28594799060302606,0.7046861917700777
0.052000000000000005,1.7345255318087713,1.0,2770.5992826739975,0.4437609161047971,1.3038040484258688,0.9756159155925364,0.2859030723359684,0.705685906122616
0.0525,1.7334560492597793,1.0,2774.301627641816,0.44688097618344824,1.3032876650792597,0.9759132669868111,0.28585815406891074,0.7066855618965905
0.053,1.7323865667107874,1.0,2778.089823912757,0.44998353445354,1.3027705304983435,0.9762029686349326,0.2858132358018531,0.7076849676714021
0.0535,1.7313170841617955,1.0,2781.9535123291,0.453068690417751,1.3022527394879648,0.976485288479315,0.2857683175347954,0.7086839332653714
0.054,1.7302476016128037,1.0,2785.887535697915,0.4561365374108438,1.3017343398152292,0.976760479460567,0.28572339926773777,0.7096823602559559
0.0545,1.7291781190638118,1.0,2789.8806528051214,0.4591871798800974,1.3012154338354556,0.9770287881181541,0.2856784810006801,0.710680045979969
0.055,1.72810863651482,1.0,2793.9268632949857,0.46222071416110566,1.3006960765436733,0.9772904469644422,0.28563356273362245,0.7116768799465606
0.0555,1.727039153965828,1.0,2798.0218804456267,0.465237234154392,1.3001763074045127,0.9775456776402319,0.2855886444665648,0.7126727821205086
0.056,1.7259696714168362,1.0,2802.1614058673485,0.4682368337604798,1.2996561658826045,0.9777946926006322,0.28554372619950713,0.7136676729864064
0.0565,1.7249001888678444,1.0,2806.3411291590087,0.47121960687989245,1.299135691442579,0.9780376955721095,0.28549880793244947,0.7146614735496499
0.057,1.7238307063188525,1.0,2810.556727599986,0.47418564741315333,1.2986149235490667,0.9782748819832113,0.2854538896653918,0.7156541053373248
0.0575,1.7227612237698604,1.0,2814.8038658755463,0.47713504926078587,1.2980939016666986,0.9785064393706882,0.2854089713983341,0.7166454903989944
0.058,1.7216917412208685,1.0,2819.078195838107,0.48006790632331336,1.297572665260105,0.9787325477625995,0.2853640531312765,0.7176355513073901
0.0585,1.7206222586718767,1.0,2823.3753563013624,0.4829843125012592,1.2970512537939165,0.9789533800398859,0.28531913486421884,0.7186242111589993
0.059000000000000004,1.7195527761228848,1.0,2827.6942495419007,0.4858843500794449,1.2965296774707544,0.9791690997023672,0.2852742165971612,0.7196114489129157
0.059500000000000004,1.718483293573893,1.0,2832.0301426846013,0.48876811825036554,1.2960079789022712,0.9793798670404025,0.2852292983301035,0.7205971824814815
0.06,1.717413811024901,1.0,2836.377000584092,0.49163572157784025,1.2954862121828052,0.9795858371805674,0.28518438006304586,0.721581308704905
0.0605,1.7163443284759092,1.0,2840.7334666847973,0.4944872472616016,1.2949643895557166,0.9797871556587051,0.2851394617959882,0.7225638038712483
0.061,1.7152748459269174,1.0,2845.0981802390966,0.497322782501382,1.2944425232643642,0.9799839624792427,0.28509454352893054,0.7235446444314872
0.0615,1.7142053633779255,1.0,2849.4697762935984,0.5001424144969139,1.2939206255521074,0.980176392368062,0.2850496252618729,0.7245238069995468
0.062,1.7131358808289336,1.0,2853.8468856792942,0.5029462304479296,1.2933987086623056,0.9803645750119652,0.2850047069948152,0.7255012683523328
0.0625,1.7120663982799416,1.0,2858.2281350042485,0.5057343175541618,1.292876784838318,0.9805486352855387,0.2849597887277575,0.72647700542975
0.063,1.7109969157309497,1.0,2862.612146650593,0.5085067630153428,1.292354866323504,0.9807286934661696,0.28491487046069985,0.7274509953347132
0.0635,1.7099274331819578,1.0,2866.997538773704,0.511263654031205,1.291832965361223,0.9809048654379164,0.2848699521936422,0.728423215333148
0.064,1.708857950632966,1.0,2871.382925305772,0.514005077801481,1.2913110941948343,0.9810772628848892,0.28482503392658454,0.7293936428539809
0.0645,1.707788468083974,1.0,2875.7669159620636,0.5167311215259032,1.2907892650676969,0.9812459934747534,0.2847801156595269,0.7303622554891223
0.065,1.7067189855349822,1.0,2880.148116250535,0.5194418724042038,1.2902674902231703,0.9814111610329288,0.2847351973924692,0.7313290309934366
0.0655,1.7056495029859904,1.0,2884.525127485208,0.5221374176361157,1.2897457819046139,0.9815728657080212,0.28469027912541156,0.7322939472847064
0.066,1.7045800204369985,1.0,2888.8965468022993,0.5248178444213709,1.289224152355387,0.9817312041289842,0.2846453608583539,0.733256982443584
0.0665,1.7035105378880067,1.0,2893.262126140219,0.5274832247284644,1.2887026035868132,0.9818862680398992,0.28460044259129624,0.734218133552919
0.067,1.7024410553390148,1.0,2897.621569075774,0.5301336422854972,1.2881811380311716,0.9820381468255281,0.2845555243242386,0.7351773969485293
0.0675,1.701371572790023,1.0,2901.972425124021,0.5327692091567804,1.2876597771026792,0.9821869295528655,0.2845106060571809,0.7361347341748626
0.068,1.7003020902410309,1.0,2906.314462114586,0.5353900045988375,1.2871385226112655,0.982332699185319,0.28446568779012327,0.73709014296116
0.0685,1.699232607692039,1.0,2910.6474473374337,0.5379961078681916,1.28661737636686,0.9824755358853128,0.2844207695230656,0.7380436210605157
0.069,1.6981631251430471,1.0,2914.9711475471345,0.5405875982213665,1.2860963401793923,0.982615517128407,0.28437585125600795,0.7389951662498642
0.0695,1.6970936425940553,1.0,2919.2853289672853,0.5431645549148852,1.2855754158587922,0.982752717812017,0.2843309329889503,0.7399447763299678
0.07,1.6960241600450634,1.0,2923.5897572950253,0.5457270572052713,1.2850546052149892,0.982887210359018,0.28428601472189263,0.740892449125404
0.07050000000000001,1.6949546774960715,1.0,2927.884197705396,0.5482751843490479,1.2845339100579127,0.9830190648165147,0.284241096454835,0.7418381824845524
0.07100000000000001,1.6938851949470797,1.0,2932.168414856106,0.5508090156027384,1.2840133321974925,0.983148348950028,0.2841961781877773,0.7427819742795816
0.07150000000000001,1.6928157123980878,1.0,2936.442172892133,0.5533286302228664,1.2834928734436581,0.9832751283333414,0.28415125992071966,0.7437238224064351
0.07200000000000001,1.691746229849096,1.0,2940.705235450402,0.5558341074659551,1.2829725356063393,0.9833994664342368,0.284106341653662,0.7446637247848185
