Time [s],Phi [rad],STIM [ ],Fsee [N],Gamma [ ],Lcerel [ ],q [ ],Lmtc [m],fisomrel [ ]
0.0,1.8,1.0,17.992967092120445,0.00016917352975754382,1.379336855794662,0.00500745918629915,0.288653,0.5411465237111603
0.0005,1.79999375,1.0,18.354687541293302,0.005777433908872792,1.3792937390066158,0.013388320403914748,0.2886527375,0.5412508276478993
0.001,1.799975,1.0,21.814659208159956,0.011354236381426576,1.3789183005376777,0.03644285522451197,0.28865195,0.5421585507577747
0.0015,1.79994375,1.0,31.51991693033663,0.016899757402362534,1.3780079455026746,0.07174058117407682,0.2886506375,0.5443558454618846
0.002,1.7999,1.0,54.53963083401913,0.022414172434799755,1.37630630560076,0.1160646272771127,0.2886488,0.5484488659601638
0.0025,1.79984375,1.0,98.71579299817829,0.027897655958565602,1.3738585323399615,0.16603861594593458,0.28864643749999996,0.5543042021575575
0.003,1.7997750000000001,1.0,163.02802872083814,0.033350381476513404,1.3711371143476667,0.2187897127660958,0.28864354999999997,0.5607692677094609
0.0035,1.79969375,1.0,240.01765929877476,0.0387725215152862,1.3685130064456177,0.27211347024609506,0.2886401375,0.5669584313788653
0.004,1.7996,1.0,323.9477135710227,0.04416424763572745,1.3660905080072947,0.32436839143243956,0.2886362,0.5726330993206661
0.0045000000000000005,1.7994937500000001,1.0,411.835114209257,0.049525730438182515,1.3638626425787526,0.3744131307034635,0.2886317375,0.5778188052793589
0.005,1.799375,1.0,502.0318783044312,0.054857139554357386,1.3618027748522967,0.42153708572916654,0.28862675,0.582585306470594
0.0055,1.79924375,1.0,593.4307714779773,0.06015864368652218,1.3598873064258001,0.46536757603161955,0.2886212375,0.5869933886274945
0.006,1.7991000000000001,1.0,685.1596031705504,0.06543041057109113,1.3580984457699499,0.5057770657120456,0.2886152,0.59108897684039
0.006500000000000001,1.79894375,1.0,776.5057518333967,0.07067260700397493,1.3564224897034842,0.542803844647525,0.2886086375,0.5949075536784747
0.007,1.798775,1.0,866.8780870696121,0.07588539888223435,1.3548485527857863,0.5765908812049271,0.28860155,0.5984773743170697
0.0075,1.79859375,1.0,955.7871397694007,0.08106895103048052,1.353367677076107,0.6073413227565393,0.2885939375,0.601821698972692
0.008,1.7984,1.0,1042.8548568129788,0.08622342773396241,1.351971913873696,0.6352874363045267,0.2885858,0.6049610071558912
0.0085,1.79819375,1.0,1127.755385640951,0.09134899176509399,1.35065470239614,0.6606705990061935,0.2885771375,0.6079122439013857
0.009000000000000001,1.797975,1.0,1210.2501122026904,0.09644580534440561,1.349409941629988,0.6837279431142569,0.28856795,0.6106909843435215
0.0095,1.79774375,1.0,1290.1749353218365,0.10151403009778667,1.3482319305593806,0.7046847535092547,0.2885582375,0.613311615238797
0.01,1.7975,1.0,1367.3878200086779,0.10655382594925424,1.3471158539705117,0.7237506619477961,0.288548,0.6157863007727118
0.0105,1.79724375,1.0,1441.8019372285391,0.11156535227178668,1.346057142099785,0.7411175277201811,0.2885372375,0.6181264489851057
0.011,1.796975,1.0,1513.3854848727804,0.11654876835722044,1.345051358495643,0.7569590979669415,0.28852595000000003,0.6203429846948703
0.0115,1.79669375,1.0,1582.1096830285983,0.12150423145330369,1.3440947327932222,0.7714318453042512,0.2885141375,0.6224452004590593
0.012,1.7964,1.0,1647.9721056245867,0.1264318979798099,1.343183755622703,0.7846758344682888,0.28850180000000003,0.6244416769027321
0.0125,1.79609375,1.0,1711.0006277716247,0.13133192385207346,1.3423150582308885,0.7968159948737137,0.2884889375,0.6263405641211206
0.013000000000000001,1.7957750000000001,1.0,1771.2537872955388,0.1362044651252489,1.3414853528430175,0.8079635144865119,0.28847555,0.6281497251073975
0.0135,1.79544375,1.0,1828.7747344129127,0.14104967551592487,1.3406918992582972,0.8182174223710076,0.2884616375,0.6298757327161169
0.014,1.7951000000000001,1.0,1883.6114579425414,0.1458677076684191,1.3399322090438153,0.8276657825221672,0.2884472,0.6315245320618363
0.0145,1.79474375,1.0,1935.8360647290572,0.15065871422704927,1.339203793766659,0.83638683351218,0.2884322375,0.6331019971119448
0.015,1.794375,1.0,1985.5252377985576,0.15542284670718956,1.338504350817716,0.844450184281326,0.28841675,0.6346135346858315
0.0155,1.79399375,1.0,2032.7798957403616,0.16016025724109592,1.3378315247459136,0.8519177445280604,0.2884007375,0.6360646074229948
0.016,1.7936,1.0,2077.66432153199,0.16487109459333035,1.337183526504646,0.8588448257792056,0.2883842,0.6374594051463354
0.0165,1.7931937500000001,1.0,2120.253564640276,0.16955550732927457,1.3365585992129756,0.8652807531687667,0.2883671375,0.6388020066830347
0.017,1.792775,1.0,2160.635268394112,0.17421364401431033,1.335954985989966,0.8712695653072056,0.28834955,0.6400964521316383
0.0175,1.7923437500000001,1.0,2198.8769148864026,0.17884565165536662,1.3353712506876751,0.8768507279205819,0.2883314375,0.6413460593500784
0.018000000000000002,1.7919,1.0,2235.1270046017808,0.18345167888606645,1.3348052383138322,0.8820593864369158,0.2883128,0.6425556517781186
0.0185,1.7914448044292097,1.0,2269.4709869683516,0.188031870067521,1.3342560067703324,0.8869273835108004,0.2882936817860268,0.64372742964908
0.019,1.790987438699386,1.0,2302.3720126723874,0.19258636938260687,1.3337226643453264,0.891483332379524,0.2882744724253742,0.6448634671628082
0.0195,1.7905300729695621,1.0,2333.9838324972716,0.19711532101420054,1.3332043193269651,0.8957529745802622,0.2882552630647216,0.6459658213707073
0.02,1.7900727072397384,1.0,2364.3643865160984,0.2016188687989892,1.3327001020879836,0.8997595110352585,0.288236053704069,0.6470364861946597
0.0205,1.7896153415099147,1.0,2393.5582198424,0.2060971557855568,1.3322093087346387,0.9035239196865306,0.28821684434341643,0.6480770892539971
0.021,1.789157975780091,1.0,2421.6059337502497,0.2105503233310544,1.3317313025367354,0.9070651778976215,0.28819763498276385,0.649089103690309
0.021500000000000002,1.7887006100502671,1.0,2448.5490737988403,0.21497851177616567,1.331265463205377,0.910400471033003,0.2881784256221112,0.6500739569111191
0.022,1.7882432443204435,1.0,2474.4298363497437,0.21938186087286718,1.330811187583191,0.9135453870011795,0.28815921626145863,0.6510330298781852
0.0225,1.7877858785906198,1.0,2499.2829360497312,0.2237605072252719,1.3303679649192712,0.9165141003990137,0.28814000690080604,0.6519674992190663
0.023,1.7873285128607959,1.0,2523.174723609166,0.2281145977085893,1.3299350034351551,0.9193194570459157,0.2881207975401534,0.6528791247074113
0.0235,1.7868711471309722,1.0,2546.1362895785896,0.23244426729435483,1.329511865098253,0.9219732203549115,0.2881015881795008,0.6537689118605573
0.024,1.7864137814011485,1.0,2568.2002272209065,0.23674965095410402,1.3290981118759746,0.9244861226890295,0.28808237881884824,0.6546378595652695
0.0245,1.7859564156713246,1.0,2589.4005392374756,0.24103088365937234,1.3286933057357304,0.926867969931353,0.28806316945819566,0.6554869603460385
0.025,1.7854990499415009,1.0,2609.772548748331,0.24528810038169527,1.328297008644931,0.9291277341853885,0.288043960097543,0.6563172006211418
0.025500000000000002,1.7850416842116772,1.0,2629.352814527023,0.24952143609260832,1.3279087825709868,0.9312736360739672,0.28802475073689043,0.6571295609464711
0.026000000000000002,1.7845843184818533,1.0,2648.1790504885075,0.253731025763647,1.3275281894813076,0.9333132179117951,0.28800554137623785,0.6579250162471195
0.0265,1.7841269527520296,1.0,2666.284070120065,0.2579170016734939,1.327154846333485,0.9352534163696945,0.2879863320155852,0.6587044213026588
0.027,1.783669587022206,1.0,2683.702574912992,0.26207949799013014,1.3267883612926692,0.9371006118335227,0.28796712265493263,0.6594686445269513
0.0275,1.783212221292382,1.0,2700.4717191043,0.26621865000735695,1.326428328159659,0.938860679189804,0.28794791329428004,0.6602185796393176
0.028,1.7827548555625583,1.0,2716.6149755452207,0.270334586174373,1.326074473057772,0.9405390528107097,0.28792870393362746,0.6609548406253072
0.0285,1.7822974898327346,1.0,2732.1564364136516,0.274427434940377,1.3257265221103252,0.9421407499760323,0.2879094945729749,0.6616780382458924
0.029,1.781840124102911,1.0,2747.1207765312424,0.2784973247545676,1.3253842014406358,0.9436704083298414,0.28789028521232224,0.6623887801429837
0.029500000000000002,1.781382758373087,1.0,2761.5332183433293,0.2825443840661435,1.3250472371720214,0.945132319523776,0.28787107585166966,0.6630876709401647
0.03,1.7809253926432633,1.0,2775.419498561755,0.28656874132430343,1.3247153554277986,0.9465304594768063,0.28785186649101707,0.663775312338643
0.0305,1.7804680269134396,1.0,2788.805836471005,0.29057052497824604,1.3243882823312851,0.94786851562867,0.28783265713036443,0.6644523032084134
0.031,1.7800106611836157,1.0,2801.712184531677,0.2945498588370178,1.3240658042900193,0.9491499176824931,0.28781344776971185,0.665119115082471
0.0315,1.779553295453792,1.0,2814.1656667225875,0.2985068732866272,1.3237476467760396,0.9503778476408078,0.28779423840905927,0.665776343134492
0.032,1.7790959297239684,1.0,2826.1907554985783,0.3024416967635947,1.32343356253169,0.951555268541441,0.2877750290484067,0.6664245236864139
0.0325,1.7786385639941444,1.0,2837.8031151211044,0.30635445106104187,1.3231233859465876,0.9526849474711344,0.28775581968775404,0.6670640224949381
0.033,1.7781811982643208,1.0,2849.0186665450847,0.31024525797208985,1.322816951410349,0.9537694637138109,0.28773661032710146,0.6676952037057666
0.0335,1.777723832534497,1.0,2859.8535733741405,0.3141142392898601,1.322514093312591,0.9548112237653236,0.2877174009664489,0.6683184298939968
0.034,1.7772664668046732,1.0,2870.324228424937,0.3179615168074739,1.322214646042931,0.9558124749775039,0.28769819160579624,0.6689340621027702
0.0345,1.7768091010748495,1.0,2880.4472408991483,0.32178721231805274,1.3219184439909852,0.9567753179711683,0.28767898224514366,0.6695424598801751
0.035,1.7763517353450258,1.0,2890.2394241631496,0.3255914476147178,1.3216253215463714,0.9577017179421394,0.28765977288449107,0.6701439813143917
0.035500000000000004,1.7758943696152019,1.0,2899.717784136637,0.32937434449059055,1.3213351130987057,0.9585935149706128,0.2876405635238385,0.6707389830670984
0.036000000000000004,1.7754370038853782,1.0,2908.892296585024,0.33313601660479697,1.3210477165357661,0.9594524380727477,0.2876213541631859,0.6713276903927626
0.0365,1.7749796381555545,1.0,2917.7834133374126,0.3368765920842116,1.320762938762776,0.9602801029682596,0.28760214480253327,0.6719105137636086
0.037,1.7745222724257308,1.0,2926.405813282165,0.3405961919014902,1.3204806389594836,0.9610780297986373,0.2875829354418807,0.6724877552682433
0.0375,1.7740649066959069,1.0,2934.7690711226096,0.3442949307495911,1.320200722250021,0.9618476496486835,0.2875637260812281,0.6730596220362403
0.038,1.7736075409660832,1.0,2942.8828620893096,0.3479729233214726,1.319923093758519,0.9625903078601883,0.28754451672057546,0.6736263204080929
0.0385,1.7731501752362595,1.0,2950.7569570268183,0.35163028431009313,1.3196476586091093,0.9633072701143035,0.2875253073599229,0.6741880559493443
0.039,1.7726928095064356,1.0,2958.4012176799642,0.35526712840841085,1.3193743219259233,0.9639997280187145,0.2875060979992703,0.6747450334641477
0.0395,1.772235443776612,1.0,2965.8255921800283,0.3588835703093842,1.3191029888330923,0.9646688042448506,0.2874868886386177,0.6752974570082506
0.04,1.7717780780467882,1.0,2973.0401107301477,0.3624797247059716,1.318833564454748,0.9653155572558249,0.2874676792779651,0.6758455299014032
0.0405,1.7713207123169643,1.0,2980.054881490675,0.36605570629113127,1.3185659539150214,0.9659409856617148,0.2874484699173125,0.676389454739198
0.041,1.7708633465871406,1.0,2986.8800866638394,0.3696116297578216,1.3183000623380443,0.9665460322351992,0.2874292605566599,0.6769294334043275
0.0415,1.770405980857317,1.0,2993.5220718093965,0.37314760177608913,1.3180358287585825,0.9671315891123756,0.2874100511960073,0.6774655982966888
0.042,1.769948615127493,1.0,2999.990054608898,0.37666373774194994,1.3177731677425035,0.9676984990879979,0.2873908418353547,0.6779981309403531
0.0425,1.7694912493976693,1.0,3006.2965958252726,0.38016016030178484,1.3175119654169802,0.9682475581997942,0.2873716324747021,0.6785272698247652
0.043000000000000003,1.7690338836678456,1.0,3012.4470430395127,0.38363697648327966,1.3172521709257965,0.9687795224425626,0.2873524231140495,0.6790531251367002
0.043500000000000004,1.7685765179380217,1.0,3018.4467813524902,0.3870942933141202,1.3169937334127368,0.9692951078066593,0.28733321375339693,0.6795758066870368
0.044,1.768119152208198,1.0,3024.3012318261813,0.3905322178219923,1.3167366020215856,0.9697949927945597,0.28731400439274435,0.6800954239152415
0.0445,1.7676617864783744,1.0,3030.015849982366,0.3939508570345819,1.3164807258961264,0.9702798207550248,0.2872947950320917,0.6806120858936892
0.045,1.7672044207485507,1.0,3035.5961243586053,0.39735031797957476,1.316226054180144,0.9707502020497708,0.2872755856714391,0.6811259013318132
0.0455,1.7667470550187268,1.0,3041.0475751211484,0.4007307076846567,1.3159725360174226,0.9712067160661805,0.2872563763107865,0.6816369785800975
0.046,1.766289689288903,1.0,3046.3757527361804,0.4040921331775135,1.315720120551746,0.9716499130883954,0.2872371669501339,0.6821454256338999
0.0465,1.7658323235590794,1.0,3051.586236697142,0.40743470148583116,1.3154687569268986,0.9720803160380213,0.2872179575894813,0.682651350137109
0.047,1.7653749578292555,1.0,3056.6846343105244,0.41075851963729537,1.3152183942866649,0.9724984220946965,0.28719874822882874,0.68315485938564
0.0475,1.7649175920994318,1.0,3061.676579538326,0.414063694659592,1.3149689817748285,0.9729047042058793,0.28717953886817615,0.6836560603307646
0.048,1.764460226369608,1.0,3066.5647946918193,0.4173503218887704,1.3147204937232875,0.9732996127826679,0.28716032950752357,0.6841550090260529
0.0485,1.7640028606397842,1.0,3071.3537808207902,0.42061850773154497,1.3144728893536206,0.9736835770690097,0.28714112014687093,0.684651791650464
0.049,1.7635454949099605,1.0,3076.051957758203,0.42386837469383803,1.3142260945065853,0.9740570056604495,0.28712191078621835,0.6851465610049059
0.0495,1.7630881291801368,1.0,3080.6620554660617,0.4271000214791203,1.3139800839709677,0.9744202884148192,0.2871027014255657,0.6856393713953575
0.05,1.7626307634503129,1.0,3085.1868169096833,0.43031354679086253,1.3137348325355531,0.9747737971136023,0.2870834920649131,0.6861302769575525
0.0505,1.7621733977204892,1.0,3089.628997625912,0.43350904933253565,1.313490314989128,0.975117886462079,0.28706428270426054,0.6866193316582186
0.051000000000000004,1.7617160319906655,1.0,3093.991365306135,0.43668662780761025,1.313246506120478,0.9754528950255108,0.28704507334360796,0.6871065892962795
0.051500000000000004,1.7612586662608416,1.0,3098.2766993930677,0.4398463809195573,1.3130033807183892,0.9757791461059921,0.2870258639829554,0.6875921035040151
0.052000000000000005,1.760801300531018,1.0,3102.487790691533,0.4429884073718474,1.3127609135716476,0.9760969485642118,0.28700665462230274,0.6880759277481773
0.0525,1.7603439348011942,1.0,3106.6274409938173,0.44611280586795143,1.312519079469039,0.9764065975900454,0.28698744526165015,0.6885581153310731
0.053,1.7598865690713705,1.0,3110.6984627182824,0.44921967511134026,1.3122778531993493,0.9767083754255762,0.28696823590099757,0.6890387193915997
0.0535,1.7594292033415466,1.0,3114.7036785628384,0.45230911380548455,1.3120372095513646,0.9770025520438727,0.28694902654034493,0.6895177929062429
0.054,1.758971837611723,1.0,3118.6459211723336,0.4553812206538551,1.3117971233138706,0.9772893857865789,0.28692981717969235,0.6899953886900352
0.0545,1.7585144718818992,1.0,3122.528032819653,0.4584360943599227,1.3115575692756536,0.9775691239631538,0.28691060781903976,0.6904715593974691
0.055,1.7580571061520753,1.0,3126.3528651014335,0.46147383362715816,1.311318522225499,0.9778420034143621,0.2868913984583872,0.6909463575233784
0.0555,1.7575997404222516,1.0,3130.1229311589013,0.46449453405568414,1.3110799599016847,0.9781082509256107,0.2868721890977346,0.6914198295521883
0.056,1.757142374692428,1.0,3133.835640493661,0.46749824955762903,1.310841903403908,0.9783680825398513,0.28685297973708196,0.6918919358680979
0.0565,1.756685008962604,1.0,3137.499811263818,0.4704851391494927,1.3106042770727762,0.9786217094173579,0.2868337703764294,0.692362828648272
0.057,1.7562276432327804,1.0,3141.1166732270203,0.4734552921468046,1.3103670697350058,0.9788693314208504,0.2868145610157768,0.6928325319646238
0.0575,1.7557702775029567,1.0,3144.6874603671267,0.4764087978650943,1.3101302702173152,0.9791111403300897,0.28679535165512415,0.6933010698180326
0.058,1.7553129117731328,1.0,3148.213410792361,0.47934574561989124,1.309893867346421,0.9793473202333891,0.28677614229447157,0.6937684661386441
0.0585,1.754855546043309,1.0,3151.6957666348917,0.4822662247267248,1.309657849949041,0.9795780478971493,0.286756932933819,0.6942347447861519
0.059000000000000004,1.7543981803134854,1.0,3155.1357739545883,0.48517032450112463,1.3094222068518926,0.9798034931148164,0.2867377235731664,0.6946999295500784
0.059500000000000004,1.7539408145836615,1.0,3158.5346826444556,0.4880581342586201,1.3091869268816931,0.9800238190365598,0.28671851421251376,0.6951640441500464
0.06,1.7534834488538378,1.0,3161.893746339787,0.49092974331474065,1.30895199886516,0.9802391824808797,0.2866993048518612,0.6956271122360403
0.0605,1.753026083124014,1.0,3165.214222329059,0.4937852409850159,1.3087174116290106,0.9804497342292642,0.2866800954912086,0.696089157388661
0.061,1.7525687173941904,1.0,3168.4973714685198,0.49662471658497526,1.3084831539999624,0.9806556193049457,0.286660886130556,0.6965502031193733
0.0615,1.7521113516643665,1.0,3171.744458098793,0.49944825943014814,1.3082492148047327,0.980856977236725,0.2866416767699034,0.6970102728707455
0.062,1.7516539859345428,1.0,3174.9567499651803,0.5022559588360641,1.3080155828700393,0.9810539423087745,0.2866224674092508,0.6974693900166772
0.0625,1.7511966202047191,1.0,3178.1355181395893,0.5050479041182526,1.307782247022599,0.981246643797263,0.2866032580485982,0.697927577862627
0.063,1.7507392544748952,1.0,3181.2820369459437,0.5078241845922431,1.3075491960891297,0.9814352061945935,0.2865840486879456,0.698384859645823
0.0635,1.7502818887450715,1.0,3184.397583888397,0.5105848895735651,1.3073164188963484,0.981619749421985,0.286564839327293,0.6988412585354723
0.064,1.7498245230152478,1.0,3187.4834395820594,0.5133301083777481,1.307083904270973,0.981800389031095,0.2865456299666404,0.6992967976329589
0.0645,1.749367157285424,1.0,3190.540887686469,0.5160599303203215,1.3068516410397206,0.9819772363953111,0.2865264206059878,0.6997514999720358
0.065,1.7489097915556002,1.0,3193.5712148419225,0.5187744447168148,1.3066196180293086,0.9821503988913267,0.2865072112453352,0.700205388519008
0.0655,1.7484524258257765,1.0,3196.5737564623755,0.5214737023278551,1.3063878404799876,0.9823199782750361,0.2864880018846826,0.7006584541007963
0.066,1.7479950600959526,1.0,3199.5504260192397,0.52415781764083,1.3061562919815777,0.9824860759326891,0.28646879252403,0.7011107298472288
0.0665,1.747537694366129,1.0,3202.5030343920766,0.5268268980161019,1.3059249570184066,0.9826487892377994,0.28644958316337743,0.7015622470449174
0.067,1.7470803286363052,1.0,3205.4321103185653,0.5294810231311853,1.305693830860326,0.9828082108748807,0.28643037380272485,0.7020130158607728
0.0675,1.7466229629064816,1.0,3208.3381838616137,0.5321202726635944,1.305462908777188,0.9829644303369789,0.2864111644420722,0.7024630464329696
0.068,1.7461655971766576,1.0,3211.221786388029,0.5347447262908441,1.305232186038845,0.9831175340578913,0.2863919550814196,0.7029123488710075
0.0685,1.745708231446834,1.0,3214.0834505468288,0.5373544636904487,1.3050016579151487,0.9832676055380248,0.28637274572076704,0.7033609332557738
0.069,1.74525086571701,1.0,3216.923710248973,0.5399495645399228,1.304771319675951,0.9834147254642344,0.2863535363601144,0.7038088096396025
0.0695,1.7447934999871864,1.0,3219.743100647169,0.5425301085167811,1.3045411665911042,0.9835589718239796,0.2863343269994618,0.7042559880463308
