Time [s],Phi [rad],STIM [ ],Fsee [N],Gamma [ ],Lcerel [ ],q [ ],Lmtc [m],fisomrel [ ]
0.0,1.8,1.0,17.973678456620917,7.71841309888221e-05,1.3793390157955527,0.005001562345169346,0.288653,0.5411412981353999
0.0005,1.79999375,1.0,18.305242663816937,0.0056859604978671,1.3792992233919752,0.013128080687581742,0.2886527375,0.5412375610148104
0.001,1.799975,1.0,21.69677147139822,0.011263276063922741,1.3789303029826296,0.035959517979423365,0.28865195,0.5421295455404735
0.0015,1.79994375,1.0,31.254264872151904,0.01680930730028879,1.3780304633050207,0.07108154464916193,0.2886506375,0.5443015587161717
0.002,1.7999,1.0,53.98010620743677,0.022324229686351924,1.3763423774708954,0.11528577650383494,0.2886488,0.548362292473068
0.0025,1.79984375,1.0,97.78659391322304,0.027808217717762936,1.3739030496022324,0.16519234074127184,0.28864643749999996,0.5541980532466535
0.003,1.7997750000000001,1.0,161.82647377461072,0.03326144491354172,1.3711818859161096,0.21791732477308626,0.28864354999999997,0.5606632894380109
0.0035,1.79969375,1.0,238.66416030770233,0.03868408381616232,1.3685545532169485,0.27124625005392905,0.2886401375,0.5668607822163758
0.004,1.7996,1.0,322.51011361269775,0.04407630600219628,1.366128480630229,0.3235290157875879,0.2886362,0.5725444377276787
0.0045000000000000005,1.7994937500000001,1.0,410.34804241305056,0.049438282087538386,1.3638974723163544,0.3736165725927587,0.2886317375,0.5777379771740054
0.005,1.799375,1.0,500.51570041938226,0.05477018171885131,1.3618349336764966,0.4207920018229182,0.28862675,0.5825110993983589
0.0055,1.79924375,1.0,591.9022285091518,0.06007217361737074,1.359917123150133,0.46467784424172365,0.2886212375,0.5869249504570535
0.006,1.7991000000000001,1.0,683.6311021002529,0.06534442553084897,1.358126191724275,0.5051432595611153,0.2886152,0.5910256084217723
0.006500000000000001,1.79894375,1.0,774.9870635049672,0.07058710428367697,1.3564483835279024,0.5422243703645185,0.2886086375,0.5948486922204891
0.007,1.798775,1.0,865.3673031585506,0.07580037555878615,1.3548729308974081,0.5760629297803636,0.28860155,0.5984222031769242
0.0075,1.79859375,1.0,954.3151034872304,0.08098440487384678,1.3533902970768716,0.6068610391611543,0.2885939375,0.6017707204461749
0.008,1.7984,1.0,1041.4134869111451,0.08613935585616908,1.351993117055379,0.6348510483241292,0.2885858,0.6049134105409385
0.0085,1.79819375,1.0,1126.3401459943057,0.09126539136296459,1.350674721573383,0.660274245166048,0.2885771375,0.607867473371908
0.009000000000000001,1.797975,1.0,1208.8755055919514,0.09636267389288111,1.3494287110827816,0.6833677340626856,0.28856795,0.610649157751996
0.0095,1.79774375,1.0,1288.8415329485856,0.10143136493518788,1.3482495639795704,0.7043571428915248,0.2885582375,0.6132724527679818
0.01,1.7975,1.0,1366.095796055379,0.10647162444826928,1.347132450401933,0.7234523767878143,0.288548,0.6157495595597879
0.0105,1.79724375,1.0,1440.550477363351,0.11148361180053305,1.3460727968366695,0.7408455894348155,0.2885372375,0.6180918982450425
0.011,1.796975,1.0,1512.179416090774,0.11646748648108375,1.3450660840354525,0.7567107815903383,0.28852595000000003,0.6203105792360908
0.0115,1.79669375,1.0,1580.9486567707715,0.12142340552800641,1.3441085968658246,0.7712047334405884,0.2885141375,0.6224147753923259
0.012,1.7964,1.0,1646.855296016405,0.1263515254013558,1.3431968223007091,0.7844677674639446,0.28850180000000003,0.6244130776871667
0.0125,1.79609375,1.0,1709.929019999856,0.1312520021350814,1.3423273627930439,0.7966250377133585,0.2884889375,0.6263137011580349
0.013000000000000001,1.7957750000000001,1.0,1770.2254839069212,0.13612499165731876,1.3414969574729456,0.8077879573156306,0.28847555,0.6281244516477078
0.0135,1.79544375,1.0,1827.788999425232,0.14097064779706917,1.3407028470361853,0.8180557388704737,0.2884616375,0.6298519452214215
0.014,1.7951000000000001,1.0,1882.6672524781902,0.14578912322425755,1.3399425417162372,0.8275166163820221,0.2884472,0.6315021311591338
0.0145,1.79474375,1.0,1934.9320903516577,0.15058057060880883,1.3392135517465766,0.836248979023525,0.2884322375,0.633080887472808
0.015,1.794375,1.0,1984.6621439903467,0.15534514142600106,1.3385135501197316,0.8443225608265005,0.28841675,0.6345936746981377
0.0155,1.79399375,1.0,2031.9558860436687,0.16008298785408517,1.33784020472223,0.8517993980578236,0.2884007375,0.6360459058457963
0.016,1.7936,1.0,2076.876470830676,0.1647942586013514,1.3371917354013352,0.8587349089299042,0.2883842,0.6374417524777933
0.0165,1.7931937500000001,1.0,2119.499830216242,0.16947910229648921,1.3365663733184727,0.8651785063249935,0.2883671375,0.6387853199976099
0.017,1.792775,1.0,2159.914559335555,0.17413766756818805,1.3359623496350677,0.8711743063019138,0.28834955,0.6400806748331778
0.0175,1.7923437500000001,1.0,2198.203272536214,0.17877010126210155,1.3353780732822829,0.8767618023349634,0.2883314375,0.6413314667138512
0.018000000000000002,1.7919,1.0,2234.473069428901,0.1833765523458185,1.3348118073664634,0.8819763222532271,0.2883128,0.6425416251530682
0.0185,1.79144375,1.0,2268.790062698058,0.1879571650151798,1.3342623188050198,0.8868496801561093,0.2882936375,0.643713973938429
0.019,1.790975,1.0,2301.227157283193,0.19251208342265386,1.3337283788080327,0.8914104542799571,0.28827395,0.644851304777303
0.0195,1.79049375,1.0,2331.8638763412255,0.19704145172070897,1.3332087585855832,0.895684357173613,0.2882537375,0.6459563877610157
0.02,1.79,1.0,2360.7812345447537,0.20154541336179566,1.3327022739748489,0.899694571006141,0.288233,0.647031877844275
0.0205,1.78949375,1.0,2388.0600205175137,0.20602411155109396,1.3322077957292746,0.9034620339421139,0.2882117375,0.6480802948236497
0.021,1.788975,1.0,2413.7813132319884,0.2104776894917625,1.3317242384439032,0.907005686276085,0.28818995000000003,0.6491040485612642
0.021500000000000002,1.78844375,1.0,2438.0049653036226,0.21490628646901205,1.3312507622880352,0.9103427292357245,0.2881676375,0.6501050142971799
0.022,1.7879,1.0,2460.7942740496933,0.21931004176805335,1.3307865274309711,0.9134887629516923,0.2881448,0.6510850550706613
0.0225,1.78734375,1.0,2482.2156964801993,0.22368909467409723,1.3303306940420119,0.9164579576236682,0.28812143749999997,0.6520460222376363
0.023,1.786775,1.0,2502.338579925762,0.22804358447235443,1.3298824222904582,0.9192632043969989,0.28809755,0.6529897559431754
0.0235,1.78619375,1.0,2521.221063703031,0.23237364738728722,1.3294410032824244,0.9219162714298034,0.28807313749999996,0.6539178104472884
0.024,1.7856,1.0,2538.939224271425,0.23667942482547172,1.3290055798475677,0.9244278719741706,0.2880482,0.6548320421848397
0.0245,1.78499375,1.0,2555.5417568710845,0.2409610513599746,1.3285755728745623,0.9268078414067668,0.2880227375,0.6557337146369682
0.025,1.784375,1.0,2571.0767272150842,0.2452186610136497,1.328150424557218,0.9290651822880825,0.28799675,0.6566240397414465
0.025500000000000002,1.78374375,1.0,2585.5936823789334,0.2494523878093509,1.3277295770893458,0.931208143118752,0.2879702375,0.6575042228980821
0.026000000000000002,1.7831000000000001,1.0,2599.14352434541,0.25366236576993206,1.3273124726647558,0.9332442917433016,0.2879432,0.6583754631316437
0.0265,1.78244375,1.0,2611.778390446886,0.25784872891824695,1.3268985534772584,0.9351805807126984,0.2879156375,0.6592389532349363
0.027,1.781775,1.0,2623.540584639665,0.26201160760560505,1.3264873632982161,0.9370234197173447,0.28788755,0.6600956683883248
0.0275,1.7810937500000001,1.0,2634.4873249143666,0.2661511386283232,1.326078316476517,0.9387786953091789,0.2878589375,0.6609468479714298
0.028,1.7804,1.0,2644.658368671325,0.27026745248039397,1.3256709973788898,0.9404518584581675,0.2878298,0.6617933720224463
0.0285,1.77969375,1.0,2654.0880337922367,0.2743606774390227,1.3252650471687302,0.942047948940482,0.2878001375,0.6626359983747568
0.029,1.778975,1.0,2662.811253698245,0.27843094178141464,1.3248601070094341,0.9435716249577786,0.28776995,0.6634754811027392
0.029500000000000002,1.7782437500000001,1.0,2670.8635229739048,0.28247837378477486,1.3244558180643973,0.9450271969537227,0.2877392375,0.6643125705489883
0.03,1.7775,1.0,2678.2808458461614,0.28650310172630866,1.3240518214970152,0.9464186580295716,0.287708,0.6651480133433247
0.0305,1.77674375,1.0,2685.099687518087,0.29050525388322124,1.323647758470684,0.9477497113378557,0.2876762375,0.6659825524135898
0.031,1.775975,1.0,2691.3449216666572,0.2944849538208865,1.3232433800558503,0.94902380728489,0.28764395,0.6668167004147613
0.0315,1.7751937500000001,1.0,2697.056001017597,0.2984423324209864,1.3228383069475749,0.9502441383312764,0.2876111375,0.6676512358648707
0.032,1.7744,1.0,2702.2698536580983,0.30237751796933054,1.3224321860780344,0.9514136767551566,0.2875778,0.668486879403507
0.0325,1.77359375,1.0,2707.008763876399,0.3062906322782348,1.322024800750926,0.9525352047108733,0.2875439375,0.6693240679251478
0.033,1.772775,1.0,2711.295231079857,0.31018179716001487,1.3216159342699476,0.9536113152644964,0.28750955,0.6701632360448622
0.0335,1.7719437500000002,1.0,2715.1519492688158,0.31405113442698657,1.3212053699387967,0.9546444275180955,0.2874746375,0.6710048160793393
0.034,1.7711000000000001,1.0,2718.6017875511207,0.31789876589146565,1.3207928910611704,0.9556368003528499,0.2874392,0.6718492380249237
0.0345,1.7702437500000001,1.0,2721.6677716978197,0.32172481336576786,1.3203782809407665,0.9565905449317224,0.2874032375,0.6726969295326508
0.035,1.7693750000000001,1.0,2724.373066740172,0.325529398662209,1.3199613228812825,0.9575076360867134,0.28736675,0.6735483158802923
0.035500000000000004,1.76849375,1.0,2726.7409606075075,0.32931264359310475,1.3195418001864159,0.9583899227018786,0.2873297375,0.6744038199414053
0.036000000000000004,1.7676,1.0,2728.797826924832,0.3330746644395093,1.3191194690864032,0.9592391330950697,0.2872922,0.6752639172513143
0.0365,1.7666974956443406,1.0,2730.7309966877633,0.33681558631015185,1.3186943155423025,0.9600569134775174,0.28725429481706233,0.6761286136512223
0.037,1.76579467247794,1.0,2732.937691868448,0.34053552854065017,1.3182665394968855,0.9608448285866661,0.2872163762440735,0.6769974803465478
0.0375,1.7648918493115395,1.0,2735.4129574691087,0.344234606400683,1.3178363329206761,0.9616043459630643,0.28717845767108463,0.6778701067459729
0.038,1.763989026145139,1.0,2738.136003741025,0.34791293515992916,1.3174038877841978,0.9623368446536197,0.28714053909809584,0.6787460842457793
0.0385,1.7630862029787384,1.0,2741.086034170563,0.35157063008806744,1.3169693960579736,0.9630436215243706,0.28710262052510704,0.6796250062584295
0.039,1.762183379812338,1.0,2744.2422363597843,0.3552078064547767,1.3165330497125272,0.9637258970575234,0.2870647019521182,0.6805064682387972
0.0395,1.7612805566459375,1.0,2747.5837737242687,0.3588245795297357,1.316095040718382,0.9643848206799579,0.28702678337912935,0.6813900677080498
0.04,1.760377733479537,1.0,2751.089778007912,0.36242106458262324,1.3156555610460614,0.9650214756656427,0.28698886480614055,0.6822754042751793
0.0405,1.7594749103131364,1.0,2754.7393426144818,0.3659973768831182,1.315214802666089,0.9656368836501655,0.28695094623315176,0.6831620796561817
0.041,1.758572087146736,1.0,2758.5418241405787,0.3695536046502246,1.3147726835195421,0.9662319802922152,0.2869130276601629,0.6840502477994457
0.0415,1.7576692639803355,1.0,2762.4466056690276,0.3730898967989905,1.3143296637536537,0.9668077062552317,0.28687510908717406,0.6849389747592953
0.042,1.756766440813935,1.0,2766.441493800934,0.3766063658727592,1.3138858553680617,0.9673649146883598,0.28683719051418527,0.6858280286985341
0.0425,1.7558636176475344,1.0,2770.5201823726547,0.3801031188324804,1.3134413169650219,0.9679044070791246,0.2867992719411965,0.6867172857756145
0.043000000000000003,1.754960794481134,1.0,2774.6763498306163,0.38358026263910366,1.3129961071467906,0.9684269419255329,0.2867613533682076,0.6876066228027895
0.043500000000000004,1.7540579713147335,1.0,2778.90365832134,0.38703790425357865,1.3125502845156238,0.9689332374769869,0.2867234347952188,0.6884959172487328
0.044,1.753155148148333,1.0,2783.1957528566136,0.3904761506368549,1.3121039076737777,0.9694239742741149,0.28668551622223,0.6893850472409376
0.0445,1.7522523249819324,1.0,2787.546260555462,0.39389510874988226,1.3116570352235084,0.9698997975041157,0.28664759764924114,0.6902738915678981
0.045,1.751349501815532,1.0,2791.9487899623373,0.39729488555361026,1.3112097257670718,0.9703613191867131,0.28660967907625234,0.6911623296810713
0.0455,1.7504466786491315,1.0,2796.3969304410416,0.40067558800898845,1.3107620379067244,0.9708091202044359,0.2865717605032635,0.6920502416966186
0.046,1.749543855482731,1.0,2800.8842516451314,0.4040373230769666,1.3103140302447218,0.9712437521897153,0.2865338419302747,0.692937508396932
0.0465,1.7486410323163304,1.0,2805.404303064159,0.4073801977184943,1.3098657613833202,0.9716657392801819,0.28649592335728585,0.6938240112319364
0.047,1.7477382091499298,1.0,2809.9506136464292,0.41070431889452114,1.309417289924776,0.9720755797525356,0.28645800478429706,0.6947096323201758
0.0475,1.7468353859835295,1.0,2814.5166914974566,0.4140097935659968,1.3089686744713451,0.9724737475444639,0.2864200862113082,0.695594254449681
0.048,1.745932562817129,1.0,2819.096023655136,0.41729672869387097,1.3085199736252835,0.9728606936732561,0.2863821676383194,0.6964777610786173
0.0485,1.7450297396507284,1.0,2823.682894904677,0.4205652291313109,1.30807123866997,0.9732368467905312,0.28634424906533057,0.6973600507154031
0.049,1.7441269164843278,1.0,2828.27726695564,0.4238153935230743,1.307622470030398,0.9736026109965856,0.2863063304923418,0.6982411222334085
0.0495,1.7432240933179275,1.0,2832.8745972207125,0.4270473333088155,1.3071737083186297,0.973958375702383,0.2862684119193529,0.6991208957837418
0.05,1.742321270151527,1.0,2837.4732181362538,0.430261147963086,1.3067249683841415,0.9743045090841387,0.28623049334636413,0.6999993423780211
0.0505,1.7414184469851264,1.0,2842.0714567393493,0.4334569369604371,1.30627626507641,0.9746413623977461,0.2861925747733753,0.7008764331978465
0.051000000000000004,1.7405156238187258,1.0,2846.6676346778913,0.4366347997754201,1.3058276132449118,0.9749692709079362,0.2861546562003865,0.7017521395947726
0.051500000000000004,1.7396128006523255,1.0,2851.260068224784,0.4397948358825864,1.3053790277391233,0.9752885547584653,0.28611673762739764,0.7026264330902672
0.052000000000000005,1.738709977485925,1.0,2855.8470682975003,0.4429371447564874,1.3049305234085211,0.975599519787561,0.28607881905440885,0.7034992853756548
0.0525,1.7378071543195244,1.0,2860.4269404821985,0.44606182587167437,1.3044821151025818,0.9759024582925214,0.28604090048142,0.7043706683120476
0.053,1.7369043311531238,1.0,2864.997985063124,0.44916897870269884,1.304033817670782,0.9761976497470516,0.2860029819084312,0.7052405539302606
0.0535,1.7360015079867235,1.0,2869.5584970563027,0.45225870272411206,1.3035856459625983,0.9764853614746428,0.28596506333544236,0.7061089144307141
0.054,1.735098684820323,1.0,2874.107523606032,0.45533108982427994,1.303137608118836,0.9767658481204848,0.28592714476245357,0.7069757351530328
0.0545,1.7341958616539224,1.0,2878.6458356603084,0.4583862192979257,1.3026896969981294,0.9770393513337721,0.2858892261894647,0.7078410310305504
0.055,1.7332930384875218,1.0,2883.1686504584186,0.46142422994612753,1.3022419545999915,0.9773061112105014,0.2858513076164759,0.7087047221925278
0.0555,1.7323902153211215,1.0,2887.6757775706988,0.46444521321323795,1.3017943822104223,0.9775663508151073,0.2858133890434871,0.7095668076091504
0.056,1.731487392154721,1.0,2892.1670263046944,0.46744926054360947,1.3013469811154221,0.9778202839588409,0.2857754704704983,0.7104272862647367
0.0565,1.7305845689883204,1.0,2896.642205709284,0.47043646338159456,1.300899752600991,0.9780681156596951,0.28573755189750943,0.7112861571577244
0.057,1.7296817458219198,1.0,2901.101124580257,0.4734069131715458,1.3004526979531297,0.9783100425758524,0.28569963332452064,0.7121434193006551
0.0575,1.7287789226555192,1.0,2905.543591464675,0.4763607013578156,1.300005818457838,0.9785462534143746,0.2856617147515318,0.7129990717201617
0.058,1.727876099489119,1.0,2909.9694146664287,0.4792979193847565,1.2995591154011163,0.978776929316742,0.285623796178543,0.7138531134569537
0.0585,1.7269732763227184,1.0,2914.3784022506006,0.48221865869672104,1.299112590068965,0.9790022442227245,0.28558587760555415,0.7147055435658012
0.059000000000000004,1.7260704531563178,1.0,2918.7703620491625,0.4851230107380617,1.2986662437473844,0.979222365213969,0.28554795903256536,0.7155563611155229
0.059500000000000004,1.7251676299899172,1.0,2923.1451016655496,0.48801106695313096,1.2982200777223742,0.9794374528385802,0.2855100404595765,0.7164055651889703
0.06,1.724264806823517,1.0,2927.5024284801593,0.49088291878628126,1.297774093279935,0.9796476614178925,0.2854721218865877,0.7172531548830119
0.0605,1.7233619836571163,1.0,2931.8421496550645,0.4937386576818652,1.2973282917060673,0.9798531393365356,0.28543420331359887,0.7180991293085196
0.061,1.7224591604907158,1.0,2936.1640721398253,0.4965783750842353,1.2968826742867712,0.9800540293168296,0.2853962847406101,0.7189434875903538
0.0615,1.7215563373243152,1.0,2940.4680026761057,0.499402162437744,1.2964372423080468,0.9802504686784689,0.2853583661676212,0.719786228867348
0.062,1.720653514157915,1.0,2944.7537478033887,0.5022101111867439,1.2959919970558944,0.980442589584389,0.28532044759463243,0.720627352292294
0.0625,1.7197506909915143,1.0,2949.0211138639716,0.5050023127755873,1.2955469398163144,0.9806305192736504,0.2852825290216436,0.7214668570319255
0.063,1.7188478678251138,1.0,2953.270290151663,0.5077788256356434,1.2951020685272197,0.980814377675702,0.2852446104486548,0.7223047485681
0.0635,1.7179450446587132,1.0,2957.5015075724928,0.5105397547242457,1.2946573807711095,0.9809942837405075,0.28520669187566594,0.7231410330264969
0.064,1.717042221492313,1.0,2961.714648255628,0.5132852191257218,1.2942128771828032,0.9811703532313676,0.28516877330267715,0.7239757107774769
0.0645,1.7161393983259123,1.0,2965.9098785517394,0.5160153007493506,1.2937685559189094,0.9813426949396284,0.2851308547296883,0.7248087868409394
0.065,1.7152365751595118,1.0,2970.0873656325703,0.5187300815044117,1.293324415136037,0.9815114137721824,0.2850929361566995,0.7256402662152481
0.0655,1.7143337519931112,1.0,2974.2472774831795,0.5214296433001843,1.2928804529907947,0.9816766109183772,0.28505501758371066,0.7264701538772542
0.066,1.7134309288267109,1.0,2978.389782894913,0.5241140680459477,1.292436667639791,0.9818383840085954,0.28501709901072186,0.7272984547823165
0.0665,1.7125281056603103,1.0,2982.5150514577285,0.5267834376509811,1.2919930572396348,0.9819968272649777,0.284979180437733,0.728125173864322
0.067,1.7116252824939098,1.0,2986.6232535534864,0.529437834024564,1.2915496199469347,0.9821520316447317,0.2849412618647442,0.7289503160357077
0.0675,1.7107224593275092,1.0,2990.7145603483923,0.5320773390759757,1.2911063539182996,0.9823040849764436,0.2849033432917554,0.7297738861874798
0.068,1.7098196361611087,1.0,2994.789143786406,0.5347020347144953,1.2906632573103383,0.9824530720897731,0.2848654247187666,0.730595889189235
0.0685,1.7089168129947083,1.0,2998.84717658166,0.5373120028494023,1.2902203282796592,0.9825990749389075,0.28482750614577773,0.73141632988918
0.069,1.7080139898283078,1.0,3002.888832212467,0.5399073253899758,1.289777564982871,0.9827421727201074,0.28478958757278894,0.7322352131141515
0.0695,1.7071111666619072,1.0,3006.9142849134787,0.5424880842454953,1.289334965576583,0.9828824419836695,0.2847516689998001,0.7330525436696351
0.07,1.7062083434955067,1.0,3010.923709669875,0.5450543613252401,1.288892528217403,0.9830199567406072,0.2847137504268113,0.7338683263397863
0.07050000000000001,1.7053055203291063,1.0,3014.9172822099836,0.5476062385384894,1.2884502510619404,0.9831547885643324,0.28467583185382245,0.7346825658874475
0.07100000000000001,1.7044026971627058,1.0,3018.8951789992443,0.5501437977945226,1.2880081322668038,0.9832870066876054,0.28463791328083365,0.7354952670541686
0.07150000000000001,1.7034998739963052,1.0,3022.857577233218,0.5526671210026189,1.2875661699886018,0.9834166780950007,0.2845999947078448,0.736306434560225
