Time [s],Phi [rad],STIM [ ],Fsee [N],Gamma [ ],Lcerel [ ],q [ ],Lmtc [m],fisomrel [ ]
0.0,1.8,1.0,20.246708577482366,0.001543237994301581,1.3790919843228682,0.005609232269871653,0.288653,0.5417387354022649
0.0005,1.79999375,1.0,20.979276771499734,0.007143790958271149,1.379012534701097,0.017738123020524216,0.2886527375,0.5419307989140616
0.001,1.799975,1.0,25.473546583867044,0.012712929248472333,1.378560697883118,0.04403718123426522,0.28865195,0.5430223151092051
0.0015,1.79994375,1.0,37.62677799241894,0.018250829076279156,1.37751424976042,0.08184759101829413,0.2886506375,0.5455452526397552
0.002,1.7999,1.0,65.33227330697986,0.023757665664897475,1.3756436118558573,0.12785008477692375,0.2886488,0.5500378726782081
0.0025,1.79984375,1.0,114.88733474582425,0.02923361325445381,1.3731148939054068,0.17874318415821414,0.28864643749999996,0.5560754972766488
0.003,1.7997750000000001,1.0,182.86342851824236,0.034678845107736805,1.3704205550082218,0.23181930187329497,0.28864354999999997,0.5624636875873754
0.0035,1.79969375,1.0,261.7878595729209,0.04009353351539108,1.3678601776062111,0.28501824309866547,0.2886401375,0.5684913575622665
0.004,1.7996,1.0,346.7389441300805,0.04547784980074133,1.3654993915740277,0.3368249205525319,0.2886362,0.5740121006346162
0.0045000000000000005,1.7994937500000001,1.0,435.1899310036937,0.050831964332758016,1.363323663387417,0.3862107217583391,0.2886317375,0.579068608490902
0.005,1.799375,1.0,525.6746261278147,0.056156046520648706,1.361307444991487,0.432556541802576,0.28862675,0.583727455974884
0.0055,1.79924375,1.0,617.1470019854575,0.061450264813333,1.3594295098614795,0.47555797437780667,0.2886212375,0.5880434548492878
0.006,1.7991000000000001,1.0,708.775887422188,0.06671478669776242,1.3576736226056052,0.5151346862408213,0.2886152,0.5920586087123185
0.006500000000000001,1.79894375,1.0,799.8878502393105,0.07194977884515502,1.3560269724142453,0.551355463647637,0.2886086375,0.5958061062294203
0.007,1.798775,1.0,889.89876584595,0.07715540669348697,1.3544796843255815,0.5843817510629444,0.28860155,0.5993117136493498
0.0075,1.79859375,1.0,978.3677585640123,0.08233183526692975,1.353022851088653,0.6144260336511633,0.2885939375,0.6025984266876234
0.008,1.7984,1.0,1064.9078065100098,0.08747922809273276,1.3516493140304047,0.6417246144816295,0.2885858,0.6056848212434498
0.0085,1.79819375,1.0,1149.2190563122647,0.0925977479394774,1.3503526153392986,0.6665187720913748,0.2885771375,0.6085875157044435
0.009000000000000001,1.797975,1.0,1231.096279348811,0.09768755724063684,1.3491265951329974,0.6890432030330294,0.28856795,0.6113221319223219
0.0095,1.79774375,1.0,1310.3612788681462,0.102748816666549,1.347966083504089,0.7095198230948642,0.2885582375,0.6139018007998258
0.01,1.7975,1.0,1386.890477781273,0.10778168622749482,1.3468662824714164,0.7281539969832699,0.288548,0.6163385908305472
0.0105,1.79724375,1.0,1460.6216192932714,0.11278632538812472,1.3458225374877533,0.7451330926033239,0.2885372375,0.6186440451706999
0.011,1.796975,1.0,1531.5181462340356,0.11776289286862279,1.3448306703141861,0.7606266188034608,0.28852595000000003,0.6208284719727968
0.0115,1.79669375,1.0,1599.5483036600388,0.12271154545043168,1.3438871031345219,0.7747869931381608,0.2885141375,0.6229007024800597
0.012,1.7964,1.0,1664.7225490376127,0.1276324396449235,1.3429883039603807,0.787750431499832,0.28850180000000003,0.6248693346504512
0.0125,1.79609375,1.0,1727.0827683163116,0.1325257316764587,1.3421308584058245,0.7996383523219589,0.2884889375,0.6267425884135641
0.013000000000000001,1.7957750000000001,1.0,1786.6768658751866,0.1373915770074892,1.3413117024671233,0.8105588901441945,0.28847555,0.6285278117314856
0.0135,1.79544375,1.0,1843.5407302160745,0.14223012849896188,1.3405282567968106,0.8206083151081155,0.2884616375,0.6302312063868795
0.014,1.7951000000000001,1.0,1897.7366128158424,0.14704153901182374,1.3397779420474207,0.8298721453232101,0.2884472,0.631858896996236
0.0145,1.79474375,1.0,1949.3440947289673,0.15182596090473144,1.3390582513883371,0.8384263913747136,0.2884322375,0.6334167798644235
0.015,1.794375,1.0,1998.4496420710873,0.15658354636704816,1.3383668341988686,0.8463386854329172,0.28841675,0.6349103492163117
0.0155,1.79399375,1.0,2045.1363435286673,0.16131444656324678,1.3377015744232443,0.8536692854245445,0.2884007375,0.6363445364542792
0.016,1.7936,1.0,2089.4684552945023,0.16601880990919962,1.3370607208783147,0.8604719803328095,0.2883842,0.6377234389062207
0.0165,1.7931937500000001,1.0,2131.523671677994,0.170696784820779,1.3364425223809298,0.8667947435068151,0.2883671375,0.6390511133098138
0.017,1.792775,1.0,2171.391992314399,0.1753485197138572,1.3358452277479396,0.8726804217582718,0.28834955,0.6403315784404803
0.0175,1.7923437500000001,1.0,2209.156432537606,0.179974161421676,1.3352672699313473,0.8781673903329951,0.2883314375,0.6415684238290216
0.018000000000000002,1.7919,1.0,2244.919304558485,0.18457385849905658,1.3347069852522584,0.8832900027803209,0.2883128,0.6427654146152566
0.0185,1.79144375,1.0,2278.751138440715,0.1891477553207998,1.3341631167754309,0.8880791857882568,0.2882936375,0.643925418963424
0.019,1.790975,1.0,2310.723428355701,0.1936959956425307,1.3336344684737498,0.8925627461490583,0.28827395,0.6450511525709135
0.0195,1.79049375,1.0,2340.914040065587,0.19821872321987408,1.3331198443201002,0.8967657127673269,0.2882537375,0.646145310332118
0.02,1.79,1.0,2369.406673480639,0.2027160818084549,1.3326180482873669,0.9007106511703968,0.288233,0.647210567453772
0.0205,1.78949375,1.0,2396.2715538949024,0.20718821277110072,1.3321280667575308,0.9044179786592177,0.2882117375,0.6482491941068405
0.021,1.788975,1.0,2421.6009969575007,0.21163526077058678,1.3316487159544566,0.9079061272064787,0.28818995000000003,0.6492638048653068
0.021500000000000002,1.78844375,1.0,2445.4537257967418,0.21605736476310203,1.3311791771687094,0.9111918689151927,0.2881676375,0.6502562264344918
0.022,1.7879,1.0,2467.8913211792096,0.220454663637701,1.3307186360535175,0.914290421693552,0.2881448,0.6512282645628222
0.0225,1.78734375,1.0,2488.9783969593,0.22482729628343845,1.3302662782621095,0.9172156139864498,0.28812143749999997,0.6521817137847412
0.023,1.786775,1.0,2508.7823430499006,0.22917540158936897,1.329821289447714,0.9199800308825994,0.28809755,0.65311835786686
0.0235,1.78619375,1.0,2527.3638383428674,0.23349911615307495,1.329382942590543,0.9225951581271292,0.28807313749999996,0.6540397867678414
0.024,1.7856,1.0,2544.7898541461977,0.23779858006485105,1.3289504719461056,0.9250714745185703,0.2880482,0.6549476626480688
0.0245,1.78499375,1.0,2561.113019729869,0.24207392888406223,1.3285232654868073,0.927418583285455,0.2880227375,0.6558433164345814
0.025,1.784375,1.0,2576.381310358842,0.24632529628601124,1.3281007702088337,0.9296452836467786,0.28799675,0.6567279483047517
0.025500000000000002,1.78374375,1.0,2590.6441423840897,0.2505528159460008,1.3276824331083699,0.9317596406572569,0.2879702375,0.657602752015876
0.026000000000000002,1.7831000000000001,1.0,2603.952249654196,0.2547566215393337,1.3272677011816014,0.9337690564206637,0.2879432,0.6584689150615755
0.0265,1.78244375,1.0,2616.3575667074815,0.2589368467413125,1.3268560214247143,0.93568033352647,0.2879156375,0.659327618808695
0.027,1.781775,1.0,2627.9026093778107,0.2630936219267,1.326446938189029,0.937499745207217,0.28788755,0.6601798359279603
0.0275,1.7810937500000001,1.0,2638.63856506839,0.26722708270102635,1.3260399239937322,0.9392330624507932,0.2878589375,0.6610266835528105
0.028,1.7804,1.0,2648.609802606565,0.2713373611953789,1.3256345223887729,0.940885617673277,0.2878298,0.6618691257290681
0.0285,1.77969375,1.0,2657.8497935525793,0.27542458520943747,1.325230384103218,0.9424623491259861,0.2878001375,0.662707899413499
0.029,1.778975,1.0,2666.392601760984,0.27948888254288207,1.3248271598661343,0.9439678225285789,0.28776995,0.6635437379250664
0.029500000000000002,1.7782437500000001,1.0,2674.2728312346585,0.28353038099539263,1.3244245004065884,0.9454062639709707,0.2877392375,0.6643773709691821
0.03,1.7775,1.0,2681.525576683441,0.28754920836664916,1.3240220564536473,0.9467815895168897,0.287708,0.6652095246541754
0.0305,1.77674375,1.0,2688.1863767876603,0.29154549245633155,1.3236194787363778,0.948097431875623,0.2876762375,0.6660409214999845
0.031,1.775975,1.0,2694.29117016647,0.2955193610641198,1.3232164179838464,0.9493571644641596,0.28764395,0.6668722804390674
0.0315,1.7751937500000001,1.0,2699.8684716242396,0.29947093651439494,1.3228125960515096,0.9505639302601343,0.2876111375,0.6677041703778217
0.032,1.7744,1.0,2704.95404853898,0.30340035095423323,1.3224076712271207,0.9517206490552409,0.2875778,0.6685372880545436
0.0325,1.77359375,1.0,2709.5705561262384,0.30730772652365906,1.3220014240219462,0.9528300519196609,0.2875439375,0.6693720756627513
0.033,1.772775,1.0,2713.740422969854,0.31119318500162974,1.3215936389332548,0.9538946852963507,0.28750955,0.6702089649160312
0.0335,1.7719437500000002,1.0,2717.4862665674104,0.3150568481671026,1.3211841004583151,0.9549169253628607,0.2874746375,0.6710483852448436
0.034,1.7711000000000001,1.0,2720.830874220347,0.31889883779903505,1.3207725930943957,0.9558989914392328,0.2874392,0.6718907637739071
0.0345,1.7702437500000001,1.0,2723.7971849538185,0.32271927567638437,1.3203589013387647,0.9568429581893906,0.2874032375,0.6727365252966189
0.035,1.7693750000000001,1.0,2726.4082724661603,0.32651828357810797,1.319942809688691,0.9577507667372661,0.28736675,0.6735860922465118
0.035500000000000004,1.76849375,1.0,2728.679623106237,0.3302959765237106,1.3195241726965694,0.95862424054415,0.2873297375,0.6744397419087146
0.036000000000000004,1.7676,1.0,2730.6343830213928,0.3340524772510419,1.3191027761460585,0.9594650832682388,0.2872922,0.6752978898465513
0.0365,1.76669375,1.0,2732.302881284086,0.33778791583683243,1.3186783413998544,0.9602748880071904,0.2872541375,0.6761610801104523
0.037,1.765775,1.0,2733.69789522613,0.3415024068577418,1.3182507500182086,0.9610551626920875,0.28721555,0.6770295284210706
0.0375,1.76484375,1.0,2734.8322580192926,0.3451960648904297,1.3178198835613724,0.9618073238934794,0.2871764375,0.6779034490211598
0.038,1.7639,1.0,2735.718852295246,0.34886900451155567,1.3173856235895978,0.9625327033633823,0.28713679999999997,0.6787830546512824
0.0385,1.76294375,1.0,2736.3706040777884,0.3525213402977793,1.316947851663136,0.9632325540399239,0.28709663750000003,0.6796685565246259
0.039,1.761975,1.0,2736.800477025224,0.35615318682576036,1.316506449342239,0.9639080555641345,0.28705595,0.6805601643009208
0.0395,1.7609937500000001,1.0,2737.021466984304,0.35976465867215834,1.316061298187158,0.9645603193533466,0.2870147375,0.6814580860594656
0.04,1.76,1.0,2737.0465968549097,0.36335587041363293,1.315612279758145,0.965190393271203,0.286973,0.6823625282712575
0.0405,1.7589937500000001,1.0,2736.8889117658377,0.3669269366268437,1.3151592756154515,0.965799265930285,0.2869307375,0.6832736957702291
0.041,1.757975,1.0,2736.5614745616626,0.37047797188845033,1.314702167319329,0.9663878706598312,0.28688795,0.6841917917235874
0.0415,1.75694375,1.0,2736.077311949555,0.37400909067771126,1.3142408368807927,0.9669570891895213,0.2868446375,0.6851170166978923
0.042,1.7559,1.0,2735.4422018649084,0.3775203929105145,1.313775232215384,0.9675077580998926,0.28680079999999997,0.6860494376536412
0.0425,1.75484375,1.0,2734.675594664337,0.3810120086848658,1.3133051771712705,0.9680406634366532,0.2867564375,0.6869893684874963
0.043000000000000003,1.753775,1.0,2733.784140721023,0.38448404496938676,1.312830611848863,0.968556554840087,0.28671155,0.6879368886806951
0.043500000000000004,1.75269375,1.0,2732.7744949838825,0.387936608732699,1.3123514763485729,0.9690561422473752,0.28666613750000003,0.6888920766035298
0.044,1.7516,1.0,2731.6533155095913,0.39136980694342394,1.3118677107708105,0.9695400983870913,0.2866202,0.689855009498004
0.0445,1.75049375,1.0,2730.427262075136,0.39478374657018334,1.3113792552159866,0.9700090610931457,0.2865737375,0.6908257634602598
0.045,1.7493750000000001,1.0,2729.102994869166,0.3981785345815987,1.3108860497845123,0.9704636354529083,0.28652675,0.6918044134227734
0.0455,1.74824375,1.0,2727.687173263356,0.40155427794629156,1.3103880345767984,0.9709043958028863,0.2864792375,0.6927910331363272
0.046,1.7471,1.0,2726.1864546632787,0.40491108363288353,1.3098851496932553,0.9713318875841501,0.2864312,0.6937856951517498
0.0465,1.7459437500000001,1.0,2724.6074934385756,0.4082490586099962,1.3093773352342943,0.9717466290686211,0.28638263750000004,0.6947884708014256
0.047,1.744775,1.0,2722.956939932739,0.41156830984625115,1.308864531300326,0.9721491129663491,0.28633355,0.6957994301805803
0.0475,1.74359375,1.0,2721.241439553163,0.41486894431026994,1.3083466779917612,0.9725398079230354,0.28628393750000003,0.6968186421283327
0.048,1.7424,1.0,2719.4632199175717,0.4181510461831348,1.30782375558654,0.9729191598803559,0.2862338,0.6978460953335399
0.0485,1.74119375,1.0,2717.6336777545152,0.4214147490844394,1.3072956608318038,0.9732875937873298,0.2861831375,0.6988819414347736
0.049,1.739975,1.0,2715.7564958560806,0.42466015537428703,1.3067623606452932,0.9736455153650857,0.28613195,0.6999261928932624
0.0495,1.73874375,1.0,2713.834648460489,0.42788736403860855,1.3062238283703915,0.9739933113133845,0.2860802375,0.700978848654914
0.05,1.7375,1.0,2711.8711068502685,0.4310964740633345,1.305680037350482,0.9743313503487333,0.286028,0.7020399067774488
0.0505,1.73624375,1.0,2709.868839116125,0.4342875844343956,1.3051309609289474,0.9746599841989465,0.2859752375,0.7031093644214833
0.051000000000000004,1.734975,1.0,2707.830809936444,0.43746079413772243,1.3045765724491714,0.9749795485341344,0.28592195,0.7041872178415647
0.051500000000000004,1.73369375,1.0,2705.7599803725107,0.4406162021592457,1.3040168452545364,0.9752903638387125,0.2858681375,0.705273462377166
0.052000000000000005,1.7324,1.0,2703.659307679384,0.443753907484896,1.3034517526884264,0.975592736228655,0.2858138,0.7063680924436292
0.0525,1.73109375,1.0,2701.5317451329565,0.44687400910060404,1.3028812680942239,0.9758869582178742,0.28575893750000003,0.7074711015230704
0.053,1.729775,1.0,2699.380241872141,0.44997660599230055,1.3023053648153124,0.9761733094373068,0.28570355000000003,0.7085824821552323
0.0535,1.72844375,1.0,2697.2077427574386,0.45306179714591605,1.3017240161950752,0.9764520573100108,0.2856476375,0.7097022259282972
0.054,1.7271,1.0,2695.017188244865,0.45612968154738126,1.301137195576895,0.9767234576853092,0.2855912,0.7108303234696522
0.0545,1.7257437500000001,1.0,2692.8115142756315,0.45918035818262687,1.3005448763041552,0.9769877554347952,0.2855342375,0.7119667644366074
0.055,1.724375,1.0,2690.593652181616,0.46221392603758343,1.2999470317202388,0.977245185012792,0.28547675,0.7131115375070729
0.0555,1.72299375,1.0,2688.363427449263,0.4652304401756606,1.29934366357172,0.9774959685230756,0.2854187375,0.7142645761462403
0.056,1.7216,1.0,2686.12689069324,0.46823005313059674,1.2987347165698602,0.9777403245807973,0.2853602,0.7154259219257824
0.0565,1.72019375,1.0,2683.885236857253,0.4712128566345194,1.2981201798439919,0.9779784596337482,0.28530113749999997,0.7165955305158991
0.057,1.718775,1.0,2681.6395286568722,0.4741789406062114,1.2975000437180815,0.9782105715605601,0.28524155,0.7177733545527412
0.0575,1.71734375,1.0,2679.390827056811,0.4771283949644555,1.2968742985160948,0.9784368501867582,0.2851814375,0.7189593459202062
0.058,1.7159,1.0,2677.1401912621113,0.48006130962803456,1.2962429345619986,0.9786574776748737,0.2851208,0.7201534557464777
0.0585,1.71444375,1.0,2674.8886787119313,0.48297777451573126,1.2956059421797586,0.9788726288926488,0.2850596375,0.7213556344005652
0.059000000000000004,1.7129750000000001,1.0,2672.637345074231,0.48587787954632844,1.2949633116933412,0.9790824717607305,0.28499795,0.7225658314888292
0.059500000000000004,1.71149375,1.0,2670.387244243711,0.4887617146386089,1.2943150334267126,0.9792871675811456,0.2849357375,0.7237839958515084
0.06,1.71,1.0,2668.139428341139,0.4916293697113554,1.2936610977038387,0.9794868713477589,0.284873,0.7250100755592362
0.0605,1.7084937500000001,1.0,2665.894947714985,0.4944809346833507,1.2930014948486863,0.9796817320398367,0.2848097375,0.7262440179095513
0.061,1.7069750000000001,1.0,2663.654850945127,0.49731649947337764,1.292336215185221,0.9798718928997573,0.28474595,0.7274857694234063
0.0615,1.7054437500000001,1.0,2661.4201848483426,0.5001361540002189,1.2916652490374092,0.9800574916958372,0.2846816375,0.7287352758416648
0.062,1.7039,1.0,2659.19199448682,0.5029399881826575,1.2909885867292172,0.9802386609711768,0.2846168,0.7299924821215971
0.0625,1.70234375,1.0,2656.971323177182,0.505728091939476,1.290306218584611,0.9804155282793712,0.2845514375,0.7312573324333675
0.063,1.7007750000000001,1.0,2654.7592125030187,0.5085005551894571,1.289618134927557,0.9805882164078707,0.28448555,0.7325297701565159
0.0635,1.69919375,1.0,2652.556702329007,0.5112574678513839,1.2889243260820213,0.9807568435897239,0.28441913750000003,0.7338097378764343
0.064,1.6976,1.0,2650.3648308164225,0.513998919844039,1.2882247823719701,0.9809215237043887,0.2843522,0.7350971773808369
0.0645,1.69599375,1.0,2648.1851257240905,0.5167249995449679,1.2875194895877613,0.9810823661305116,0.2842847375,0.7363920379693663
0.065,1.694375,1.0,2646.014693019664,0.5194357899292682,1.2868084743184938,0.9812394779273333,0.28421675,0.7376941934282459
0.0655,1.69274375,1.0,2643.8522716136495,0.5221313759243721,1.2860917481160234,0.9813929617071852,0.2841482375,0.7390035448339216
0.066,1.6911,1.0,2641.6989938838356,0.524811841821871,1.2853693004371018,0.9815429152948464,0.2840792,0.7403200330613493
0.0665,1.6894437500000001,1.0,2639.5559903837293,0.5274772719133566,1.28464112073848,0.981689433044518,0.2840096375,0.7416435981656315
0.067,1.687775,1.0,2637.4243898609548,0.5301277504904204,1.2839071984769101,0.9818326059857561,0.28393955,0.7429741793781643
0.0675,1.68609375,1.0,2635.30531927982,0.5327633618446538,1.283167523109143,0.9819725219622638,0.2838689375,0.7443117151027836
0.068,1.6844000000000001,1.0,2633.2002143204318,0.535384187614247,1.28242208121868,0.9821092654535365,0.2837978,0.7456561480870834
0.0685,1.68269375,1.0,2631.106657652252,0.5379903146083788,1.28167089503965,0.982242920044433,0.2837261375,0.747007356146564
0.069,1.680975,1.0,2629.0242169740627,0.5405818250004567,1.2809139684575561,0.9823735653028327,0.28365395,0.748365249762204
0.0695,1.67924375,1.0,2626.953034097379,0.5431587994482331,1.280151300045283,0.9825012777481101,0.28358123749999997,0.7497297483512047
0.07,1.6775,1.0,2624.893250652495,0.5457213186094606,1.2793828883757161,0.982626131314873,0.283508,0.7511007706723283
0.07050000000000001,1.67574375,1.0,2622.845008091473,0.5482694631418915,1.2786087320217405,0.9827481974563286,0.2834342375,0.7524782348253762
0.07100000000000001,1.673975,1.0,2620.8084476912327,0.5508033137032783,1.277828829556241,0.9828675452428346,0.28335995,0.753862058250667
0.07150000000000001,1.67219375,1.0,2618.783710556791,0.5533229509513734,1.277043179552103,0.9829842414558863,0.2832851375,0.7552521577285117
0.07200000000000001,1.6704,1.0,2616.7714117972127,0.5558284550145814,1.2762517761803038,0.9830983504470824,0.2832098,0.7566484571340157
0.0725,1.6685938255645898,1.0,2614.780082788557,0.5583199040853892,1.2754545742120238,0.9832099325743944,0.2831339406737128,0.7580509488063543
0.073,1.6667827000152957,1.0,2613.1437316109864,0.5607973806928762,1.2746518455185114,0.983319060647563,0.2830578734006424,0.7594590680908028
0.0735,1.6649715744660019,1.0,2612.06419271735,0.5632609616858798,1.2738439475728096,0.9834258087115257,0.28298180612757207,0.7608721057963658
0.074,1.6631604489167078,1.0,2611.502652976652,0.5657107239132375,1.2730312378479618,0.9835302485868558,0.2829057388545017,0.7622893595638065
0.0745,1.661349323367414,1.0,2611.4204777134537,0.5681467442237867,1.2722140738170107,0.9836324499608051,0.28282967158143135,0.763710133979423
0.075,1.6595381978181198,1.0,2611.779173987858,0.5705690994663651,1.2713928129529992,0.9837324804741436,0.28275360430836105,0.7651337406806709
