Time [s],Phi [rad],STIM [ ],Fsee [N],Gamma [ ],Lcerel [ ],q [ ],Lmtc [m],fisomrel [ ]
0.0,1.8,1.0,17.970429537475113,5.866360068086378e-05,1.3793393797335698,0.005000904480864431,0.288653,0.5411404176765005
0.0005,1.79999375,1.0,18.29595717170215,0.0056675438530833615,1.3793002541569281,0.013076165511630714,0.2886527375,0.5412350675908473
0.001,1.799975,1.0,21.67376585422444,0.011244962721953616,1.378932649041352,0.03586260618666517,0.28865195,0.5421238759263506
0.0015,1.79994375,1.0,31.201742975008663,0.01679109668168159,1.3780349266012162,0.07094915233512664,0.2886506375,0.5442907980536132
0.002,1.7999,1.0,53.86872391848965,0.022306121214930908,1.3763495804284087,0.11512915015872627,0.2886488,0.548345004181635
0.0025,1.79984375,1.0,97.60073335104683,0.02779021082053719,1.3739119793969532,0.1650220471634443,0.28864643749999996,0.554176759130907
0.003,1.7997750000000001,1.0,161.58547381863036,0.03324353902077447,1.371190885891863,0.21774170390760908,0.28864354999999997,0.560641984154381
0.0035,1.79969375,1.0,238.39232952871262,0.03866627836130622,1.3685629114816145,0.2710716175541426,0.2886401375,0.5668411360975626
0.004,1.7996,1.0,322.2212067072959,0.04405860042186929,1.3661361219948813,0.3233599531444118,0.2886362,0.5725265949315989
0.0045000000000000005,1.7994937500000001,1.0,410.0490815308146,0.04942067582148711,1.363904482101148,0.37345610804567575,0.2886317375,0.5777217088861459
0.005,1.799375,1.0,500.21080887471675,0.05475267420980799,1.3618414064447675,0.4206418889722679,0.28862675,0.5824961625703846
0.0055,1.79924375,1.0,591.5948190628676,0.06005476431191197,1.3599231243210899,0.4645388712260807,0.2886212375,0.5869111753155144
0.006,1.7991000000000001,1.0,683.3235496366449,0.06532711387789468,1.358131778285147,0.5050155486757862,0.2886152,0.591012848795658
0.006500000000000001,1.79894375,1.0,774.6846873541367,0.07056988973644283,1.3564535421065251,0.5421075674261531,0.2886086375,0.5948369653052032
0.007,1.798775,1.0,865.0791310823912,0.07578325775762557,1.3548775832775433,0.575956381838621,0.28860155,0.5984116737470994
0.0075,1.79859375,1.0,954.0236339602487,0.08096738287046328,1.353394778003165,0.6067642096446286,0.2885939375,0.6017606214288704
0.008,1.7984,1.0,1041.1256612197872,0.08612242929459005,1.351997352854407,0.6347630889825041,0.2885858,0.6049039017330682
0.0085,1.79819375,1.0,1126.060493784909,0.09124855980269797,1.3506786788627718,0.6601943311825342,0.2885771375,0.6078586230582301
0.009000000000000001,1.797975,1.0,1208.5983224054896,0.09634593656914779,1.3494324971504266,0.6832951499654737,0.28856795,0.6106407204566873
0.0095,1.79774375,1.0,1288.578761399474,0.10141472170508795,1.3482530400462276,0.7042910854108331,0.2885582375,0.6132647324571447
0.01,1.7975,1.0,1365.8456585701003,0.10645507473868926,1.3471356643988932,0.723392203988247,0.288548,0.615742444203887
0.0105,1.79724375,1.0,1440.3120105009998,0.11146715506422385,1.3460757806328207,0.7407907094014363,0.2885372375,0.6180853126893615
0.011,1.796975,1.0,1511.9355551694102,0.11645112139425312,1.3450690621776997,0.7566607502655328,0.28852595000000003,0.6203040252799834
0.0115,1.79669375,1.0,1580.7159410483816,0.1214071323439239,1.3441113763883856,0.7711589642315444,0.2885141375,0.6224086755104936
0.012,1.7964,1.0,1646.6392907317486,0.12633534389640813,1.3431993500749018,0.7844257977324404,0.28850180000000003,0.6244075449877711
0.0125,1.79609375,1.0,1709.7237374332396,0.13123591166056237,1.3423297203567701,0.7965865116145845,0.2884889375,0.6263085540830854
0.013000000000000001,1.7957750000000001,1.0,1770.0157893946748,0.13610899079177485,1.3414993243353464,0.8077525961676376,0.28847555,0.6281192968064475
0.0135,1.79544375,1.0,1827.5817687984982,0.14095473639555461,1.3407051489581625,0.81802319876517,0.2884616375,0.6298469434738403
0.014,1.7951000000000001,1.0,1882.477607223711,0.14577330157695279,1.3399446173633078,0.8274865602499113,0.2884472,0.6314976311406704
0.0145,1.79474375,1.0,1934.7584879755761,0.1505648380057376,1.3392154259637843,0.8362211724133738,0.2884322375,0.6330768328705625
0.015,1.794375,1.0,1984.5006927847933,0.15532949735167736,1.3385152711725943,0.8442968037274896,0.28841675,0.6345899591292887
0.0155,1.79399375,1.0,2031.7831078032616,0.1600674302647809,1.337842024961668,0.851775577353472,0.2884007375,0.6360419839598204
0.016,1.7936,1.0,2076.7087997733247,0.1647787882523125,1.3371934826266512,0.8587127929655513,0.2883842,0.6374379951342803
0.0165,1.7931937500000001,1.0,2119.3498811432282,0.16946371950686262,1.3365679200756921,0.8651579015073166,0.2883671375,0.6387819999232223
0.017,1.792775,1.0,2159.779895984972,0.1741223714723949,1.3359637256567505,0.8711550844354772,0.28834955,0.6400777265396547
0.0175,1.7923437500000001,1.0,2198.083373669152,0.17875489159287297,1.335379287717785,0.8767438436790818,0.2883314375,0.6413288691642576
0.018000000000000002,1.7919,1.0,2234.3469951468987,0.18336142644154915,1.3348130739459363,0.8819595725862426,0.2883128,0.6425389206469165
0.0185,1.79144375,1.0,2268.6640066909554,0.18794212317063835,1.3342635755865841,0.8868340214386585,0.2882936375,0.6437112947578825
0.019,1.790975,1.0,2301.112781415273,0.19249712662043303,1.3337295110713356,0.8913957676321481,0.28827395,0.6448488948982375
0.0195,1.79049375,1.0,2331.7625711720675,0.19702657975651947,1.3332097548442299,0.8956705596965774,0.2882537375,0.6459542706525773
0.02,1.79,1.0,2360.688397186332,0.2015306255444841,1.3327031813493073,0.8996816013851101,0.288233,0.6470299525511796
0.0205,1.78949375,1.0,2387.970566156166,0.20600940694991324,1.3322086650306075,0.9034498374331033,0.2882117375,0.6480784530567016
0.021,1.788975,1.0,2413.6788179056025,0.21046306475226406,1.3317252291551445,0.9069942354751216,0.28818995000000003,0.649101952621068
0.021500000000000002,1.78844375,1.0,2437.904125375544,0.21489174316147758,1.3312517321436919,0.9103319384155037,0.2881676375,0.6501029654075378
0.022,1.7879,1.0,2460.7065106654,0.2192955810380797,1.330787367600562,0.9134785608531846,0.2881448,0.6510832826399576
0.0225,1.78734375,1.0,2482.1438491839217,0.22367471643566836,1.3303313788695117,0.9164482953237377,0.28812143749999997,0.6520445795094615
0.023,1.786775,1.0,2502.2767464133494,0.22802928740784148,1.3298830092942977,0.9192540527931667,0.28809755,0.6529885209787574
0.0235,1.78619375,1.0,2521.168309037426,0.23235943200819698,1.3294415022186772,0.9219075961172206,0.28807313749999996,0.6539167621680526
0.024,1.7856,1.0,2538.8792329196754,0.23666528741598303,1.3290061452431863,0.9244196656266386,0.2880482,0.6548308558425364
0.0245,1.78499375,1.0,2555.4676301059726,0.24094699014854246,1.3285762692189578,0.9268000824415361,0.2880227375,0.6557322554405325
0.025,1.784375,1.0,2571.0036818050175,0.24520467845723806,1.3281511086671183,0.9290578172027251,0.28799675,0.6566226080374399
0.025500000000000002,1.78374375,1.0,2585.5303553923873,0.24943848508615246,1.3277301685130414,0.9312011326746823,0.2879702375,0.6575029867551452
0.026000000000000002,1.7831000000000001,1.0,2599.0918843335953,0.2536485427793683,1.3273129536821011,0.9332376095319532,0.2879432,0.6583744590302893
0.0265,1.78244375,1.0,2611.733662611187,0.2578349842809683,1.3268989690996713,0.9351742118717368,0.2879156375,0.6592380867397072
0.027,1.781775,1.0,2623.502144586469,0.26199794233503504,1.326487719691126,0.9370173456358236,0.28788755,0.660094926310232
0.0275,1.7810937500000001,1.0,2634.4447502951566,0.2661375496856512,1.3260787103818388,0.9387729107853547,0.2878589375,0.6609460288128728
0.028,1.7804,1.0,2644.6043926473435,0.2702539350049276,1.325671495810635,0.9404463536228583,0.2878298,0.6617923367871924
0.0285,1.77969375,1.0,2654.029210935474,0.27434723407381684,1.3252655893921041,0.9420426993457153,0.2878001375,0.6626348735886707
0.029,1.778975,1.0,2662.752100968099,0.2784175742485898,1.3248606513796957,0.9435666102418552,0.28776995,0.6634743532690046
0.029500000000000002,1.7782437500000001,1.0,2670.8063509166464,0.28246508278255017,1.3244563434131116,0.9450224006430666,0.2877392375,0.6643114834789318
0.03,1.7775,1.0,2678.225742800057,0.2864898869290015,1.3240523271320543,0.9464140672085221,0.287708,0.6651469683683038
0.0305,1.77674375,1.0,2685.044506677625,0.2904921139412475,1.3236482641762264,0.9477453163488986,0.2876762375,0.6659815085960319
0.031,1.775975,1.0,2691.297277380624,0.2944718910725918,1.3232438161853297,0.9490195889588209,0.28764395,0.6668158013327321
0.0315,1.7751937500000001,1.0,2697.0122210337818,0.29842934110361025,1.3228387072790668,0.9502400891423552,0.2876111375,0.6676504116147354
0.032,1.7744,1.0,2702.2175940857387,0.30236458924132154,1.3224326634874404,0.9514097984981936,0.2875778,0.6684858976925863
0.0325,1.77359375,1.0,2706.956986365504,0.3062777719933322,1.3220252733423024,0.9525314802425952,0.2875439375,0.6693230973495391
0.033,1.772775,1.0,2711.2503756120864,0.3101690096283611,1.3216163433574004,0.9536077307688859,0.28750955,0.6701623969560419
0.0335,1.7719437500000002,1.0,2715.117922488224,0.31403842241512697,1.3212056800464826,0.9546409722607624,0.2874746375,0.6710041808223106
0.034,1.7711000000000001,1.0,2718.5799533840227,0.3178861306223487,1.3207930899232974,0.9556334664555513,0.2874392,0.6718488311781354
0.0345,1.7702437500000001,1.0,2721.6569440510852,0.32171225451874513,1.3203783795015922,0.9565873271653537,0.2874032375,0.672696728150299
0.035,1.7693750000000001,1.0,2724.369504065528,0.325516914373035,1.3199613552951155,0.9575045316812298,0.28736675,0.6735482497376049
0.035500000000000004,1.76849375,1.0,2726.738362122475,0.3293002304539371,1.3195418238176149,0.9583869311717388,0.2873297375,0.6744037717835216
0.036000000000000004,1.7676,1.0,2728.7843521593018,0.33306232303017025,1.3191195915828386,0.9592362601749689,0.2872922,0.6752636679464359
0.0365,1.76669375,1.0,2730.5284003097686,0.33680331237045324,1.318694465104535,0.9600541452724662,0.2872541375,0.6761283096675204
0.037,1.765775,1.0,2731.991512687926,0.34052331874350494,1.3182662508964513,0.9608421130239668,0.28721555,0.6769980661362153
0.0375,1.76484375,1.0,2733.1812284321786,0.34422245398590423,1.3178348784225145,0.9616016074627971,0.2871764375,0.6778730550323516
0.038,1.7639,1.0,2734.1240102443803,0.34790084383854564,1.317400105725997,0.9623339722800807,0.28713679999999997,0.6787537400673659
0.0385,1.76294375,1.0,2734.838328916887,0.35155860646716114,1.3169617639169313,0.9630404767847736,0.28709663750000003,0.6796404343579958
0.039,1.761975,1.0,2735.3350223087355,0.35519585472220366,1.3165197537749522,0.9637223212396309,0.28705595,0.6805333082597054
0.0395,1.7609937500000001,1.0,2735.6249591322357,0.3588127014541261,1.3160739760796945,0.9643806362805063,0.2870147375,0.6814325307562907
0.04,1.76,1.0,2735.7190347131545,0.3624092595133813,1.3156243316107927,0.9650164876964511,0.286973,0.6823382694363531
0.0405,1.7589937500000001,1.0,2735.6281669695945,0.3659856417504223,1.3151707211478818,0.9656308808327969,0.2869307375,0.6832506904691458
0.041,1.757975,1.0,2735.363292608493,0.3695419610157019,1.3147130454705969,0.9662247646506132,0.28688795,0.6841699585797897
0.0415,1.75694375,1.0,2734.935363541272,0.37307833015967307,1.3142512053585722,0.966799035472674,0.2868446375,0.6850962370238664
0.042,1.7559,1.0,2734.35534351698,0.37659486203278864,1.3137851015914428,0.9673545404431398,0.28680079999999997,0.6860296875613774
0.0425,1.75484375,1.0,2733.6342049743857,0.38009166948550155,1.3133146349488434,0.9678920807255627,0.2867564375,0.6869704704300799
0.043000000000000003,1.7537776492310857,1.0,2732.930664934893,0.38356885879429486,1.3128395605722691,0.9684124015716478,0.2867116612677056,0.687919034888232
0.043500000000000004,1.7527107874604473,1.0,2732.6488641004057,0.3870265458092338,1.3123603119515652,0.9689162645915662,0.2866668530733388,0.6888744755022986
0.044,1.7516439256898089,1.0,2732.7772139890626,0.39046484358679046,1.3118773374440582,0.9694043917771071,0.28662204487897197,0.6898358622091998
0.0445,1.7505770639191705,1.0,2733.2906667392467,0.39388385813516347,1.311390864829359,0.9698774490820924,0.28657723668460516,0.6908027082296679
0.045,1.749510202148532,1.0,2734.164250108037,0.39728369546255116,1.3109011218870794,0.9703360680704805,0.28653242849023836,0.6917745293665669
0.0455,1.7484433403778934,1.0,2735.373050380039,0.400664461577152,1.31040833639683,0.9707808480329928,0.2864876202958715,0.6927508440540575
0.046,1.747376478607255,1.0,2736.892196426956,0.40402626248716456,1.3099127361382221,0.9712123579539818,0.2864428121015047,0.6937311734034461
0.0465,1.7463096168366166,1.0,2738.6968449168626,0.4073692042007872,1.3094145488908668,0.9716311383404483,0.2863980039071379,0.6947150412457315
0.047,1.7452427550659781,1.0,2740.762166674343,0.4106933927262184,1.3089140024343755,0.972037702924087,0.28635319571277107,0.6957019741708376
0.0475,1.7441758932953397,1.0,2743.063334190874,0.41399893407165667,1.308411324548359,0.9724325402462736,0.28630838751840426,0.696691501563542
0.048,1.7431090315247013,1.0,2745.57551028537,0.41728593424530047,1.307906743012429,0.9728161151350588,0.28626357932403745,0.6976831556360907
0.0485,1.742042169754063,1.0,2748.2777271908403,0.42055449732399214,1.307400450375117,0.9731888673907271,0.28621877112967065,0.6986765405267066
0.049,1.7409753079834245,1.0,2751.1541723520722,0.42380472750023035,1.3068925923225343,0.9735512127011151,0.28617396293530384,0.699671354520264
0.0495,1.7399084462127858,1.0,2754.188689682438,0.42703672857768676,1.3063833175018507,0.9739035473550001,0.28612915474093703,0.7006672919533169
0.05,1.7388415844421474,1.0,2757.3697912898106,0.4302506012055087,1.3058727321452515,0.9742462459727946,0.2860843465465702,0.7016641317920895
0.0505,1.737774722671509,1.0,2760.6859742366646,0.4334464460328433,1.3053609424849222,0.9745796659142767,0.28603953835220336,0.7026616543517858
0.051000000000000004,1.7367078609008706,1.0,2764.125717578806,0.43662436370883795,1.3048480547530483,0.9749041482306259,0.28599473015783655,0.7036596413051099
0.051500000000000004,1.7356409991302322,1.0,2767.67747965355,0.43978445488263984,1.3043341751818154,0.9752200185558602,0.28594992196346974,0.7046578756900641
0.052000000000000005,1.7345741373595938,1.0,2771.329695618775,0.44292682020339624,1.3038194100034084,0.9755275879420249,0.28590511376910294,0.7056561419170306
0.0525,1.7335072755889553,1.0,2775.075984205944,0.44605155412024816,1.303303818492886,0.9758271500253081,0.28586030557473613,0.7066543166059773
0.053,1.732440413818317,1.0,2778.903067101824,0.44915876128289806,1.3027875219399954,0.9761189904853775,0.2858154973803693,0.7076521573897858
0.0535,1.7313735520476783,1.0,2782.7987417556515,0.4522485457075273,1.3022706316498134,0.9764033818661302,0.28577068918600246,0.7086494427360422
0.054,1.7303066902770399,1.0,2786.7581314304985,0.4553210023890691,1.3017531927385844,0.9766805800041255,0.28572588099163565,0.7096460799492053
0.0545,1.7292398285064015,1.0,2790.776347249205,0.45837622632245634,1.301235250322552,0.9769508298179792,0.28568107279726884,0.7106419769231808
0.055,1.728172966735763,1.0,2794.8484876682983,0.46141431250262216,1.3007168495179606,0.9772143658671275,0.28563626460290203,0.7116370421428324
0.0555,1.7271061049651246,1.0,2798.9696379969632,0.4644353559244995,1.3001980354410543,0.9774714128775157,0.2855914564085352,0.7126311846853683
0.056,1.7260392431944862,1.0,2803.134869960957,0.4674394515830215,1.299678853208077,0.977722186236419,0.2855466482141684,0.7136243142215939
0.0565,1.7249723814238478,1.0,2807.339241311943,0.47042669447312124,1.2991593479352728,0.9779668924584558,0.2855018400198016,0.7146163410170357
0.057,1.7239055196532094,1.0,2811.577795481559,0.4733971795897316,1.298639564738886,0.9782057296246836,0.2854570318254348,0.7156071759329361
0.0575,1.722838657882571,1.0,2815.8455612810435,0.4763510019277858,1.2981195487351604,0.9784388877965456,0.285412223631068,0.7165967304271184
0.058,1.7217717961119323,1.0,2820.137552645733,0.47928825648221673,1.2975993450403402,0.978666549406295,0.2853674154367012,0.717584916554721
0.0585,1.720704934341294,1.0,2824.453346610139,0.4822090238975822,1.2970789578621533,0.9788888861291234,0.2853226072423343,0.7185717244755643
0.059000000000000004,1.7196380725706555,1.0,2828.786356087722,0.48511341088146553,1.2965584464349447,0.9791060681087093,0.2852777990479675,0.7195570403319262
0.059500000000000004,1.718571210800017,1.0,2833.1319996337193,0.4880015162037239,1.2960378519189406,0.9793182571655987,0.2852329908536007,0.7205407851760823
0.06,1.7175043490293787,1.0,2837.488789017917,0.4908734278801526,1.2955171877727765,0.9795256064633666,0.2851881826592339,0.7215229328152729
0.0605,1.7164374872587402,1.0,2841.8552314092635,0.4937292339265472,1.2949964674550865,0.9797282632823121,0.2851433744648671,0.7225034572353958
0.061,1.7153706254881018,1.0,2846.229829356931,0.4965690223587032,1.2944757044245057,0.9799263692911979,0.2850985662705003,0.7234823326010561
0.0615,1.7143037637174634,1.0,2850.611080775599,0.499392881192416,1.293954912139669,0.980120060804434,0.2850537580761335,0.7244595332556107
0.062,1.713236901946825,1.0,2854.9974789346466,0.502200898443481,1.2934341040592108,0.9803094690255942,0.2850089498817666,0.7254350337211999
0.0625,1.7121700401761863,1.0,2859.3875124516658,0.5049931621276939,1.292913293641766,0.9804947202780852,0.2849641416873998,0.7264088086987646
0.063,1.711103178405548,1.0,2863.7796652894576,0.5077697602608497,1.2923924943459695,0.9806759362237412,0.284919333493033,0.7273808330680556
0.0635,1.7100363166349095,1.0,2868.1724167575067,0.5105307808587443,1.2918717196304559,0.9808532340700599,0.2848745252986662,0.7283510818876293
0.064,1.708969454864271,1.0,2872.564241517243,0.5132763119371729,1.29135098295386,0.9810267267667482,0.2848297171042994,0.7293195303948328
0.0645,1.7079025930936327,1.0,2876.953609591451,0.5160064415119312,1.290830297774817,0.981196523192207,0.2847849089099326,0.7302861540057759
0.065,1.7068357313229943,1.0,2881.3389863776283,0.5187212575988144,1.290309677551961,0.9813627283305374,0.28474010071556577,0.7312509283152949
0.0655,1.7057688695523558,1.0,2885.7188326652945,0.521420848213618,1.2897891357439268,0.981525443439615,0.28469529252119896,0.7322138290969004
0.066,1.7047020077817172,1.0,2890.094704682563,0.5241052682111134,1.2892686584253625,0.9816847626151618,0.28465048432683215,0.7331748828213998
0.0665,1.7036351460110788,1.0,2894.4629839549116,0.5267746439454765,1.288748277389406,0.9818407837244325,0.2846056761324653,0.7341340315837077
0.067,1.7025682842404404,1.0,2898.8230570263154,0.5294290598835742,1.2882279978289584,0.9819935971358208,0.2845608679380985,0.7350912667969068
0.0675,1.701501422469802,1.0,2903.174652139134,0.5320685961867603,1.287707821910312,0.9821432896831731,0.2845160597437317,0.7360465854962508
0.068,1.7004345606991635,1.0,2907.517496869279,0.5346933330163882,1.287187751799759,0.9822899452401016,0.28447125154936487,0.7369999847455359
0.0685,1.6993676989285251,1.0,2911.8513181308685,0.537303350533812,1.2866677896635914,0.982433644841735,0.28442644335499806,0.7379514616370884
0.069,1.6983008371578867,1.0,2916.175842181707,0.539898728900385,1.2861479376681009,0.9825744668006537,0.28438163516063125,0.7389010132917495
0.0695,1.6972339753872483,1.0,2920.4907946282783,0.5424795482774613,1.2856281979795796,0.982712486817322,0.28433682696626444,0.7398486368588586
0.07,1.6961671136166099,1.0,2924.7959004309578,0.5450458888263943,1.28510857276432,0.9828477780853178,0.2842920187718976,0.7407943295162389
0.07050000000000001,1.6951002518459712,1.0,2929.0908839101335,0.5475978307085377,1.2845890641886133,0.9829804113916326,0.2842472105775308,0.7417380884701829
0.07100000000000001,1.6940333900753328,1.0,2933.375468750909,0.5501354540852454,1.2840696744187519,0.983110455212313,0.28420240238316397,0.7426799109554347
0.07150000000000001,1.6929665283046944,1.0,2937.6493780092005,0.5526588391178711,1.283550405621028,0.9832379758036812,0.28415759418879716,0.7436197942351737
0.07200000000000001,1.691899666534056,1.0,2941.9123341174245,0.5551680659677682,1.2830312599617333,0.983363037289372,0.28411278599443035,0.7445577356010005
