Time [s],Phi [rad],STIM [ ],Fsee [N],Gamma [ ],Lcerel [ ],q [ ],Lmtc [m],fisomrel [ ]
0.0,1.8,1.0,17.967099727769217,1.1452327311932349e-05,1.3793397527669395,0.005000034917960052,0.288653,0.5411395152127462
0.0005,1.79999375,1.0,18.276926274400417,0.0056205973976075916,1.379302367558642,0.012944547083431374,0.2886527375,0.5412299552436507
0.001,1.799975,1.0,21.61963098322236,0.011198279598973852,1.3789381745051252,0.03561614701397565,0.28865195,0.54211052264899
0.0015,1.79994375,1.0,31.072691463123967,0.016744675414091248,1.3780459093439315,0.07061206889836287,0.2886506375,0.5442643189678571
0.002,1.7999,1.0,53.590161202977086,0.022259960333986698,1.3763676274094823,0.11473011118515664,0.2886488,0.5483016869839195
0.0025,1.79984375,1.0,97.1321868151277,0.027744308865607248,1.3739345288355191,0.16458802787468743,0.28864643749999996,0.5541229851548415
0.003,1.7997750000000001,1.0,160.9756528305315,0.03319789453952418,1.3712136892560636,0.21729400413839095,0.28864354999999997,0.5605880003472663
0.0035,1.79969375,1.0,237.70322365657393,0.03862088990953442,1.3685841215162542,0.27062636504621984,0.2886401375,0.5667912798663621
0.004,1.7996,1.0,321.48803922473235,0.04401346656344027,1.36615552910042,0.32292885033378976,0.2886362,0.5724812771339016
0.0045000000000000005,1.7994937500000001,1.0,409.2898695770475,0.04937579512823462,1.363922294961335,0.37304689422706283,0.2886317375,0.5776803674428416
0.005,1.799375,1.0,499.43613842334827,0.05470804526119434,1.3618578613762111,0.4202590497754959,0.28862675,0.582458189286463
0.0055,1.79924375,1.0,590.8133128221283,0.06001038569728716,1.359938387716184,0.46418442840083207,0.2886212375,0.5868761385467923
0.006,1.7991000000000001,1.0,682.5410816574447,0.06528298419247698,1.3581459971569327,0.5046898236913093,0.2886152,0.5909803721953646
0.006500000000000001,1.79894375,1.0,773.8866696075117,0.07052600732750436,1.3564671612353745,0.5418099666462485,0.2886086375,0.5948060043392651
0.007,1.798775,1.0,864.3150105387863,0.07573962181574717,1.3548899233375262,0.5756849337459191,0.28860155,0.5983837446220817
0.0075,1.79859375,1.0,953.2798138908971,0.08092399185218044,1.353406216274099,0.6065172578342766,0.2885939375,0.6017348415141097
0.008,1.7984,1.0,1040.3812959364293,0.08607928138079676,1.3520083100536593,0.6345388445046969,0.2885858,0.6048793037409659
0.0085,1.79819375,1.0,1125.3409705017075,0.09120565397266175,1.3506888629183618,0.6599905664421828,0.2885771375,0.6078358463808242
0.009000000000000001,1.797975,1.0,1207.9056817022463,0.09630327167528434,1.349441959884385,0.6831099223794033,0.28856795,0.6106196322454078
0.0095,1.79774375,1.0,1287.8949232053826,0.1013722957205628,1.3482620878438476,0.704122707259808,0.2885582375,0.6132446370237379
0.01,1.7975,1.0,1365.182130387504,0.10641288663825293,1.3471441914466094,0.7232389065032246,0.288548,0.6157235661507647
0.0105,1.79724375,1.0,1439.678653515784,0.11142520389075068,1.3460837066571893,0.7406508981182517,0.2885372375,0.6180678188342491
0.011,1.796975,1.0,1511.3294896449995,0.11640940583406162,1.3450764647702684,0.7565330628877007,0.28852595000000003,0.6202877342527222
0.0115,1.79669375,1.0,1580.116335518762,0.12136564990200997,1.3441185389320316,0.7710422704609973,0.2885141375,0.6223929565155736
0.012,1.7964,1.0,1646.0714670828693,0.12629409440525377,1.3432059957493458,0.7843188467066683,0.28850180000000003,0.6243929989850128
0.0125,1.79609375,1.0,1709.1918645970763,0.13119489408645302,1.3423358292987122,0.7964882968699507,0.2884889375,0.6262952167677391
0.013000000000000001,1.7957750000000001,1.0,1769.5084911266129,0.1360682036156277,1.3415050508886652,0.8076622925774284,0.28847555,0.6281068246732467
0.0135,1.79544375,1.0,1827.0823464308796,0.1409141774928543,1.340710697088201,0.8179400909081952,0.2884616375,0.6298348880410464
0.014,1.7951000000000001,1.0,1881.9849661993512,0.14573296930895,1.3399500097553554,0.8274099455092071,0.2884472,0.6314859402657327
0.0145,1.79474375,1.0,1934.2941324515164,0.15052473248892795,1.33922043957525,0.8361503415976509,0.2884322375,0.6330659865254278
0.015,1.794375,1.0,1984.0654256608614,0.15528961744954203,1.3385199114231583,0.8442312028490715,0.28841675,0.6345799412310493
0.0155,1.79399375,1.0,2031.372585436862,0.1600277746075462,1.3378463501743534,0.851714730522368,0.2884007375,0.6360326647763654
0.016,1.7936,1.0,2076.304010034144,0.16473935419707192,1.3371977010507206,0.8586563218199089,0.2883842,0.6374289234888677
0.0165,1.7931937500000001,1.0,2118.9465293002713,0.1694245052406838,1.3365720810090376,0.8651054209289278,0.2883671375,0.6387730685116259
0.017,1.792775,1.0,2159.401450993154,0.17408337778677901,1.3359675929260832,0.8711061697108891,0.28834955,0.6400694403809108
0.0175,1.7923437500000001,1.0,2197.734991257782,0.17871611774087484,1.3353828166127129,0.8766981671738223,0.2883314375,0.6413213211764139
0.018000000000000002,1.7919,1.0,2234.0227194247877,0.18332287100848854,1.3348163318797823,0.8819168705840499,0.2883128,0.6425319639877789
0.0185,1.79144375,1.0,2268.3487819375773,0.1879037834951373,1.3342667185381474,0.8867940792080672,0.2882936375,0.6437045946356472
0.019,1.790975,1.0,2300.796860381987,0.1924590000778432,1.3337326386761557,0.8913583778511,0.28827395,0.6448422381449316
0.0195,1.79049375,1.0,2331.457728980753,0.19698866637187618,1.3332127528639452,0.8956354857483143,0.2882537375,0.6459478996455081
0.02,1.79,1.0,2360.4102566351376,0.20149292605680913,1.3327058999482846,0.899648622018761,0.288233,0.647024184118629
0.0205,1.78949375,1.0,2387.7184797452787,0.20597192022984798,1.332211114848433,0.903418787917268,0.2882117375,0.6480732626631418
0.021,1.788975,1.0,2413.450877476752,0.21042578998819866,1.3317274324836503,0.9069649696263143,0.28818995000000003,0.6490972912557564
0.021500000000000002,1.78844375,1.0,2437.6800030755953,0.21485467642906708,1.3312538877731965,0.9103043592359076,0.2881676375,0.6500984114641024
0.022,1.7879,1.0,2460.4774495243014,0.2192587197390322,1.3307895605014126,0.9134525576931221,0.2881448,0.651078656451793
0.0225,1.78734375,1.0,2481.913811584539,0.2236380600519861,1.3303335715875737,0.9164237443887272,0.28812143749999997,0.6520399600835374
0.023,1.786775,1.0,2502.061031211364,0.22799283778141838,1.329885057199363,0.9192308219389831,0.28809755,0.6529842124890721
0.0235,1.78619375,1.0,2520.9715936438283,0.2323231889287703,1.3294433627341078,0.9218855828078668,0.28807313749999996,0.6539128531583007
0.024,1.7856,1.0,2538.700095042835,0.23662924949548322,1.3290078335891349,0.924398786148019,0.2880482,0.6548273132556892
0.0245,1.78499375,1.0,2555.3030663288846,0.24091115548299852,1.328577815161771,0.9267802625740341,0.2880227375,0.6557290158913169
0.025,1.784375,1.0,2570.838806520733,0.24516904289275748,1.3281526528493435,0.9290390070432277,0.28799675,0.6566193763645991
0.025500000000000002,1.78374375,1.0,2585.358269243636,0.24940304558503285,1.3277317756974085,0.9311832743291569,0.2879702375,0.6574996275453556
0.026000000000000002,1.7831000000000001,1.0,2598.919190873215,0.25361330007370586,1.3273145623250793,0.9332206310026873,0.2879432,0.6583711010521104
0.0265,1.78244375,1.0,2611.5741207092406,0.25779994082761126,1.3269004516325456,0.935158037162631,0.2879156375,0.6592349959261408
0.027,1.781775,1.0,2623.3617988364126,0.26196309833513615,1.3264890209141542,0.9370019149304903,0.28788755,0.6600922169085364
0.0275,1.7810937500000001,1.0,2634.3218525125626,0.2661029030846676,1.3260798474642526,0.9387581789186253,0.2878589375,0.6609436641507965
0.028,1.7804,1.0,2644.4947201262316,0.27021948556459274,1.325672508577188,0.9404322830468456,0.2878298,0.6617902332813819
0.0285,1.77969375,1.0,2653.9215791158244,0.2743129762632987,1.325266581547308,0.942029262473559,0.2878001375,0.6626328154608689
0.029,1.778975,1.0,2662.6442778502724,0.2783835056691726,1.3248616436689593,0.9435537712043868,0.28776995,0.6634722974257083
0.029500000000000002,1.7782437500000001,1.0,2670.69672245066,0.2824312002820063,1.3244573507946134,0.945010125179573,0.2877392375,0.6643093989647361
0.03,1.7775,1.0,2678.124463476464,0.28645619348201695,1.3240532565021328,0.9464023112844193,0.287708,0.6651450476733511
0.0305,1.77674375,1.0,2684.9588541412554,0.29045861207647833,1.323649049150322,0.9477340423510222,0.2876762375,0.6659798883421313
0.031,1.775975,1.0,2691.2272211341174,0.2944385807219607,1.3232444574779367,0.9490087696019539,0.28764395,0.6668144793041912
0.0315,1.7751937500000001,1.0,2696.9572198457836,0.2983962240750346,1.3228392102237314,0.9502297002183424,0.2876111375,0.6676493760909354
0.032,1.7744,1.0,2702.176803544073,0.3023316667922703,1.3224330361264618,0.9513998176128375,0.2875778,0.6684851314230607
0.0325,1.77359375,1.0,2706.9141941813823,0.3062450335302382,1.322025663924883,0.9525218997835236,0.2875439375,0.6693222951968695
0.033,1.772775,1.0,2711.197854832739,0.31013644894550874,1.32161682235775,0.9535985359510201,0.28750955,0.6701614144658912
0.0335,1.7719437500000002,1.0,2715.050801729311,0.3140060336629147,1.3212062917663308,0.9546321464593935,0.2874746375,0.6710029277095753
0.034,1.7711000000000001,1.0,2718.4987945978673,0.31785391159315957,1.3207938291116368,0.9556249896034184,0.2874392,0.6718473188899681
0.0345,1.7702437500000001,1.0,2721.5746409629396,0.3216802124423641,1.3203791286883646,0.9565791705905063,0.2874032375,0.672695197388024
0.035,1.7693750000000001,1.0,2724.2951762722323,0.32548505417547585,1.3199620315471343,0.9574966715640039,0.28736675,0.6735468697966538
0.035500000000000004,1.76849375,1.0,2726.6773434087927,0.32926855475744243,1.319542378738566,0.9583793482028502,0.2873297375,0.674402640912305
0.036000000000000004,1.7676,1.0,2728.7381815228678,0.33303083215321144,1.3191200113132802,0.959228939240987,0.2872922,0.6752628137098595
0.0365,1.76669375,1.0,2730.4948154244807,0.3367720043277304,1.3186947703218967,0.9600470751663923,0.2872541375,0.6761276893159232
0.037,1.765775,1.0,2731.9644455354137,0.34049218924594704,1.3182664968150362,0.9608352861788583,0.28721555,0.6769975669804993
0.0375,1.76484375,1.0,2733.164338402202,0.3441915048728089,1.3178350318433185,0.9615950094772348,0.2871764375,0.6778727440470558
0.038,1.7639,1.0,2734.111817768509,0.3478700691732636,1.3174002164573642,0.9623275959394375,0.28713679999999997,0.678753515920977
0.0385,1.76294375,1.0,2734.8242562084392,0.3515280001122587,1.316961891707793,0.9630343162519346,0.28709663750000003,0.6796401760364073
0.039,1.761975,1.0,2735.3103384009123,0.35516540927760915,1.316519977903414,0.9637163726400378,0.28705595,0.6805328558291528
0.0395,1.7609937500000001,1.0,2735.589566713295,0.35878241773513775,1.316074297424105,0.9643748904561519,0.2870147375,0.6814318829969973
0.04,1.76,1.0,2735.6793630404,0.36237914298603374,1.315624691802508,0.965010931552366,0.286973,0.6823375444023336
0.0405,1.7589937500000001,1.0,2735.5891390599495,0.3659556960654146,1.3151710755005313,0.9656255028235591,0.2869307375,0.6832499782137705
0.041,1.757975,1.0,2735.3283242338894,0.3695121880083976,1.314713362980083,0.9662195546931417,0.28688795,0.6841693213066536
0.0415,1.75694375,1.0,2734.906362789564,0.3730487298501,1.3142514687030715,0.9667939848648559,0.2868446375,0.6850957092409518
0.042,1.7559,1.0,2734.3327108635735,0.37656543262563924,1.3137853071314054,0.9673496417879003,0.28680079999999997,0.6860292762386786
0.0425,1.75484375,1.0,2733.6168338076245,0.38006240737013264,1.3133147927269928,0.967887327860001,0.2867564375,0.6869701551608467
0.043000000000000003,1.753775,1.0,2732.768203655815,0.3835397651186975,1.312839839951742,0.9684078023907265,0.28671155,0.6879184774839555
0.043500000000000004,1.75269375,1.0,2731.7962967557555,0.3869976169064511,1.3123603632675611,0.9689117843452323,0.28666613750000003,0.6888743732760116
0.044,1.7516,1.0,2730.7105915601046,0.3904360737685108,1.3118762771363588,0.9693999548867489,0.2866202,0.6898379711720827
0.0445,1.75049375,1.0,2729.5151143270523,0.3938552385543495,1.3113875455788184,0.9698729623788829,0.2865737375,0.6908092999311202
0.045,1.7493750000000001,1.0,2728.223725356266,0.3972552293392334,1.3108940432373117,0.9703314171665565,0.28652675,0.6917885646669533
0.0455,1.74824375,1.0,2726.843314590567,0.40063615323656543,1.310395708075229,0.9707759016937992,0.2864792375,0.6927758431392768
0.046,1.7471,1.0,2725.3790773841592,0.4039981147587243,1.3098924934499878,0.9712069698103211,0.2864312,0.6937711814520066
0.0465,1.7459437500000001,1.0,2723.836207645242,0.4073412184180888,1.3093843527190052,0.9716251477118942,0.28638263750000004,0.69477462465766
0.047,1.744775,1.0,2722.219897068192,0.4106655687270375,1.3088712392396988,0.9720309355803733,0.28633355,0.6957862167427702
0.0475,1.74359375,1.0,2720.5353344144096,0.4139712701979494,1.3083531063694864,0.972424809111485,0.28628393750000003,0.6968060006131639
0.048,1.7424,1.0,2718.7877048405744,0.41725842734320295,1.307829907465785,0.9728072209390523,0.2862338,0.6978340180791014
0.0485,1.74119375,1.0,2716.982189276189,0.4205271446751771,1.3073015958860126,0.973178601963573,0.2861831375,0.6988703098402737
0.049,1.739975,1.0,2715.1239638482107,0.42377752670625046,1.306768124987586,0.9735393625924015,0.28613195,0.6999149154706659
0.0495,1.73874375,1.0,2713.2180300614878,0.4270096768362618,1.3062294496713467,0.9738898938710188,0.2860802375,0.7009678703889801
0.05,1.7375,1.0,2711.267171779118,0.43022367746385315,1.3056855450125784,0.9742305675104247,0.286028,0.7020291695483512
0.0505,1.73624375,1.0,2709.2809944011487,0.4334196638815,1.3051363238254425,0.9745617400158906,0.2859752375,0.7030989281960927
0.051000000000000004,1.734975,1.0,2707.2618055137514,0.43659773304888183,1.3045817654103284,0.9748837515184664,0.28592195,0.7041771306745142
0.051500000000000004,1.73369375,1.0,2705.2119099803413,0.4397579819256783,1.3040218490676254,0.9751969267312515,0.2858681375,0.7052637604894834
0.052000000000000005,1.7324,1.0,2703.133609805366,0.4429005074715688,1.3034565540977223,0.9755015757808422,0.2858138,0.7063588003033678
0.0525,1.73109375,1.0,2701.029204007002,0.4460254066462328,1.3028858598010087,0.9757979949869351,0.28575893750000003,0.7074622319279456
0.053,1.729775,1.0,2698.90098849955,0.44913277640935007,1.3023097454778736,0.9760864675937332,0.28570355000000003,0.7085740363172937
0.0535,1.72844375,1.0,2696.751255985619,0.45222271372059997,1.3017281904287061,0.9763672644565258,0.2856476375,0.7096941935606456
0.054,1.7271,1.0,2694.5822958573613,0.45529531553966207,1.3011411739538956,0.9766406446865525,0.2855912,0.710822682875222
0.0545,1.7257437500000001,1.0,2692.396394107426,0.4583506788262159,1.3005486753538313,0.9769068562570091,0.2855342375,0.7119594825990347
0.055,1.724375,1.0,2690.1958332492927,0.46138890053994097,1.2999506739289022,0.9771661365728534,0.28547675,0.7131045701836652
0.0555,1.72299375,1.0,2687.9828922473885,0.4644100776405168,1.2993471489794977,0.977418713006852,0.2854187375,0.7142579221870103
0.056,1.7216,1.0,2685.7598464563202,0.46741430708762294,1.2987380798060069,0.9776648034041282,0.2853602,0.7154195142660074
0.0565,1.72019375,1.0,2683.5289675699964,0.4704016858409389,1.2981234457088189,0.9779046165573158,0.28530113749999997,0.7165893211693269
0.057,1.718775,1.0,2681.2925235800185,0.47337231086014425,1.2975032259883232,0.9781383526542465,0.28524155,0.7177673167300405
0.0575,1.71734375,1.0,2679.046654930825,0.4763262296424022,1.296877456129714,0.9783662025173977,0.2851814375,0.7189533674807069
0.058,1.7159,1.0,2676.801534987745,0.4792635993482252,1.2962460428745526,0.9785883516420089,0.2851208,0.7201475831669922
0.0585,1.71444375,1.0,2674.5581228528463,0.4821845105512553,1.2956089774180959,0.9788049769332996,0.2850596375,0.7213499122124607
0.059000000000000004,1.7129750000000001,1.0,2672.317010238037,0.48508905101709865,1.2949662543158056,0.9790162482017433,0.28499795,0.7225602959658912
0.059500000000000004,1.71149375,1.0,2670.0787878624437,0.4879773085113614,1.2943178681231426,0.9792223285558763,0.2849357375,0.7237786750747718
0.06,1.71,1.0,2667.844045453629,0.49084937079964985,1.2936638133955687,0.9794233747171434,0.284873,0.725004989483331
0.0605,1.7084937500000001,1.0,2665.613371750699,0.4937053256475702,1.2930040846885447,0.9796195373175872,0.2848097375,0.7262391784305744
0.061,1.7069750000000001,1.0,2663.387354506971,0.49654526082072864,1.292338676557532,0.9798109611814403,0.28474595,0.7274811804483122
0.0615,1.7054437500000001,1.0,2661.1665804939053,0.4993692640847314,1.291667583557992,0.9799977855916093,0.2846816375,0.7287309333591891
0.062,1.7039,1.0,2658.951635505997,0.5021774232051848,1.290990800245386,0.9801801445419683,0.2846168,0.7299883742747125
0.0625,1.70234375,1.0,2656.743104365113,0.5049698259476948,1.2903083211751754,0.9803581669763162,0.2845514375,0.7312534395932757
0.063,1.7007750000000001,1.0,2654.5415709268964,0.5077465600778678,1.2896201409028212,0.9805319770148004,0.28448555,0.7325260649981824
0.0635,1.69919375,1.0,2652.347618087192,0.5105077133613098,1.288926253983785,0.9807016941685509,0.28441913750000003,0.7338061854556678
0.064,1.6976,1.0,2650.161827788435,0.5132533735636274,1.2882266549735277,0.98086743354322,0.2843522,0.7350937352129178
0.0645,1.69599375,1.0,2647.9847810284346,0.5159836284504266,1.287521338427511,0.9810293060320788,0.2842847375,0.7363886477960864
0.065,1.694375,1.0,2645.817057868071,0.5186985657873134,1.2868102989011962,0.9811874184992784,0.28421675,0.7376908560083115
0.0655,1.69274375,1.0,2643.6592374404236,0.5213982733398944,1.2860935309500443,0.9813418739538441,0.2841482375,0.7390002919277296
0.066,1.6911,1.0,2641.5118979608515,0.5240828388737756,1.2853710291295166,0.9814927717149339,0.2840792,0.7403168869054866
0.0665,1.6894437500000001,1.0,2639.375616737017,0.5267523501545632,1.2846427879950748,0.9816402075688581,0.2840096375,0.7416405715637465
0.067,1.687775,1.0,2637.2494274237097,0.529406867982736,1.283908816368404,0.981784272795224,0.28393955,0.7429712499626653
0.0675,1.68609375,1.0,2635.1334207748546,0.5320464831842892,1.2831691133067318,0.9819250570283656,0.2838689375,0.7443088433325233
0.068,1.6844000000000001,1.0,2633.029529408353,0.5346713128626702,1.282423660820436,0.9820626476870525,0.2837978,0.7456533029616815
0.0685,1.68269375,1.0,2630.937705972418,0.5372814353742285,1.2816724592229236,0.9821971274890542,0.2837261375,0.7470045462860664
0.069,1.680975,1.0,2628.857903241163,0.539876929075313,1.2809155088276019,0.982328576319136,0.28365395,0.7483624901152091
0.0695,1.67924375,1.0,2626.7900741138187,0.5424578723222735,1.2801528099478778,0.9824570713440199,0.28358123749999997,0.7497270506323606
0.07,1.6775,1.0,2624.7341716139777,0.5450243434714589,1.2793843628971588,0.982582687121917,0.283508,0.7510981433946067
0.07050000000000001,1.67574375,1.0,2622.6901488890085,0.5475764208792187,1.278610167988852,0.9827054957069141,0.2834342375,0.7524756833329838
0.07100000000000001,1.673975,1.0,2620.6579592089893,0.5501141829019018,1.2778302255363643,0.9828255667484977,0.28335995,0.7538595847525924
0.07150000000000001,1.67219375,1.0,2618.637555966536,0.552637707895858,1.277044535853103,0.9829429675864657,0.2832851375,0.7552497613327127
0.07200000000000001,1.6704,1.0,2616.6288926756815,0.5551470742174361,1.2762530992524754,0.9830577633414738,0.2832098,0.7566461261269195
0.0725,1.66859375,1.0,2614.631922971322,0.5576423602229856,1.2754559160478884,0.9831700170014426,0.2831339375,0.7580485915631971
0.073,1.6667750000000001,1.0,2612.64660060845,0.5601236442688559,1.2746529865527494,0.9832797895040413,0.28305755,0.7594570694440538
0.0735,1.66494375,1.0,2610.672879461513,0.562591004711396,1.2738443110804654,0.9833871398154485,0.2829806375,0.7608714709466369
0.074,1.6631,1.0,2608.710713523682,0.5650445199069554,1.2730298899444434,0.9834921250055845,0.2829032,0.762291706622848
0.0745,1.6612437500000001,1.0,2606.7600569060214,0.5674842682118831,1.272209723458091,0.9835948003199902,0.2828252375,0.7637176863994569
0.075,1.659375,1.0,2604.820863837146,0.5699103279825288,1.2713838119348149,0.9836952192485269,0.28274675,0.7651493195782176
0.0755,1.65749375,1.0,2602.8930886622375,0.5723227775752414,1.2705521556880224,0.983793433591051,0.2826677375,0.7665865148359825
