Time [s],Phi [rad],STIM [ ],Fsee [N],Gamma [ ],Lcerel [ ],q [ ],Lmtc [m],fisomrel [ ]
0.0,1.8,1.0,18.09948010876001,0.0003701066532196003,1.3793249489313342,0.005035479057048769,0.288653,0.5411753288209207
0.0005,1.79999375,1.0,18.52390575593722,0.0059772399564270735,1.3792750251432573,0.013970423013264434,0.2886527375,0.5412960947148646
0.001,1.799975,1.0,22.1327987492614,0.011552921675055044,1.3788860708578334,0.03750974627260595,0.28865195,0.5422364327484466
0.0015,1.79994375,1.0,32.16744430250121,0.01709732822863481,1.3779534526564798,0.07318797131433374,0.2886506375,0.5444872054370091
0.002,1.7999,1.0,55.838526110810875,0.02261063504483373,1.3762232741813183,0.11777041332095926,0.2886488,0.5486481121310223
0.0025,1.79984375,1.0,100.81963815008932,0.028093016568797743,1.37375850650833,0.16788903615534193,0.28864643749999996,0.5545426620301743
0.003,1.7997750000000001,1.0,165.71484823240831,0.03354464626814995,1.371037592983598,0.22069524083197414,0.28864354999999997,0.561004797809113
0.0035,1.79969375,1.0,243.02562852777837,0.038965696634976954,1.3684210917730688,0.27400630331916803,0.2886401375,0.5671744232676659
0.004,1.7996,1.0,327.1317176171078,0.04435633919570397,1.366006704866129,0.3261994444237691,0.2886362,0.5728287372226988
0.0045000000000000005,1.7994937500000001,1.0,415.12150142969904,0.04971674451663364,1.3637858921865533,0.37615007870409894,0.2886317375,0.5779968898151575
0.005,1.799375,1.0,505.3762294298161,0.05504708219510916,1.3617320108934463,0.4231613311790136,0.28862675,0.5827485723692081
0.0055,1.79924375,1.0,596.7994518410393,0.060347520898812214,1.3598217300926145,0.4668708330493097,0.2886212375,0.5871438856924671
0.006,1.7991000000000001,1.0,688.5266756937434,0.06561822833192232,1.3580374343134785,0.5071582189392855,0.2886152,0.5912283023922883
0.006500000000000001,1.79894375,1.0,779.8478083521209,0.07085937124707112,1.356365596251575,0.5440664935917622,0.2886086375,0.5950368680110314
0.007,1.798775,1.0,870.177726261916,0.07607111554059975,1.3547953833393584,0.577741429103127,0.28860155,0.5985976912024161
0.0075,1.79859375,1.0,959.0282673767709,0.08125362596110954,1.3533179337060495,0.6083877042406398,0.2885939375,0.6019337937553815
0.008,1.7984,1.0,1046.0251397406487,0.08640706676549555,1.3519253291228128,0.6362381960933967,0.2885858,0.6050655699036986
0.0085,1.79819375,1.0,1130.848666308478,0.0915316007547729,1.350610990287849,0.6615342944493626,0.2885771375,0.608009991994177
0.009000000000000001,1.797975,1.0,1213.2545092819714,0.09662738999037399,1.3493689554102288,0.6845128865711776,0.28856795,0.6107823118481044
0.0095,1.79774375,1.0,1293.0863869579177,0.10169459620755056,1.348193460057309,0.7053986979019269,0.2885582375,0.6133970483843088
0.01,1.7975,1.0,1370.2060585250724,0.10673337930609449,1.3470796800425877,0.7244007379955211,0.288548,0.6158663765992825
0.0105,1.79724375,1.0,1444.5242205482898,0.11174389860785683,1.3460231120140167,0.7417102516823999,0.2885372375,0.6182015495922681
0.011,1.796975,1.0,1516.0065204889197,0.11672631290742086,1.3450193770860537,0.7575003700998122,0.28852595000000003,0.6204133591682127
0.0115,1.79669375,1.0,1584.6382605160004,0.12168078016719171,1.3440645560804707,0.7719268871500935,0.2885141375,0.6225114197995811
0.012,1.7964,1.0,1650.4081564985454,0.12660745649177563,1.343155269168291,0.7851293638739635,0.28850180000000003,0.6245040218177222
0.0125,1.79609375,1.0,1713.3417619534132,0.13150649766538233,1.3422881899353791,0.7972322303648156,0.2884889375,0.6263992188480926
0.013000000000000001,1.7957750000000001,1.0,1773.4936474754907,0.13637805931281954,1.3414600871824036,0.8083462286311915,0.28847555,0.6282047476447237
0.0135,1.79544375,1.0,1830.9210312108876,0.14122229616171575,1.3406680722409803,0.8185699112388448,0.2884616375,0.6299275017717292
0.014,1.7951000000000001,1.0,1885.6676145017607,0.1460393603734551,1.3399097169738943,0.8279909955853938,0.2884472,0.6315732917944104
0.0145,1.79474375,1.0,1937.8007981459184,0.15082940410942175,1.3391825932439307,0.8366874124813652,0.2884322375,0.6331478585469459
0.015,1.794375,1.0,1987.4045870641505,0.15559257912637345,1.3384843266515916,0.8447284540769949,0.28841675,0.6346567621531207
0.0155,1.79399375,1.0,2034.5667279922072,0.160329036708283,1.3378127086041425,0.8521758217438244,0.2884007375,0.6361051463824385
0.016,1.7936,1.0,2079.37603930824,0.16503892765566686,1.3371656968707621,0.8590845191895329,0.2883842,0.6374977450690477
0.0165,1.7931937500000001,1.0,2121.8980390291104,0.1697223996595895,1.3365416427055008,0.8655037084626711,0.2883671375,0.6388384015468209
0.017,1.792775,1.0,2162.210344262236,0.17437960041111533,1.335938897362408,0.8714772836368023,0.28834955,0.640130922318015
0.0175,1.7923437500000001,1.0,2200.401655762613,0.17901067760130887,1.3353558120955342,0.8770444933803067,0.2883314375,0.6413790793805636
0.018000000000000002,1.7919,1.0,2236.555967970705,0.18361577744588758,1.3347908871218448,0.882240525918803,0.2883128,0.642586294324516
0.0185,1.79144375,1.0,2270.7722563433,0.18819504781435373,1.334242560873561,0.887096928814882,0.2882936375,0.6437560921577928
0.019,1.790975,1.0,2303.122752662425,0.19274863269019413,1.3337096174675065,0.8916421286815076,0.28827395,0.6448912347247784
0.0195,1.79049375,1.0,2333.6775047724977,0.19727667506893526,1.3331909266011401,0.8959017237392276,0.2882537375,0.6459942807100563
0.02,1.79,1.0,2362.512317329032,0.20177931794610357,1.3326853579719216,0.8998987844160354,0.288233,0.6470677697420102
0.0205,1.78949375,1.0,2389.708267314787,0.2062567043172256,1.3321917812773096,0.9036541370177196,0.2882117375,0.6481142233794901
0.021,1.788975,1.0,2415.335688145574,0.2107089750333231,1.3317092165636353,0.9071866441395178,0.28818995000000003,0.6491358279551637
0.021500000000000002,1.78844375,1.0,2439.483113865857,0.2151362740600755,1.33123654809013,0.9105133611317388,0.2881676375,0.6501350421216039
0.022,1.7879,1.0,2462.2108851675457,0.21953874027460668,1.3307729681118878,0.9136498188096643,0.2881448,0.6511136593317987
0.0225,1.78734375,1.0,2483.576976485133,0.22391651170384225,1.3303177205898793,0.9166101351719252,0.28812143749999997,0.6520733528836302
0.023,1.786775,1.0,2503.6420779757236,0.2282697263747076,1.329870049485076,0.9194071544567879,0.28809755,0.6530157858823775
0.0235,1.78619375,1.0,2522.4693675554195,0.23259852231412823,1.3294291987584488,0.9220525796902417,0.28807313749999996,0.6539426116242553
0.024,1.7856,1.0,2540.115894990481,0.23690303649606945,1.3289944915247243,0.9245571037598675,0.2880482,0.6548553078647581
0.0245,1.78499375,1.0,2556.6460918830116,0.24118340580504466,1.3285651999834767,0.926930488564801,0.2880227375,0.6557554507647257
0.025,1.7843805386511198,1.0,2572.381244923382,0.24543976807356582,1.3281407100034566,0.9291816874921685,0.28799698262334705,0.6566443700204956
0.025500000000000002,1.783767305820618,1.0,2587.664477543643,0.24967225603439375,1.327720879610878,0.931318981541355,0.28797122684446597,0.6575224013618383
0.026000000000000002,1.783154072990116,1.0,2602.507645839259,0.25388100242028927,1.3273055668319544,0.9333499671323405,0.2879454710655849,0.6583898785740211
0.0265,1.7825408401596141,1.0,2616.9218858092854,0.25806613996401323,1.3268946296929,0.9352816219050838,0.2879197152867038,0.659247133539355
0.027,1.7819276073291122,1.0,2630.918632314743,0.2622278013983264,1.3264879262199285,0.9371203633986148,0.2878939595078227,0.6600944962774571
0.0275,1.7813143744986102,1.0,2644.509584104616,0.2663661193970177,1.3260853146370908,0.9388721014607463,0.2878682037289416,0.6609322945727982
0.028,1.7807011416681082,1.0,2657.706130716854,0.27048122400084346,1.3256866585222602,0.9405422848188049,0.28784244795006053,0.6617608433054997
0.0285,1.7800879088376063,1.0,2670.5214469500606,0.2745732482517862,1.3252918073796418,0.9421359426092631,0.28781669217117944,0.6625804848586927
0.029,1.7794746760071043,1.0,2682.9668820547095,0.27864231990410915,1.3249006297996533,0.9436577235274614,0.28779093639229836,0.6633915202671832
0.029500000000000002,1.7788614431766023,1.0,2695.0540103520243,0.2826885667120756,1.324512994372713,0.9451119290175457,0.28776518061341727,0.6641942489899731
0.03,1.7782482103461004,1.0,2706.794620722701,0.28671211642994865,1.3241287696892385,0.9465025436612622,0.2877394248345362,0.6649889689404993
0.0305,1.7776349775155986,1.0,2718.2007064777126,0.2907130968119916,1.3237478243396479,0.9478332625474774,0.28771366905565515,0.6657759765157669
0.031,1.7770217446850967,1.0,2729.274103657698,0.29469161474331307,1.32337012101352,0.9491075211430102,0.28768791327677407,0.6665553725628235
0.0315,1.7764085118545947,1.0,2740.0355828976103,0.29864781355683895,1.3229954515646454,0.9503285024638299,0.287662157497893,0.6673276092747157
0.032,1.7757952790240927,1.0,2750.506073206119,0.3025818382488487,1.3226236086268295,0.9514991679040843,0.2876364017190119,0.6680931350656962
0.0325,1.7751820461935908,1.0,2760.693584999329,0.30649380808707727,1.3222545036755755,0.9526222814405766,0.2876106459401308,0.6688521519796189
0.033,1.7745688133630888,1.0,2770.606252003212,0.31038384233925953,1.3218880481863873,0.9537004193714566,0.2875848901612497,0.6696048610802233
0.0335,1.7739555805325868,1.0,2780.252325966512,0.3142520602731304,1.3215241536347686,0.95473598532316,0.28755913438236863,0.6703514624663448
0.034,1.7733423477020849,1.0,2789.640171547526,0.3180985811564247,1.321162731496223,0.9557312238876269,0.28753337860348754,0.6710921552866228
0.0345,1.772729114871583,1.0,2798.778261374771,0.3219235242568774,1.3208036932462544,0.9566882330293052,0.2875076228246065,0.6718271377537091
0.035,1.772115882041081,1.0,2807.6751712806695,0.3257270088422234,1.320446950360366,0.957608975385862,0.2874818670457254,0.6725566071579756
0.035500000000000004,1.7715026492105792,1.0,2816.339575710045,0.32950915418019755,1.3200924143140618,0.9584952885728264,0.28745611126684434,0.673280759880724
0.036000000000000004,1.7708894163800772,1.0,2824.7802433016705,0.33327007953853477,1.3197399965828454,0.9593488945903347,0.28743035548796325,0.6739997914068943
0.0365,1.7702761835495753,1.0,2833.0060326436287,0.3370099041849699,1.31938960864222,0.9601714084195041,0.28740459970908216,0.6747138963372752
0.037,1.7696629507190733,1.0,2841.0258882025605,0.3407287473872379,1.3190411619676903,0.9609643458865901,0.2873788439302011,0.6754232684002106
0.0375,1.7690497178885713,1.0,2848.8488364267905,0.3444267284130737,1.3186945680347588,0.9617291308647823,0.28735308815132,0.6761281004628141
0.038,1.7684364850580694,1.0,2856.4839820226675,0.34810396653021214,1.31834973831893,0.9624671018761567,0.2873273323724389,0.6768285845416735
0.0385,1.7678232522275674,1.0,2863.9405044054947,0.35176058100638813,1.3180065842957072,0.9631795181498043,0.2873015765935578,0.6775249118130653
0.039,1.7672100193970655,1.0,2871.2230359507075,0.35539667857971,1.3176650583706855,0.9638675665189289,0.28727582081467673,0.678217189701368
0.0395,1.7665967865665635,1.0,2878.338556665978,0.35901237751784043,1.3173250925698465,0.9645323655500457,0.28725006503579564,0.6789055664079666
0.04,1.7659835537360615,1.0,2885.2986438907374,0.3626078078309976,1.3169865787582817,0.9651749683819743,0.28722430925691456,0.6795902706859682
0.0405,1.7653703209055598,1.0,2892.1079293394787,0.3661830790224183,1.3166494707852607,0.9657963702395143,0.2871985534780335,0.6802714051384385
0.041,1.7647570880750578,1.0,2898.7710827895835,0.36973830059533913,1.3163137225000536,0.9663975107243606,0.28717279769915244,0.6809490719329052
0.0415,1.7641438552445559,1.0,2905.2928106665363,0.3732735820529967,1.31597928775193,0.9669792775047393,0.28714704192027135,0.6816233728054304
0.042,1.763530622414054,1.0,2911.6778546762944,0.37678903289862775,1.3156461203901602,0.9675425097235245,0.28712128614139026,0.6822944090645424
0.0425,1.762917389583552,1.0,2917.9309904847796,0.38028476263546884,1.3153141742640138,0.9680880011489965,0.2870955303625092,0.6829622815950356
0.043000000000000003,1.76230415675305,1.0,2924.0570264445237,0.38376088076675663,1.3149834032227607,0.9686165030901068,0.2870697745836281,0.6836270908616318
0.043500000000000004,1.761690923922548,1.0,2930.060802368946,0.3872174967957278,1.314653761115671,0.969128727096065,0.287044018804747,0.6842889369125071
0.044,1.761077691092046,1.0,2935.9471883534125,0.3906547202256189,1.3143252017920144,0.9696253474582118,0.2870182630258659,0.6849479193826831
0.0445,1.760464458261544,1.0,2941.721083643716,0.3940726605596667,1.3139976791010606,0.9701070035304906,0.28699250724698483,0.6856041374972812
0.045,1.759851225431042,1.0,2947.387415551823,0.39747142730110774,1.3136711468920799,0.9705743018833343,0.2869667514681038,0.6862576900746404
0.0455,1.7592379926005404,1.0,2952.9511384184607,0.4008511299531788,1.313345559014342,0.9710278183044491,0.2869409956892227,0.6869086755293035
0.046,1.7586247597700384,1.0,2958.4172326237126,0.40421187801911634,1.3130208693171166,0.9714680996587635,0.2869152399103416,0.6875571918748618
0.0465,1.7580115269395364,1.0,2963.7843892320707,0.40755375111161946,1.312697086730032,0.9718956656293111,0.28688948413146054,0.688203226883134
0.047,1.7573982941090345,1.0,2969.0628052948928,0.4108768908577806,1.3123741199206276,0.97231101136158,0.28686372835257945,0.6888469681244049
0.0475,1.7567850612785325,1.0,2974.256071419197,0.4141814036616451,1.3120519354488345,0.97271460731357,0.28683797257369836,0.6894884871895295
0.048,1.7561718284480305,1.0,2979.3665952102397,0.41746738982596127,1.3117305103200216,0.973106901215172,0.2868122167948173,0.6901278346161317
0.0485,1.7555585956175286,1.0,2984.3967972582263,0.42073494965347746,1.3114098215395582,0.9734883194337347,0.2867864610159362,0.6907650607420297
0.049,1.7549453627870266,1.0,2989.349110757006,0.4239841834469422,1.3110898461128127,0.97385926818966,0.2867607052370551,0.6914002157063347
0.0495,1.7543321299565247,1.0,2994.2259811344575,0.4272151915091039,1.3107705610451539,0.9742201346920928,0.286734949458174,0.6920333494505111
0.05,1.7537188971260227,1.0,2999.0298656948667,0.43042807414271095,1.3104519433419506,0.9745712882006413,0.28670919367929293,0.6926645117194079
0.0505,1.753105664295521,1.0,3003.763233272591,0.43362293165051174,1.3101339700085717,0.9749130810185695,0.2866834379004119,0.6932937520622524
0.051000000000000004,1.752492431465019,1.0,3008.4285638977444,0.4367998643352547,1.309816618050386,0.9752458494224578,0.2866576821215308,0.6939211198336135
0.051500000000000004,1.751879198634517,1.0,3013.0283484736833,0.43995897249968824,1.3094998644727622,0.975569914532935,0.2866319263426497,0.6945466641943298
0.052000000000000005,1.751265965804015,1.0,3017.565088465972,0.44310035644656076,1.309183686281069,0.97588558313069,0.28660617056376864,0.6951704341124026
0.0525,1.750652732973513,1.0,3022.04129560307,0.4462241164786207,1.3088680604806753,0.9761931484216685,0.28658041478488755,0.6957924783638582
0.053,1.7500395001430111,1.0,3026.4594915889857,0.4493303528986165,1.30855296407695,0.9764928907550203,0.28655465900600646,0.6964128455335727
0.0535,1.7494262673125092,1.0,3030.822207827619,0.45241916600929655,1.3082383740752617,0.9767850782971074,0.2865289032271254,0.6970315840160685
0.054,1.7488130344820072,1.0,3035.13198515834,0.4554906561134092,1.3079242674809795,0.9770699676646096,0.2865031474482443,0.6976487420162698
0.0545,1.7481998016515052,1.0,3039.3885395304833,0.45854489540553756,1.3076106457115806,0.9773478032584345,0.2864773916693632,0.6982643196584963
0.055,1.7475865688210033,1.0,3043.595145257782,0.46158199925582194,1.307297479564182,0.9776188215034421,0.2864516358904821,0.6988783770838684
0.0555,1.7469733359905015,1.0,3047.7555515298795,0.4646020860297492,1.3069847358441369,0.9778832489107241,0.2864258801116011,0.6994909820111783
0.056,1.7463601031599996,1.0,3051.8708923696227,0.4676052464895866,1.306672403938527,0.9781413012985762,0.28640012433272,0.7001021577250159
0.0565,1.7457468703294976,1.0,3055.9423062786846,0.47059157139760166,1.3063604732344338,0.978393185610935,0.2863743685538389,0.7007119274221103
0.057,1.7451336374989956,1.0,3059.970936141351,0.4735611515160617,1.3060489331189395,0.9786391003543623,0.2863486127749578,0.7013203142116036
0.0575,1.7445204046684937,1.0,3063.957929131545,0.47651407760723424,1.3057377729791262,0.9788792360101011,0.28632285699607674,0.7019273411153198
0.058,1.7439071718379917,1.0,3067.904436622163,0.4794504404333865,1.3054269822020754,0.9791137754228104,0.28629710121719565,0.7025330310680264
0.0585,1.7432939390074897,1.0,3071.811614097019,0.48237033075678604,1.3051165501748692,0.9793428941674759,0.28627134543831456,0.7031374069176868
0.059000000000000004,1.7426807061769878,1.0,3075.6806210649056,0.4852738393397002,1.3048064662845893,0.9795667608958848,0.2862455896594335,0.7037404914257064
0.059500000000000004,1.7420674733464858,1.0,3079.5126209767345,0.4881610569443964,1.3044967199183175,0.9797855376639548,0.2862198338805524,0.7043423072671738
0.06,1.7414542405159839,1.0,3083.3087811447335,0.4910320743331419,1.3041873004631357,0.9799993802411185,0.2861940781016713,0.7049428770310906
0.0605,1.7408410076854821,1.0,3087.0702726640957,0.49388698226820427,1.303878197306126,0.9802084384028762,0.2861683223227902,0.7055422232205968
0.061,1.7402277748549801,1.0,3090.7982703377616,0.4967258715118509,1.30356939983437,0.980412856207556,0.2861425665439092,0.70614036825319
0.0615,1.7396145420244782,1.0,3094.4939526026774,0.49954883282634915,1.3032608974349498,0.9806127722582524,0.2861168107650281,0.706737334460934
0.062,1.7390013091939762,1.0,3098.158501459541,0.5023559569739664,1.302952679494947,0.9808083199508361,0.286091054986147,0.707333144090663
0.0625,1.7383880763634743,1.0,3101.7931024045088,0.50514733471697,1.3026447354014437,0.9809996277088826,0.2860652992072659,0.7079278193041778
0.063,1.7377748435329723,1.0,3105.3989443634055,0.5079230568176275,1.3023370545415216,0.9811868192063001,0.28603954342838483,0.7085213821784343
0.0635,1.7371616107024703,1.0,3108.9772196286767,0.5106832140382063,1.3020296263022626,0.9813700135783845,0.28601378764950375,0.7091138547057259
0.064,1.7365483778719684,1.0,3112.5273285034973,0.5134278616782141,1.3017224553522684,0.9815493238716239,0.28598803187062266,0.7097052293883879
0.0645,1.7359351450414664,1.0,3116.051497635351,0.5161571229062133,1.3014155223090014,0.9817248626451777,0.2859622760917416,0.7102955449974232
0.065,1.7353219122109644,1.0,3119.5507818147507,0.5188710909200951,1.3011088178007268,0.9818967368027554,0.2859365203128605,0.7108848209268135
0.0655,1.7347086793804627,1.0,3123.025714240206,0.5215698473888509,1.3008023369120785,0.9820650488742404,0.28591076453397946,0.7114730679471697
0.066,1.7340954465499607,1.0,3126.476829735217,0.5242534739814726,1.3004960747276895,0.9822298977804337,0.28588500875509837,0.7120602967897031
0.0665,1.7334822137194588,1.0,3129.90466472431,0.5269220523669514,1.3001900263321935,0.9823913789858739,0.2858592529762173,0.7126465181462914
0.067,1.7328689808889568,1.0,3133.3097572097167,0.5295756642142792,1.2998841868102238,0.9825495846441396,0.2858334971973362,0.7132317426695498
0.0675,1.7322557480584548,1.0,3136.6926467478193,0.5322143911924474,1.299578551246414,0.9827046037360597,0.2858077414184551,0.7138159809728946
0.068,1.7316425152279529,1.0,3140.0538744270716,0.5348383149704476,1.2992731147253973,0.9828565222012199,0.285781985639574,0.7143992436306097
0.0685,1.731029282397451,1.0,3143.3939828459033,0.5374475172172715,1.2989678723318074,0.9830054230631355,0.28575622986069293,0.7149815411779085
0.069,1.730416049566949,1.0,3146.713516091258,0.5400420796019105,1.2986628191502776,0.9831513865484415,0.28573047408181185,0.7155628841109968
0.0695,1.729802816736447,1.0,3150.0130197177054,0.5426220837933563,1.2983579502654414,0.9832944902004185,0.28570471830293076,0.7161432828871312
0.07,1.729189583905945,1.0,3153.29304072716,0.5451876114606005,1.2980532607619324,0.983434808987166,0.2856789625240497,0.7167227479246796
0.07050000000000001,1.7285763510754433,1.0,3156.5541275490987,0.5477387442726346,1.2977487457243837,0.9835724154047053,0.2856532067451686,0.717301289603177
