Time [s],Phi [rad],STIM [ ],Fsee [N],Gamma [ ],Lcerel [ ],q [ ],Lmtc [m],fisomrel [ ]
0.0,1.8,1.0,17.97227078615274,6.734466205468967e-05,1.3793391734762013,0.005001190679836631,0.288653,0.5411409166657923
0.0005,1.79999375,1.0,18.30059477097119,0.005676176220570042,1.3792997393130995,0.013100478777446724,0.2886527375,0.541236313000685
0.001,1.799975,1.0,21.684813367052158,0.011253546668684609,1.378931522286667,0.03590801229133518,0.28865195,0.542126598907874
0.0015,1.79994375,1.0,31.226613802131858,0.016799632479261556,1.3780328126173844,0.0710111919218169,0.2886506375,0.5442958947212677
0.002,1.7999,1.0,53.92117698107162,0.02231460913342881,1.3763461874257268,0.11520255261341276,0.2886488,0.5483531479914533
0.0025,1.79984375,1.0,97.6880928482488,0.0277986511285288,1.3739077810936078,0.16510185966867733,0.28864643749999996,0.5541867705282356
0.003,1.7997750000000001,1.0,161.69866908430086,0.03325193198531061,1.371186657858125,0.21782401687676964,0.28864354999999997,0.5606519930743469
0.0035,1.79969375,1.0,238.51995760050147,0.038674624247942595,1.368558986574965,0.2711534700322439,0.2886401375,0.5668503616544476
0.004,1.7996,1.0,322.3568178608116,0.04406689949467789,1.3661325347581252,0.3234391969536088,0.2886362,0.5725349712742035
0.0045000000000000005,1.7994937500000001,1.0,410.1893856935367,0.04942892834307333,1.3639011920483497,0.3735313231239546,0.2886317375,0.577729344469994
0.005,1.799375,1.0,500.3538736141329,0.05476088044137506,1.361838368971947,0.4207122528701651,0.28862675,0.5825031720016616
0.0055,1.79924375,1.0,591.7390545991209,0.06006292451286726,1.3599203083966191,0.4646040140384082,0.2886212375,0.5869176390423552
0.006,1.7991000000000001,1.0,683.4678531274212,0.06533522830654073,1.3581291569165386,0.5050754127170283,0.2886152,0.5910188359893154
0.006500000000000001,1.79894375,1.0,774.8269840810002,0.07057795864985705,1.3564511143794549,0.5421623140138576,0.2886086375,0.5948424842399388
0.007,1.798775,1.0,865.2130565448508,0.07579128126965975,1.3548754210280327,0.5760063388732595,0.28860155,0.598416567443165
0.0075,1.79859375,1.0,954.1599975357718,0.08097536147037132,1.3533926815234083,0.606809601835823,0.2885939375,0.6017653464467312
0.008,1.7984,1.0,1041.2686573977362,0.08613036326381827,1.3519952483718973,0.6348042501039068,0.2885858,0.6049086260319079
0.0085,1.79819375,1.0,1126.2029991604327,0.09125644925705766,1.350676662242984,0.6602316984371456,0.2885771375,0.6078631331572708
0.009000000000000001,1.797975,1.0,1208.7359147473715,0.09635378184702012,1.349430617711199,0.6833291162797976,0.28856795,0.6106449088200572
0.0095,1.79774375,1.0,1288.7041833327992,0.10142252277083738,1.3482513808612113,0.7043220344006133,0.2885582375,0.6132684175008276
0.01,1.7975,1.0,1365.965793942132,0.10646283198935061,1.3471341207521788,0.7234203913469807,0.288548,0.6157458616377927
0.0105,1.79724375,1.0,1440.4292566091776,0.11147486885041998,1.3460743135700888,0.740816401226879,0.2885372375,0.6180885506600506
0.011,1.796975,1.0,1512.0584045375085,0.11645879218347407,1.3450675618544365,0.7566841532184763,0.28852595000000003,0.6203073270275339
0.0115,1.79669375,1.0,1580.8382341545234,0.12141476003762679,1.3441099157119005,0.7711803466818528,0.2885141375,0.6224118810865712
0.012,1.7964,1.0,1646.755177321002,0.12634292853608106,1.343197993906313,0.7844453959206888,0.28850180000000003,0.62441051332488
0.0125,1.79609375,1.0,1709.8339498078453,0.1312434535631196,1.342328454607259,0.7966045029694151,0.2884889375,0.6263113174942789
0.013000000000000001,1.7957750000000001,1.0,1770.126907317215,0.13611649060261738,1.3414980701084636,0.8077691129244743,0.28847555,0.6281220284189889
0.0135,1.79544375,1.0,1827.69401609185,0.14096219462381857,1.340703902096767,0.818038387319831,0.2884616375,0.6298496527297085
0.014,1.7951000000000001,1.0,1882.5776757154363,0.14578071780908552,1.3399435221113172,0.8275006041259327,0.2884472,0.6315000056586493
0.0145,1.79474375,1.0,1934.8440992277028,0.1505722123407806,1.3392145016912613,0.8362341906703884,0.2884322375,0.6330788324054505
0.015,1.794375,1.0,1984.5765181240586,0.15533683001976253,1.3385144628737378,0.8443088767680403,0.28841675,0.6345917041623241
0.0155,1.79399375,1.0,2031.8624353623197,0.16007472212367146,1.3378411892267315,0.8517867485770736,0.2884007375,0.6360437846360582
0.016,1.7936,1.0,2076.791768823936,0.16478603957161178,1.3371926180343592,0.8587231453948849,0.2883842,0.6374398544105062
0.0165,1.7931937500000001,1.0,2119.4297373029262,0.16947093008711586,1.3365670963352694,0.8651675303281278,0.2883671375,0.6387837680626451
0.017,1.792775,1.0,2159.853732941351,0.174129541393716,1.3359629711681102,0.8711640628900806,0.28834955,0.6400793431246669
0.0175,1.7923437500000001,1.0,2198.152299898315,0.17876202121494456,1.3353785895715302,0.8767522259207784,0.2883314375,0.6413303624266935
0.018000000000000002,1.7919,1.0,2234.409705550653,0.18336851583125072,1.3348124439342322,0.8819674135342191,0.2883128,0.6425402659017432
0.0185,1.79144375,1.0,2268.7247657832986,0.18794917311943912,1.334262969812545,0.8868413565034916,0.2882936375,0.6437125861355154
0.019,1.790975,1.0,2301.1701539024707,0.19250413715649253,1.333728943109183,0.8914026424521255,0.28827395,0.6448501037347822
0.0195,1.79049375,1.0,2331.815865062647,0.19703355097073896,1.33320923073699,0.8956770135857102,0.2882537375,0.6459553844121917
0.02,1.79,1.0,2360.737685888002,0.20153755759050654,1.3327026996088098,0.8996876680758206,0.288233,0.6470309747226086
0.0205,1.78949375,1.0,2388.016707277685,0.20601630004412333,1.332208216637486,0.9034555457285547,0.2882117375,0.6480794030565726
0.021,1.788975,1.0,2413.7235381258715,0.21046991924486802,1.331724796890654,0.9069996097294027,0.28818995000000003,0.6491028671168824
0.021500000000000002,1.78844375,1.0,2437.946697678688,0.21489855916710174,1.3312513226904474,0.9103370056466259,0.2881676375,0.6501038304076182
0.022,1.7879,1.0,2460.7468730966884,0.21930235877127785,1.3307869812042197,0.9134833443239601,0.2881448,0.6510840977863497
0.0225,1.78734375,1.0,2482.182091692006,0.2236814561195282,1.3303310143518305,0.9164528159006686,0.28812143749999997,0.6520453474403404
0.023,1.786775,1.0,2502.3131131587065,0.22803598927398452,1.329882664053139,0.9192583292015362,0.28809755,0.6529892473125124
0.0235,1.78619375,1.0,2521.203200301944,0.23236609629677865,1.3294411722280042,0.9219116451664323,0.28807313749999996,0.6539174554880054
0.024,1.7856,1.0,2538.912520945218,0.23667191422518383,1.3290058315154119,0.9244235035080968,0.2880482,0.6548315141226162
0.0245,1.78499375,1.0,2555.500901052571,0.24095357992644553,1.3285759566715296,0.9268037212890248,0.2880227375,0.6557329103870826
0.025,1.784375,1.0,2571.0362016726276,0.24521123132654538,1.3281508040997123,0.9290612717431838,0.28799675,0.6566232454359446
0.025500000000000002,1.78374375,1.0,2585.5615921298954,0.24944500119561588,1.327729876785848,0.9312044161022471,0.2879702375,0.6575035964985103
0.026000000000000002,1.7831000000000001,1.0,2599.121510856847,0.25365502230378956,1.3273126777158255,0.9332407336579408,0.2879432,0.6583750350972455
0.0265,1.78244375,1.0,2611.761559364686,0.2578414274211988,1.3268987098755327,0.9351771872585066,0.2879156375,0.6592386271738275
0.027,1.781775,1.0,2623.5284016912783,0.26200434931797634,1.326487476250858,0.9370201817163747,0.28788755,0.6600954331994433
0.0275,1.7810937500000001,1.0,2634.4695266341855,0.26614392067426806,1.3260784811478852,0.9387756161315598,0.2878589375,0.6609465055238786
0.028,1.7804,1.0,2644.6274820587805,0.27026027025615407,1.3256712825950554,0.940448936684058,0.2878298,0.661792779632945
0.0285,1.77969375,1.0,2654.0510312401057,0.2743535338611247,1.3252653882539567,0.9420451671058033,0.2878001375,0.6626352908290907
0.029,1.778975,1.0,2662.7728552284366,0.2784238387450169,1.3248604603818697,0.9435689694007827,0.28776995,0.6634747489811215
0.029500000000000002,1.7782437500000001,1.0,2670.8261766044698,0.2824713121636677,1.3244561612360741,0.9450246574900671,0.2877392375,0.6643118604462712
0.03,1.7775,1.0,2678.2447112341006,0.28649608137291405,1.3240521530738503,0.9464162276571407,0.287708,0.6651473280873785
0.0305,1.77674375,1.0,2685.06262255254,0.29049827362859293,1.323648098152478,0.9477473859685793,0.2876762375,0.6659818512827931
0.031,1.775975,1.0,2691.314478377632,0.2944780161865413,1.3232436587292378,0.9490215730034255,0.28764395,0.6668161259290053
0.0315,1.7751937500000001,1.0,2697.0294853189284,0.2984354323379227,1.3228385494111687,0.9502419914710115,0.2876111375,0.6676507366520803
0.032,1.7744,1.0,2702.2355302329584,0.3023706468932589,1.3224324996339643,0.9514116229891699,0.2875778,0.668486234629444
0.0325,1.77359375,1.0,2706.9742976982743,0.3062837958341866,1.3220251153352358,0.9525332324321176,0.2875439375,0.6693234218537247
0.033,1.772775,1.0,2711.266003823518,0.3101749995253293,1.3216162008257815,0.9536094155996004,0.28750955,0.6701626893060926
0.0335,1.7719437500000002,1.0,2715.1310489566467,0.31404437833131066,1.3212055604163997,0.9546425941278527,0.2874746375,0.6710044258851614
0.034,1.7711000000000001,1.0,2718.5900002554545,0.31789205261675424,1.3207929984178883,0.9556350292488301,0.2874392,0.6718490183866732
0.0345,1.7702437500000001,1.0,2721.6635751077592,0.3217181427462835,1.3203783191410459,0.9565888343077064,0.2874032375,0.672696851480734
0.035,1.7693750000000001,1.0,2724.372625400107,0.32552276908452205,1.31996132689667,0.9575059861637437,0.28736675,0.6735483076866147
0.035500000000000004,1.76849375,1.0,2726.7381226359753,0.3293060519960934,1.319541825995559,0.9583883355858301,0.2873297375,0.674403767345102
0.036000000000000004,1.7676,1.0,2728.781143902689,0.3330681118456212,1.3191196207485112,0.9592376167417801,0.2872922,0.6752636085884133
0.0365,1.76669375,1.0,2730.5228586877115,0.33680906899772883,1.3186945154663245,0.9600554558697779,0.2872541375,0.6761282073076678
0.037,1.765775,1.0,2731.984516543478,0.34052904381704,1.3182663144597973,0.9608433792108522,0.28721555,0.6769979371179129
0.0375,1.76484375,1.0,2733.1753618920316,0.3442281451401026,1.3178349317112532,0.961602828541241,0.2871764375,0.6778729470156346
0.038,1.7639,1.0,2734.1231697977755,0.3479065045901254,1.317400113358877,0.9623351476725462,0.28713679999999997,0.6787537246166199
0.0385,1.76294375,1.0,2734.8403904670226,0.3515642364159471,1.316961745196521,0.9630416102823575,0.28709663750000003,0.6796404722001776
0.039,1.761975,1.0,2735.3383236523223,0.35520145357233657,1.3165197237990192,0.9637234160584893,0.28705595,0.6805333687697469
0.0395,1.7609937500000001,1.0,2735.6283005822943,0.3588182690140627,1.3160739457412058,0.9643816951000712,0.2870147375,0.6814325919119428
0.04,1.76,1.0,2735.7216795122163,0.36241479569589435,1.3156243075979153,0.9650175126946694,0.286973,0.6823383177721192
0.0405,1.7589937500000001,1.0,2735.629841512291,0.3659911465726004,1.3151707059439817,0.9656318737186332,0.2869307375,0.6832507210292482
0.041,1.757975,1.0,2735.364186492857,0.3695474345989498,1.3147130373542395,0.9662257266940402,0.28688795,0.6841699748701182
0.0415,1.75694375,1.0,2734.936129466558,0.37308377272971127,1.314251198403523,0.9667999675323543,0.2868446375,0.6850962509628495
0.042,1.7559,1.0,2734.357097048271,0.37660027391965384,1.3137850856666662,0.9673554429919877,0.28680079999999997,0.6860297194297289
0.0425,1.75484375,1.0,2733.6385241918015,0.3800970511235463,1.3133145957185035,0.9678929538743491,0.2867564375,0.686970548819358
0.043000000000000003,1.753775,1.0,2732.7850884718905,0.3835742032932408,1.3128396865671825,0.9684132607530062,0.28671155,0.6879187835093974
0.043500000000000004,1.75269375,1.0,2731.812023460734,0.3870318554703703,1.3123602203780542,0.9689170802186147,0.28666613750000003,0.6888746579252979
0.044,1.7516,1.0,2730.7294318088516,0.3904701222605476,1.3118761059238764,0.9694050932216977,0.2866202,0.6898383117147928
0.0445,1.75049375,1.0,2729.5430726753343,0.3938891088478797,1.3113872914493518,0.9698779469412989,0.2865737375,0.6908098046040703
0.045,1.7493750000000001,1.0,2728.2587064345626,0.39728892041647323,1.3108937251991843,0.9703362552492839,0.28652675,0.6917891952543815
0.0455,1.74824375,1.0,2726.8820936216885,0.40066966215043504,1.3103953554180767,0.9707806007450975,0.2864792375,0.6927765412464473
0.046,1.7471,1.0,2725.418993937043,0.4040314392338719,1.3098921303507323,0.971211536647212,0.2864312,0.6937718990646835
0.0465,1.7459437500000001,1.0,2723.875165309935,0.40737435685089063,1.3093839982418543,0.9716295885526396,0.28638263750000004,0.6947753240812639
0.047,1.744775,1.0,2722.2563630222003,0.410698520185598,1.3088709073361458,0.9720352560748847,0.28633355,0.6957868705400067
0.0475,1.74359375,1.0,2720.5683388908747,0.4140040344221008,1.3083528058783103,0.9724290143698094,0.28628393750000003,0.6968065915400928
0.048,1.7424,1.0,2718.816840510094,0.4172910047445058,1.3078296421130504,0.9728113155580571,0.2862338,0.6978345390196151
0.0485,1.74119375,1.0,2717.007610552774,0.42055953633691984,1.30730136428507,0.9731825900519534,0.2861831375,0.6988707637389502
0.049,1.739975,1.0,2715.146386131454,0.4238097343834497,1.3067679206390717,0.973543247794116,0.28613195,0.6999153152639677
0.0495,1.73874375,1.0,2713.239115778752,0.427041704041787,1.3062292574363006,0.9738936792766064,0.2860802375,0.7009682458227422
0.05,1.7375,1.0,2711.2947666171767,0.4302555468219717,1.3056852933445973,0.9742342544927077,0.286028,0.7020296601812103
0.0505,1.73624375,1.0,2709.3073031573845,0.43345136302281634,1.305136083798709,0.9745653352678245,0.2859752375,0.7030993952933269
0.051000000000000004,1.734975,1.0,2707.282614515671,0.4366292530627314,1.3045815754894694,0.9748872597472312,0.28592195,0.7041774995929613
0.051500000000000004,1.73369375,1.0,2705.22658195993,0.4397893173601275,1.3040217151077123,0.9752003507408984,0.2858681375,0.7052640202262916
0.052000000000000005,1.7324,1.0,2703.1436707441108,0.4429316560268953,1.303456462202756,0.9755049173390754,0.2858138,0.7063589781485564
0.0525,1.73109375,1.0,2701.035751907732,0.4460563690682381,1.3028857999702426,0.975801256346176,0.28575893750000003,0.7074623475012316
0.053,1.729775,1.0,2698.9055424173066,0.44916355513156836,1.3023097038505103,0.9760896508353162,0.28570355000000003,0.7085741165746708
0.0535,1.72844375,1.0,2696.754348822094,0.4522533120665321,1.3017281621458172,0.976370372207873,0.2856476375,0.7096942479850366
0.054,1.7271,1.0,2694.583475906599,0.4553257377227751,1.3011411631584215,0.9766436800957009,0.2855912,0.7108227036083958
0.0545,1.7257451741864407,1.0,2692.4643674640283,0.45838092938770086,1.300548696443898,0.976909822989576,0.2855342973158305,0.7119594421743421
0.055,1.7243886411505782,1.0,2690.83603966281,0.4614189843798424,1.299950973207031,0.9771690520539654,0.2854773229283243,0.7131039976790658
0.0555,1.7230321081147157,1.0,2689.741500310295,0.4644399982310949,1.2993483665747332,0.9774216172656766,0.28542034854081805,0.71425559766913
0.056,1.7216755750788533,1.0,2689.139540264489,0.4674440662880502,1.2987412509407463,0.9776677582130536,0.2853633741533118,0.7154134725330294
0.0565,1.7203190420429908,1.0,2688.99153147115,0.47043128327290673,1.2981299785390765,0.9779077032279532,0.28530639976580563,0.7165769001794955
0.057,1.7189625090071283,1.0,2689.2594531382038,0.4734017439993177,1.2975148971959904,0.9781416710403219,0.2852494253782994,0.7177451720231481
0.0575,1.7176059759712656,1.0,2689.9019439878666,0.4763555446132457,1.2968963861946998,0.9783698734084619,0.28519245099079316,0.7189175250782132
0.058,1.7162494429354032,1.0,2690.893695105627,0.47929277718171465,1.296274678456124,0.9785925049801555,0.2851354766032869,0.7200934786534448
0.0585,1.7148929098995407,1.0,2692.2094502146438,0.48221353377174825,1.2956500069011834,0.9788097526475961,0.2850785022157807,0.7212725555463336
0.059000000000000004,1.7135363768636782,1.0,2693.8239897689755,0.48511790645037045,1.295022604450797,0.9790217959241647,0.2850215278282745,0.7224542820888664
0.059500000000000004,1.7121798438278157,1.0,2695.712116248626,0.488005987284605,1.294392704025885,0.9792288073001172,0.28496455344076826,0.7236381881898206
0.06,1.7108233107919533,1.0,2697.848640658775,0.4908778683414757,1.2937605385473663,0.9794309525785102,0.28490757905326203,0.7248238073736012
0.0605,1.7094667777560908,1.0,2700.214683716772,0.493733639391774,1.2931262832385648,0.9796283879061968,0.2848506046657558,0.7260107846771195
0.061,1.708110244720228,1.0,2702.785270779798,0.49657339374202136,1.292490168974241,0.9798212667267053,0.28479363027824955,0.7271986640734056
0.0615,1.7067537116843656,1.0,2705.5457058255333,0.4993972200953421,1.2918523325768645,0.9800097313644344,0.2847366558907434,0.7283871682699085
0.062,1.7053971786485032,1.0,2708.482073542548,0.5022052068104819,1.291212903655853,0.9801939184083412,0.28467968150323714,0.7295760355367565
0.0625,1.7040406456126407,1.0,2711.580445634333,0.5049974422461861,1.2905720118206239,0.9803739593739209,0.2846227071157309,0.7307650062070001
0.063,1.7026841125767782,1.0,2714.8268764291324,0.5077740147612007,1.2899297866805943,0.9805499809329992,0.28456573272822466,0.7319538226892381
0.0635,1.7013275795409157,1.0,2718.207398862184,0.510535012714271,1.2892863578451819,0.9807221051315018,0.2845087583407184,0.7331422294791754
0.064,1.6999710465050533,1.0,2721.7103011506256,0.5132805229500977,1.2886418341669124,0.9808904484347105,0.28445178395321224,0.7343300113799767
0.0645,1.6986145134691906,1.0,2725.3226434012554,0.5160106342284426,1.287996335467398,0.9810551238124813,0.284394809565706,0.7355169348129782
0.065,1.697257980433328,1.0,2729.03478761148,0.5187254328772719,1.2873499512976962,0.981216238528984,0.28433783517819977,0.7367028236263125
0.0655,1.6959014473974656,1.0,2732.839090202192,0.5214250036964151,1.2867027528985795,0.9813738950432992,0.28428086079069353,0.737887536608342
0.066,1.6945449143616031,1.0,2736.727890430592,0.5241094314857017,1.2860548115108195,0.9815281922187287,0.2842238864031873,0.7390709337101709
0.0665,1.6931883813257407,1.0,2740.6935091603677,0.5267788010449612,1.2854061983751879,0.9816792254765255,0.2841669120156811,0.7402528760491802
0.067,1.6918318482898782,1.0,2744.72824774413,0.5294331971740232,1.284756984732457,0.9818270869420199,0.2841099376281749,0.7414332259122427
0.0675,1.6904753152540155,1.0,2748.827087872735,0.5320727003498834,1.284107217360111,0.9819718641236806,0.28405296324066864,0.742611891083848
0.068,1.689118782218153,1.0,2752.9840364104443,0.5346973935838457,1.2834569517386578,0.9821136421341163,0.2839959888531624,0.7437887643846564
0.0685,1.6877622491822906,1.0,2757.1864966471057,0.5373073717785439,1.2828063029190564,0.9822525067972615,0.28393901446565617,0.7449636321085935
0.069,1.686405716146428,1.0,2761.4312849410153,0.5399027147533951,1.2821553005473596,0.9823885360930011,0.28388204007815,0.7461364361384859
0.0695,1.6850491831105656,1.0,2765.7152084406234,0.5424835023278165,1.2815039742696204,0.9825218054067945,0.28382506569064375,0.7473071188469672
0.07,1.6836926500747031,1.0,2770.0350648624817,0.5450498143212252,1.2808523537318912,0.9826523876345434,0.2837680913031375,0.7484756230971195
0.07050000000000001,1.6823361170388407,1.0,2774.3876422876883,0.5476017305530384,1.280200468580225,0.9827803532825472,0.28371111691563133,0.7496418922430559
0.07100000000000001,1.680979584002978,1.0,2778.769718978148,0.5501393308426732,1.2795483484606744,0.982905770562804,0.28365414252812504,0.7508058701304507
0.07150000000000001,1.6796230509671155,1.0,2783.1780632129794,0.5526626950095469,1.2788960230192923,0.9830287054839042,0.28359716814061886,0.7519675010970102
0.07200000000000001,1.678266517931253,1.0,2787.609433142857,0.5551719028730765,1.278243521902131,0.9831492219377497,0.2835401937531126,0.75312672997289
0.0725,1.6769099848953906,1.0,2792.0605766656877,0.5576670342526793,1.277590874755244,0.983267381782315,0.2834832193656064,0.7542835020810537
0.073,1.675553451859528,1.0,2796.5282313204557,0.5601481689677724,1.2769381112246834,0.9833832449206584,0.2834262449781002,0.7554377632375795
