Time [s],Phi [rad],STIM [ ],Fsee [N],Gamma [ ],Lcerel [ ],q [ ],Lmtc [m],fisomrel [ ]
0.0,1.8,1.0,18.360863485038827,0.0006396775615704185,1.3792958770758637,0.005105512185719988,0.288653,0.5412456557182759
0.0005,1.79999375,1.0,18.86460479441716,0.006245298785160962,1.3792376047187922,0.0147806852248181,0.2886527375,0.5413866044870954
0.001,1.799975,1.0,22.673742098164812,0.011819476905726647,1.3788317969158845,0.03896496588509248,0.28865195,0.5423675690225831
0.0015,1.79994375,1.0,33.163152382985025,0.017362388295067626,1.3778707177640677,0.07514669440236893,0.2886506375,0.5446866092361873
0.002,1.7999,1.0,57.72940275346957,0.02287420833389572,1.3761041080690661,0.12006873009504257,0.2886488,0.5489339920075644
0.0025,1.79984375,1.0,103.78959353164592,0.028355111419565964,1.3736190620925235,0.170375675268129,0.28864643749999996,0.5548749886514767
0.003,1.7997750000000001,1.0,169.43787805915943,0.03380527097436832,1.3709010138943516,0.22325173696897663,0.28864354999999997,0.5613279269519835
0.0035,1.79969375,1.0,247.15546637404196,0.03922485944317775,1.3682958177713804,0.27654277599447585,0.2886401375,0.5674687200641267
0.004,1.7996,1.0,331.4823355132619,0.04461404830579209,1.3658928529903862,0.3286509705623918,0.2886362,0.5730944519469249
0.0045000000000000005,1.7994937500000001,1.0,419.59999880932514,0.04997300808015929,1.3636817886548676,0.37847408348237904,0.2886317375,0.5782383820178452
0.005,1.799375,1.0,509.9194991643544,0.055301908298135104,1.3616362527527117,0.42533357956728707,0.28862675,0.5829694537467374
0.0055,1.79924375,1.0,601.3769699906487,0.060600917670416976,1.3597329178455095,0.4688804977862672,0.2886212375,0.5873476652371042
0.006,1.7991000000000001,1.0,693.0941992250376,0.06587020373932759,1.3579549085939657,0.5090042448147534,0.2886152,0.5914167200685129
0.006500000000000001,1.79894375,1.0,784.3779953888803,0.07110993327234426,1.356288670944012,0.5457538616386117,0.2886086375,0.5952116803474155
0.007,1.798775,1.0,874.6491809970828,0.07632027210561777,1.354723492195095,0.5792788242940283,0.28860155,0.5987603446585343
0.0075,1.79859375,1.0,963.4151179809702,0.08150138491972769,1.353250739980112,0.6097858681044132,0.2885939375,0.6020851871922939
0.008,1.7984,1.0,1050.3153536232674,0.08665343603864706,1.3518624001510682,0.6375085638128334,0.2885858,0.605206796428347
0.0085,1.79819375,1.0,1135.0290696378638,0.09177658809810635,1.3505520105945892,0.6626883773717559,0.2885771375,0.60814186182427
0.009000000000000001,1.797975,1.0,1217.3176161140127,0.09687100314303701,1.3493136068264948,0.6855617430451901,0.28856795,0.6109056252738042
0.0095,1.79774375,1.0,1297.023411140548,0.1019368428437445,1.348141506953761,0.7063527241884957,0.2885582375,0.6135124079590701
0.01,1.7975,1.0,1374.0126767309885,0.10697426715833705,1.3470308786249316,0.7252694916678627,0.288548,0.6159743918393111
0.0105,1.79724375,1.0,1448.1979006897247,0.11198343531808198,1.3459772397214251,0.7425024282719889,0.2885372375,0.618302772942422
0.011,1.796975,1.0,1519.54229381619,0.11696450586682844,1.3449762779807903,0.7582238370628932,0.28852595000000003,0.620508187597323
0.0115,1.79669375,1.0,1588.0413887893797,0.1219176371195212,1.3440239802286296,0.7725886517226513,0.2885141375,0.6226004497055213
0.012,1.7964,1.0,1653.6805653079716,0.12684298496074004,1.3431170356616313,0.7857357102813576,0.28850180000000003,0.6245876908124197
0.0125,1.79609375,1.0,1716.4852738516286,0.131740705239715,1.342252141914966,0.7977887641309392,0.2884889375,0.626477906105287
0.013000000000000001,1.7957750000000001,1.0,1776.4961976832562,0.13661095276150706,1.341426243381023,0.808858002384747,0.28847555,0.6282784449321509
0.0135,1.79544375,1.0,1833.7970162679921,0.14145388315037227,1.3406361665061755,0.8190413052119152,0.2884616375,0.6299968178188047
0.014,1.7951000000000001,1.0,1888.4288253895068,0.1462696485046227,1.3398795316746674,0.8284259189373206,0.2884472,0.6316387243259207
0.0145,1.79474375,1.0,1940.4507013325588,0.151058400664176,1.3391540163893965,0.8370893764136,0.2884322375,0.6332096720884599
0.015,1.794375,1.0,1989.9427311819588,0.15582029146894968,1.3384572981532599,0.8451005990762525,0.28841675,0.6347151062716689
0.0155,1.79399375,1.0,2036.984611667298,0.16055547150173,1.3377872603589571,0.8525209723842985,0.2884007375,0.6361599704693564
0.016,1.7936,1.0,2081.6806104804414,0.16526409208632387,1.3371417035310347,0.8594051435514164,0.2883842,0.6375493359062243
0.0165,1.7931937500000001,1.0,2124.0978799874792,0.16994630104390168,1.3365189699717495,0.8658020062055463,0.2883671375,0.6388870626567372
0.017,1.792775,1.0,2164.311846886929,0.17460224594487844,1.3359174406659369,0.8717552288719949,0.28834955,0.6401768911238737
0.0175,1.7923437500000001,1.0,2202.4088530602444,0.17923207435966923,1.3353354965984325,0.8773038610566274,0.2883314375,0.6414225278095749
0.018000000000000002,1.7919,1.0,2238.4707531254235,0.18383593252070818,1.3347716639689082,0.8824829140200787,0.2883128,0.6426273373835727
0.0185,1.79144375,1.0,2272.598141496789,0.18841396806344218,1.3342243686087139,0.8873237683926424,0.2882936375,0.6437948706253398
0.019,1.790975,1.0,2304.8624189256147,0.19296632481134718,1.3336924062026188,0.8918547092260551,0.28827395,0.6449278636565896
0.0195,1.79049375,1.0,2335.3345698745497,0.19749314589793007,1.3331746400376994,0.8961012051314838,0.2882537375,0.6460288878690991
0.02,1.79,1.0,2364.0913288607803,0.20199457445669775,1.3326699334010312,0.900086211567323,0.288233,0.6471004955706424
0.0205,1.78949375,1.0,2391.2126143491337,0.20647075324495706,1.3321771697828708,0.9038304570033573,0.2882117375,0.648145178172965
0.021,1.788975,1.0,2416.772673641871,0.21092182384862704,1.3316953334642396,0.9073527067269079,0.28818995000000003,0.6491651969325474
0.021500000000000002,1.78844375,1.0,2440.852504774575,0.215347929391164,1.331223383571731,0.9106699519486483,0.2881676375,0.650162851324279
0.022,1.7879,1.0,2463.5103329754024,0.21974920821103447,1.330760533669734,0.9137976550612138,0.2881448,0.6511398895615843
0.0225,1.78734375,1.0,2484.807397895546,0.22412579864670504,1.3303059973226372,0.9167498630468462,0.28812143749999997,0.6520980488925319
0.023,1.786775,1.0,2504.8077033621275,0.22847783903664223,1.32985898809483,0.9195393566335736,0.28809755,0.6530390560365269
0.0235,1.78619375,1.0,2523.577780843812,0.23280546771931263,1.329418719550701,0.9221777819701557,0.28807313749999996,0.653964627581558
0.024,1.7856,1.0,2541.174535178073,0.23710881997366762,1.3289845176537565,0.924675785832375,0.2880482,0.6548762345157054
0.0245,1.78499375,1.0,2557.6661271816292,0.24138803649720872,1.328555620899948,0.9270430853108735,0.2880227375,0.6557755228796225
0.025,1.784375,1.0,2573.1011891109833,0.24564325156590153,1.3281314682385468,0.9292886043892513,0.28799675,0.6566637103048967
0.025500000000000002,1.78374375,1.0,2587.5256567065885,0.24987459815210805,1.3277115374651518,0.9314205265607536,0.2879702375,0.6575419266971505
0.026000000000000002,1.7831000000000001,1.0,2600.9867612594157,0.25408220922819036,1.3272953063753623,0.9334463609213589,0.2879432,0.6584112959969953
0.0265,1.78244375,1.0,2613.532918392663,0.25826621776651043,1.326882252764778,0.9353730068470344,0.2879156375,0.6592729363119383
0.027,1.781775,1.0,2625.2136228898007,0.2624267567394304,1.3264718544289977,0.937206811679394,0.28788755,0.6601279600309035
0.0275,1.7810937500000001,1.0,2636.0724448249134,0.2665639571158868,1.3260636530275993,0.9389536310397683,0.2878589375,0.6609773411170196
0.028,1.7804,1.0,2646.1511334871616,0.27067795062163535,1.325657214729513,0.9406188692115085,0.2878298,0.6618219977506885
0.0285,1.77969375,1.0,2655.5038661802027,0.274768871900471,1.3252519979758182,0.9422075018649682,0.2878001375,0.6626630670049056
0.029,1.778975,1.0,2664.161660113201,0.27883684790217245,1.3248476811445333,0.943724156748005,0.28776995,0.6635012246652411
0.029500000000000002,1.7782437500000001,1.0,2672.1560543831292,0.2828820055765183,1.3244439426136767,0.9451731165316765,0.2877392375,0.6643371431801444
0.03,1.7775,1.0,2679.5190644497093,0.2869044718732872,1.3240404607612668,0.9465583489545691,0.287708,0.6651714916761031
0.0305,1.77674375,1.0,2686.283138903622,0.2909043737422579,1.3236369139653221,0.9478835339760885,0.2876762375,0.6660049359662076
0.031,1.775975,1.0,2692.4811185282224,0.2948818381332089,1.3232329806038607,0.9491520882679673,0.28764395,0.666838138552118
0.0315,1.7751937500000001,1.0,2698.1461976543324,0.29883699199591895,1.3228283390549012,0.9503671873337918,0.2876111375,0.6676717586194317
0.032,1.7744,1.0,2703.3043351830293,0.30276995878735885,1.322422736678746,0.9515317928572079,0.2875778,0.6685063101804465
0.0325,1.77359375,1.0,2707.9886365744883,0.3066808666401914,1.3220158579634762,0.9526486567618087,0.2875439375,0.6693424337373927
0.033,1.772775,1.0,2712.227795983976,0.31056984054941067,1.321607429928267,0.9537203483329488,0.28750955,0.6701806792568077
0.0335,1.7719437500000002,1.0,2716.0426997523987,0.31443700137393044,1.3211972526544353,0.9547492719741005,0.2874746375,0.6710214441557489
0.034,1.7711000000000001,1.0,2719.454400374681,0.3182824699726643,1.3207851262232975,0.9557376730304576,0.2874392,0.6718651237050481
0.0345,1.7702437500000001,1.0,2722.4840996740318,0.3221063672045259,1.3203708507161702,0.9566876501862691,0.2874032375,0.6727121110057315
0.035,1.7693750000000001,1.0,2725.1531328624146,0.32590881392842896,1.31995422621437,0.9576011667575102,0.28736675,0.6735627969628947
0.035500000000000004,1.76849375,1.0,2727.4829534872906,0.32968993100328703,1.3195350527992136,0.9584800609898703,0.2873297375,0.6744175702570274
0.036000000000000004,1.7676,1.0,2729.4951192644958,0.3334498392880138,1.3191131305520176,0.9593260554600115,0.2872922,0.6752768173127901
0.0365,1.766698421669754,1.0,2731.4558084335417,0.3371886508150324,1.3186881474046142,0.9601407523045516,0.28725433371012965,0.6761411502034915
0.037,1.765796728692649,1.0,2733.6942317486387,0.3409064959332107,1.3182605962502392,0.9609257396174223,0.28721646260509126,0.6770095436047265
0.0375,1.7648950357155437,1.0,2736.190041336329,0.344603491880381,1.317830716682532,0.9616824805972186,0.2871785915000528,0.6778814908579976
0.038,1.7639933427384387,1.0,2738.925151187286,0.34827975287864926,1.317398675998022,0.9624123426826443,0.2871407203950144,0.6787566341667813
0.0385,1.7630916497613336,1.0,2741.8814711908813,0.3519353931501214,1.3169646414932374,0.9631166119623792,0.287102849289976,0.6796346174842585
0.039,1.7621899567842285,1.0,2745.0408994292434,0.35557052691690344,1.3165287804647072,0.9637964989038298,0.2870649781849376,0.6805150865354757
0.0395,1.7612882638071232,1.0,2748.3853150920777,0.35918526840110127,1.31609126020896,0.9644531436195716,0.2870271070798992,0.681397688837728
0.04,1.7603865708300181,1.0,2751.8965720119004,0.36277973182482093,1.3156522480225246,0.9650876207133053,0.28698923597486076,0.6822820737191538
0.0405,1.759484877852913,1.0,2755.5564928201043,0.3663540314101683,1.3152119112019294,0.9657009437429758,0.2869513648698223,0.6831678923355453
0.041,1.758583184875808,1.0,2759.346863723108,0.36990828137924947,1.3147704170437033,0.966294069334992,0.2869134937647839,0.6840547976853733
0.0415,1.757681491898703,1.0,2763.2494298992633,0.37344259595417023,1.314327932844375,0.9668679009801573,0.28687562265974553,0.6849424446230294
0.042,1.7567797989215976,1.0,2767.2558184068457,0.3769570826966164,1.313884536286374,0.9674232839256797,0.2868377515547071,0.6858306692611222
0.0425,1.7558781059444926,1.0,2771.3482035041407,0.38045186033499023,1.3134403901512945,0.9679610264368121,0.2867998804496687,0.6867191384623861
0.043000000000000003,1.7549764129673875,1.0,2775.518205063858,0.38392703789059895,1.3129955716368473,0.9684818848250759,0.28676200934463025,0.6876076917593215
0.043500000000000004,1.7540747199902824,1.0,2779.7586688456286,0.3873827232850724,1.3125501466964877,0.9689865742156043,0.28672413823959186,0.6884961919642985
0.044,1.7531730270131773,1.0,2784.062420893129,0.39081902444004035,1.3121041812836707,0.9694757722169621,0.2866862671345535,0.6893845026315358
0.0445,1.752271334036072,1.0,2788.4222666956284,0.39423604927713285,1.311657741351851,0.9699501212629877,0.28664839602951503,0.6902724880595111
0.045,1.751369641058967,1.0,2792.830990446086,0.39763390571797963,1.3112108928544843,0.9704102307863225,0.2866105249244766,0.6911600132930953
0.0455,1.750467948081862,1.0,2797.28135439549,0.4010127016842106,1.3107637017450249,0.9708566792372548,0.2865726538194382,0.6920469441254121
0.046,1.7495662551047568,1.0,2801.766098303236,0.4043725450974556,1.310316233976928,0.9712900159602782,0.2865347827143998,0.6929331470994147
0.0465,1.7486645621276515,1.0,2806.2810721782816,0.407713537269429,1.3098685274164035,0.9717107599950329,0.28649691160936136,0.693818545015273
0.047,1.7477628691505465,1.0,2810.820641965252,0.41103578595680523,1.309420633104666,0.9721194066350756,0.2864590405043229,0.6947030351055729
0.0475,1.7468611761734414,1.0,2815.375274698884,0.41433940832321575,1.3089726368155876,0.9725164306871011,0.2864211693992845,0.6955864467449713
0.048,1.7459594831963363,1.0,2819.9426590897942,0.41762450549204055,1.3085245594656272,0.9729022773829601,0.28638329829424614,0.6964687379035099
0.0485,1.7450577902192312,1.0,2824.520476320923,0.4208911785866594,1.3080764219712437,0.9732773706972371,0.2863454271892077,0.6973498667901663
0.049,1.744156097242126,1.0,2829.1064000153247,0.42413952873045235,1.3076282452488959,0.9736421145584858,0.2863075560841693,0.6982297918529502
0.0495,1.7432544042650209,1.0,2833.698096212293,0.42736965704679925,1.3071800502150426,0.9739968939807725,0.28626968497913086,0.6991084717789666
0.05,1.7423527112879158,1.0,2838.2932233548545,0.43058166465908004,1.3067318577861429,0.9743420761214499,0.28623181387409247,0.6999858654944562
0.0505,1.7414510183108107,1.0,2842.8894322853216,0.43377565269067464,1.3062836888786555,0.9746780112705957,0.2861939427690541,0.7008619321648053
0.051000000000000004,1.7405493253337054,1.0,2847.484366251956,0.436951722264963,1.3058355644090396,0.9750050337771021,0.28615607166401563,0.7017366311945288
0.051500000000000004,1.7396476323566004,1.0,2852.07566092459,0.44010997450532496,1.3053875052937538,0.9753234629160003,0.2861182005589772,0.7026099222272242
0.052000000000000005,1.7387459393794953,1.0,2856.660944419987,0.4432505105351405,1.3049395324492572,0.9756336037012375,0.2860803294539388,0.7034817651454988
0.0525,1.7378442464023902,1.0,2861.2378373369293,0.44637343147778946,1.3044916667920086,0.9759357476477833,0.2860424583489004,0.7043521200708687
0.053,1.7369425534252851,1.0,2865.8056841706293,0.44947882619842927,1.3040439138797892,0.9762301712729431,0.28600458724386196,0.7052209771449596
0.0535,1.7360408604481798,1.0,2870.3632255015686,0.452566796799135,1.3035962846063636,0.9765171407817786,0.2859667161388235,0.7060883162411093
0.054,1.7351391674710748,1.0,2874.9072636568585,0.4556374590732327,1.3031488069984307,0.9767969133074117,0.28592884503378513,0.7069540842328705
0.0545,1.7342374744939697,1.0,2879.437432685866,0.45869090621304615,1.3027014839351403,0.977069731255496,0.28589097392874674,0.7078182768605358
0.055,1.7333357815168646,1.0,2883.9533657709794,0.4617272314108991,1.3022543182956416,0.977335826801354,0.2858531028237083,0.7086808898968016
0.0555,1.7324340885397596,1.0,2888.4546952373616,0.4647465278591153,1.3018073129590848,0.9775954224070963,0.2858152317186699,0.709541919146738
0.056,1.7315323955626543,1.0,2892.941052562959,0.46774888875001847,1.3013604708046187,0.9778487313084692,0.28577736061363146,0.7104013604477633
0.0565,1.7306307025855492,1.0,2897.4120683891606,0.47073440727593235,1.3009137947113931,0.97809595797344,0.28573948950859307,0.7112592096696095
0.057,1.7297290096084441,1.0,2901.8673725309714,0.47370317662918066,1.3004672875585577,0.9783372985343799,0.2857016184035547,0.7121154627142954
0.0575,1.728827316631339,1.0,2906.3065939877038,0.4766552900020872,1.3000209522252617,0.9785729411955628,0.28566374729851624,0.7129701155160946
0.058,1.7279256236542337,1.0,2910.72936095436,0.4795908405869756,1.2995747915906546,0.9788030666175813,0.2856258761934778,0.7138231640415047
0.0585,1.7270239306771287,1.0,2915.1353008320857,0.4825099215761697,1.299128808533886,0.9790278482801589,0.2855880050884394,0.714674604289215
0.059000000000000004,1.7261222377000236,1.0,2919.5240402395807,0.48541262616199315,1.2986830059341055,0.9792474528247371,0.285550133983401,0.7155244322900738
0.059500000000000004,1.7252205447229185,1.0,2923.8952050247312,0.4882990475367697,1.2982373866704624,0.9794620403781139,0.28551226287836257,0.716372644107057
0.06,1.7243188517458135,1.0,2928.24842027605,0.4911692788928232,1.2977919536221065,0.9796717648583225,0.2854743917733242,0.7172192358352333
0.0605,1.7234171587687082,1.0,2932.583310334407,0.4940234134224773,1.297346709668187,0.9798767742638559,0.28543652066828573,0.7180642036017313
0.061,1.722515465791603,1.0,2936.9007088018,0.4968614880859746,1.2969016470848997,0.980077205989197,0.28539864956324734,0.7189075636424542
0.0615,1.721613772814498,1.0,2941.1997567856774,0.4996836565046116,1.2964567729932495,0.9802732020953625,0.2853607784582089,0.7197493040383577
0.062,1.720712079837393,1.0,2945.480340404454,0.5024900173632376,1.2960120879765873,0.9804648946936725,0.2853229073531705,0.720589425292542
0.0625,1.7198103868602876,1.0,2949.7426059328145,0.5052806543384316,1.2955675903439108,0.9806524097273273,0.28528503624813206,0.7214279322011931
0.063,1.7189086938831826,1.0,2953.9867004399543,0.5080556511067729,1.2951232784042177,0.9808358685016411,0.2852471651430937,0.7222648295406461
0.0635,1.7180070009060775,1.0,2958.212771781867,0.5108150913448403,1.2946791504665058,0.9810153878893777,0.2852092940380553,0.7231001220674057
0.064,1.7171053079289724,1.0,2962.420968594723,0.5135590587292133,1.294235204839773,0.9811910805255354,0.28517142293301684,0.723933814518166
0.0645,1.7162036149518674,1.0,2966.611440288068,0.5162876369364707,1.2937914398330166,0.9813630549921928,0.2851335518279784,0.7247659116098311
0.065,1.715301921974762,1.0,2970.7843370378873,0.5190009096431919,1.2933478537552348,0.9815314159939956,0.28509568072294,0.7255964180395326
0.0655,1.714400228997657,1.0,2974.9398097798617,0.5216989605259558,1.2929044449154248,0.9816962645248185,0.2850578096179016,0.7264253384846522
0.066,1.713498536020552,1.0,2979.0780102026247,0.5243818732613417,1.2924612116225849,0.9818576980261097,0.28501993851286317,0.7272526776028369
0.0665,1.7125968430434468,1.0,2983.199090741524,0.5270497315259286,1.2920181521857124,0.9820158105373865,0.2849820674078248,0.7280784400320222
0.067,1.7116951500663415,1.0,2987.3032045715245,0.5297026189962956,1.2915752649138053,0.9821706928393277,0.28494419630278633,0.7289026303904473
0.0675,1.7107934570892365,1.0,2991.390505601237,0.5323406193490219,1.291132548115861,0.9823224325898721,0.28490632519774794,0.7297252532766768
0.068,1.7098917641121314,1.0,2995.461148465978,0.5349638162606867,1.2906900001008774,0.9824711144537152,0.2848684540927095,0.730546313269617
0.0685,1.7089900711350263,1.0,2999.5152885219613,0.5375722934078689,1.2902476191778525,0.9826168202255665,0.2848305829876711,0.7313658149285343
0.069,1.7080883781579212,1.0,3003.5530818394514,0.5401661344671479,1.2898054036557836,0.9827596289475096,0.28479271188263267,0.7321837627930752
0.0695,1.707186685180816,1.0,3007.5746851971494,0.5427454231151027,1.2893633518436685,0.9828996170207841,0.2847548407775943,0.7330001613832824
0.07,1.7062849922037109,1.0,3011.5802560754037,0.5453102430283122,1.2889214620505052,0.9830368583122956,0.2847169696725559,0.7338150151996126
0.07050000000000001,1.7053832992266058,1.0,3015.5699526503104,0.5478606778833559,1.288479732585291,0.9831714242561285,0.28467909856751744,0.7346283287229559
0.07100000000000001,1.7044816062495007,1.0,3019.543933788086,0.5503968113568126,1.288038161757024,0.9833033839503367,0.284641227462479,0.7354401064146507
0.07150000000000001,1.7035799132723954,1.0,3023.5022646490984,0.55291870974931,1.2875967486898854,0.9834328032652618,0.2846033563574406,0.7362503512213231
