Time [s],Phi [rad],STIM [ ],Fsee [N],Gamma [ ],Lcerel [ ],q [ ],Lmtc [m],fisomrel [ ]
0.0,1.8,1.0,18.683759924428546,0.000863172309697903,1.3792602477861597,0.005191633533236783,0.288653,0.5413318381670303
0.0005,1.79999375,1.0,19.24901233547678,0.006467539904483488,1.3791957870600977,0.015477741413322206,0.2886527375,0.5414877394001054
0.001,1.799975,1.0,23.224951196803598,0.012040471428250807,1.3787771549365657,0.040191921515821606,0.28865195,0.542499575568115
0.0015,1.79994375,1.0,34.10650225467713,0.017582143212844042,1.377793471719879,0.07678495412232113,0.2886506375,0.5448727446614828
0.002,1.7999,1.0,59.42886140966561,0.023092730600166568,1.3759986601681415,0.12198249414838527,0.2886488,0.549186886325773
0.0025,1.79984375,1.0,106.36310601535708,0.028572407950075672,1.3734998365492541,0.17244097536991287,0.28864643749999996,0.555159030923726
0.003,1.7997750000000001,1.0,172.62463616397633,0.03402134864214225,1.3707852952212753,0.2253712198499141,0.28864354999999997,0.5616016098458919
0.0035,1.79969375,1.0,250.6671020818636,0.03943972508498202,1.3681901172223632,0.27864296522539506,0.2886401375,0.5677169565681839
0.004,1.7996,1.0,335.1642671249206,0.04482770871884248,1.3657970824551837,0.3306789688013491,0.2886362,0.5733179032757512
0.0045000000000000005,1.7994937500000001,1.0,423.3755213271971,0.05018547002658094,1.3635944567268345,0.38039534258891594,0.2886317375,0.5784409152982082
0.005,1.799375,1.0,513.7536395112814,0.055513178536342786,1.3615557722853555,0.4271283479786311,0.28862675,0.5831550495125644
0.0055,1.79924375,1.0,605.2195677558794,0.06081100281676079,1.359658625030411,0.4705405315566992,0.2886212375,0.5875180913304663
0.006,1.7991000000000001,1.0,696.9196610234721,0.06607911045694659,1.3578859994125176,0.5105287914270151,0.2886152,0.5915740160220135
0.006500000000000001,1.79894375,1.0,788.1699242723962,0.07131766822877632,1.356224452329589,0.547147147081948,0.2886086375,0.5953575878905752
0.007,1.798775,1.0,878.3756435820992,0.07652684173844389,1.3546637191538518,0.5805482889700693,0.28860155,0.5988955558544572
0.0075,1.79859375,1.0,967.0829315141685,0.08170679606902305,1.3531946771346066,0.6109401810003473,0.2885939375,0.6022114797314445
0.008,1.7984,1.0,1053.8928275648025,0.08685769482994186,1.351810023869886,0.6385574231724294,0.2885858,0.6053243211245862
0.0085,1.79819375,1.0,1138.5074232516404,0.0919797010497152,1.350503018583307,0.6636412913744292,0.2885771375,0.6082513838137438
0.009000000000000001,1.797975,1.0,1220.7069400919972,0.09707297711677784,1.3492675072933689,0.6864277305382659,0.28856795,0.6110083174396573
0.0095,1.79774375,1.0,1300.3029213493496,0.102137683745919,1.3480982905931924,0.7071404802212915,0.2885582375,0.613608354866382
0.01,1.7975,1.0,1377.17232359053,0.10717398111543959,1.3469904227967595,0.7259869477107257,0.288548,0.6160639237478511
0.0105,1.79724375,1.0,1451.2549720098693,0.11218202936946772,1.3459391111986234,0.743156636645545,0.2885372375,0.6183868984155181
0.011,1.796975,1.0,1522.4933106126416,0.11716198641324564,1.3449403451061739,0.7588212947913854,0.28852595000000003,0.6205872395345462
0.0115,1.79669375,1.0,1590.8646710910443,0.12211400948421336,1.343990350924774,0.7731352853172858,0.2885141375,0.6226742298171266
0.012,1.7964,1.0,1656.3812736579528,0.12703825533659668,1.3430855101571146,0.786236674920491,0.28850180000000003,0.6246566732150267
0.0125,1.79609375,1.0,1719.0872467607012,0.13193488071364068,1.3422223289192727,0.7982485711181758,0.2884889375,0.6265429770059603
0.013000000000000001,1.7957750000000001,1.0,1779.0132674947404,0.13680404003108312,1.3413978937934952,0.8092807194494359,0.28847555,0.6283401725553743
0.0135,1.79544375,1.0,1836.199826769546,0.14164588678812048,1.3406095292752827,0.8194307347985355,0.2884616375,0.6300546829300714
0.014,1.7951000000000001,1.0,1890.7136359711674,0.14646057437964835,1.3398545710203733,0.8287853352211102,0.2884472,0.6316928270298408
0.0145,1.79474375,1.0,1942.6343567192055,0.1512482553252497,1.339130482265121,0.8374216137664099,0.2884322375,0.6332605739752117
0.015,1.794375,1.0,1992.0430498706926,0.15600908203975208,1.3384349450545823,0.8454081808359258,0.28841675,0.6347633544831055
0.0155,1.79399375,1.0,2039.0041359495822,0.1607432040483204,1.3377660164231515,0.8528062002762432,0.2884007375,0.6362057338955209
0.016,1.7936,1.0,2083.5978009839337,0.16545077087611948,1.337121753405224,0.8596701473767145,0.2883842,0.6375922301689647
0.0165,1.7931937500000001,1.0,2125.9112198379376,0.17013193135322466,1.336500289550665,0.8660486242742826,0.2883671375,0.6389271528454037
0.017,1.792775,1.0,2166.0375195354236,0.17478683449325988,1.3358998290448851,0.8719850540082358,0.28834955,0.6402146200497989
0.0175,1.7923437500000001,1.0,2204.0706429345814,0.17941562884854975,1.3353186840861282,0.8775183006291376,0.2883314375,0.6414584824704954
0.018000000000000002,1.7919,1.0,2240.0766842996754,0.1840184593034855,1.3347555478403825,0.8826832733992398,0.2883128,0.6426617448663436
0.0185,1.79144375,1.0,2274.1298042800167,0.18859547074245833,1.3342091134736365,0.8875112867163706,0.2882936375,0.6438273867065243
0.019,1.790975,1.0,2306.311563483247,0.19314680804985954,1.3336780741518786,0.8920304759403342,0.28827395,0.6449583636170071
0.0195,1.79049375,1.0,2336.7079052418844,0.1976726157510659,1.3331611465072348,0.8962661669748195,0.2882537375,0.6460575588583699
0.02,1.79,1.0,2365.398120041811,0.20217303701005215,1.3326571719092672,0.9002412174554169,0.288233,0.6471275700807659
0.0205,1.78949375,1.0,2392.4692870688264,0.20664821631603222,1.3321649674344755,0.9039762603373622,0.2882117375,0.6481710280907329
0.021,1.788975,1.0,2417.982340465332,0.21109829358890156,1.3316836497503666,0.9074900171762457,0.28818995000000003,0.6491899122712887
0.021500000000000002,1.78844375,1.0,2442.002034057047,0.21552340874855558,1.3312123355244483,0.9107994440409182,0.2881676375,0.6501861887641591
0.022,1.7879,1.0,2464.5966262280904,0.21992370171488965,1.3307501414242275,0.9139199223496669,0.2881448,0.6511618110582063
0.0225,1.78734375,1.0,2485.8375820955043,0.22429931240779924,1.330296184117212,0.9168654268948737,0.28812143749999997,0.6521187205280892
0.023,1.786775,1.0,2505.784590394387,0.22865037780323805,1.3298497197498702,0.9196486991728523,0.28809755,0.6530585535106253
0.0235,1.78619375,1.0,2524.5165945618655,0.2329770398340204,1.3294098455783359,0.922281323203433,0.28807313749999996,0.6539832705231408
0.024,1.7856,1.0,2542.083996687395,0.23727943378193841,1.3289759509134491,0.9247739208471818,0.2880482,0.6548942082927038
0.0245,1.78499375,1.0,2558.53639163901,0.24155769434565416,1.328547449814339,0.9271362032574701,0.2880227375,0.6557926441980051
0.025,1.784375,1.0,2573.925018180792,0.24581195622382976,1.3281237563401354,0.9293770576947946,0.28799675,0.6566798486136464
0.025500000000000002,1.78374375,1.0,2588.302619372956,0.25004235411512726,1.3277042845499678,0.931504628669698,0.2879702375,0.6575570851007453
0.026000000000000002,1.7831000000000001,1.0,2601.723310583852,0.2542490227182088,1.3272884485029655,0.9335263901046181,0.2879432,0.6584256105756433
0.0265,1.78244375,1.0,2614.2313813408814,0.2584320930528775,1.3268757651097274,0.9354492242493703,0.2879156375,0.6592864610456963
0.027,1.781775,1.0,2625.886947045924,0.26259170264184495,1.3264656141873994,0.9372794445998289,0.28788755,0.6601409526570283
0.0275,1.7810937500000001,1.0,2636.72968406269,0.26672798210463566,1.3260575744058023,0.9390228943419758,0.2878589375,0.6609899814177447
0.028,1.7804,1.0,2646.7954816966676,0.2708410604734951,1.3256512666845077,0.9406849680735039,0.2878298,0.6618343511057897
0.0285,1.77969375,1.0,2656.1209166296744,0.27493106678066853,1.3252463119430868,0.9422706469792081,0.2878001375,0.6626748615032534
0.029,1.778975,1.0,2664.7431925090727,0.2789981300584015,1.324842331101111,0.9437845358884536,0.28776995,0.6635123084336612
0.029500000000000002,1.7782437500000001,1.0,2672.7000827226816,0.28304237933893933,1.3244389450781522,0.9452308965662259,0.2877392375,0.6643474837901013
0.03,1.7775,1.0,2680.029876360071,0.2870639436545275,1.3240357747937814,0.9466136776615965,0.287708,0.6651811755541893
0.0305,1.77674375,1.0,2686.757114413502,0.29106294554688844,1.3236325713812844,0.9479365564577653,0.2876762375,0.6660138990469957
0.031,1.775975,1.0,2692.932517770913,0.2950395205436447,1.3232288496183702,0.9492029213428591,0.28764395,0.6668466542550544
0.0315,1.7751937500000001,1.0,2698.584713802011,0.298993793944289,1.3228243301792584,0.950415944270585,0.2876111375,0.6676800122586517
0.032,1.7744,1.0,2703.736888571144,0.3029258883725809,1.322418786086072,0.9515785818933717,0.2875778,0.6685144336058153
0.0325,1.77359375,1.0,2708.4124696736103,0.30683592645228,1.3220119903609346,0.9526935876417133,0.2875439375,0.6693503764789202
0.033,1.772775,1.0,2712.6351035539587,0.31072403080714583,1.3216037160259693,0.9537635281548934,0.28750955,0.6701882966782134
0.0335,1.7719437500000002,1.0,2716.42863396736,0.314590324060938,1.321193736103299,0.9547907981958245,0.2874746375,0.6710286476020545
0.034,1.7711000000000001,1.0,2719.817081582314,0.3184349288374161,1.3207818236150475,0.9557776342059618,0.2874392,0.6718718802238666
0.0345,1.7702437500000001,1.0,2722.8246247265574,0.3222579677603396,1.3203677515833376,0.9567261266386651,0.2874032375,0.6727184430658064
0.035,1.7693750000000001,1.0,2725.475581274442,0.32605956345346815,1.319951293030293,0.9576382311939381,0.28736675,0.6735687821691441
0.035500000000000004,1.76849375,1.0,2727.78893550939,0.32983982973198067,1.3195322705880679,0.9585157821706672,0.2873297375,0.6744232399643935
0.036000000000000004,1.7676,1.0,2729.793764592278,0.3335988980057795,1.3191104160506626,0.9593604932884745,0.2872922,0.6752823417346079
0.0365,1.76669375,1.0,2731.5042352963897,0.3373368842422742,1.3186855975959608,0.9601739820672229,0.2872541375,0.6761463325411522
0.037,1.765775,1.0,2732.9345748715405,0.3410539043996369,1.3182576834665163,0.9609577667109244,0.28721555,0.6770154557223429
0.0375,1.76484375,1.0,2734.0990705141453,0.34475007443603967,1.3178265419048816,0.9617132733077973,0.2871764375,0.6778899529999507
0.038,1.7639,1.0,2735.0120621110987,0.3484255103096546,1.31739204115361,0.962441842435742,0.28713679999999997,0.6787700644526313
0.0385,1.76294375,1.0,2735.6879353701297,0.3520803279786537,1.3169540494552545,0.9631447352244381,0.28709663750000003,0.6796560284882528
0.039,1.761975,1.0,2736.141115333603,0.35571464340120923,1.3165124350523685,0.9638231389241879,0.28705595,0.6805480818151155
0.0395,1.7609937500000001,1.0,2736.3860602787045,0.35932857253549316,1.3160670661875047,0.964478172026536,0.2870147375,0.6814464594120648
0.04,1.76,1.0,2736.4372560011725,0.36292223133967766,1.3156178111032166,0.9651108889771519,0.286973,0.6823513944974945
0.0405,1.7589937500000001,1.0,2736.2737075233686,0.3664957312852758,1.315164860349833,0.965722312035104,0.2869307375,0.6832624706654028
0.041,1.757975,1.0,2735.98720879297,0.37004918979455403,1.3147073807126222,0.9663133185341974,0.28688795,0.6841813282047216
0.0415,1.756944149833704,1.0,2735.5718196196094,0.37358271750114985,1.314245606871089,0.9668848274302534,0.28684465429301553,0.6851074571499394
0.042,1.7559098114539524,1.0,2735.4264440672596,0.377096424788911,1.3137798062715647,0.9674377097993063,0.286801212081066,0.6860402843628168
0.0425,1.7548754730742009,1.0,2735.6951086287295,0.38059042204168525,1.3133102463603803,0.9679727892765675,0.28675776986911644,0.6869792395586665
0.043000000000000003,1.7538411346944494,1.0,2736.348414069867,0.3840648196433205,1.3128371945838673,0.9684908451281414,0.28671432765716687,0.6879237553727537
0.043500000000000004,1.7528067963146978,1.0,2737.357032490115,0.38751972797766454,1.3123609183883564,0.9689926150944534,0.2866708854452173,0.6888732674221382
0.044,1.7517724579349463,1.0,2738.6924472926885,0.39095525712675017,1.3118816783247298,0.969478797436087,0.2866274432332677,0.6898272280782838
0.0445,1.7507381195551948,1.0,2740.3304310404747,0.3943715143102881,1.311399696342569,0.9699500505846754,0.2865840010213182,0.6907851693805991
0.045,1.7497037811754432,1.0,2742.2333706382096,0.39776861192185486,1.3109153159927298,0.9704070090747192,0.28654055880936863,0.6917463848250669
0.0455,1.748669442795692,1.0,2744.3830533300115,0.4011466555547359,1.3104287048684335,0.9708502607745232,0.28649711659741905,0.6927105203880963
0.046,1.7476351044159404,1.0,2746.761272210672,0.40450575080221657,1.309940030562901,0.9712803639142472,0.2864536743854695,0.6936772240263649
0.0465,1.7466007660361889,1.0,2749.349818248326,0.40784600325758247,1.3094494606693532,0.9716978488682223,0.2864102321735199,0.6946461456997655
0.047,1.7455664276564373,1.0,2752.130472929299,0.411167518514119,1.308957162781011,0.9721032198138837,0.2863667899615704,0.6956169373925634
0.0475,1.7445320892766858,1.0,2755.0850015256333,0.4144704021651115,1.3084633044910956,0.9724969562769434,0.2863233477496208,0.6965892531327603
0.048,1.7434977508969343,1.0,2758.1962779378546,0.41775475903660275,1.3079680431665184,0.9728795137553186,0.28627990553767124,0.6975627690949793
0.0485,1.7424634125171827,1.0,2761.4505416109046,0.42102069272404813,1.307471505532897,0.9732513236441139,0.28623646332572167,0.6985372234863959
0.049,1.7414290741374312,1.0,2764.8309009429904,0.42426830967873574,1.3069738463995129,0.9736127991582034,0.2861930211137721,0.6995123011055111
0.0495,1.74039473575768,1.0,2768.327957739071,0.42749771091129485,1.306475152647229,0.973964328853703,0.2861495789018226,0.7004878214600055
0.05,1.7393603973779284,1.0,2771.9322970114713,0.43070899743235475,1.3059755111569078,0.9743062832436866,0.286106136689873,0.7014636051411639
0.0505,1.7383260589981768,1.0,2775.6344850714536,0.4339022702525448,1.305475008809412,0.9746390158003757,0.28606269447792343,0.7024394738293676
0.051000000000000004,1.7372917206184253,1.0,2779.4250677865966,0.43707763038249414,1.3049737324856043,0.9749628638930721,0.28601925226597386,0.7034152502991041
0.051500000000000004,1.7362573822386738,1.0,2783.294569006448,0.4402351788328322,1.3044717690663474,0.9752781496664924,0.2859758100540243,0.7043907584234975
0.052000000000000005,1.7352230438589222,1.0,2787.2364845136353,0.44337501214031927,1.3039691784892937,0.9755851786686502,0.28593236784207476,0.7053658754098977
0.0525,1.7341887054791707,1.0,2791.243450814828,0.44649722962090904,1.3034660282713268,0.9758842437024905,0.28588892563012513,0.7063404645574818
0.053,1.7331543670994192,1.0,2795.3016344991483,0.44960194160565814,1.3029624438686311,0.9761756294705115,0.2858454834181756,0.7073142780776356
0.0535,1.7321200287196676,1.0,2799.4072007115315,0.45268924327092824,1.302458460645758,0.9764596011853871,0.28580204120622604,0.7082872435707858
0.054,1.7310856903399163,1.0,2803.5563041589667,0.45575922979308087,1.3019541139672595,0.9767364126560604,0.28575859899427647,0.7092592890887988
0.0545,1.7300513519601648,1.0,2807.7450888115513,0.45881199634847775,1.3014494391976867,0.9770063068753799,0.28571515678232695,0.7102303431358423
0.055,1.7290170135804133,1.0,2811.969687630975,0.4618476381134804,1.300944471701592,0.9772695165727064,0.2856717145703773,0.7112003346691633
0.0555,1.7279826752006617,1.0,2816.2262223280336,0.4648662502644505,1.3004392468435266,0.9775262647338512,0.2856282723584278,0.7121691930997911
0.056,1.7269483368209102,1.0,2820.510803145904,0.46786792797774956,1.2999337999880423,0.977776765090534,0.28558483014647823,0.7131368482931539
0.0565,1.7259139984411587,1.0,2824.81952867288,0.47085276642973933,1.2994281664996907,0.9780212225813808,0.28554138793452866,0.7141032305696221
0.057,1.7248796600614071,1.0,2829.148485682075,0.4738208607967814,1.2989223817430235,0.9782598337863395,0.2854979457225791,0.7150682707049685
0.0575,1.7238453216816556,1.0,2833.493748998846,0.4767723062552373,1.2984164810825922,0.9784927873362463,0.2854545035106295,0.716031899930749
0.058,1.7228109833019043,1.0,2837.851381396089,0.4797071979814687,1.297910499882949,0.9787202642991529,0.28541106129868,0.716994049934603
0.0585,1.7217766449221528,1.0,2842.2231985931717,0.4826256083262603,1.297404422155913,0.9789424337594633,0.2853676190867304,0.7179547502618226
0.059000000000000004,1.7207423065424012,1.0,2846.600991418173,0.48552765927988145,1.2968983211914222,0.9791594672338163,0.28532417687478084,0.7189138612044487
0.059500000000000004,1.7197079681626497,1.0,2850.9829627654235,0.48841344206814213,1.2963922130262564,0.9793715238351773,0.28528073466283127,0.7198713522238465
0.06,1.7186736297828982,1.0,2855.368062218436,0.49128304453253047,1.2958861070120864,0.9795787558813025,0.2852372924508817,0.7208272056034188
0.0605,1.7176392914031466,1.0,2859.7552361274516,0.49413655451453486,1.2953800125005832,0.9797813098461385,0.2851938502389322,0.7217814037473065
0.061,1.716604953023395,1.0,2864.1434276108184,0.49697405985564336,1.2948739388434176,0.9799793266293381,0.2851504080269826,0.722733929180384
0.0615,1.7155706146436436,1.0,2868.5315765586515,0.4997956483973443,1.2943678953922606,0.9801729418113537,0.28510696581503303,0.7236847645482498
0.062,1.714536276263892,1.0,2872.91861963799,0.5026014079811258,1.293861891498783,0.9803622858949981,0.28506352360308346,0.7246338926172116
0.0625,1.7135019378841407,1.0,2877.3034902998616,0.5053914264484762,1.2933559365146556,0.9805474845342734,0.2850200813911339,0.7255812962742645
0.063,1.7124675995043892,1.0,2881.6851187887905,0.5081657916408836,1.2928500397915497,0.9807286587512419,0.28497663917918437,0.7265269585270656
0.0635,1.7114332611246377,1.0,2886.0624321533705,0.5109245913998364,1.2923442106811356,0.9809059251416382,0.2849331969672348,0.7274708625039025
0.064,1.7103989227448861,1.0,2890.434354259918,0.5136679135668226,1.2918384585350848,0.9810793960698925,0.2848897547552852,0.728412991453653
0.0645,1.7093645843651346,1.0,2894.7998058071253,0.5163958459833307,1.291332792705068,0.9812491798541826,0.28484631254333564,0.7293533287457459
0.065,1.708330245985383,1.0,2899.157704343123,0.5191084764908486,1.2908272225427557,0.981415380942091,0.28480287033138607,0.7302918578701099
0.0655,1.7072959076056315,1.0,2903.5069642842104,0.5218058929308647,1.2903217573998194,0.981578100077413,0.28475942811943655,0.7312285624371188
0.066,1.7062615692258802,1.0,2907.847650577405,0.5244881616405896,1.2898163964684237,0.981737432502656,0.284715985907487,0.7321634449555403
0.0665,1.7052272308461287,1.0,2912.1796246475765,0.5271553668275248,1.2893111407347624,0.9818934714465862,0.2846725436955374,0.7330965046133626
0.067,1.7041928924663772,1.0,2916.500660034163,0.5298076316005369,1.2888060095423262,0.9820463103617518,0.28462910148358783,0.7340277067992278
0.0675,1.7031585540866256,1.0,2920.810644156608,0.5324450351830616,1.2883010036036744,0.9821960356924064,0.28458565927163826,0.7349570514066139
0.068,1.702124215706874,1.0,2925.1094642987964,0.535067656798535,1.2877961236313664,0.9823427309398622,0.28454221705968874,0.7358845383378803
0.0685,1.7010898773271226,1.0,2929.3970076110068,0.5376755756703926,1.287291370337962,0.9824864767833221,0.2844987748477391,0.73681016750426
0.069,1.700055538947371,1.0,2933.673161112482,0.5402688710220707,1.2867867444360204,0.9826273511949472,0.2844553326357896,0.737733938825857
0.0695,1.6990212005676195,1.0,2937.93781169252,0.5428476220770048,1.2862822466381008,0.9827654295494744,0.28441189042384,0.738655852231638
0.07,1.697986862187868,1.0,2942.190846113138,0.5454119080586309,1.285777877656763,0.9829007847286743,0.28436844821189045,0.7395759076594266
0.07050000000000001,1.6969525238081165,1.0,2946.4321510111354,0.5479618081903851,1.285273638204566,0.9830334872209279,0.28432500599994087,0.7404941050559005
0.07100000000000001,1.6959181854283651,1.0,2950.6616128995565,0.5504974016957029,1.2847695289940697,0.9831636052161818,0.2842815637879913,0.7414104443765807
0.07150000000000001,1.6948838470486136,1.0,2954.8791181705265,0.5530187677980204,1.284265550737833,0.9832912046965229,0.2842381215760418,0.7423249255858304
0.07200000000000001,1.693849508668862,1.0,2959.084553096494,0.5555259857207733,1.2837617041484157,0.9834163495226057,0.2841946793640922,0.7432375486568463
