Time [s],Phi [rad],STIM [ ],Fsee [N],Gamma [ ],Lcerel [ ],q [ ],Lmtc [m],fisomrel [ ]
0.0,1.8,1.0,17.96749527390087,1.2827901278118493e-05,1.3793397084527166,0.005000043770729982,0.288653,0.5411396224203061
0.0005,1.79999375,1.0,18.277748803582046,0.005621965255692032,1.3793022761931437,0.012948366541266937,0.2886527375,0.5412301762586101
0.001,1.799975,1.0,21.621457281642147,0.011199639784456,1.3789379879849513,0.035623313523585574,0.28865195,0.5421109734117249
0.0015,1.79994375,1.0,31.076691539596382,0.016746027970008792,1.3780455685810675,0.0706218776708153,0.2886506375,0.5442651405491625
0.002,1.7999,1.0,53.598513220546806,0.022261305303133923,1.3763670856340275,0.11474172771695909,0.2886488,0.5483029874086371
0.0025,1.79984375,1.0,97.14607066638521,0.027745646290541784,1.3739338598753983,0.16460066646084417,0.28864643749999996,0.554124580480504
0.003,1.7997750000000001,1.0,160.9936418995934,0.033199224462562175,1.3712130159634703,0.2173070439480883,0.28864354999999997,0.5605895943217613
0.0035,1.79969375,1.0,237.72350408743128,0.03862221237275495,1.368583496864798,0.2706393357182751,0.2886401375,0.5667927482108335
0.004,1.7996,1.0,321.509583059853,0.044014781608687346,1.3661549585149486,0.3229414103656964,0.2886362,0.5724826095501157
0.0045000000000000005,1.7994937500000001,1.0,409.3121534765607,0.04937710279711993,1.363921771894529,0.3730588176317411,0.2886317375,0.5776815814449824
0.005,1.799375,1.0,499.4588532200572,0.05470934559510064,1.3618573787050932,0.42027020550169214,0.28862675,0.582459303178185
0.0055,1.79924375,1.0,590.8362176645867,0.060011678737331736,1.359937940224116,0.4641947571380433,0.2886212375,0.586877165775576
0.006,1.7991000000000001,1.0,682.5640018843092,0.06528426997958266,1.3581455805387255,0.504699315931368,0.2886152,0.5909813237901126
0.006500000000000001,1.79894375,1.0,773.9293415325693,0.0705272861557052,1.3564664328102043,0.5418184307916944,0.2886086375,0.5948076603302554
0.007,1.798775,1.0,864.3332177612717,0.07574089314997762,1.3548896292390582,0.5756928864724439,0.28860155,0.5983844102632774
0.0075,1.79859375,1.0,953.2891888472104,0.08092525593984055,1.3534060720807048,0.6065245712219736,0.2885939375,0.601735166506657
0.008,1.7984,1.0,1040.3817528876566,0.08608053800789539,1.3520083033260477,0.6345455649229668,0.2885858,0.6048793188441237
0.0085,1.79819375,1.0,1125.356725671461,0.09120690395668289,1.3506886398865154,0.6599965477393175,0.2885771375,0.6078363451994448
0.009000000000000001,1.797975,1.0,1207.9407801815862,0.096304515141656,1.3494414803099628,0.6831152086233843,0.28856795,0.6106207010165239
0.0095,1.79774375,1.0,1287.9283590764176,0.1013735322269759,1.3482616454011973,0.7041275199391289,0.2885582375,0.6132456197144475
0.01,1.7975,1.0,1365.2004521109034,0.10641411587680383,1.347143955965027,0.7232433815054693,0.288548,0.615724087490279
0.0105,1.79724375,1.0,1439.696643726234,0.11142642613331555,1.3460834814981006,0.7406549758352893,0.2885372375,0.6180683157976845
0.011,1.796975,1.0,1511.3528960027102,0.1164106212922523,1.3450761788532828,0.7565367509810631,0.28852595000000003,0.6202883634821976
0.0115,1.79669375,1.0,1580.1473121326776,0.12136685891249481,1.344118168869887,0.7710455986263215,0.2885141375,0.6223937686659307
0.012,1.7964,1.0,1646.0971931930678,0.1262952963522396,1.343205694632215,0.7843219168313064,0.28850180000000003,0.6243936580740395
0.0125,1.79609375,1.0,1709.2101858622289,0.13119608890780196,1.342335618850003,0.7964911450410272,0.2884889375,0.6262956762327341
0.013000000000000001,1.7957750000000001,1.0,1769.5272415744273,0.13606939167838839,1.341504839212701,0.8076649056549862,0.28847555,0.6281072856961329
0.0135,1.79544375,1.0,1827.111343319132,0.14091535932425667,1.3407103749383096,0.8179424510048076,0.2884616375,0.6298355880401675
0.014,1.7951000000000001,1.0,1882.0203372746762,0.1457341451035025,1.3399496225641132,0.8274120940334738,0.2884472,0.6314867797146588
0.0145,1.79474375,1.0,1934.3164826369566,0.15052590101587393,1.3392201982482042,0.8361523719021209,0.2884322375,0.6330665086111259
0.015,1.794375,1.0,1984.0773631858742,0.15529077889048948,1.3385197841540433,0.8442331166397807,0.28841675,0.6345802159958545
0.0155,1.79399375,1.0,2031.3890715516159,0.16002892983471084,1.3378461764702725,0.8517164878444716,0.2884007375,0.6360330390446987
0.016,1.7936,1.0,2076.3298042948472,0.16474050339977486,1.3371974322294418,0.8586579216951402,0.2883842,0.637429501587599
0.0165,1.7931937500000001,1.0,2118.978564474738,0.16942564853250733,1.3365717505232166,0.8651068875699373,0.2883671375,0.638773777900949
0.017,1.792775,1.0,2159.424183185347,0.17408451402010275,1.3359673606198519,0.8711075602680215,0.28834955,0.6400699381317934
0.0175,1.7923437500000001,1.0,2197.7480499440057,0.17871724705524428,1.3353826843313812,0.8766994895327487,0.2883314375,0.6413216041156796
0.018000000000000002,1.7919,1.0,2234.031029553284,0.18332399382852704,1.334816248386618,0.8819181175852951,0.2883128,0.6425321422713985
0.0185,1.79144375,1.0,2268.352254265919,0.18790489935313237,1.3342666839160735,0.8867952569528719,0.2882936375,0.6437046684430862
0.019,1.790975,1.0,2300.8090427565285,0.1924601107064885,1.3337325180671846,0.8913594597962283,0.28827395,0.6448424948486489
0.0195,1.79049375,1.0,2331.479920375253,0.19698977208592353,1.3332125346124812,0.8956364768348364,0.2882537375,0.6459483634474681
0.02,1.79,1.0,2360.4303837791545,0.20149402540958083,1.3327057032163514,0.8996495561387889,0.288233,0.647024601553932
0.0205,1.78949375,1.0,2387.730961750181,0.20597301259560374,1.3322109935431827,0.903419681481194,0.2882117375,0.64807351967172
0.021,1.788975,1.0,2413.456797558298,0.21042687556213557,1.3317273752573635,0.9069658236810618,0.28818995000000003,0.649097412324172
0.021500000000000002,1.78844375,1.0,2437.682981565483,0.21485575538173057,1.3312538591251493,0.9103051695082388,0.2881676375,0.6500984719856371
0.022,1.7879,1.0,2460.482276555535,0.21925979291747127,1.3307895142891129,0.9134533185722267,0.2881448,0.6510787539425154
0.0225,1.78734375,1.0,2481.9274204611315,0.22363912923032944,1.330333441864954,0.9164244473961125,0.28812143749999997,0.6520402333726183
0.023,1.786775,1.0,2502.073366928705,0.2279939011467836,1.3298849400871189,0.9192314886107448,0.28809755,0.6529844588766518
0.0235,1.78619375,1.0,2520.9774662980235,0.23232424549331235,1.3294433071900533,0.9218862244261278,0.28807313749999996,0.653912969858674
0.024,1.7856,1.0,2538.6992654341157,0.23663029909639421,1.3290078414082032,0.9243994048560843,0.2880482,0.6548272968492177
0.0245,1.78499375,1.0,2555.3003184782892,0.24091219878250777,1.3285778409760147,0.9267808523698954,0.2880227375,0.655728961797005
0.025,1.784375,1.0,2570.8325881015962,0.24517007870449303,1.3281527110905291,0.9290395717889859,0.28799675,0.6566192544768359
0.025500000000000002,1.78374375,1.0,2585.3595187325454,0.24940407723151484,1.3277317640277173,0.9311838002071964,0.2879702375,0.6574996519364815
0.026000000000000002,1.7831000000000001,1.0,2598.931358183849,0.2536143285770613,1.3273144489845914,0.9332211156905327,0.2879432,0.6583713376464073
0.0265,1.78244375,1.0,2611.5887678907934,0.25780096405177844,1.3269003155226644,0.93515849470412,0.2879156375,0.6592352796912706
0.027,1.781775,1.0,2623.3734160258177,0.26196411496631244,1.3264889132034483,0.9370023543796976,0.28788755,0.660092441183773
0.0275,1.7810937500000001,1.0,2634.3278915958276,0.26610391263130945,1.326079791588456,0.9387586048103053,0.2878589375,0.6609437803495828
0.028,1.7804,1.0,2644.495623037925,0.2702204883574154,1.3256725002392,0.9404326958206175,0.2878298,0.6617902505993248
0.0285,1.77969375,1.0,2653.9208013142675,0.27431397345527647,1.3252665887171928,0.9420296588563868,0.2878001375,0.6626328005876293
0.029,1.778975,1.0,2662.639088097416,0.27838449469216264,1.3248616914304299,0.9435541547429954,0.28776995,0.6634721984724496
0.029500000000000002,1.7782437500000001,1.0,2670.6995979566886,0.28243218707979084,1.3244573243711795,0.9450104831488302,0.2877392375,0.6643094536412475
0.03,1.7775,1.0,2678.133196994524,0.2864571773216736,1.3240531763600047,0.9464026475133066,0.287708,0.6651452133003561
0.0305,1.77674375,1.0,2684.9686119596226,0.2904595908463357,1.3236489597228618,0.9477343630820126,0.2876762375,0.6659800729282825
0.031,1.775975,1.0,2691.2349436675618,0.294439553082302,1.3232443867857067,0.9490090788367719,0.28764395,0.6668146250367745
0.0315,1.7751937500000001,1.0,2696.9616323501646,0.29839718945809723,1.3228391698744948,0.950229999899139,0.2876111375,0.6676494591669232
0.032,1.7744,1.0,2702.1784248394474,0.3023326254022462,1.3224330213151825,0.9514001077874662,0.2875778,0.6684851618799843
0.0325,1.77359375,1.0,2706.9153435870144,0.30624598634327366,1.3220256534337256,0.9525221787563105,0.2875439375,0.6693223167429275
0.033,1.772775,1.0,2711.1942536813135,0.31013739257909817,1.3216168552011645,0.953598807927049,0.28750955,0.6701613470998509
0.0335,1.7719437500000002,1.0,2715.0456014443407,0.31400697111122683,1.321206339160591,0.9546324094008101,0.2874746375,0.6710028306219751
0.034,1.7711000000000001,1.0,2718.502705904306,0.3178548506594538,1.3207937934874885,0.9556252351275442,0.2874392,0.6718473917726613
0.0345,1.7702437500000001,1.0,2721.5832412973123,0.32168114989223134,1.3203790504008968,0.9565794030645588,0.2874032375,0.6726953573476393
0.035,1.7693750000000001,1.0,2724.3050052897515,0.3254859874780114,1.3199619421198556,0.9574968943491493,0.28736675,0.6735470522796243
0.035500000000000004,1.76849375,1.0,2726.6859064650334,0.32926948208524615,1.3195423008634046,0.9583795637215373,0.2873297375,0.6744027996139075
0.036000000000000004,1.7676,1.0,2728.7439524340894,0.33303175238238764,1.3191199588505838,0.9592291490392184,0.2872922,0.6752629204821484
0.0365,1.76669375,1.0,2730.4972385705037,0.336772917037888,1.3186947483004328,0.9600472799713109,0.2872541375,0.6761277340743744
0.037,1.765775,1.0,2731.9639373691966,0.34049309472019923,1.3182665014319914,0.9608354859519965,0.28721555,0.6769975576091843
0.0375,1.76484375,1.0,2733.1622884299973,0.3441924040977735,1.3178350504642995,0.9615952034637465,0.2871764375,0.6778727063021562
0.038,1.7639,1.0,2734.110589064569,0.34787096383906296,1.3174002276163967,0.9623277827136127,0.28713679999999997,0.6787534933324603
0.0385,1.76294375,1.0,2734.8059973115724,0.3515288907010101,1.316962057512909,0.963034511535863,0.28709663750000003,0.6796398408711203
0.039,1.761975,1.0,2735.3028529285702,0.35516630096375745,1.3165200458712716,0.9637165537958197,0.28705595,0.6805327186277046
0.0395,1.7609943761776523,1.0,2735.6328345874854,0.3587833091733254,1.316074187364924,0.9643750504412605,0.2870147637994614,0.6814321048520502
0.04,1.7600108327470385,1.0,2736.214041786693,0.362380028617615,1.3156247297122947,0.9650110993060139,0.28697345497537563,0.6823374680932427
0.0405,1.7590272893164247,1.0,2737.164524840628,0.3659565725845271,1.315171920631812,0.9656257356439858,0.2869321461512898,0.6832482794810422
0.041,1.758043745885811,1.0,2738.4571784540517,0.36951305436196263,1.3147160078419042,0.9662199363602851,0.28689083732720405,0.684164012780786
0.0415,1.7570602024551971,1.0,2740.065511678379,0.3730495870150477,1.3142572338672165,0.9667946234332095,0.2868495285031183,0.6850841548537169
0.042,1.7560766590245833,1.0,2741.963318882881,0.3765662820844075,1.3137958388831148,0.9673506675790896,0.2868082196790325,0.6860081999350838
0.0425,1.7550931155939695,1.0,2744.118273868917,0.3800632529935903,1.3133321186585012,0.9678888969685794,0.2867669108549467,0.6869355338551497
0.043000000000000003,1.7541095721633557,1.0,2746.5111724282033,0.3835406089541906,1.3128662499489911,0.9684100847382349,0.28672560203086095,0.6878657832999215
0.043500000000000004,1.753126028732742,1.0,2749.1228088115963,0.38699845917780296,1.3123984095102001,0.9689149628616471,0.28668429320677513,0.6887985769626828
0.044,1.7521424853021281,1.0,2751.933967655494,0.3904369128760218,1.3119287740977432,0.9694042247569551,0.28664298438268937,0.6897335455672164
0.0445,1.7511589418715143,1.0,2754.9254166010314,0.3938560792604417,1.3114575204672358,0.9698785277044579,0.2866016755586036,0.690670321889035
0.045,1.7501753984409003,1.0,2758.0848042894454,0.397256062774194,1.310984762939366,0.9703384896178453,0.2865603667345178,0.6916086646031451
0.0455,1.7491918550102865,1.0,2761.3885834044386,0.40063697702841533,1.3105107168937071,0.9707847058611297,0.28651905791043203,0.6925481335910589
0.046,1.7482083115796727,1.0,2764.8201052984464,0.4039989313096488,1.3100355350018944,0.9712177364215293,0.28647774908634627,0.6934884152936516
0.0465,1.747224768149059,1.0,2768.3701705357253,0.4073420296017335,1.3095593024080436,0.9716381076318132,0.28643644026226045,0.6944293312903234
0.047,1.7462412247184451,1.0,2772.029563234003,0.4106663758885085,1.309082104256271,0.9720463198460448,0.2863951314381747,0.6953707041725625
0.0475,1.7452576812878313,1.0,2775.789049160931,0.41397207415381304,1.3086040256906923,0.9724428489691657,0.2863538226140889,0.6963123575494212
0.048,1.7442741378572175,1.0,2779.639373991857,0.4172592283814862,1.308125151855424,0.9728281478827573,0.2863125137900031,0.6972541160525252
0.0485,1.7432905944266037,1.0,2783.571261728605,0.42052794255536713,1.3076455678945818,0.9732026477749295,0.28627120496591735,0.698195805340626
0.049,1.74230705099599,1.0,2787.5754132778197,0.42377832065929494,1.3071653589522818,0.9735667593816053,0.2862298961418316,0.6991372521036858
0.0495,1.7413235075653761,1.0,2791.642505191243,0.4270104666771087,1.30668461017264,0.9739208741458653,0.28618858731774577,0.7000782840665047
0.05,1.7403399641347623,1.0,2795.7667311022533,0.43022447878500747,1.3062033748833524,0.9742653624969227,0.28614727849366,0.7010187921238685
0.0505,1.7393564207041485,1.0,2799.9410931135953,0.43342046056313155,1.305721716963512,0.9746005791397327,0.28610596966957424,0.7019586472477113
0.051000000000000004,1.7383728772735347,1.0,2804.154455452075,0.4365985231915947,1.3052397372212947,0.9749268658567412,0.2860646608454884,0.7028976493018972
0.051500000000000004,1.7373893338429207,1.0,2808.4034996055625,0.43975876410132864,1.3047574661190096,0.9752445429060518,0.28602335202140267,0.7038357361119922
0.052000000000000005,1.736405790412307,1.0,2812.6848973774804,0.4429012807232652,1.304274934118965,0.9755539162363422,0.2859820431973169,0.7047728458765928
0.0525,1.7354222469816931,1.0,2816.995310700403,0.4460261704883361,1.3037921716834704,0.9758552782518357,0.2859407343732311,0.7057089171678599
0.053,1.7344387035510793,1.0,2821.331391470406,0.44913353082747326,1.3033092092748342,0.976148908529995,0.2858994255491453,0.7066438889319989
0.0535,1.7334551601204655,1.0,2825.6897814012123,0.4522234591716084,1.3028260773553653,0.9764350744952375,0.28585811672505956,0.7075777004896758
0.054,1.7324716166898517,1.0,2830.067111899756,0.45529605295167336,1.3023428063873725,0.9767140320517261,0.28581680790097375,0.7085102915363768
0.0545,1.731488073259238,1.0,2834.4600039621164,0.45835140959859993,1.3018594268331647,0.9769860261780418,0.285775499076888,0.7094416021427082
0.055,1.7305045298286241,1.0,2838.8650680893884,0.4613896265433199,1.3013759691550508,0.9772512914863415,0.2857341902528022,0.710371572754636
0.0555,1.7295209863980103,1.0,2843.278904225067,0.46441080121676503,1.3008924638153396,0.9775100527484001,0.2856928814287164,0.7113001441936688
0.056,1.7285374429673965,1.0,2847.6981017125368,0.46741503104986715,1.30040894127634,0.977762525390755,0.28565157260463064,0.7122272576569787
0.0565,1.7275538995367827,1.0,2852.1237442875326,0.4704023935599721,1.29992539194141,0.978008911837014,0.2856102637805449,0.7131529313418099
0.057,1.726570356106169,1.0,2856.549616317522,0.4733730084897014,1.2994418710999107,0.9782494137737929,0.28556895495645906,0.7140770594138535
0.0575,1.7255868126755551,1.0,2860.974101903266,0.47632696984867945,1.2989583930321043,0.9784842200800191,0.2855276461323733,0.714999614909636
0.058,1.7246032692449413,1.0,2865.3963410337715,0.4792643677443927,1.2984749652683556,0.9787135113409885,0.28548633730828754,0.7159205838904781
0.0585,1.7236197258143275,1.0,2869.815471092132,0.48218529228432755,1.2979915953390309,0.9789374609658916,0.2854450284842017,0.7168399525105207
0.059000000000000004,1.7226361823837135,1.0,2874.2306268650273,0.4850898335759704,1.2975082907744953,0.9791562355301333,0.28540371966011596,0.717757707016704
0.059500000000000004,1.7216526389530997,1.0,2878.640940552301,0.4879780817268077,1.2970250591051145,0.9793699950987194,0.2853624108360302,0.718673833748735
0.06,1.720669095522486,1.0,2883.045541779074,0.4908501268443257,1.296541907861254,0.9795788935319054,0.2853211020119444,0.7195883191390549
0.0605,1.7196855520918721,1.0,2887.443557608343,0.493706059036011,1.2960588445732797,0.9797830787742059,0.2852797931878586,0.7205011497128018
0.061,1.7187020086612583,1.0,2891.8341125549678,0.49654596840934995,1.2955758767715568,0.9799826931277937,0.28523848436377286,0.7214123120877725
0.0615,1.7177184652306445,1.0,2896.2163286009877,0.4993699450718289,1.2950930119864512,0.9801778735112445,0.28519717553968704,0.7223217929743755
0.062,1.7167349218000307,1.0,2900.589325212494,0.5021780791309344,1.2946102577483285,0.9803687517045196,0.2851558667156013,0.723229579175585
0.0625,1.715751378369417,1.0,2904.9522193570515,0.5049704606941526,1.294127621587554,0.9805554545810146,0.2851145578915155,0.72413565758689
0.063,1.7147678349388031,1.0,2909.304125522856,0.5077471798689701,1.2936451110344935,0.9807381043274519,0.2850732490674297,0.7250400151962372
0.0635,1.7137842915081893,1.0,2913.644219399956,0.5105083252660626,1.2931627330594468,0.9809168185147752,0.28503194024334394,0.7259426401311082
0.064,1.7128007480775755,1.0,2917.9742342653744,0.5132539345729324,1.292680472128761,0.9810917056496227,0.2849906314192582,0.7268435626099666
0.0645,1.7118172046469617,1.0,2922.2910545421596,0.5159841666329827,1.292198355351326,0.9812628811106638,0.28494932259517236,0.7277427331950899
0.065,1.710833661216348,1.0,2926.594641001961,0.5186991027672911,1.2917163827521998,0.981430449290395,0.2849080137710866,0.7286401531695539
0.0655,1.7098501177857341,1.0,2930.8849545459734,0.5213988242969351,1.29123455435644,0.9815945108839376,0.28486670494700084,0.729535823816345
0.066,1.7088665743551203,1.0,2935.161956205392,0.5240834125429922,1.2907528701891051,0.9817551630467231,0.284825396122915,0.7304297464183591
0.0665,1.7078830309245063,1.0,2939.425607141492,0.52675294882654,1.2902713302752526,0.9819124995443653,0.28478408729882926,0.7313219222584031
0.067,1.7068994874938925,1.0,2943.6758686456415,0.5294075144686562,1.2897899346399408,0.9820666108951657,0.2847427784747435,0.7322123526191926
0.0675,1.7059159440632787,1.0,2947.912702139175,0.5320471907904182,1.2893086833082277,0.9822175845056565,0.2847014696506577,0.7331010387833534
0.068,1.704932400632665,1.0,2952.1360691740224,0.5346720591129035,1.288827576305171,0.9823655047995752,0.2846601608265719,0.7339879820334202
0.0685,1.7039488572020511,1.0,2956.3459314322395,0.5372822007571899,1.2883466136558288,0.9825104533406247,0.28461885200248616,0.7348731836518374
0.069,1.7029653137714373,1.0,2960.54225072616,0.539877697044355,1.2878657953852592,0.9826525089493668,0.28457754317840034,0.7357566449209568
0.0695,1.7019817703408235,1.0,2964.7249889989866,0.542458629295476,1.2873851215185201,0.9827917478145632,0.2845362343543146,0.7366383671230403
0.07,1.7009982269102097,1.0,2968.8941083241525,0.5450250788316308,1.2869045920806697,0.9829282435992638,0.2844949255302288,0.7375183515402568
0.07050000000000001,1.700014683479596,1.0,2973.0495709058814,0.5475771269738968,1.2864242070967655,0.9830620675419265,0.284453616706143,0.7383965994546848
0.07100000000000001,1.6990311400489821,1.0,2977.1913390792347,0.5501148550433516,1.2859439665918657,0.9831932885528325,0.28441230788205724,0.7392731121483099
0.07150000000000001,1.6980475966183683,1.0,2981.3193753098467,0.5526383443610728,1.2854638705910286,0.9833219733060435,0.2843709990579715,0.7401478909030245
