Time [s],Phi [rad],STIM [ ],Fsee [N],Gamma [ ],Lcerel [ ],q [ ],Lmtc [m],fisomrel [ ]
0.0,1.8,1.0,17.981026038244337,0.00011783993917336731,1.3793381928541064,0.005003629560459082,0.288653,0.5411432890375663
0.0005,1.79999375,1.0,18.32593163309928,0.0057263882591276904,1.379296927688311,0.013242608854295856,0.2886527375,0.541243114305511
0.001,1.799975,1.0,21.74767645466697,0.011303477057410957,1.3789251162291365,0.03617273053666522,0.28865195,0.5421420800087227
0.0015,1.79994375,1.0,31.370239792243492,0.016849282798003618,1.3780206210527564,0.07137252062654191,0.2886506375,0.5443252871775778
0.002,1.7999,1.0,54.225641609298435,0.022363980953100732,1.3763265251954995,0.11562982079439775,0.2886488,0.548400339395029
0.0025,1.79984375,1.0,98.19557355861349,0.027847746011361245,1.3738834297366298,0.16556627823333528,0.28864643749999996,0.5542448372716027
0.003,1.7997750000000001,1.0,162.3561701205628,0.03330075148466023,1.3711621282965842,0.21830287356852424,0.28864354999999997,0.5607100590508608
0.0035,1.79969375,1.0,239.2612976615441,0.038723169908473035,1.3685362091081545,0.27162956700203233,0.2886401375,0.566903898521016
0.004,1.7996,1.0,323.1446080125846,0.04411517285242144,1.3661117107463279,0.32390006249440995,0.2886362,0.5725835945612154
0.0045000000000000005,1.7994937500000001,1.0,411.0045326668244,0.04947693092553024,1.3638820884364105,0.3739687177454497,0.2886317375,0.5777736789386364
0.005,1.799375,1.0,501.1851639158906,0.054808613767882666,1.3618207280537422,0.4211214085957226,0.28862675,0.5825438799447065
0.0055,1.79924375,1.0,592.5771934437151,0.060110390092243754,1.3599039521169278,0.4649827916462095,0.2886212375,0.5869551825593626
0.006,1.7991000000000001,1.0,684.3061642660256,0.06538242764118586,1.3581139339091495,0.505423487720223,0.2886152,0.5910536044008716
0.006500000000000001,1.79894375,1.0,775.6582955203907,0.07062489321716754,1.3564369358129527,0.5424805760098944,0.2886086375,0.5948747155238301
0.007,1.798775,1.0,866.0450610620002,0.07583795273931443,1.3548619919201963,0.5762962573535817,0.28860155,0.5984469601097913
0.0075,1.79859375,1.0,954.9738844602376,0.08102177109104558,1.353380171783956,0.6070733163606389,0.2885939375,0.601793540146498
0.008,1.7984,1.0,1042.0496422727183,0.08617651221983383,1.3519837571240347,0.6350440018530884,0.2885858,0.6049344219414813
0.0085,1.79819375,1.0,1126.978344355677,0.09130233961498906,1.35066569242532,0.6604493871033323,0.2885771375,0.6078876663133639
0.009000000000000001,1.797975,1.0,1209.498267189781,0.09639941495941308,1.3494202063143794,0.68352688247402,0.28856795,0.6106681103929099
0.0095,1.79774375,1.0,1289.4323098171758,0.10146789949974466,1.3482417501966804,0.7045019818323032,0.2885582375,0.6132898068238293
0.01,1.7975,1.0,1366.671387535141,0.10650795431381177,1.3471250557894767,0.7235842299283566,0.288548,0.615765929984543
0.0105,1.79724375,1.0,1441.1186616293348,0.11151973842377509,1.3460656884748838,0.7409657309706676,0.2885372375,0.6181075869273108
0.011,1.796975,1.0,1512.7176955304396,0.11650341005603004,1.345059511168133,0.7568205403989537,0.28852595000000003,0.6203250438533454
0.0115,1.79669375,1.0,1581.4540420590613,0.1214591269528574,1.3441025613222908,0.7713051874452693,0.2885141375,0.6224280206997421
0.012,1.7964,1.0,1647.3512215177025,0.12638704684648266,1.3431910194231491,0.7845597471260175,0.28850180000000003,0.6244257786584813
0.0125,1.79609375,1.0,1710.421133397099,0.1312873250966419,1.3423217117023007,0.7967093763433014,0.2884889375,0.6263260385752771
0.013000000000000001,1.7957750000000001,1.0,1770.6914061672926,0.136160116237727,1.3414916990202628,0.8078655232407878,0.28847555,0.6281359040186679
0.0135,1.79544375,1.0,1828.2190908537373,0.14100557459773064,1.3406980699883517,0.8181272449709609,0.2884616375,0.6298623249560338
0.014,1.7951000000000001,1.0,1883.077418906223,0.1458238539514776,1.3399380528459905,0.8275825926661661,0.2884472,0.6315118629696319
0.0145,1.79474375,1.0,1935.3375006610797,0.15061510724610577,1.3392091752503728,0.836309903429012,0.2884322375,0.6330903553123786
0.015,1.794375,1.0,1985.0597861130905,0.15537948509456023,1.3385093115950475,0.8443789263165042,0.28841675,0.6346028251385429
0.0155,1.79399375,1.0,2032.323105952206,0.16011713810978614,1.3378363362735635,0.8518517090989667,0.2884007375,0.6360542407310452
0.016,1.7936,1.0,2077.211445323104,0.1648282159465852,1.3371882449927182,0.8587835450888406,0.2883842,0.6374492584143199
0.0165,1.7931937500000001,1.0,2119.824155833595,0.1695128693154806,1.3365630280165086,0.8652237355416965,0.2883671375,0.6387925005496137
0.017,1.792775,1.0,2160.2423215736226,0.17417124639892717,1.3359590006629352,0.8712163922143896,0.28834955,0.6400878503621236
0.0175,1.7923437500000001,1.0,2198.5355537356468,0.1788034933388509,1.3353747078348501,0.8768010185952451,0.2883314375,0.6413386650021968
0.018000000000000002,1.7919,1.0,2234.7829431766504,0.18340975627717773,1.3348086944351054,0.8820129878158629,0.2883128,0.6425482721003196
0.0185,1.79144375,1.0,2269.0722650980097,0.18799018135583365,1.3342595053665534,0.8868840249873028,0.2882936375,0.6437199715309537
0.019,1.790975,1.0,2301.4855472895647,0.1925449131825853,1.3337258209811063,0.8914426624688726,0.28827395,0.6448567487579293
0.0195,1.79049375,1.0,2332.1170856475073,0.1970740980761822,1.3332062685608843,0.8957145612575964,0.2882537375,0.6459616791828184
0.02,1.79,1.0,2361.037590014189,0.20157787858440754,1.3326997684985191,0.899722914433734,0.288233,0.6470371940083922
0.0205,1.78949375,1.0,2388.3132743517676,0.2060563960215986,1.3322053347425293,0.9034886774873326,0.2882117375,0.6480855088284567
0.021,1.788975,1.0,2414.0148431909915,0.21050979170209277,1.3317219812414336,0.907030795949622,0.28818995000000003,0.6491088238560523
0.021500000000000002,1.78844375,1.0,2438.2171151971183,0.21493820694022742,1.3312487219437508,0.9103664257552594,0.2881676375,0.650109324651249
0.022,1.7879,1.0,2460.9888147936786,0.2193417812493848,1.3307846651220938,0.9135111452729112,0.2881448,0.6510889838012253
0.0225,1.78734375,1.0,2482.4074679248424,0.2237206565517562,1.3303288661809927,0.9164790964273373,0.28812143749999997,0.6520498729833542
0.023,1.786775,1.0,2502.5345774614852,0.22807497121327205,1.3298805616757514,0.9192831782665897,0.28809755,0.6529936703714629
0.0235,1.78619375,1.0,2521.4236431623153,0.23240486147623204,1.329439087401124,0.921935160458758,0.28807313749999996,0.6539218357535543
0.024,1.7856,1.0,2539.1302919703203,0.23671046358293568,1.3290037791518643,0.9244457816933583,0.2880482,0.6548358204840283
0.0245,1.78499375,1.0,2555.712099185565,0.24099191377568258,1.3285739727227261,0.9268248541905005,0.2880227375,0.6557370677589451
0.025,1.784375,1.0,2571.2284194189187,0.2452493482967723,1.3281490039084638,0.9290813563497909,0.28799675,0.6566270128631474
0.025500000000000002,1.78374375,1.0,2585.728573424235,0.24948289994867145,1.3277283173383945,0.9312235315956566,0.2879702375,0.6575068559137265
0.026000000000000002,1.7831000000000001,1.0,2599.277020334786,0.25369270763178176,1.3273112291959663,0.9332589251503756,0.2879432,0.6583780588081174
0.0265,1.78244375,1.0,2611.9164525578713,0.2578789033370914,1.3268972705914934,0.9351945002311571,0.2879156375,0.6592416278055866
0.027,1.781775,1.0,2623.686626817055,0.2620416177884294,1.326486009307333,0.9370366671132168,0.28788755,0.660098487648508
0.0275,1.7810937500000001,1.0,2634.6281979150835,0.26618098170962456,1.3260770131258417,0.9387913296656015,0.2878589375,0.660949558389444
0.028,1.7804,1.0,2644.7826408597207,0.2702971258245057,1.3256698498293766,0.9404639320530622,0.2878298,0.6617957554595386
0.0285,1.77969375,1.0,2654.1921771311336,0.27439018085690176,1.3252640872002952,0.9420595005654915,0.2878001375,0.6626379897249961
0.029,1.778975,1.0,2662.8988662395013,0.2784602770698844,1.3248593007405653,0.9435826820447162,0.28776995,0.6634771515381088
0.029500000000000002,1.7782437500000001,1.0,2670.9368272475695,0.2825075401435139,1.3244551444864738,0.9450377856810027,0.2877392375,0.6643139643375682
0.03,1.7775,1.0,2678.3549508027104,0.28653210606016666,1.3240511415053755,0.9464287895886946,0.287708,0.6651494186513491
0.0305,1.77674375,1.0,2685.1800569626835,0.2905340994937338,1.3236470219331418,0.947759406386485,0.2876762375,0.6659840726843382
0.031,1.775975,1.0,2691.4393256563035,0.29451364511810646,1.3232425159056436,0.9490330826575514,0.28764395,0.6668184818590235
0.0315,1.7751937500000001,1.0,2697.1602644114173,0.2984708676071756,1.322837353558752,0.9502530213294701,0.2876111375,0.6676531988111649
0.032,1.7744,1.0,2702.3706776978233,0.3024058916348324,1.3224312650283387,0.9514222019105614,0.2875778,0.6684887733808201
0.0325,1.77359375,1.0,2707.0986378852217,0.3063188418749679,1.3220239804502747,0.952543398811055,0.2875439375,0.669325752598728
0.033,1.772775,1.0,2711.372457815258,0.31020984300147314,1.3216152299604307,0.953619197950884,0.28750955,0.6701646806680462
0.0335,1.7719437500000002,1.0,2715.2182748093533,0.3140790172502537,1.3212047654775616,0.9546520136567762,0.2874746375,0.6710060543192113
0.034,1.7711000000000001,1.0,2718.658297516514,0.31792648367095444,1.3207923763810858,0.9556441037702739,0.2874392,0.671850290994183
0.0345,1.7702437500000001,1.0,2721.726074930435,0.3217523763823747,1.3203777502272709,0.9565975712197252,0.2874032375,0.6726980139008687
0.035,1.7693750000000001,1.0,2724.438426271248,0.32555681310757906,1.3199607282326673,0.9575143955678673,0.28736675,0.673549529301088
0.035500000000000004,1.76849375,1.0,2726.812278088323,0.3293399115696323,1.3195411516138247,0.9583964301116771,0.2873297375,0.6744051416623429
0.036000000000000004,1.7676,1.0,2728.8646531003765,0.3331017894915991,1.319118861587293,0.9592454113843252,0.2872922,0.675265153632749
0.0365,1.76669375,1.0,2730.612659594857,0.33684256459654394,1.3186936993696223,0.9600629678384701,0.2872541375,0.6761298660143648
0.037,1.765775,1.0,2732.0734813861995,0.3405623546075317,1.3182655061773627,0.9608506277898214,0.28721555,0.6769995777349078
0.0375,1.76484375,1.0,2733.2643683333936,0.344261277247627,1.3178341232270638,0.9616098266915356,0.2871764375,0.6778745858178686
0.038,1.7639,1.0,2734.202627416123,0.3479394502398945,1.3173993917352758,0.9623419138025969,0.28713679999999997,0.6787551853510108
0.0385,1.76294375,1.0,2734.9056143702546,0.35159699130739874,1.3169611529185485,0.9630481583067724,0.28709663750000003,0.6796416694532669
0.039,1.761975,1.0,2735.3902350096037,0.3552340169935162,1.3165192524504676,0.9637297551149306,0.28705595,0.6805343202429757
0.0395,1.7609937500000001,1.0,2735.6683030145346,0.35885063611661855,1.3160735825430416,0.9643878326152443,0.2870147375,0.6814333240382878
0.04,1.76,1.0,2735.756233790221,0.36244697623916505,1.3156239938709318,0.9650234542876397,0.286973,0.6823389492760269
0.0405,1.7589937500000001,1.0,2735.66347318307,0.3660231479675866,1.3151704005884302,0.9656376257434061,0.2869307375,0.6832513347988791
0.041,1.757975,1.0,2735.3994849409355,0.36957926190831414,1.3147127168498287,0.966231296211301,0.28688795,0.6841706181536975
0.0415,1.75694375,1.0,2734.973747672077,0.3731154286677785,1.3142508568094196,0.9668053622823032,0.2868446375,0.6850969355693421
0.042,1.7559,1.0,2734.3957519680703,0.3766317588524107,1.3137847346214944,0.9673606713683135,0.28680079999999997,0.686030421934051
0.0425,1.75484375,1.0,2733.674997689843,0.38012836306864156,1.3133142644403453,0.9678980248993646,0.2867564375,0.6869712107723387
0.043000000000000003,1.753775,1.0,2732.820991416324,0.383605351922902,1.3128393604202644,0.9684181812815811,0.28671155,0.6879194342214283
0.043500000000000004,1.75269375,1.0,2731.843244058345,0.38706283602162295,1.3123599367155432,0.9689218586360294,0.28666613750000003,0.6888752230072126
0.044,1.7516,1.0,2730.7512686336504,0.39050092597123526,1.3118759074804742,0.9694097373367265,0.2866202,0.6898387064197408
0.0445,1.75049375,1.0,2729.5545782073195,0.3939197323781699,1.311387186869349,0.9698824623643901,0.2865737375,0.6908100122882435
0.045,1.7493750000000001,1.0,2728.2542643029838,0.39731933074261383,1.3108937655856827,0.97034064629134,0.28652675,0.6917891151784266
0.0455,1.74824375,1.0,2726.870032236582,0.40069987832498444,1.3103954651042444,0.9707848693839121,0.2864792375,0.6927763241158156
0.046,1.7471,1.0,2725.406150440881,0.4040614771548549,1.3098922471807681,0.9712156852397456,0.2864312,0.6937716681672632
0.0465,1.7459437500000001,1.0,2723.866883688179,0.40740422925073333,1.3093840735964077,0.9716336198327907,0.28638263750000004,0.6947751753982544
0.047,1.744775,1.0,2722.2564952862713,0.41072823663112756,1.308870906132317,0.9720391731502452,0.28633355,0.6957868729113568
0.0475,1.74359375,1.0,2720.579246510909,0.41403360131454553,1.30835270656965,0.9724328207178807,0.28628393750000003,0.6968067868340921
0.048,1.7424,1.0,2718.8393960693884,0.4173204253194952,1.3078294366895606,0.972815015022043,0.2862338,0.6978349423067213
0.0485,1.74119375,1.0,2717.0411995981453,0.4205888106644845,1.3073010582732025,0.9731861868362315,0.2861831375,0.6988713634699292
0.049,1.739975,1.0,2715.188909190853,0.42383885936802135,1.3067675331017299,0.9735467464594753,0.28613195,0.6999160734524206
0.0495,1.73874375,1.0,2713.286772960654,0.42707067344861366,1.3062288229562962,0.9738970848731286,0.2860802375,0.7009690943584229
0.05,1.7375,1.0,2711.3390346337856,0.43028435492476946,1.3056848896180557,0.9742375748221525,0.286028,0.7020304472550927
0.0505,1.73624375,1.0,2709.349933175596,0.43348000581499657,1.305135694868162,0.97456857182645,0.2859752375,0.7031001521598339
0.051000000000000004,1.734975,1.0,2707.3237024496016,0.43665772813780296,1.304581200487769,0.9748904151273623,0.28592195,0.7041782280275173
0.051500000000000004,1.73369375,1.0,2705.264570908137,0.43981762391169665,1.3040213682580308,0.9752034285740256,0.2858681375,0.7052646927376109
0.052000000000000005,1.7324,1.0,2703.17676131586,0.4429597951551854,1.3034561599601011,0.9755079214539037,0.2858138,0.7063595630812166
0.0525,1.73109375,1.0,2701.064490505629,0.4460843438867773,1.3028855373751338,0.9758041892714713,0.28575893750000003,0.7074628547480116
0.053,1.729775,1.0,2698.929361159051,0.4491913537457881,1.3023094861239595,0.9760925140663687,0.28570355000000003,0.7085745363503431
0.0535,1.72844375,1.0,2696.7731796071903,0.45228092552961846,1.3017279899453391,0.9763731672108049,0.2856476375,0.70969457934804
0.054,1.7271,1.0,2694.6014624725067,0.45535318480538883,1.301140998611756,0.9766464086953272,0.2855912,0.7108230196272782
0.0545,1.7257437500000001,1.0,2692.4157250462663,0.4584082241136171,1.3005484984366362,0.9769124862285323,0.2855342375,0.711959821707536
0.055,1.724375,1.0,2690.2174803244347,0.46144613599482076,1.299950475733406,0.9771716369773422,0.28547675,0.7131049493217585
0.0555,1.72299375,1.0,2688.0082389684508,0.46446701298951765,1.2993469168154912,0.977424088100968,0.2854187375,0.7142583654115415
0.056,1.7216,1.0,2685.7895092698623,0.46747094763822533,1.2987378079963185,0.977670057253552,0.2853602,0.7154200321223045
0.0565,1.72019375,1.0,2683.5627971196686,0.47045803248146156,1.2981231355893137,0.9779097530575697,0.28530113749999997,0.7165899107984557
0.057,1.718775,1.0,2681.3296059814247,0.473428360059744,1.297502885907903,0.9781433755499137,0.28524155,0.7177679619785372
0.0575,1.71734375,1.0,2679.091436868173,0.47638202291359033,1.2968770452655127,0.9783711166024494,0.2851814375,0.7189541453903658
0.058,1.7159,1.0,2676.8497883243763,0.4793191135835183,1.2962455999755687,0.9785931603186874,0.2851208,0.7201484199461587
0.0585,1.71444375,1.0,2674.6061564113847,0.4822397246100455,1.2956085363514975,0.97880968340812,0.2850596375,0.7213507437376447
0.059000000000000004,1.7129750000000001,1.0,2672.362034697153,0.48514394853368964,1.294965840706725,0.9790208555396358,0.28499795,0.7225610740311701
0.059500000000000004,1.71149375,1.0,2670.1189142504345,0.4880318778949684,1.2943174993546773,0.9792268396753424,0.2849357375,0.7237793672627855
0.06,1.71,1.0,2667.8782836383534,0.49090360523439946,1.293663498608781,0.979427792386028,0.284873,0.7250055790333243
0.0605,1.7084937500000001,1.0,2665.6416289292943,0.4937592230925006,1.2930038247824616,0.9796238641494018,0.2848097375,0.7262396641034712
0.061,1.7069750000000001,1.0,2663.41043369878,0.4965988240097894,1.2923384641891458,0.9798151996321832,0.28474595,0.7274815763888123
0.0615,1.7054437500000001,1.0,2661.186179040148,0.49942250052678355,1.2916674031422595,0.9800019379570286,0.2846816375,0.728731268954881
0.062,1.7039,1.0,2658.956384312102,0.5022303431893571,1.2909907565116678,0.9801842195367313,0.2846168,0.72998845543612
0.0625,1.70234375,1.0,2656.749359852388,0.5050224374971539,1.2903082635418754,0.9803621596176187,0.2845514375,0.7312535462987915
0.063,1.7007782357063985,1.0,2654.7062477549152,0.5077988708297224,1.289620084376225,0.9805358909087091,0.2844856858996687,0.7325261694065952
0.0635,1.6992122297410863,1.0,2653.2155733686905,0.5105597303247978,1.2889265970203856,0.9807055523476822,0.2844199136491256,0.7338055533616701
0.064,1.697646223775774,1.0,2652.259958243358,0.5133051031201156,1.288228179480026,0.980871277850242,0.2843541413985825,0.7350909328878503
0.0645,1.6960802178104615,1.0,2651.7981229773145,0.5160350763534111,1.2875252097608154,0.9810331965395704,0.2842883691480394,0.7363815489540788
0.065,1.6945142118451493,1.0,2651.792307580279,0.5187497362737835,1.2868180348889886,0.9811914313544894,0.2842225968974963,0.7376767055561828
0.0655,1.6929482058798369,1.0,2652.198524078495,0.5214491699718075,1.2861070604680607,0.9813461038756794,0.28415682464695313,0.738975605708946
0.066,1.6913821999145244,1.0,2652.985438458985,0.5241334623020679,1.2853925762622973,0.981497325618485,0.28409105239641,0.7402776703264311
0.0665,1.6898161939492122,1.0,2654.124519933703,0.5268026975800776,1.2846748468231093,0.9816452029790192,0.2840252801458669,0.7415823711295895
0.067,1.6882501879838998,1.0,2655.58728708942,0.5294569601213491,1.2839541367019072,0.9817898387072752,0.28395950789532376,0.7428891844702634
0.0675,1.6866841820185874,1.0,2657.345289628944,0.5320963342413951,1.283230710450102,0.9819313320649351,0.28389373564478065,0.744197591383707
0.068,1.6851181760532752,1.0,2659.373961974859,0.5347209032261176,1.2825047969786072,0.9820697772056548,0.28382796339423755,0.7455071418497319
0.0685,1.6835521700879628,1.0,2661.6470944891084,0.5373307513986559,1.2817766403854078,0.982205265925438,0.28376219114369444,0.7468173626693639
0.069,1.6819861641226503,1.0,2664.14635229012,0.5399259605808907,1.2810464122318939,0.982337883408276,0.28369641889315134,0.7481279150879476
0.0695,1.6804201581573381,1.0,2666.854142245126,0.5425066123575181,1.2803142772142841,0.9824677116942149,0.2836306466426082,0.7494384757328874
0.07,1.6788541521920257,1.0,2669.7528604806953,0.5450727883132345,1.279580400028798,0.9825948301409104,0.28356487439206507,0.7507487242338561
0.07050000000000001,1.6772881462267133,1.0,2672.824936577112,0.5476245700027308,1.278844944904508,0.9827193155103159,0.28349910214152196,0.75205834407271
0.07100000000000001,1.675722140261401,1.0,2676.0632499854364,0.5501620330726018,1.2781079799270794,0.9828412373268212,0.28343332989097886,0.7533671922859669
0.07150000000000001,1.6741561342960887,1.0,2679.4374820399626,0.5526852678023312,1.2773697859832427,0.9829606734591179,0.28336755764043575,0.7546747507130426
0.07200000000000001,1.6725901283307762,1.0,2682.9389882822934,0.5551943518846935,1.276630444647353,0.9830776895647573,0.2833017853898926,0.7559808580810196
0.0725,1.671024122365464,1.0,2686.5591102086646,0.5576893630124631,1.2758900374937658,0.9831923492246515,0.2832360131393495,0.7572853546291087
0.073,1.6694581164001516,1.0,2690.2891732680555,0.5601703788784148,1.2751486460968364,0.9833047140244362,0.2831702408888064,0.7585880821144064
0.0735,1.6678921104348394,1.0,2694.1204850085487,0.5626374771753229,1.2744063520309201,0.9834148436321588,0.2831044686382632,0.7598888838172282
0.074,1.666326104469527,1.0,2698.044333371302,0.5650907355959619,1.2736632368703724,0.9835227958724793,0.2830386963877201,0.7611876045460155
