Time [s],Phi [rad],STIM [ ],Fsee [N],Gamma [ ],Lcerel [ ],q [ ],Lmtc [m],fisomrel [ ]
0.0,1.8,1.0,17.967870705054604,2.9690158818577845e-05,1.3793396663924862,0.005000232927881874,0.288653,0.5411397241748639
0.0005,1.79999375,1.0,18.283785946091104,0.005638732929308625,1.3793016056579208,0.012995268242142272,0.2886527375,0.5412317982950356
0.001,1.799975,1.0,21.640056078643674,0.01121631340468076,1.3789360889350084,0.03571125347390943,0.28865195,0.542115562827294
0.0015,1.79994375,1.0,31.122000241633916,0.01676260806441486,1.378041710304098,0.07074221279660677,0.2886506375,0.5442744428263788
0.002,1.7999,1.0,53.69714118619354,0.022277792396305528,1.3763606910627808,0.11488421842133321,0.2886488,0.548318336169471
0.0025,1.79984375,1.0,97.31257411221048,0.027762040904167225,1.373925841026794,0.1647556720784886,0.28864643749999996,0.5541437034834336
0.003,1.7997750000000001,1.0,161.21071551090512,0.03321552711536596,1.3712048943236164,0.2174669507556851,0.28864354999999997,0.5606088215248496
0.0035,1.79969375,1.0,237.9690052871657,0.03863842358055608,1.3685759373686028,0.27079837916344246,0.2886401375,0.5668105178343614
0.004,1.7996,1.0,321.7709070611914,0.04403090188442464,1.3661480389069145,0.32309540720237906,0.2886362,0.572498767871877
0.0045000000000000005,1.7994937500000001,1.0,409.5828469903015,0.049393132650886754,1.3639154190808012,0.3732050006745593,0.2886317375,0.5776963257501431
0.005,1.799375,1.0,499.73510867540057,0.054725285534217946,1.3618515093776016,0.4204069705229012,0.28862675,0.5824728480904067
0.0055,1.79924375,1.0,591.1150070201508,0.06002752926573359,1.359932494209665,0.4643213796180193,0.2886212375,0.586889667130132
0.006,1.7991000000000001,1.0,682.8431966324422,0.0653000315989513,1.3581405062108132,0.5048156803090307,0.2886152,0.5909929139383371
0.006500000000000001,1.79894375,1.0,774.1932825759216,0.07054295919858596,1.3564619276874619,0.5419249740353571,0.2886086375,0.5948179021343709
0.007,1.798775,1.0,864.6159744928701,0.07575647853425928,1.3548850623105324,0.5757897603039014,0.28860155,0.5983947466481172
0.0075,1.79859375,1.0,953.570432993062,0.0809407539165539,1.3534017466784023,0.6066126471014546,0.2885939375,0.6017449153209642
0.008,1.7984,1.0,1040.6697847175478,0.08609594946937375,1.3520040629786088,0.6346254824053105,0.2885858,0.6048888381586468
0.0085,1.79819375,1.0,1125.6252543823778,0.09122222861217703,1.350684838805777,0.6600692477602513,0.2885771375,0.6078448464023156
0.009000000000000001,1.797975,1.0,1208.1827123825417,0.0963197533357675,1.349438174815083,0.6831814209526635,0.28856795,0.6106280675443352
0.0095,1.79774375,1.0,1288.158812097305,0.10138868481353516,1.3482585960706504,0.7041877684582559,0.2885582375,0.6132523924199604
0.01,1.7975,1.0,1365.444954742728,0.10642918402633623,1.3471408136243976,0.723298095870218,0.288548,0.6157310443756099
0.0105,1.79724375,1.0,1439.9335235009053,0.11144140979409069,1.3460805169261159,0.7407048561999181,0.2885372375,0.6180748590693637
0.011,1.796975,1.0,1511.5741114861332,0.11642552068444756,1.3450734767367987,0.7565823384170288,0.28852595000000003,0.6202943101172771
0.0115,1.79669375,1.0,1580.360968944391,0.12138167471327425,1.34411561651739,0.7710872880946328,0.2885141375,0.6223993701175274
0.012,1.7964,1.0,1646.305386815342,0.1263100292169252,1.3432032578689956,0.7843600959238236,0.28850180000000003,0.6243989916712618
0.0125,1.79609375,1.0,1709.411311172766,0.1312107392407238,1.3423333086818419,0.7965261774540024,0.2884889375,0.6263007199200982
0.013000000000000001,1.7957750000000001,1.0,1769.718791644282,0.13608395982999338,1.341502676846155,0.8076971187370526,0.28847555,0.628111995238873
0.0135,1.79544375,1.0,1827.2791120622592,0.1409298450638103,1.3407085111097896,0.8179721845810358,0.2884616375,0.6298396379379795
0.014,1.7951000000000001,1.0,1882.1827612953073,0.14574854980205929,1.339947844628174,0.8274395172532557,0.2884472,0.6314906343515907
0.0145,1.79474375,1.0,1934.4833447910694,0.15054022556748914,1.3392183965912932,0.8361776713383013,0.2884322375,0.6330704062947454
0.015,1.794375,1.0,1984.2431450199406,0.15530502327823348,1.3385180167495887,0.8442565144764516,0.28841675,0.634584031683435
0.0155,1.79399375,1.0,2031.5429811235872,0.16004309385242604,1.3378445548535036,0.8517381992574738,0.2884007375,0.6360365330224426
0.016,1.7936,1.0,2076.466199438693,0.1647545872671973,1.3371960107814145,0.8586781207925467,0.2883842,0.6374325583963655
0.0165,1.7931937500000001,1.0,2119.1132389076643,0.16943965396170482,1.3365703612030124,0.8651256637178485,0.2883671375,0.6387767600754903
0.017,1.792775,1.0,2159.55895013221,0.1740984413960165,1.335965983426202,0.8711250351645323,0.28834955,0.6400728889683192
0.0175,1.7923437500000001,1.0,2197.8778067378603,0.17873109621149197,1.3353813699478094,0.876715791474606,0.2883314375,0.6413244154717175
0.018000000000000002,1.7919,1.0,2234.1539638438667,0.1833377650494909,1.3348150132646603,0.8819333527423356,0.2883128,0.6425347796319685
0.0185,1.79144375,1.0,2268.471551014437,0.1879185935338159,1.3342654944418737,0.8868095080964177,0.2882936375,0.6437072041630412
0.019,1.790975,1.0,2300.9235836960647,0.19247372825639414,1.3337313840949359,0.8913728118808143,0.28827395,0.6448449083867296
0.0195,1.79049375,1.0,2331.5854977110002,0.19700331302468066,1.3332114962778954,0.8956490134108049,0.2882537375,0.6459505699880297
0.02,1.79,1.0,2360.5255694550115,0.20150749002185186,1.3327047728392785,0.8996613462046301,0.288233,0.6470265756695285
0.0205,1.78949375,1.0,2387.8171820440707,0.2059864014310842,1.3322101556276118,0.9034307812088754,0.2882117375,0.648075294954968
0.021,1.788975,1.0,2413.5383964400253,0.21044018943555415,1.3317265864914218,0.9069762779331761,0.28818995000000003,0.6490990810419299
0.021500000000000002,1.78844375,1.0,2437.7566267603233,0.21486899397272244,1.3312531507881933,0.9103150340652582,0.2881676375,0.6500999684084645
0.022,1.7879,1.0,2460.5599546708954,0.21927295855865647,1.3307887706323873,0.9134626154633269,0.2881448,0.651080322779062
0.0225,1.78734375,1.0,2482.006725881649,0.22365222133196147,1.3303326859163966,0.9164332225316547,0.28812143749999997,0.6520418259415155
0.023,1.786775,1.0,2502.1524066061775,0.22800691951575514,1.3298841897108555,0.9192397830902793,0.28809755,0.6529860375599881
0.0235,1.78619375,1.0,2521.054872010477,0.23233719033315525,1.3294425750863987,0.9218940750199467,0.28807313749999996,0.6539145080371254
0.024,1.7856,1.0,2538.7742043328153,0.23664317100727955,1.3290071351136603,0.9244068444347672,0.2880482,0.6548287788402477
0.0245,1.78499375,1.0,2555.3707426180436,0.24092499836518855,1.3285771793920629,0.9267879130160284,0.2880227375,0.6557303481592989
0.025,1.784375,1.0,2570.896055578868,0.24518280689689437,1.3281521166628338,0.9290462836693161,0.28799675,0.656620498500325
0.025500000000000002,1.78374375,1.0,2585.421474323123,0.24941673543346088,1.3277311853925762,0.9311901787543752,0.2879702375,0.6575008613557936
0.026000000000000002,1.7831000000000001,1.0,2598.988312116463,0.2536269158362849,1.3273139184529252,0.9332271876199991,0.2879432,0.6583724451115811
0.0265,1.78244375,1.0,2611.639002682178,0.2578134799667632,1.3268998487155172,0.9351642822050259,0.2879156375,0.6592362529010585
0.027,1.781775,1.0,2623.417006203059,0.2619765596862927,1.326488509051988,0.9370078755454941,0.28788755,0.660093282707302
0.0275,1.7810937500000001,1.0,2634.3667201601515,0.2661162868562701,1.3260794323339733,0.9387638740255755,0.2878589375,0.6609445274513831
0.028,1.7804,1.0,2644.5333950099566,0.27023279333809225,1.325672151433109,0.9404377241087515,0.2878298,0.6617909750667417
0.0285,1.77969375,1.0,2653.9583325297904,0.27432620818850584,1.3252662427503379,0.9420344593478539,0.2878001375,0.6626335182623669
0.029,1.778975,1.0,2662.6835501827436,0.2783966645446201,1.3248612822458667,0.9435587338219648,0.28776995,0.6634730462295004
0.029500000000000002,1.7782437500000001,1.0,2670.7425918860345,0.2824442902873216,1.3244569292955433,0.9450148636770291,0.2877392375,0.6643102711483
0.03,1.7775,1.0,2678.1676520012807,0.28646921194302744,1.3240528601888581,0.9464068490053851,0.287708,0.6651458667200905
0.0305,1.77674375,1.0,2684.9913631935565,0.29047155603815483,1.3236487512153012,0.9477383993614268,0.2876762375,0.6659805033060462
0.031,1.775975,1.0,2691.2467550393003,0.2944514490991209,1.3232442786643634,0.9490129585209414,0.28764395,0.6668148479297046
0.0315,1.7751937500000001,1.0,2696.96721495813,0.29840901765234285,1.3228391188255348,0.9502337268395326,0.2876111375,0.6676495642728068
0.032,1.7744,1.0,2702.1774630281925,0.3023443829902326,1.3224330301017704,0.9514036899047043,0.2875778,0.6684851438118331
0.0325,1.77359375,1.0,2706.9089855208363,0.3062576735331845,1.3220257114667682,0.9525256227472808,0.2875439375,0.669322197558424
0.033,1.772775,1.0,2711.1984307619905,0.310149020339539,1.3216168171051315,0.9536021073250414,0.28750955,0.6701614252396826
0.0335,1.7719437500000002,1.0,2715.0652506161496,0.3140185433298393,1.3212061600825735,0.9546355675699868,0.2874746375,0.6710031974649495
0.034,1.7711000000000001,1.0,2718.52905895151,0.31786636242462857,1.3207935534648083,0.9556282668352777,0.2874392,0.6718478828297869
0.0345,1.7702437500000001,1.0,2721.6096159362805,0.32169259754445,1.320378810317549,0.9565823204277047,0.2874032375,0.6726958478938522
0.035,1.7693750000000001,1.0,2724.3268131089408,0.32549736860984685,1.319961743706509,0.9574997070221553,0.28736675,0.6735474571565379
0.035500000000000004,1.76849375,1.0,2726.7006592239622,0.32928079554136225,1.3195421666974023,0.9583822790695009,0.2873297375,0.6744030730303876
0.036000000000000004,1.7676,1.0,2728.751266871936,0.3330429982595395,1.3191198923559424,0.959231772297132,0.2872922,0.6752630558122823
0.0365,1.76669375,1.0,2730.498839874733,0.3367840966849216,1.3186947337478425,0.9600498143906236,0.2872541375,0.6761277636523972
0.037,1.765775,1.0,2731.96366145495,0.340504210738052,1.3182665039388164,0.9608379329355232,0.28721555,0.6769975525209291
0.0375,1.76484375,1.0,2733.1611043231346,0.34420345536844266,1.3178350612201712,0.9615975660534841,0.2871764375,0.6778726844999043
0.038,1.7639,1.0,2734.107865242872,0.34788194986636395,1.3174002523540287,0.9623300653006761,0.28713679999999997,0.6787534432576496
0.0385,1.76294375,1.0,2734.8245225573833,0.35153981728351896,1.3169618892891397,0.9630366994548674,0.28709663750000003,0.6796401809255712
0.039,1.761975,1.0,2735.3222774946994,0.3551771703375992,1.3165198694970035,0.9637186687288308,0.28705595,0.6805330746607139
0.0395,1.7609937500000001,1.0,2735.612362619334,0.358794121746296,1.3160740904491186,0.96437710371285,0.2870147375,0.6814323002128904
0.04,1.76,1.0,2735.7060374280304,0.3623907842273008,1.3156244496169842,0.9650130701543597,0.286973,0.6823380319004331
0.0405,1.7589937500000001,1.0,2735.614584179694,0.365967270498305,1.3151708444720989,0.9656275733606039,0.2869307375,0.6832504425852809
0.041,1.757975,1.0,2735.3493039575383,0.369523693277,1.3147131724859618,0.9662215622577043,0.28688795,0.6841697036473893
0.0415,1.75694375,1.0,2734.9215129650256,0.3730601652810772,1.3142513311300712,0.9667959331362652,0.2868446375,0.6850959849584768
0.042,1.7559,1.0,2734.3425390543466,0.37657679922822807,1.3137852178759264,0.9673515331107279,0.28680079999999997,0.6860294548550938
0.0425,1.75484375,1.0,2733.623718488302,0.3800737078361439,1.3133147301950263,0.9678891633170675,0.2867564375,0.6869702801110265
0.043000000000000003,1.753775,1.0,2732.7713328853633,0.38355099551401856,1.3128398115252493,0.9684095842901818,0.28671155,0.6879185341991279
0.043500000000000004,1.75269375,1.0,2731.7949966602305,0.3870087749636558,1.3123603750799717,0.9689135150497421,0.28666613750000003,0.6888743497445771
0.044,1.7516,1.0,2730.7106400221123,0.39044716918006683,1.3118762766959549,0.9694016338299337,0.2866202,0.6898379720480492
0.0445,1.75049375,1.0,2729.5238208983556,0.39386628322632083,1.3113874664396574,0.969874588206371,0.2865737375,0.6908094570927654
0.045,1.7493750000000001,1.0,2728.240098445017,0.39726622216548724,1.3108938943775392,0.9703329924244812,0.28652675,0.6917888598174984
0.0455,1.74824375,1.0,2726.865032041685,0.40064709106063523,1.3103955105760594,0.97077742943585,0.2864792375,0.6927762341014905
0.046,1.7471,1.0,2725.404180341255,0.4040089949748342,1.309892265101677,0.9712084527911418,0.2864312,0.6937716327492093
0.0465,1.7459437500000001,1.0,2723.863100374591,0.40735203897115346,1.3093841080208513,0.9716265884009707,0.28638263750000004,0.6947751074749434
0.047,1.744775,1.0,2722.247346710764,0.41067632811266225,1.3088709894000417,0.9720323361751158,0.28633355,0.6957867088872429
0.0475,1.74359375,1.0,2720.5624706730996,0.4139819674624299,1.3083528593057072,0.9724261715495488,0.28628393750000003,0.6968064864731975
0.048,1.7424,1.0,2718.814019609127,0.41726906208352565,1.3078296678043073,0.9728085469099447,0.2862338,0.6978344885825568
0.0485,1.74119375,1.0,2717.0075362174825,0.42053771703901893,1.3073013649623013,0.973179892919582,0.2861831375,0.6988707624116917
0.049,1.739975,1.0,2715.148557928716,0.42378803739197896,1.3067679008461481,0.973540619758889,0.28613195,0.6999153539873975
0.0495,1.73874375,1.0,2713.242616342168,0.4270201282054751,1.3062292255223071,0.9738911182832634,0.2860802375,0.7009683081505356
0.05,1.7375,1.0,2711.291936994531,0.4302340740654149,1.3056853191510105,0.9742317607435947,0.286028,0.7020296098709977
0.0505,1.73624375,1.0,2709.304910188683,0.43343000168985957,1.3051361056308008,0.974562903322791,0.2859752375,0.7030993528076173
0.051000000000000004,1.734975,1.0,2707.2846145642575,0.4366080120925746,1.3045815572353434,0.9748848861005619,0.28592195,0.7041775350513177
0.051500000000000004,1.73369375,1.0,2705.23344742526,0.439768202312552,1.3040216524239208,0.9751980336922182,0.2858681375,0.70526414176476
0.052000000000000005,1.7324,1.0,2703.1538030819934,0.4429106693887838,1.3034563696558148,0.975502656131212,0.2858138,0.7063591572554639
0.0525,1.73109375,1.0,2701.0480727181994,0.44603551036026207,1.3028856873903079,0.9757990496484521,0.28575893750000003,0.7074625649684334
0.053,1.729775,1.0,2698.9186442684245,0.4491428222659788,1.3023095840866825,0.9760874974034441,0.28570355000000003,0.7085743474787534
0.0535,1.72844375,1.0,2696.7679023061,0.452232702144926,1.3017280382042207,0.9763682701706229,0.2856476375,0.7096944864841593
0.054,1.7271,1.0,2694.598227941579,0.4553052470360957,1.3011410282022045,0.9766416269839799,0.2855912,0.7108229627975737
0.0545,1.7257437500000001,1.0,2692.4119987302374,0.45836055397847997,1.3005485325399166,0.9769078157428539,0.2855342375,0.7119597563396132
0.055,1.724375,1.0,2690.211588591512,0.46139872001107074,1.299950529676639,0.9771670737815296,0.28547675,0.7131048461310707
0.0555,1.72299375,1.0,2687.999367737802,0.46441984217286014,1.2993469980716539,0.9774196284050918,0.2854187375,0.7142582102853612
0.056,1.7216,1.0,2685.777702613466,0.46742401750284013,1.2987379161842438,0.9776656973937962,0.2853602,0.715419826000943
0.0565,1.72019375,1.0,2683.548955844753,0.47041134304000276,1.2981232624736907,0.9779054894780502,0.28530113749999997,0.7165896695537084
0.057,1.718775,1.0,2681.3139530340427,0.4733818979584612,1.297503029459833,0.9781392039860936,0.28524155,0.7177676896116763
0.0575,1.71734375,1.0,2679.073791762099,0.47633577096080626,1.296877207154982,0.9783670328398116,0.2851814375,0.7189538388770982
0.058,1.7159,1.0,2676.83301660938,0.4792730954222284,1.2962457539162948,0.9785891623044697,0.2851208,0.7201481291025704
0.0585,1.71444375,1.0,2674.5923672183044,0.48219395936694015,1.2956086629699117,0.9788057691345488,0.2850596375,0.7213505050291491
0.059000000000000004,1.7129750000000001,1.0,2672.3525819959677,0.485098450819154,1.2949659275419723,0.9790170230526157,0.28499795,0.7225609106801785
0.059500000000000004,1.71149375,1.0,2670.1143981139244,0.48798665780308237,1.2943175408586165,0.9792230870823029,0.2849357375,0.7237792893588539
0.06,1.71,1.0,2667.878551508397,0.49085866834293784,1.2936634961459843,0.9794241178630047,0.284873,0.7250055836457827
0.0605,1.7084937500000001,1.0,2665.6457768818627,0.49371457046293293,1.2930037866302155,0.9796202659474221,0.2848097375,0.7262397353965406
0.061,1.7069750000000001,1.0,2663.4168077053027,0.49655445218728017,1.29233840553745,0.979811676083022,0.28474595,0.7274816857392263
0.0615,1.7054437500000001,1.0,2661.192376221658,0.499378401540192,1.2916673460938277,0.9799984874783897,0.2846816375,0.7287313750720132
0.062,1.7039,1.0,2658.973213450793,0.5021865065458809,1.2909906015254882,0.9801808340553997,0.2846168,0.7299887430606969
0.0625,1.70234375,1.0,2656.7600491941116,0.5049788552285595,1.2903081650585715,0.9803588446880557,0.2845514375,0.731253728636241
0.063,1.7007750000000001,1.0,2654.553612041817,0.50775553561244,1.2896200299192178,0.9805326434288033,0.28448555,0.7325262699923196
0.0635,1.69919375,1.0,2652.3546293803383,0.5105166357217352,1.2889261893335664,0.9807023497230541,0.28441913750000003,0.7338063045828576
0.064,1.6976,1.0,2650.1638274002635,0.5132622435806576,1.2882266365277575,0.980868078612626,0.2843522,0.7350937691195663
0.0645,1.69599375,1.0,2647.981931106743,0.5159924472134196,1.2875213647279309,0.9810299409287417,0.2842847375,0.7363885995694776
0.065,1.694375,1.0,2645.8096643295517,0.5187073346442337,1.2868103671602267,0.9811880434751965,0.28421675,0.7376907311524744
0.0655,1.69274375,1.0,2643.6477497347496,0.5214069938973125,1.2860936370507843,0.9813424892022639,0.2841482375,0.7390000983388205
0.066,1.6911,1.0,2641.4969088374296,0.5240915129968683,1.285371167625744,0.9814933773718688,0.2840792,0.7403166348466822
0.0665,1.6894437500000001,1.0,2639.357783076258,0.5267609742227822,1.284642952840923,0.9816408033586691,0.2840096375,0.7416402723150515
0.067,1.687775,1.0,2637.2301747180154,0.529415416108673,1.2839089944029738,0.9817848566059932,0.28393955,0.7429709276055236
0.0675,1.68609375,1.0,2635.1150473929506,0.5320549929067719,1.2831692832781636,0.9819256306430465,0.2838689375,0.7443085363766937
0.068,1.6844000000000001,1.0,2633.0123195685724,0.5346797830630097,1.2824238200915619,0.9820632111594182,0.2837978,0.7456530160870188
0.0685,1.68269375,1.0,2630.9219098964227,0.5372898650233171,1.2816726054682384,0.9821976808903478,0.2837261375,0.7470042835737696
0.069,1.680975,1.0,2628.843737210893,0.5398853172336251,1.2809156400332629,0.9823291197374678,0.28365395,0.7483622550532598
0.0695,1.67924375,1.0,2626.777720527395,0.5424662181398642,1.2801529244117054,0.9824576048838054,0.28358123749999997,0.7497268461210755
0.07,1.6775,1.0,2624.723779041295,0.5450326461879654,1.2793844592286354,0.9825832109033446,0.283508,0.7510979717523054
0.07050000000000001,1.67574375,1.0,2622.681832126136,0.5475846798238595,1.278610245109123,0.9827060098654513,0.2834342375,0.7524755463017678
0.07100000000000001,1.673975,1.0,2620.6517993323573,0.5501223974934772,1.277830282678238,0.9828260714344252,0.28335995,0.7538594835042424
0.07150000000000001,1.67219375,1.0,2618.6336003858273,0.5526458776427494,1.27704457256105,0.9829434629644428,0.2832851375,0.7552496964746974
0.07200000000000001,1.6704,1.0,2616.6271551865175,0.5551551987176069,1.2762531153826286,0.9830582495901315,0.2832098,0.7566460977085206
0.0725,1.66859375,1.0,2614.632383806794,0.5576504391639802,1.2754559117680442,0.9831704943130046,0.2831339375,0.7580485990817458
0.073,1.6667750000000001,1.0,2612.649206490332,0.5601316774278005,1.2746529623423661,0.9832802580839674,0.28305755,0.7594571118512845
0.0735,1.66494375,1.0,2610.6775436506523,0.5625989919549983,1.2738442677306643,0.9833875998821054,0.2829806375,0.7608715466551539
0.074,1.6631,1.0,2608.717315869507,0.5650524611915047,1.2730298285580086,0.9834925767899372,0.2829032,0.7622918135127055
0.0745,1.6612437500000001,1.0,2606.7684438956867,0.5674921635832502,1.2722096454494687,0.9835952440653156,0.2828252375,0.7637178218248551
0.075,1.659375,1.0,2604.830848643749,0.5699181775761656,1.2713837190301145,0.9836956552101475,0.28274675,0.7651494803743109
0.0755,1.65749375,1.0,2602.9044511924253,0.5723305816161819,1.2705520499250156,0.9837938620360902,0.2826677375,0.7665866973258032
