Time [s],Phi [rad],STIM [ ],Fsee [N],Gamma [ ],Lcerel [ ],q [ ],Lmtc [m],fisomrel [ ]
0.0,1.8,1.0,20.879360581772133,0.0017454043000212475,1.3790257288876397,0.005778287857338871,0.288653,0.5418989057436016
0.0005,1.79999375,1.0,21.656527219263605,0.00734482327081276,1.378942875554889,0.01845004462377143,0.2886527375,0.5420991615631122
0.001,1.799975,1.0,26.308805202518027,0.012912833928435187,1.3784827424153259,0.04521208789948366,0.28865195,0.5432105028500449
0.0015,1.79994375,1.0,38.863152298881076,0.018449612449398974,1.3774193064436135,0.08337446995683964,0.2886506375,0.5457738109809367
0.002,1.7999,1.0,67.29373137821528,0.023955334020278614,1.375529224258937,0.12960678613842452,0.2886488,0.5503118677534472
0.0025,1.79984375,1.0,117.60412189564921,0.029430172847043117,1.3729952303494355,0.18062170412687287,0.28864643749999996,0.5563601981395776
0.003,1.7997750000000001,1.0,186.05559476009466,0.034874302156186705,1.370308939018169,0.23373560704566904,0.28864354999999997,0.5627273267960393
0.0035,1.79969375,1.0,265.21507149333024,0.04028789420392679,1.3677599149707316,0.28690884685188334,0.2886401375,0.5687265463670927
0.004,1.7996,1.0,350.28101271320855,0.04567112027662322,1.365409288805113,0.33864464942628864,0.2886362,0.5742221034915227
0.0045000000000000005,1.7994937500000001,1.0,438.7889943805299,0.05102415072105856,1.3632419031186171,0.38793058069038727,0.2886317375,0.5792580351363685
0.005,1.799375,1.0,529.289304732461,0.05634715487575125,1.361232704853377,0.43416061486906843,0.28862675,0.5838996586234473
0.0055,1.79924375,1.0,620.7583857882856,0.06164030122229444,1.3593605759761718,0.4770397447681205,0.2886212375,0.5882014554657975
0.006,1.7991000000000001,1.0,712.3549698474375,0.06690375713835169,1.3576098612729295,0.516494406888786,0.2886152,0.5922040405623601
0.006500000000000001,1.79894375,1.0,803.4164065149386,0.07213768932195169,1.3559677901312621,0.5525975205519678,0.2886086375,0.5959404731794189
0.007,1.798775,1.0,893.3637009063964,0.07734226316290851,1.3544245794474903,0.5855130009925215,0.28860155,0.5994362802406558
0.0075,1.79859375,1.0,981.7560084118115,0.08251764357657226,1.3529714542723312,0.6154546410880677,0.2885939375,0.6027141341482003
0.008,1.7984,1.0,1068.2112501808738,0.08766399419307945,1.3516012785803486,0.6426591867490039,0.2885858,0.6057925411373217
0.0085,1.79819375,1.0,1152.4304429771469,0.09278147762085448,1.3503076605996565,0.6673678747520286,0.2885771375,0.6086879557563645
0.009000000000000001,1.797975,1.0,1234.2087441188955,0.09787025629124729,1.349084496152721,0.6898150457010592,0.28856795,0.6114158627098243
0.0095,1.79774375,1.0,1313.373234275756,0.10293049104005589,1.347926593148789,0.7102220464556741,0.2885582375,0.6139894316960367
0.01,1.7975,1.0,1389.7984951523458,0.10796234158225204,1.3468292198772522,0.7287936416064761,0.288548,0.6164205747427827
0.0105,1.79724375,1.0,1463.413827543548,0.11296596712810425,1.3457878590986803,0.7457166104819292,0.2885372375,0.618720524553416
0.011,1.796975,1.0,1534.201151202496,0.11794152696289621,1.3447981273056142,0.761159719759237,0.28852595000000003,0.6209000363729
0.0115,1.79669375,1.0,1602.1331301307534,0.12288917788360765,1.3438564238840545,0.775274778252032,0.2885141375,0.6229679839083848
0.012,1.7964,1.0,1667.208115801229,0.12780907596828847,1.3429593851874388,0.7881975236007628,0.28850180000000003,0.6249325896423914
0.0125,1.79609375,1.0,1729.4607564418845,0.13270137704154686,1.3421036945717932,0.8000489055363048,0.2884889375,0.6268018563786009
0.013000000000000001,1.7957750000000001,1.0,1788.94772471293,0.13756623650041755,1.3412861979809558,0.8109365603693071,0.28847555,0.6285833261087495
0.0135,1.79544375,1.0,1845.7233067647605,0.14240380844787642,1.3405041243137394,0.820956278947203,0.2884616375,0.6302836139200685
0.014,1.7951000000000001,1.0,1899.8361549502936,0.14721424509342607,1.3397550611035922,0.8301932852761703,0.2884472,0.6319084772145865
0.0145,1.79474375,1.0,1951.3579919574486,0.15199769864656887,1.339036595883962,0.8387233025236146,0.2884322375,0.6334636053935427
0.015,1.794375,1.0,2000.3643327218988,0.15675432025649444,1.3383464996096106,0.8466137154040984,0.28841675,0.6349542289602161
0.0155,1.79399375,1.0,2046.9577577198386,0.16148426217326753,1.3376824522038548,0.8539244592560974,0.2884007375,0.6363857189846662
0.016,1.7936,1.0,2091.2085346349822,0.16618767317601946,1.3370426471342123,0.8607090861092804,0.2883842,0.6377622895815143
0.0165,1.7931937500000001,1.0,2133.1886656075953,0.17086470123022482,1.3364253997629483,0.8670153966779127,0.2883671375,0.6390878520227693
0.017,1.792775,1.0,2172.9821411592716,0.1755154943013583,1.335829025452328,0.8728860850952959,0.28834955,0.6403662808154964
0.0175,1.7923437500000001,1.0,2210.677714782415,0.1801401996772226,1.335251902220075,0.8783593584581922,0.2883314375,0.6416012820721341
0.018000000000000002,1.7919,1.0,2246.367716013436,0.18473896472930357,1.3346924705234018,0.8834694632813227,0.2883128,0.6427963972415237
0.0185,1.79144375,1.0,2280.1351504886206,0.1893119353507771,1.3341493506135689,0.888247174742322,0.2882936375,0.6439547560093438
0.019,1.790975,1.0,2312.0487629465265,0.1938592549723651,1.333621377357863,0.8927202028633558,0.28827395,0.6450790069191406
0.0195,1.79049375,1.0,2342.1835521276284,0.1983810670247895,1.333107385623571,0.8969134906735543,0.2882537375,0.6461717781984364
0.02,1.79,1.0,2370.620248713927,0.2028775149387722,1.3326062102779794,0.9008495273684526,0.288233,0.6472356788409457
0.0205,1.78949375,1.0,2397.4316171837963,0.2073487402893416,1.3321168142712239,0.9045486503762713,0.2882117375,0.6482730283110121
0.021,1.788975,1.0,2422.707864559928,0.21179488737661648,1.3316380356866608,0.9080292301729485,0.28818995000000003,0.6492863944065468
0.021500000000000002,1.78844375,1.0,2446.5134782768937,0.2162160961121935,1.3311690014509718,0.9113079686948468,0.2881676375,0.6502777183608617
0.022,1.7879,1.0,2468.9072005057114,0.22061250502927945,1.33070892599608,0.9144000375061326,0.2881448,0.6512487444723192
0.0225,1.78734375,1.0,2489.9507387215413,0.22498425266108113,1.3302570237539086,0.9173192235431218,0.28812143749999997,0.6522012061900837
0.023,1.786775,1.0,2509.70851818472,0.2293314775408053,1.3298125091563813,0.920078074650403,0.28809755,0.6531368265432778
0.0235,1.78619375,1.0,2528.2438322457388,0.2336543175656659,1.3293746307852992,0.9226880341133705,0.28807313749999996,0.6540572467954333
0.024,1.7856,1.0,2545.6139900590097,0.23795290930570676,1.3289427143869192,0.925159560894099,0.2880482,0.654963937027314
0.0245,1.78499375,1.0,2561.894279967488,0.24222739195555723,1.3285159349528277,0.9275021903809327,0.2880227375,0.6558586750065991
0.025,1.784375,1.0,2577.1286549230617,0.2464778987710932,1.3280937786873421,0.929724702196343,0.28799675,0.6567425777635886
0.025500000000000002,1.78374375,1.0,2591.362443505877,0.25070456300819055,1.32767573179478,0.9318351436600736,0.2879702375,0.6576167563544495
0.026000000000000002,1.7831000000000001,1.0,2604.6422358783266,0.2549075179227252,1.327261280479459,0.9338409007953123,0.2879432,0.6584823160042885
0.0265,1.78244375,1.0,2617.0157755908012,0.25908689677057295,1.3268499109456966,0.935748761584318,0.2879156375,0.6593403562333872
0.027,1.781775,1.0,2628.531857241942,0.2632428328076098,1.3264411093978106,0.9375649724021138,0.28788755,0.6601919709666029
0.0275,1.7810937500000001,1.0,2639.233935736924,0.26737545535306895,1.3260344202226224,0.9392952955084826,0.2878589375,0.6610381276469977
0.028,1.7804,1.0,2649.173653706663,0.27148490046187673,1.3256293197975109,0.9409450392616703,0.2878298,0.6618799301282219
0.0285,1.77969375,1.0,2658.384713254593,0.27557129599398694,1.3252254570312554,0.9425191278037609,0.2878001375,0.6627181189375353
0.029,1.778975,1.0,2666.9013298964546,0.27963476976778323,1.3248224815412941,0.944022114084074,0.28776995,0.6635534294813636
0.029500000000000002,1.7782437500000001,1.0,2674.7582569593715,0.28367544960164914,1.3244200429450659,0.9454582125441761,0.2877392375,0.6643865935443929
0.03,1.7775,1.0,2681.990736195844,0.28769346331396806,1.3240177908600093,0.946831328609512,0.287708,0.6652183393054825
0.0305,1.77674375,1.0,2688.634451119624,0.2916889387231237,1.3236153749035624,0.9481450852615915,0.2876762375,0.6660493913457486
0.031,1.775975,1.0,2694.715242423431,0.29566199828079,1.323212538375476,0.9494028571576462,0.28764395,0.666880277541076
0.0315,1.7751937500000001,1.0,2700.2692388758,0.29961277200801917,1.3228089334287914,0.9506077723867807,0.2876111375,0.6677117107734891
0.032,1.7744,1.0,2705.3362749282364,0.30354139160622434,1.3224041813289216,0.9517627384932854,0.2875778,0.6685444638444766
0.0325,1.77359375,1.0,2709.937480300925,0.30744797819242137,1.3219980766900963,0.9528704812177079,0.2875439375,0.6693789496424709
0.033,1.772775,1.0,2714.0941877679697,0.311332652883626,1.321590414126545,0.9539335417504212,0.28750955,0.6702155788964197
0.0335,1.7719437500000002,1.0,2717.827914078018,0.315195536796854,1.3211809882524974,0.9549542914388833,0.2874746375,0.6710547601567256
0.034,1.7711000000000001,1.0,2721.1603418091718,0.3190367510491212,1.320769593682183,0.9559349451565565,0.2874392,0.6718968997734923
0.0345,1.7702437500000001,1.0,2724.1133021604483,0.32285641675744337,1.3203560250298314,0.9568775734693964,0.2874032375,0.6727424018720856
0.035,1.7693750000000001,1.0,2726.7087586774187,0.32665465503883634,1.3199400769096719,0.9577841137206838,0.28736675,0.6735916683259989
0.035500000000000004,1.76849375,1.0,2728.9687919137455,0.33043158701031583,1.3195215439359342,0.958656380141662,0.2873297375,0.6744450987270307
0.036000000000000004,1.7676,1.0,2730.9155850276206,0.33418733378889764,1.319100220722848,0.9594960730837153,0.2872922,0.6753030903527735
0.0365,1.76669375,1.0,2732.562838115812,0.3379220110287972,1.3186759797589422,0.9603047940925094,0.2872541375,0.6761658798618566
0.037,1.765775,1.0,2733.9322852015343,0.341635741163976,1.3182486211839852,0.9610840408659039,0.28721555,0.6770338492171311
0.0375,1.76484375,1.0,2735.046422624845,0.34532864555829773,1.3178179388228068,0.961835219563261,0.2871764375,0.6779073908240516
0.038,1.7639,1.0,2735.9173596979977,0.34900083826685974,1.3173838213170166,0.9625596597633082,0.28713679999999997,0.6787867026983676
0.0385,1.76294375,1.0,2736.5572471488385,0.3526524333447594,1.3169461573082233,0.9632586123899978,0.28709663750000003,0.6796719814016294
0.039,1.761975,1.0,2736.9782718011566,0.35628354484709396,1.3165048354380362,0.9639332552160416,0.28705595,0.6805634220163955
0.0395,1.7609937500000001,1.0,2737.1926515313944,0.35989428682896074,1.3160597443480644,0.9645846979243173,0.2870147375,0.6814612181206512
0.04,1.76,1.0,2737.2126304988465,0.36348477334545715,1.3156107726799169,0.9652139867670139,0.286973,0.6823655617614344
0.0405,1.7589937500000001,1.0,2737.0504746519596,0.3670551184516805,1.315157809075203,0.96582210885841,0.2869307375,0.683276643427672
0.041,1.757975,1.0,2736.718467508645,0.37060543620272807,1.3147007421755317,0.9664099961336492,0.28688795,0.6841946520222243
0.0415,1.75694375,1.0,2736.228906212232,0.3741358406536972,1.3142394606225118,0.9669785290027121,0.2868446375,0.6851197748331405
0.042,1.7559,1.0,2735.5942057394814,0.37764643650981494,1.31377385207828,0.9675285380949366,0.28680079999999997,0.6860521994641506
0.0425,1.75484375,1.0,2734.8251836458326,0.38113734705917246,1.3133038187698192,0.968060813369834,0.2867564375,0.6869920827303837
0.043000000000000003,1.753775,1.0,2733.9291451289737,0.38460868006469684,1.3128292948642108,0.9685761025602592,0.28671155,0.6879395161822723
0.043500000000000004,1.75269375,1.0,2732.913380930648,0.3880605430311246,1.3123502147003916,0.9690751137840067,0.28666613750000003,0.6888945898489136
0.044,1.7516,1.0,2731.785184632867,0.39149304346319225,1.311866512617298,0.9695585180592515,0.2866202,0.6898573925635356
0.0445,1.75049375,1.0,2730.551851121001,0.39490628886563656,1.3113781229538668,0.9700269516107983,0.2865737375,0.6908280119442813
0.045,1.7493750000000001,1.0,2729.220675141797,0.39830038674319407,1.310884980049035,0.9704810180110955,0.28652675,0.6918065343747166
0.0455,1.74824375,1.0,2727.7989499569644,0.4016754446006013,1.310387018241739,0.9709212901693618,0.2864792375,0.6927930449840638
0.046,1.7471,1.0,2726.293966092833,0.4050315699425948,1.3098841718709153,0.9713483121809595,0.2864312,0.6937876276271588
0.0465,1.7459437500000001,1.0,2724.713010184885,0.4083688702739113,1.3093763752755012,0.9717626010480881,0.28638263750000004,0.6947903648641334
0.047,1.744775,1.0,2723.049364070622,0.4116874132796337,1.308863690198232,0.972164652259638,0.28633355,0.6958010869806459
0.0475,1.74359375,1.0,2721.3135168400886,0.41498732187785303,1.3083460218474081,0.9725549331988429,0.28628393750000003,0.6968199324326458
0.048,1.7424,1.0,2719.5271483021056,0.4182687495826667,1.3078231734337797,0.9729338852522268,0.2862338,0.6978472381924654
0.0485,1.74119375,1.0,2717.692877622735,0.4215317939920542,1.3072951215567943,0.9733019336515474,0.2861831375,0.6988829983016422
0.049,1.739975,1.0,2715.8133218454964,0.42477655270399495,1.3067618428158996,0.973659483491319,0.28613195,0.6999272059700042
0.0495,1.73874375,1.0,2713.8910956685677,0.4280031233164684,1.3062233138105432,0.9740069208626022,0.2860802375,0.7009798535678877
0.05,1.7375,1.0,2711.928811233866,0.43121160342745396,1.305679511140173,0.9743446139130638,0.286028,0.7020409326183188
0.0505,1.73624375,1.0,2709.929077927972,0.43440209063493107,1.3051304114042368,0.9746729138387186,0.2859752375,0.703110433789162
0.051000000000000004,1.734975,1.0,2707.894502195787,0.43757468253687914,1.3045759912021822,0.9749921558123246,0.28592195,0.7041883468852305
0.051500000000000004,1.73369375,1.0,2705.8276873657746,0.44072947673127766,1.3040162271334566,0.9753026598530058,0.2858681375,0.7052746608403653
0.052000000000000005,1.7324,1.0,2703.731233487534,0.443866570816106,1.3034510957975078,0.9756047316413027,0.2858138,0.7063693637094761
0.0525,1.73109375,1.0,2701.607737181818,0.4469860623893436,1.3028805737937839,0.9758986632835227,0.28575893750000003,0.7074724426605492
0.053,1.729775,1.0,2699.459791502127,0.45008804904896993,1.3023046377217324,0.976184734028957,0.28570355000000003,0.7085838839666203
0.0535,1.72844375,1.0,2697.2899858089045,0.45317262839296446,1.3017232641808008,0.9764632109432436,0.2856476375,0.7097036729977129
0.054,1.7271,1.0,2695.100905655781,0.45623989801930653,1.3011364297704369,0.9767343495409179,0.2855912,0.7108317942127385
0.0545,1.7257437500000001,1.0,2692.8951326877186,0.4592899555259756,1.3005441110900886,0.9769983943799396,0.2855342375,0.7119682311513663
0.055,1.724375,1.0,2690.6752445514044,0.46232289851095115,1.2999462847392034,0.9772555796207872,0.28547675,0.7131129664258569
0.0555,1.72299375,1.0,2688.44381481827,0.4653388245722126,1.2993429273172288,0.977506129552507,0.2854187375,0.714265981712858
0.056,1.7216,1.0,2686.2034129185436,0.46833783130773937,1.298734015423613,0.977750259087926,0.2853602,0.7154272577451674
0.0565,1.72019375,1.0,2683.9566040888762,0.47132001631551085,1.2981195256578033,0.977988174230078,0.28530113749999997,0.7165967743034641
0.057,1.718775,1.0,2681.705949330937,0.47428547719350655,1.2974994346192477,0.9782200725117324,0.28524155,0.7177745102079974
0.0575,1.71734375,1.0,2679.4540053823775,0.47723431153970586,1.2968737189073938,0.9784461434097832,0.2851814375,0.7189604433102479
0.058,1.7159,1.0,2677.202547755615,0.4801666012682469,1.2962423622524688,0.9786665677779551,0.2851208,0.720154537012363
0.0585,1.71444375,1.0,2674.9510604496804,0.4830824484541563,1.295605369397631,0.9788815221314353,0.2850596375,0.7213567142324302
0.059000000000000004,1.7129750000000001,1.0,2672.700276002342,0.48598194773476333,1.2949627336253233,0.9790911746970633,0.28499795,0.7225669189166982
0.059500000000000004,1.71149375,1.0,2670.4510404792723,0.48886518783394234,1.2943144471634038,0.9792956865186261,0.2849357375,0.7237850962720025
0.06,1.71,1.0,2668.204198521622,0.49173225747556765,1.2936605022397307,0.9794952123466392,0.284873,0.7250111907662918
0.0605,1.7084937500000001,1.0,2665.9605933480343,0.49458324538351384,1.2930008910821627,0.9796899009310167,0.2848097375,0.7262451461258248
0.061,1.7069750000000001,1.0,2663.721066757472,0.49741824028165527,1.2923356059185578,0.9798798952979504,0.28474595,0.7274869053323652
0.0615,1.7054437500000001,1.0,2661.4864591333935,0.5002373308938662,1.2916646389767743,0.9800653330119591,0.2846816375,0.7287364106203696
0.062,1.7039,1.0,2659.2576094497126,0.5030406059440213,1.2909879824846708,0.9802463464240118,0.2846168,0.7299936034741739
0.0625,1.70234375,1.0,2657.0353552774586,0.5058281541559948,1.2903056286701058,0.9804230629065642,0.2845514375,0.7312584246251743
0.063,1.7007750000000001,1.0,2654.8205327932205,0.5086000642536611,1.289617569760937,0.9805956050762865,0.28448555,0.7325308140490074
0.0635,1.69919375,1.0,2652.613976788969,0.5113564249608947,1.2889237979850234,0.980764091005219,0.28441913750000003,0.7338107109627212
0.064,1.6976,1.0,2650.4165206825687,0.5140973250015699,1.288224305570223,0.9809286344210333,0.2843522,0.7350980538219476
0.0645,1.69599375,1.0,2648.2289635586276,0.5168228529301024,1.2875190850486624,0.9810893449001833,0.2842847375,0.7363927797601404
0.065,1.694375,1.0,2646.0518946660304,0.5195330932578776,1.2868081308776946,0.981246327855851,0.28421675,0.7376948216276887
0.0655,1.69274375,1.0,2643.886466098886,0.5222281332463966,1.2860914323077874,0.9813996848449915,0.2841482375,0.7390041210461693
0.066,1.6911,1.0,2641.7326961108183,0.5249080567986267,1.2853689890483457,0.9815495140755722,0.2840792,0.7403205997752715
0.0665,1.6894437500000001,1.0,2639.5906029699045,0.527572947817535,1.2846408008087753,0.981695910275407,0.2840096375,0.7416441789379435
0.067,1.687775,1.0,2637.460204959158,0.5302228902060885,1.2839068672984815,0.9818389648386744,0.28393955,0.7429747790202883
0.0675,1.68609375,1.0,2635.3415203777517,0.5328579678672541,1.2831671882268694,0.981978765965256,0.2838689375,0.7443123198714564
0.068,1.6844000000000001,1.0,2633.2345675409224,0.5354782647039991,1.2824217633033446,0.982115398793306,0.2837978,0.7456567207035383
0.0685,1.68269375,1.0,2631.136541243574,0.5380838642030152,1.2816706183775262,0.9822489467353914,0.2837261375,0.7470078531339988
0.069,1.680975,1.0,2629.0521866604727,0.5406748485933744,1.280913709411773,0.9823794869918983,0.28365395,0.7483657138536923
0.0695,1.67924375,1.0,2626.981176670538,0.5432512995255491,1.280151039295555,0.9825070962771671,0.28358123749999997,0.7497302142271058
0.07,1.6775,1.0,2624.921546318544,0.5458132985019628,1.2793826261046959,0.9826318494103599,0.283508,0.7511012379810067
0.07050000000000001,1.67574375,1.0,2622.8739749981833,0.548360926790682,1.2786084634242283,0.9827538175633413,0.2834342375,0.7524787120803267
0.07100000000000001,1.673975,1.0,2620.83541211935,0.5508942649659673,1.2778285794296669,0.9828730710745708,0.28335995,0.753862501441624
0.07150000000000001,1.67219375,1.0,2618.809504442141,0.553413392992042,1.277042940191176,0.98298967510035,0.2832851375,0.7552525806448611
0.07200000000000001,1.6704,1.0,2616.7946802004003,0.5559183906639905,1.2762515601721725,0.9831036948188374,0.2832098,0.7566488376991091
0.0725,1.66859375,1.0,2614.798614663362,0.5584093374597696,1.2754543679831032,0.9832151894033908,0.2831339375,0.758051311093843
0.073,1.6667750000000001,1.0,2612.812507845562,0.560886311927756,1.2746514451877955,0.9833242228583366,0.28305755,0.7594597693120388
0.0735,1.6649497438063612,1.0,2611.1149071205623,0.5633493923444451,1.2738429098493511,0.9834308587604178,0.2829808892398672,0.7608739181289546
0.074,1.6631244849320865,1.0,2609.987914896224,0.5657986569123205,1.2730290741040282,0.98353516726727,0.2829042283671476,0.762293127212682
0.0745,1.661299226057812,1.0,2609.3807716801384,0.5682341834110894,1.2722104076125855,0.9836372233306651,0.2828275674944281,0.7637164986842795
0.075,1.6594739671835375,1.0,2609.2537674709174,0.5706560483763029,1.271387277859992,0.983737095197721,0.28275090662170854,0.765143320841019
