Time [s],Phi [rad],STIM [ ],Fsee [N],Gamma [ ],Lcerel [ ],q [ ],Lmtc [m],fisomrel [ ]
0.0,1.8,1.0,18.061067759987544,0.0003103626087518583,1.3793292389165914,0.005024984446488751,0.288653,0.5411649505834168
0.0005,1.79999375,1.0,18.46707436269526,0.005917831028799915,1.3792813005645619,0.013795386206738782,0.2886527375,0.5412809153126736
0.001,1.799975,1.0,22.03162107410526,0.011493845984533945,1.3788962955700217,0.03719091867558816,0.28865195,0.5422117257758762
0.0015,1.79994375,1.0,31.967348824727605,0.017038583906017528,1.3779702327095007,0.07275646828944074,0.2886506375,0.5444467576069065
0.002,1.7999,1.0,55.44345197946367,0.022552220231448313,1.3762484259908514,0.11726254816298688,0.2886488,0.5485877612863739
0.0025,1.79984375,1.0,100.18557998699744,0.028034929416303207,1.3737885415575708,0.16733854332641734,0.28864643749999996,0.5544710656896179
0.003,1.7997750000000001,1.0,164.9090195731493,0.03348688493866356,1.3710673560933815,0.220128641581648,0.28864354999999997,0.5609343662049351
0.0035,1.79969375,1.0,242.1256501854549,0.03890825930089084,1.3684485325264655,0.2734436836475743,0.2886401375,0.5671099454052746
0.004,1.7996,1.0,326.18029403111865,0.044299224039653244,1.3660317034888914,0.325655334729528,0.2886362,0.5727703827838658
0.0045000000000000005,1.7994937500000001,1.0,414.1402625520867,0.04965994973138531,1.3638087761570066,0.3756340354463422,0.2886317375,0.5779437958901184
0.005,1.799375,1.0,504.3784105399867,0.05499060598387959,1.3617530994192568,0.4226788388960075,0.28862675,0.5826999204737286
0.0055,1.79924375,1.0,595.7945679090683,0.06029136147439012,1.3598412722273276,0.4664243297010954,0.2886212375,0.5870990395466145
0.006,1.7991000000000001,1.0,687.5230592072239,0.06556238391762073,1.358055604238123,0.5067480071050181,0.2886152,0.5911868120971702
0.006500000000000001,1.79894375,1.0,778.8515819315078,0.07080384007158876,1.3563825427224927,0.5436914993125191,0.2886086375,0.5949983521768197
0.007,1.798775,1.0,869.1952257890308,0.07601589585886505,1.3548112045169367,0.5773997286849335,0.28860155,0.5985618914197721
0.0075,1.79859375,1.0,958.0630315306693,0.08119871601154995,1.3533327389113357,0.6080769476314047,0.2885939375,0.6019004324407331
0.008,1.7984,1.0,1045.0811164155764,0.08635246481001582,1.3519391933945326,0.635955838670545,0.2885858,0.6050344520178756
0.0085,1.79819375,1.0,1129.9290135503256,0.09147730509832416,1.3506239799344026,0.6612777817574983,0.2885771375,0.6079809460936212
0.009000000000000001,1.797975,1.0,1212.362970832165,0.09657339886887813,1.3493811125470467,0.6842797481925365,0.28856795,0.6107552238373337
0.0095,1.79774375,1.0,1292.2207701812295,0.10164090788731524,1.3482048933671436,0.7051866564689425,0.2885582375,0.6133716589131895
0.01,1.7975,1.0,1369.3666774760932,0.10667999221884708,1.3470904501521919,0.7242076728204924,0.288548,0.6158425363939695
0.0105,1.79724375,1.0,1443.7123292522008,0.11169081101522324,1.3460332577576914,0.7415342233160475,0.2885372375,0.6181791598392827
0.011,1.796975,1.0,1515.2132052440052,0.1166735228010165,1.3450290540577425,0.7573396852738659,0.28852595000000003,0.6203920658674087
0.0115,1.79669375,1.0,1583.8717095835834,0.12162828626051708,1.344073701757409,0.7717799296720032,0.2885141375,0.6224913512721736
0.012,1.7964,1.0,1649.6745637405197,0.12655525733481376,1.3431638453702766,0.7849947016556107,0.28850180000000003,0.6244852526488678
0.0125,1.79609375,1.0,1712.6393513567807,0.13145459156499034,1.3422962493027124,0.7971086262787594,0.2884889375,0.6263816253612735
0.013000000000000001,1.7957750000000001,1.0,1772.8134111815123,0.13632644409741854,1.3414677585714772,0.8082326124651159,0.28847555,0.6281880416331995
0.0135,1.79544375,1.0,1830.262778288766,0.14117096990735373,1.340675378320702,0.8184652912946496,0.2884616375,0.6299116282080568
0.014,1.7951000000000001,1.0,1885.0452824949061,0.14598832218487287,1.3399165233004464,0.8278944345147167,0.2884472,0.6315585369494168
0.0145,1.79474375,1.0,1937.2161931761532,0.1507786525333327,1.3391889003200803,0.8365981247862753,0.2884322375,0.6331342152412456
0.015,1.794375,1.0,1986.851737791319,0.15554211255608996,1.338490216188973,0.8446457689657318,0.28841675,0.6346440482919082
0.0155,1.79399375,1.0,2034.0312598814553,0.16027885283275517,1.337818346455206,0.8520991687126588,0.2884007375,0.6360929999944847
0.016,1.7936,1.0,2078.85717005655,0.16498902488856684,1.3371711007531777,0.8590133438253696,0.2883842,0.63748612505386
0.0165,1.7931937500000001,1.0,2121.4021018467843,0.16967277692088817,1.3365467557217274,0.8654374939994032,0.2883671375,0.6388274273379462
0.017,1.792775,1.0,2161.7393249249862,0.17433025628582732,1.3359437079795944,0.8714155812261093,0.28834955,0.6401206156534471
0.0175,1.7923437500000001,1.0,2199.9530205329906,0.17896161033949257,1.3353603541455177,0.8769869137949968,0.2883314375,0.6413693650108194
0.018000000000000002,1.7919,1.0,2236.130688451794,0.1835669856859428,1.334795157758344,0.8821867107736862,0.2883128,0.6425771758340741
0.0185,1.79144375,1.0,2270.3643752291546,0.18814652921259994,1.3342466258093415,0.8870465733479161,0.2882936375,0.6437474270888713
0.019,1.790975,1.0,2302.7355411914705,0.19270038612180349,1.3337134492010847,0.8915949365049969,0.28827395,0.6448830797905455
0.0195,1.79049375,1.0,2333.3122550369467,0.19722869923587394,1.3331945172576571,0.8958574325771097,0.2882537375,0.6459866507316225
0.02,1.79,1.0,2362.1682882438076,0.20173161137713178,1.3326887193031425,0.8998571621801572,0.288233,0.64706063790955
0.0205,1.78949375,1.0,2389.382638951339,0.20620926536789747,1.3321949446616244,0.9036149783640712,0.2882117375,0.6481075214963659
0.021,1.788975,1.0,2415.0266929098602,0.21066180220135705,1.3317122023883097,0.9071497609366836,0.28818995000000003,0.6491295114371718
0.021500000000000002,1.78844375,1.0,2439.1879829529416,0.21508936553364946,1.3312393857889988,0.9104785845546329,0.2881676375,0.6501290475195372
0.022,1.7879,1.0,2461.9305593955055,0.2194920948761833,1.3307756509850637,0.9136169885797254,0.2881448,0.6511079997302531
0.0225,1.78734375,1.0,2483.3112694226893,0.22387012811726303,1.330320252587422,0.9165791076082745,0.28812143749999997,0.6520680189112937
0.023,1.786775,1.0,2503.389657720402,0.2282236031451932,1.3298724452069912,0.9193778007150457,0.28809755,0.6530107458327825
0.0235,1.78619375,1.0,2522.227741569668,0.23255265784827822,1.3294314834546888,0.9220247842058182,0.28807313749999996,0.6539378115715662
0.024,1.7856,1.0,2539.889167039144,0.23685742996509734,1.3289966278892966,0.9245307499710927,0.2880482,0.6548508253745908
0.0245,1.78499375,1.0,2556.4272099871396,0.2411380542177882,1.3285672557377812,0.9269054873646393,0.2880227375,0.6557511430387228
0.025,1.784375,1.0,2571.9159682604136,0.24539467053077835,1.3281425653065686,0.929157925955199,0.28799675,0.656640487353394
0.025500000000000002,1.78374375,1.0,2586.398317398754,0.24962741147589942,1.3277220630686783,0.93129629682415,0.2879702375,0.6575199278635498
0.026000000000000002,1.7831000000000001,1.0,2599.918390889392,0.25383640962498305,1.3273052554971294,0.9333281520312208,0.2879432,0.6583905284565015
0.0265,1.78244375,1.0,2612.521475267858,0.25802179754986077,1.326891649064941,0.9352604297921417,0.2879156375,0.6592533474859805
0.027,1.781775,1.0,2624.253910619736,0.2621837078223643,1.3264807502451326,0.9370995126058325,0.28788755,0.6601094378806613
0.0275,1.7810937500000001,1.0,2635.162996482481,0.2663222730143252,1.326072065510723,0.9388512791693984,0.2878589375,0.6609598472371517
0.028,1.7804,1.0,2645.2875011640294,0.2704376217586798,1.3256651881447854,0.9405211619906603,0.2878298,0.6618054375976452
0.0285,1.77969375,1.0,2654.680803005205,0.2745298897975367,1.3252595834150958,0.9421141611887851,0.2878001375,0.6626473322596886
0.029,1.778975,1.0,2663.3774996467764,0.2785992055361713,1.3248548962717879,0.943634921270218,0.28776995,0.6634862766844578
0.029500000000000002,1.7782437500000001,1.0,2671.409099688506,0.2826456958577553,1.3244508050935473,0.9450877442102414,0.2877392375,0.6643229434762404
0.03,1.7775,1.0,2678.8075905878795,0.2866694876454604,1.324046988259059,0.9464766153785739,0.287708,0.6651580019140091
0.0305,1.77674375,1.0,2685.605395302801,0.29067070778245835,1.3236431241470088,0.9478052308574821,0.2876762375,0.6659921179603439
0.031,1.775975,1.0,2691.8353312269655,0.2946494831519208,1.3232388911360817,0.949077022080093,0.28764395,0.6668259542637638
0.0315,1.7751937500000001,1.0,2697.5305714192114,0.2986059406370195,1.3228339676049632,0.9502951780808344,0.2876111375,0.6676601701544567
0.032,1.7744,1.0,2702.7109945367365,0.30254020082967475,1.3224281562863125,0.9514626788745781,0.2875778,0.6684951659241367
0.0325,1.77359375,1.0,2707.4171719236692,0.3064523959229661,1.3220210732268403,0.9525822804848021,0.2875439375,0.6693317232073788
0.033,1.772775,1.0,2711.6797482128954,0.3103426516534805,1.3216124275646342,0.9536565609072588,0.28750955,0.6701704286861702
0.0335,1.7719437500000002,1.0,2715.5189594863414,0.3142110883346435,1.321202025264842,0.9546879349374151,0.2874746375,0.6710116676204203
0.034,1.7711000000000001,1.0,2718.9552060560395,0.3180578262798805,1.3207896722926116,0.9556786575047388,0.2874392,0.6718558231836699
0.0345,1.7702437500000001,1.0,2722.00903615329,0.321882985802617,1.3203751746130907,0.9566308361417124,0.2874032375,0.6727032764401519
0.035,1.7693750000000001,1.0,2724.701130451783,0.3256866872162783,1.3199583381914275,0.9575464423411135,0.28736675,0.6735544063194518
0.035500000000000004,1.76849375,1.0,2727.052287426284,0.32946905083428996,1.3195389689927692,0.9584273219123041,0.2873297375,0.6744095895887694
0.036000000000000004,1.7676,1.0,2729.0834095452497,0.3332301969700774,1.3191168729822638,0.959275204435155,0.2872922,0.6752692008227734
0.0365,1.76669375,1.0,2730.8154902987803,0.336970245937066,1.3186918561250591,0.9600917118995629,0.2872541375,0.6761336123710606
0.037,1.765775,1.0,2732.265845686879,0.3406893148700098,1.3182637585130272,0.9608783693092251,0.28721555,0.6770031250547242
0.0375,1.76484375,1.0,2733.449898011711,0.3443875217118358,1.3178324380226807,0.9616366109629051,0.2871764375,0.6778780017237208
0.038,1.7639,1.0,2734.3899921470597,0.34806499010773906,1.3173976901550353,0.962367780238921,0.28713679999999997,0.6787586297329344
0.0385,1.76294375,1.0,2735.097788470222,0.35172183360480924,1.3169594078863955,0.9630731479640763,0.28709663750000003,0.6796451969142396
0.039,1.761975,1.0,2735.584984120155,0.355358165750136,1.316517484193065,0.9637539104332618,0.28705595,0.6805378896686636
0.0395,1.7609937500000001,1.0,2735.8633081164658,0.35897410009080893,1.316071812051348,0.9644111945809589,0.2870147375,0.6814368929418921
0.04,1.76,1.0,2735.9445167314134,0.3625697501739177,1.3156222844375483,0.9650460627406378,0.286973,0.6823423901990542
0.0405,1.7589937500000001,1.0,2735.8403891164758,0.3661452295465519,1.3151687943279697,0.9656595170289164,0.2869307375,0.6832545633987689
0.041,1.757975,1.0,2735.562723182192,0.36970065175580114,1.314711234698917,0.9662525033877086,0.28688795,0.6841735929664644
0.0415,1.75694375,1.0,2735.1233317327733,0.3732361303487551,1.3142494985266933,0.9668259153143408,0.2868446375,0.6850996577669701
0.042,1.7559,1.0,2734.5336325058242,0.3767517782860632,1.3137834824777546,0.9673805975183017,0.28680079999999997,0.6860329276917496
0.0425,1.75484375,1.0,2733.795395849238,0.3802476937805196,1.3133131709146215,0.9679173537245224,0.2867564375,0.6869733958272486
0.043000000000000003,1.753775,1.0,2732.9344208735843,0.3837240104303049,1.3128383300267101,0.9684369324541563,0.28671155,0.6879214900066939
0.043500000000000004,1.75269375,1.0,2731.9567956938945,0.3871808344714883,1.3123589050275615,0.9689400525042738,0.28666613750000003,0.6888772782206085
0.044,1.7516,1.0,2730.8686118623727,0.39061827214013894,1.3118748411307173,0.9694273949153163,0.2866202,0.6898408273905927
0.0445,1.75049375,1.0,2729.6759631134655,0.39403642967232605,1.3113860835497182,0.9698996053242711,0.2865737375,0.690812203353214
0.045,1.7493750000000001,1.0,2728.384944174406,0.39743541330411875,1.3108925774981057,0.9703572961488678,0.28652675,0.6917914708437001
0.0455,1.74824375,1.0,2727.001649642631,0.4008153292715862,1.3103942681894212,0.970801048616455,0.2864792375,0.6927786934794442
0.046,1.7471,1.0,2725.532172930373,0.4041762838107976,1.3098911008372058,0.9712314146500111,0.2864312,0.6937739337433186
0.0465,1.7459437500000001,1.0,2723.982605274715,0.4075183831578221,1.3093830206550003,0.97164891862262,0.28638263750000004,0.6947772529667973
0.047,1.744775,1.0,2722.35903481492,0.4108417335487288,1.3088699728563467,0.9720540589907603,0.28633355,0.6957887113128817
0.0475,1.74359375,1.0,2720.66754573657,0.414146441219587,1.3083519026547854,0.9724473098158405,0.28628393750000003,0.6968083677588448
0.048,1.7424,1.0,2718.9142174810077,0.41743261240646573,1.3078287552638583,0.972829122182612,0.2862338,0.6978362800787743
0.0485,1.74119375,1.0,2717.1036462200827,0.4207003500022653,1.307300489360382,0.9731999260466049,0.2861831375,0.6988724784402737
0.049,1.739975,1.0,2715.235722843184,0.423949747255666,1.3067671064652318,0.9735601327091981,0.28613195,0.6999169081344043
0.0495,1.73874375,1.0,2713.324606439319,0.427180929195454,1.3062284780395421,0.9739101290810281,0.2860802375,0.7009697679769951
0.05,1.7375,1.0,2711.3730873876057,0.4303939942820283,1.3056845790574678,0.9742502878094539,0.286028,0.7020310526991669
0.0505,1.73624375,1.0,2709.3839530938485,0.43358904097578793,1.3051353844931641,0.9745809643393469,0.2859752375,0.7031007561550029
0.051000000000000004,1.734975,1.0,2707.3599877899537,0.43676616773713184,1.3045808693207863,0.9749024978575817,0.28592195,0.704178871313119
0.051500000000000004,1.73369375,1.0,2705.3039723469706,0.4399254730264591,1.3040210085144894,0.9752152121775811,0.2858681375,0.7052653902481911
0.052000000000000005,1.7324,1.0,2703.218684101625,0.4430670553041687,1.3034557770484287,0.975519416568219,0.2858138,0.7063603041324436
0.0525,1.73109375,1.0,2701.106896697329,0.4461910130306595,1.3028851498967597,0.9758154065310366,0.28575893750000003,0.7074636032270962
0.053,1.729775,1.0,2698.971379938812,0.4492974446663307,1.302309102033637,0.9761034645294102,0.28570355000000003,0.7085752768737756
0.0535,1.72844375,1.0,2696.814899660445,0.45238644867158123,1.3017276084332163,0.9763838606730351,0.2856476375,0.7096953134858791
0.054,1.7271,1.0,2694.640217609003,0.45545812350681003,1.3011406440696527,0.9766568533608165,0.2855912,0.7108237005399067
0.0545,1.7257437500000001,1.0,2692.4500913395323,0.45851256763241616,1.3005481839171011,0.9769226898850293,0.2855342375,0.7119604245667486
0.055,1.724375,1.0,2690.2472741257866,0.46154987950879867,1.299950202949717,0.9771816069993842,0.28547675,0.7131054711429324
0.0555,1.72299375,1.0,2688.034254805646,0.4645701510159377,1.2993466785238348,0.977433830972082,0.2854187375,0.7142588203340177
0.056,1.7216,1.0,2685.812460259827,0.467573467381864,1.2987375976902102,0.9776795785560819,0.2853602,0.7154204328006445
0.0565,1.72019375,1.0,2683.584163847677,0.4705599513034169,1.2981229397189842,0.9779190605029228,0.28530113749999997,0.7165902832057109
0.057,1.718775,1.0,2681.3505643874682,0.47352969322732924,1.2975026937006917,0.9781524764869797,0.28524155,0.7177683266608177
0.0575,1.71734375,1.0,2679.112858740419,0.476482783600334,1.296876848725868,0.9783800180405786,0.2851814375,0.7189545175082848
0.058,1.7159,1.0,2676.872241798618,0.4794193128691642,1.2962453938850482,0.9786018689491683,0.2851208,0.7201488093172597
0.0585,1.71444375,1.0,2674.629906475201,0.4823393714805527,1.2956083182687674,0.9788182056242598,0.2850596375,0.7213511548798186
0.059000000000000004,1.7129750000000001,1.0,2672.387043696809,0.48524304988123257,1.2949656109675611,0.9790291974555497,0.28499795,0.7225615062070581
0.059500000000000004,1.71149375,1.0,2670.1448423994,0.4881304385179367,1.2943172610719644,0.9792350071435426,0.2849357375,0.7237798145251821
0.06,1.71,1.0,2667.9044895259794,0.491001627837398,1.2936632576725124,0.979435791013897,0.284873,0.7250060302715803
0.0605,1.7084937500000001,1.0,2665.667170027434,0.4938567082863495,1.2930035898597403,0.9796316993146317,0.2848097375,0.7262401030908964
0.061,1.7069750000000001,1.0,2663.4340668659956,0.4966957703115241,1.2923382467241833,0.9798228764972511,0.28474595,0.7274819818310923
0.0615,1.7054437500000001,1.0,2661.206361020828,0.49951890435965485,1.2916672173563766,0.9800094614827778,0.2846816375,0.7287316145395031
0.062,1.7039,1.0,2658.985231497292,0.5023262008774746,1.2909904908468552,0.9801915879136074,0.2846168,0.7299889484588848
0.0625,1.70234375,1.0,2656.7718553373547,0.5051177503117164,1.2903080562861546,0.9803693843920457,0.2845514375,0.7312539300234531
0.063,1.7007750000000001,1.0,2654.567407634326,0.507893643109113,1.2896199027648099,0.9805429747063233,0.28448555,0.7325265048549174
0.0635,1.69919375,1.0,2652.3696935712483,0.5106539458683603,1.2889260504289186,0.980712477871867,0.28441913750000003,0.7338065605342665
0.064,1.6976,1.0,2650.176076984965,0.5133987368563842,1.2882265235294652,0.9808780096105852,0.2843522,0.7350939768307354
0.0645,1.69599375,1.0,2647.9938609951214,0.5161281565428781,1.2875212546333963,0.9810396812854262,0.2842847375,0.7363888014478244
0.065,1.694375,1.0,2645.8230756274634,0.5188422860467468,1.2868102433437794,0.981197599273551,0.28421675,0.7376909576310016
0.0655,1.69274375,1.0,2643.663750899915,0.5215412064868943,1.2860934892636817,0.9813518661264111,0.2841482375,0.7390003679876647
0.066,1.6911,1.0,2641.515916823436,0.5242249989822249,1.2853709919961707,0.981502580733194,0.2840792,0.7403169544869945
0.0665,1.6894437500000001,1.0,2639.3796034030092,0.5268937446516428,1.2846427511443135,0.9816498384761486,0.2840096375,0.7416406384598101
0.067,1.687775,1.0,2637.2548406381543,0.5295475246140526,1.2839087663111775,0.981793731378253,0.28393955,0.7429713405984224
0.0675,1.68609375,1.0,2635.1416585241786,0.5321864199883584,1.2831690370998299,0.9819343482436494,0.2838689375,0.7443089809564898
0.068,1.6844000000000001,1.0,2633.040087052889,0.5348105118934645,1.2824235631133383,0.9820717747912496,0.2837978,0.745653478948872
0.0685,1.68269375,1.0,2630.950156213339,0.5374198814482751,1.2816723439547697,0.9822060937818877,0.2837261375,0.7470047533514858
0.069,1.680975,1.0,2628.871895993028,0.5400146097716946,1.2809153792271915,0.9823373851393752,0.28365395,0.7483627223011582
0.0695,1.67924375,1.0,2626.8053363784284,0.5425947779826271,1.280152668533671,0.9824657260657863,0.28358123749999997,0.7497273032954817
0.07,1.6775,1.0,2624.7505073560337,0.5451604671999772,1.2793842114772758,0.9825911911512927,0.283508,0.7510984131926686
0.07050000000000001,1.67574375,1.0,2622.70743891344,0.547711758542649,1.278610007661073,0.982713852478831,0.2834342375,0.7524759682114059
0.07100000000000001,1.673975,1.0,2620.676161039721,0.5502487331295467,1.2778300566881298,0.9828337797238892,0.28335995,0.7538598839307098
0.07150000000000001,1.67219375,1.0,2618.656703726908,0.5527714720795748,1.2770443581615136,0.9829510402496608,0.2832851375,0.7552500752897798
0.07200000000000001,1.6704,1.0,2616.649096970627,0.5552800565116374,1.2762529116842918,0.98306569919782,0.2832098,0.7566464565878537
0.0725,1.66859375,1.0,2614.6533707708113,0.5577745675446388,1.2754557168595317,0.9831778195751377,0.2831339375,0.7580489414840609
0.073,1.6667750000000001,1.0,2612.6695551329926,0.5602550862974834,1.2746527732903006,0.9832874623361624,0.28305755,0.7594574429972791
0.0735,1.66494375,1.0,2610.6976800690195,0.5627216938890754,1.2738440805796656,0.9833946864621655,0.2829806375,0.7608718735059874
0.074,1.6631,1.0,2608.7377755977113,0.5651744714383192,1.2730296383306943,0.9834995490365421,0.2829032,0.7622921447481196
0.0745,1.6612437500000001,1.0,2606.789098511211,0.5676134683724343,1.272209453338392,0.9836021038397473,0.2828252375,0.763718155335503
0.075,1.659375,1.0,2604.851899012695,0.5700387825692531,1.271383523165289,0.9837024052717671,0.28274675,0.7651498193698822
0.0755,1.65749375,1.0,2602.926464715458,0.5724505104738821,1.2705518450226845,0.9838005059082899,0.2826677375,0.7665870508763435
