Time [s],Phi [rad],STIM [ ],Fsee [N],Gamma [ ],Lcerel [ ],q [ ],Lmtc [m],fisomrel [ ]
0.0,1.8,1.0,18.080016243727535,0.000341580708180097,1.3793271221339425,0.00503024019025332,0.288653,0.5411700714718785
0.0005,1.79999375,1.0,18.49570746941646,0.005948874019379576,1.3792781376420233,0.013886642810043953,0.2886527375,0.5412885660293316
0.001,1.799975,1.0,22.08343963370761,0.011524714848484,1.3788910560157044,0.037357349724850046,0.28865195,0.5422243867069655
0.0015,1.79994375,1.0,32.07075290596607,0.017069279620054112,1.377961554682985,0.07298182617639923,0.2886506375,0.5444676759618012
0.002,1.7999,1.0,55.64859451026064,0.022582743766783063,1.376235354750923,0.11752785793132357,0.2886488,0.5486191257507882
0.0025,1.79984375,1.0,100.51564501546859,0.02806528173875309,1.3737728947038357,0.1676261670061262,0.28864643749999996,0.5545083647471791
0.003,1.7997750000000001,1.0,165.3290347312291,0.033517067008577345,1.3710518338721347,0.22042471008490314,0.28864354999999997,0.5609710987886664
0.0035,1.79969375,1.0,242.59503836666622,0.038938272073249014,1.3684342143141224,0.2737376935119198,0.2886401375,0.5671435896770898
0.004,1.7996,1.0,326.6766899043467,0.04432906846408538,1.36601865616203,0.3259396866997654,0.2886362,0.5728008397364212
0.0045000000000000005,1.7994937500000001,1.0,414.6523291770665,0.049689626752228225,1.3637968306128745,0.37590373032357305,0.2886317375,0.5779715115944755
0.005,1.799375,1.0,504.89924196056575,0.05502011654004988,1.361742089243845,0.42293100602641676,0.28862675,0.5827253216501853
0.0055,1.79924375,1.0,596.3191094956672,0.06032070649968561,1.3598310693309343,0.4666576929084389,0.2886212375,0.5871224539035598
0.006,1.7991000000000001,1.0,688.0470738085883,0.06559156434049357,1.3580461155886476,0.5069624046316589,0.2886152,0.5912084793108443
0.006500000000000001,1.79894375,1.0,779.3717584304306,0.07083285681663953,1.356373692824669,0.5438874922850121,0.2886086375,0.595018466398305
0.007,1.798775,1.0,869.7085031079642,0.07604474984052177,1.3548029381118238,0.5775783189753384,0.28860155,0.5985805966429123
0.0075,1.79859375,1.0,958.5673051558041,0.08122740814610932,1.3533250032142616,0.6082393655585855,0.2885939375,0.6019178638508993
0.008,1.7984,1.0,1045.574455443578,0.08638099600818272,1.351931947256418,0.636103412617328,0.2885858,0.6050507158810774
0.0085,1.79819375,1.0,1130.409831940282,0.09150567625125801,1.350617187950095,0.6614118462264269,0.2885771375,0.6079961336542339
0.009000000000000001,1.797975,1.0,1212.8298147395171,0.09660161088507606,1.3493747460441734,0.6844015905376293,0.28856795,0.6107694095234992
0.0095,1.79774375,1.0,1292.673866316496,0.10166896167474568,1.348198908268499,0.7052974741548905,0.2885582375,0.6133849498744431
0.01,1.7975,1.0,1369.805920775195,0.10670788862146816,1.347084813803889,0.7243085736713173,0.288548,0.6158550128403054
0.0105,1.79724375,1.0,1444.1373750911116,0.11171855094001261,1.346027945845926,0.7416262188882579,0.2885372375,0.6181908823139313
0.011,1.796975,1.0,1515.6267449622644,0.11670110721182536,1.3450240093257024,0.7574236718566227,0.28852595000000003,0.6204031664184235
0.0115,1.79669375,1.0,1584.2709712009666,0.12165571593621191,1.3440689379129591,0.7718567427879941,0.2885141375,0.6225018047303836
0.012,1.7964,1.0,1650.0562922329507,0.12658253303892603,1.3431593824647365,0.7850650897497036,0.28850180000000003,0.6244950198546577
0.0125,1.79609375,1.0,1713.005555837685,0.1314817142422623,1.3422920473142175,0.7971732307205279,0.2884889375,0.626390798295413
0.013000000000000001,1.7957750000000001,1.0,1773.161062172888,0.1363534145318677,1.3414638377411734,0.8082920275002643,0.28847555,0.628196580086319
0.0135,1.79544375,1.0,1830.5983092774677,0.14119778932882557,1.3406716540315837,0.8185200050555781,0.2884616375,0.6299197198322224
0.014,1.7951000000000001,1.0,1885.366764819827,0.1460149911896186,1.3399130071692653,0.8279449152870989,0.2884472,0.6315661593021269
0.0145,1.79474375,1.0,1937.5229886399477,0.15080517186194464,1.3391855903042336,0.8366447840852723,0.2884322375,0.6331413754144408
0.015,1.794375,1.0,1987.144564447553,0.1555684830935014,1.3384870965865052,0.8446889682838449,0.28841675,0.6346507826672128
0.0155,1.79399375,1.0,2034.309114486733,0.1603050755935875,1.337815420879539,0.8521392363693794,0.2884007375,0.63609930298463
0.016,1.7936,1.0,2079.1221961345072,0.16501510062319308,1.3371683404942654,0.8590505617245765,0.2883842,0.6374920604857881
0.0165,1.7931937500000001,1.0,2121.654187017452,0.16969870622395192,1.3365441566977998,0.8654721209899825,0.2883671375,0.638833005716093
0.017,1.792775,1.0,2161.979533642085,0.17435603996560173,1.3359412546131764,0.8714478455116104,0.28834955,0.6401258719672354
0.0175,1.7923437500000001,1.0,2200.1836299610873,0.17898724941788016,1.3353580193634298,0.877017016605131,0.2883314375,0.6413743585734613
0.018000000000000002,1.7919,1.0,2236.3357803199956,0.18359248098109732,1.334793098184961,0.8822148822352845,0.2883128,0.6425815733664385
0.0185,1.79144375,1.0,2270.5686148799605,0.18817188206676483,1.3342445903150502,0.8870729133856795,0.2882936375,0.6437517660877687
0.019,1.7909782751344752,1.0,2303.078269867016,0.19272559661388497,1.3337115367330945,0.89161962252744,0.288274087555648,0.6448871500358307
0.0195,1.790512323800779,1.0,2334.302844467853,0.1972537678900761,1.3331931679015454,0.895880708204035,0.2882545175996327,0.6459895180603717
0.02,1.7900463724670828,1.0,2364.3126458251772,0.20175653916295652,1.332688714282854,0.8998793278347733,0.28823494764361746,0.6470606485612931
0.0205,1.7895804211333866,1.0,2393.1581874091094,0.20623405336639,1.3321974213434098,0.9036363862303456,0.28821537768760225,0.6481022744030265
0.021,1.7891144697996904,1.0,2420.8832909540956,0.2106864527728582,1.3317186288316736,0.9071708027518531,0.288195807731587,0.6491159160906709
0.021500000000000002,1.7886485184659942,1.0,2447.5278909769836,0.21511387804794013,1.3312517392304026,0.9104997205885292,0.2881762377755718,0.6501029504363308
0.022,1.7881825671322982,1.0,2473.131191542893,0.21951646861534438,1.3307961842825207,0.9136386919663327,0.2881566678195565,0.6510646826024382
0.0225,1.787716615798602,1.0,2497.734515880647,0.2238943638987796,1.330351395730951,0.9166018430655312,0.28813709786354125,0.6520024086052699
0.023,1.7872506644649058,1.0,2521.366430778268,0.2282476980371785,1.329916944685469,0.9194020482412278,0.28811752790752604,0.6529171224789705
0.0235,1.7867847131312096,1.0,2544.0917423658234,0.23257661805764673,1.3294920759644906,0.9220509828325982,0.28809795795151083,0.6538104970555177
0.024,1.7863187617975134,1.0,2565.9427287914623,0.23688125909879046,1.3290763588322911,0.9245593528383661,0.28807838799549557,0.6546835142145446
0.0245,1.7858528104638172,1.0,2586.949624541262,0.24116175509905607,1.3286693943243009,0.9269369454005992,0.2880588180394803,0.6555370830181673
0.025,1.785386859130121,1.0,2607.143884887317,0.24541823999688997,1.32827078347595,0.929192715699142,0.2880392480834651,0.6563721068752741
0.025500000000000002,1.7849209077964248,1.0,2626.55811022951,0.24965084773073848,1.3278801273226686,0.9313348690416146,0.28801967812744983,0.6571894837591539
0.026000000000000002,1.7844549564627286,1.0,2645.2259739667315,0.2538597122390481,1.3274970268998871,0.9333709338541829,0.2880001081714346,0.65799010641497
0.0265,1.7839890051290324,1.0,2663.182153896914,0.25804496746026495,1.3271210832430353,0.9353078266775373,0.28798053821541936,0.6587748625570891
0.027,1.7835230537953362,1.0,2680.462267146358,0.2622067473328357,1.3267518973875436,0.9371519101289734,0.2879609682594041,0.6595446350562506
0.0275,1.78305710246164,1.0,2697.0881944537955,0.26634517908178346,1.326389204001774,0.9389090619837502,0.2879413983033889,0.6603000239511747
0.028,1.782591151127944,1.0,2713.104356650503,0.2704604024892358,1.3260325381484646,0.940584678336216,0.2879218283473737,0.661042041034662
0.0285,1.7821251997942478,1.0,2728.5333667416967,0.27455254548945923,1.3256816409460588,0.9421837664731675,0.2879022583913584,0.6617712651488599
0.029,1.7816592484605516,1.0,2743.397137029708,0.2786217353784502,1.3253362648581641,0.9437109562739251,0.28788268843534315,0.6624882486228906
0.029500000000000002,1.7811932971268554,1.0,2757.7180850155555,0.28266809945220506,1.3249961623483881,0.9451705322997944,0.28786311847932794,0.6631935410038907
0.03,1.7807273457931592,1.0,2771.519103776595,0.2866917650067201,1.3246610858803383,0.9465664639841009,0.2878435485233127,0.6638876891422183
0.0305,1.780261394459463,1.0,2784.8235337035794,0.29069285933799177,1.3243307879176218,0.9479024328241297,0.28782397856729747,0.6645712372727507
0.031,1.7797954431257668,1.0,2797.655135595367,0.2946715097420164,1.3240050209238463,0.9491818569053563,0.2878044086112822,0.6652447270922766
0.0315,1.7793294917920706,1.0,2810.0380651125647,0.2986278435147904,1.3236835373626195,0.9504079130486909,0.28778483865526694,0.6659086978329775
0.032,1.7788635404583744,1.0,2821.986342395499,0.302561980187301,1.3233661836168715,0.951583565906533,0.28776526869925173,0.6665634926436854
0.0325,1.7783975891246782,1.0,2833.531271856404,0.3064740545779675,1.323052654209986,0.9527115627569901,0.28774569874323647,0.6672097659690153
0.033,1.777931637790982,1.0,2844.6896763863106,0.31036418944603794,1.3227427760051644,0.9537944765297517,0.28772612878722126,0.6678478971188784
0.0335,1.777465686457286,1.0,2855.4758210199184,0.31423250530861474,1.3224364007674552,0.9548347100818394,0.287706558831206,0.668478212564187
0.034,1.7769997351235898,1.0,2865.9041808958937,0.3180791226828002,1.3221333802619064,0.9558345074174908,0.2876869888751908,0.669101037375759
0.0345,1.7765337837898936,1.0,2875.9894299865596,0.32190416208569655,1.3218335662535665,0.9567959660737287,0.2876674189191755,0.6697166952567322
0.035,1.7760678324561974,1.0,2885.746430316931,0.3257077440344062,1.3215368105074834,0.9577210484018992,0.2876478489631603,0.6703255085735802
0.035500000000000004,1.7756018811225012,1.0,2895.1902216687463,0.3294899890460315,1.3212429647887058,0.9586115918551633,0.28762827900714505,0.6709277983857216
0.036000000000000004,1.775135929788805,1.0,2904.336011773878,0.3332510176376746,1.3209518808622815,0.9594693183798908,0.2876087090511298,0.6715238844737368
0.0365,1.7746699784551088,1.0,2913.1991669931795,0.3369909503264379,1.3206634104932589,0.9602958429982983,0.2875891390951146,0.6721140853661727
0.037,1.7742040271214126,1.0,2921.787801913566,0.34070989827345544,1.3203774704726194,0.961092686048095,0.2875695691390993,0.6726985855024421
0.0375,1.7737380757877164,1.0,2930.121400960532,0.34440798998402744,1.3200938787152656,0.9618612698250314,0.2875499991830841,0.673277770436916
0.038,1.7732721244540202,1.0,2938.212785463356,0.3480853446613392,1.319812512884022,0.9626029351662709,0.28753042922706884,0.6738519024324213
0.0385,1.772806173120324,1.0,2946.0704928915657,0.35174207558928877,1.3195332890943827,0.9633189459410846,0.2875108592710536,0.6744211644149415
0.039,1.7723402217866278,1.0,2953.703143224749,0.3553782960517741,1.3192561234618427,0.9640104920809353,0.28749128931503837,0.6749857386228209
0.0395,1.7718742704529318,1.0,2961.119435046698,0.35899411933269326,1.318980932101896,0.9646786947050199,0.28747171935902316,0.6755458066180028
0.04,1.7714083191192356,1.0,2968.3281417954863,0.36258965871594423,1.318707631130037,0.9653246108376743,0.2874521494030079,0.6761015492968121
0.0405,1.7709423677855394,1.0,2975.3381081700436,0.36616502748542507,1.3184361366617605,0.9659492377541458,0.28743257944699263,0.6766531469002952
0.041,1.7704764164518432,1.0,2982.158246692094,0.36972033892503364,1.3181663648125603,0.966553516987623,0.2874130094909774,0.6772007790241097
0.0415,1.770010465118147,1.0,2988.7975344238966,0.3732557063186681,1.3178982316979315,0.9671383380272102,0.28739343953496216,0.67774462462796
0.042,1.7695445137844508,1.0,2995.26500984337,0.3767712429502264,1.317631653433368,0.9677045417336446,0.28737386957894695,0.6782848620445943
0.0425,1.7690785624507546,1.0,3001.568877031805,0.3802670599639575,1.3173665538734127,0.9682529237831459,0.2873542996229317,0.6788216533243439
0.043000000000000003,1.7686126111170584,1.0,3007.711383724375,0.38374325619053407,1.317102908898823,0.9687842395358992,0.2873347296669164,0.6793550547445941
0.043500000000000004,1.7681466597833622,1.0,3013.708465761734,0.3871999649755849,1.3168405762040432,0.9692992003866614,0.2873151597109012,0.6798853611948021
0.044,1.767680708449666,1.0,3019.564795544832,0.3906372917908276,1.3165795114949017,0.9697984838329317,0.28729558975488595,0.680412668691484
0.0445,1.7672147571159698,1.0,3025.285076313405,0.39405534210798016,1.3163196704772275,0.9702827322893809,0.28727601979887074,0.6809370729246753
0.045,1.7667488057822738,1.0,3030.8740409216443,0.39745422139876013,1.3160610088568492,0.9707525552489453,0.2872564498428555,0.6814586692614499
0.0455,1.7662828544485776,1.0,3036.3364506589905,0.4008340351348853,1.3158034823395954,0.971208531290455,0.28723687988684027,0.6819775527493139
0.046,1.7658169031148814,1.0,3041.6770941128807,0.40419488878807347,1.3155470466312953,0.9716512099450881,0.287217309930825,0.6824938181194744
0.0465,1.7653509517811852,1.0,3046.900786076468,0.4075368878300423,1.3152916574377773,0.9720811134328385,0.2871977399748098,0.683007559789985
0.047,1.764885000447489,1.0,3052.0123664985035,0.41086013773250973,1.3150372704648703,0.9724987382792121,0.28717817001879453,0.6835188718687633
0.0475,1.7644190491137928,1.0,3057.016699477752,0.4141647439671933,1.314783841418403,0.9729045568214691,0.28715860006277927,0.6840278481564851
0.048,1.7639530977800966,1.0,3061.9186723004564,0.4174508120058109,1.3145313260042044,0.9732990186129318,0.28713903010676406,0.6845345821493523
0.0485,1.7634871464464004,1.0,3066.7231945209596,0.42071844732008024,1.314279679928103,0.9736825517331404,0.2871194601507488,0.6850391670417385
0.049,1.7630211951127042,1.0,3071.4351970868265,0.42396775538171905,1.3140288588959275,0.9740555640109899,0.2870998901947336,0.6855416957287044
0.0495,1.762555243779008,1.0,3076.0551773562306,0.4271988214746233,1.3137788567512496,0.974418444347301,0.2870803202387183,0.6860421844894093
0.05,1.7620892924453118,1.0,3080.5902865564562,0.43041176671344417,1.3135296104639977,0.974771564024576,0.28706075028270306,0.6865407632726207
0.0505,1.7616233411116156,1.0,3085.0459093559193,0.4336067027823935,1.31328107232773,0.9751152771351942,0.28704118032668785,0.6870375309986851
0.051000000000000004,1.7611573897779196,1.0,3089.4243931818055,0.43678372667172494,1.3130332207530049,0.9754499216798792,0.28702161037067264,0.6875325341358435
0.051500000000000004,1.7606914384442234,1.0,3093.728095828376,0.4399429353716921,1.3127860341503816,0.9757758204327347,0.2870020404146574,0.6880258190066209
0.052000000000000005,1.7602254871105272,1.0,3097.959385133812,0.44308442587254865,1.3125394909304184,0.9760932817604365,0.2869824704586421,0.6885174317887592
0.0525,1.759759535776831,1.0,3102.120638666696,0.4462082951645482,1.3122935695036748,0.976402600390452,0.2869629005026269,0.6890074185161142
0.053,1.7592935844431348,1.0,3106.21424342335,0.4493146402379444,1.312048248280709,0.9767040581318726,0.28694333054661164,0.6894958250795313
0.0535,1.7588276331094386,1.0,3110.2425955353688,0.4524035580829908,1.3118035056720803,0.9769979245521714,0.28692376059059643,0.6899826972276818
0.054,1.7583616817757424,1.0,3114.208099987486,0.45547514568994124,1.311559320088347,0.9772844576129284,0.28690419063458117,0.6904680805678791
0.0545,1.7578957304420462,1.0,3118.113170345743,0.45852950004904913,1.3113156699400683,0.9775639042673434,0.2868846206785659,0.6909520205668573
0.055,1.75742977910835,1.0,3121.960228496233,0.4615667181505682,1.311072533637803,0.9778365010221336,0.2868650507225507,0.6914345625515239
0.0555,1.7569638277746538,1.0,3125.751704393584,0.4645868969847521,1.31082988959211,0.978102474466222,0.2868454807665355,0.6919157517096834
0.056,1.7564978764409576,1.0,3129.490035820343,0.4675901335418544,1.310587716213548,0.9783620417684328,0.2868259108105202,0.6923956330907289
0.0565,1.7560319251072616,1.0,3133.1776681567903,0.47057652481212875,1.3103459919126756,0.978615411146261,0.28680634085450496,0.6928742516063058
0.057,1.7555659737735654,1.0,3136.8170541604645,0.47354616778582886,1.3101046951000521,0.9788627823076115,0.28678677089848975,0.693351652030943
0.0575,1.7551000224398692,1.0,3140.406345398347,0.4764991158635592,1.3098638406957532,0.9791043451293824,0.2867672009424745,0.6938278068535615
0.058,1.754634071106173,1.0,3143.951202749938,0.47943550799295365,1.309623379997597,0.9793402857176142,0.2867476309864593,0.6943028142820908
0.0585,1.7541681197724768,1.0,3147.454324202527,0.48235544942745306,1.309383289502447,0.9795707812247428,0.286728061030444,0.6947767225020569
0.059000000000000004,1.7537021684387806,1.0,3150.916751045208,0.48525902763337797,1.3091435597831402,0.9797960010803778,0.28670849107442875,0.6952495518004083
0.059500000000000004,1.7532362171050844,1.0,3154.3395278976895,0.48814633007704905,1.308904181412513,0.9800161080917917,0.28668892111841354,0.6957213224039069
0.06,1.7527702657713882,1.0,3157.7237026359035,0.4910174442247867,1.308665144963402,0.9802312587542231,0.28666935116239833,0.6961920544793434
0.0605,1.752304314437692,1.0,3161.0703263195214,0.49387245754291176,1.3084264410086432,0.9804416035443159,0.28664978120638307,0.6966617681337434
0.061,1.7518383631039958,1.0,3164.3804531217174,0.4967114574977446,1.3081880601210736,0.9806472871977424,0.2866302112503678,0.6971304834145713
0.0615,1.7513724117702996,1.0,3167.6551402604127,0.4995345315556059,1.3079499928735294,0.980848448971971,0.2866106412943526,0.6975982203099274
0.062,1.7509064604366036,1.0,3170.8954479317335,0.5023417671828162,1.307712229838847,0.9810452228950828,0.28659107133833733,0.6980649987487391
0.0625,1.7504405091029074,1.0,3174.102439245687,0.5051332518456961,1.3074747615898632,0.9812377380014767,0.2865715013823221,0.6985308386009464
0.063,1.7499745577692112,1.0,3177.2771801630356,0.5079090730105662,1.3072375786994144,0.981426118555247,0.28655193142630686,0.6989957596776823
0.0635,1.749508606435515,1.0,3180.420739435442,0.5106693181437469,1.3070006717403369,0.9816104842619643,0.2865323614702916,0.6994597817314475
0.064,1.7490426551018188,1.0,3183.534188546174,0.5134140747115591,1.3067640312854671,0.9817909504695448,0.2865127915142764,0.6999229244562786
0.0645,1.7485767037681226,1.0,3186.6186016536653,0.5161434301803232,1.3065276479076418,0.9819676283588448,0.2864932215582612,0.7003852074879108
0.065,1.7481107524344264,1.0,3189.6750555366207,0.5188574720163598,1.3062915121796972,0.9821406251245764,0.2864736516022459,0.7008466504039362
0.0655,1.7476448011007302,1.0,3192.704629541548,0.5215562876859894,1.3060556146744702,0.9823100441471045,0.28645408164623065,0.7013072727239549
0.066,1.747178849767034,1.0,3195.7084055320215,0.5242399646555327,1.3058199459647968,0.9824759851556446,0.28643451169021544,0.7017670939097218
0.0665,1.7467128984333378,1.0,3198.687467839304,0.5269085903913102,1.3055844966235135,0.9826385443833523,0.2864149417342002,0.7022261333652866
0.067,1.7462469470996416,1.0,3201.6429032162587,0.5295622523596426,1.305349257223457,0.9827978147147607,0.28639537177818497,0.702684410437127
0.0675,1.7457809957659454,1.0,3204.5739638841014,0.5322009951193255,1.3051142337469972,0.9829538838251964,0.2863758018221697,0.7031419144291542
0.068,1.7453150444322494,1.0,3207.482503486569,0.5348249381829682,1.304879410355078,0.9831068401058525,0.28635623186615444,0.7035986771095024
0.0685,1.7448490930985532,1.0,3210.3699261449533,0.5374341840275546,1.3046447750072847,0.9832567680253704,0.28633666191013923,0.7040547227702834
0.069,1.744383141764857,1.0,3213.2366768853185,0.5400288104630049,1.3044103237217612,0.9834037480459143,0.28631709195412397,0.7045100599860094
0.0695,1.7439171904311608,1.0,3216.08320181093,0.542608895299239,1.3041760525166506,0.9835478579412649,0.28629752199810876,0.7049646973067214
0.07,1.7434512390974646,1.0,3218.909948085683,0.5451745163461769,1.3039419574100963,0.9836891729049944,0.2862779520420935,0.7054186432580332
