Time [s],Phi [rad],STIM [ ],Fsee [N],Gamma [ ],Lcerel [ ],q [ ],Lmtc [m],fisomrel [ ]
0.0,1.8,1.0,17.96829858540612,3.543770027471503e-05,1.379339618456813,0.005000331375913542,0.288653,0.5411398401436212
0.0005,1.79999375,1.0,18.2861218973299,0.005644448231604275,1.3793013462374661,0.013011284795005063,0.2886527375,0.5412324258368808
0.001,1.799975,1.0,21.64666309424038,0.01122199664864945,1.3789354145151123,0.035741251808342374,0.28865195,0.5421171926857782
0.0015,1.79994375,1.0,31.137724230091997,0.016768259429880833,1.378040371979382,0.07078324515019933,0.2886506375,0.5442776694951867
0.002,1.7999,1.0,53.73106301434349,0.022283412062074875,1.3763584930891748,0.11493279477400722,0.2886488,0.5483236118611148
0.0025,1.79984375,1.0,97.36962491034649,0.02776762904805853,1.373923095023945,0.16480850826126947,0.28864643749999996,0.554150251937863
0.003,1.7997750000000001,1.0,161.28496743085933,0.033221083914187724,1.3712021175011533,0.2175214534383758,0.28864354999999997,0.5606153952890944
0.0035,1.79969375,1.0,238.05291019260474,0.03864394921012659,1.3685733546549632,0.2708525847002186,0.2886401375,0.5668165887703658
0.004,1.7996,1.0,321.86017563309895,0.04403639651958031,1.3661456758049597,0.32314789070119504,0.2886362,0.5725042859991369
0.0045000000000000005,1.7994937500000001,1.0,409.6752854201927,0.049398596465493785,1.3639132501556934,0.3732548197483372,0.2886317375,0.577701359569897
0.005,1.799375,1.0,499.829432306842,0.0547307187012271,1.361849505747866,0.4204535788760858,0.28862675,0.5824774719069681
0.0055,1.79924375,1.0,591.2101560697904,0.060032931956843484,1.3599306358132255,0.4643645311387929,0.2886212375,0.5868939330455588
0.006,1.7991000000000001,1.0,682.9384717333425,0.06530540398520183,1.3581387748357667,0.5048553355910332,0.2886152,0.5909968684921428
0.006500000000000001,1.79894375,1.0,774.2966179696326,0.07054830155524221,1.356460164098849,0.5419611387258342,0.2886086375,0.594821911385911
0.007,1.798775,1.0,864.7060887273881,0.07576179079713886,1.3548836069927608,0.5758228374152911,0.28860155,0.5983980404585705
0.0075,1.79859375,1.0,953.6498374310114,0.08094603630676726,1.3534005255910722,0.6066428175706219,0.2885939375,0.6017476674488328
0.008,1.7984,1.0,1040.7571033657043,0.08610120232875565,1.3520027776067154,0.634652812301497,0.2885858,0.604891723715425
0.0085,1.79819375,1.0,1125.7102977209727,0.09122745202043665,1.3506836350938538,0.6600940762959984,0.2885771375,0.6078475385119924
0.009000000000000001,1.797975,1.0,1208.2575725665417,0.0963249472099206,1.3494371520751047,0.6832040432385907,0.28856795,0.6106303467781893
0.0095,1.79774375,1.0,1288.2403071616131,0.10139384977555126,1.3482575178016698,0.7042082802589834,0.2885582375,0.6132547872915167
0.01,1.7975,1.0,1365.5276293448135,0.10643432011321528,1.3471397511564942,0.7233167467868626,0.288548,0.6157333965784672
0.0105,1.79724375,1.0,1440.011822279605,0.11144651702866201,1.3460795370633818,0.740721870373715,0.2885372375,0.6180770217665669
0.011,1.796975,1.0,1511.6480121270765,0.11643059926242236,1.3450725740947673,0.7565978833756537,0.28852595000000003,0.6202962965803933
0.0115,1.79669375,1.0,1580.4308835644447,0.12138672474996776,1.344114781352114,0.7711015117192306,0.2885141375,0.6224012029814632
0.012,1.7964,1.0,1646.3721645694166,0.12631505092093387,1.3432024763139288,0.7843731286983764,0.28850180000000003,0.6244007023341428
0.0125,1.79609375,1.0,1709.475453792676,0.13121573279078144,1.3423325719546286,0.7965381376664947,0.2884889375,0.6263023283766869
0.013000000000000001,1.7957750000000001,1.0,1769.7804123349304,0.13608892537497125,1.34150198124863,0.8077081135725336,0.28847555,0.6281135102144784
0.0135,1.79544375,1.0,1827.3386850258632,0.14093478271989685,1.3407078493039435,0.8179823078006947,0.2884616375,0.6298410759651829
0.014,1.7951000000000001,1.0,1882.2399717810783,0.14575345974587145,1.339947218405458,0.8274488557059511,0.2884472,0.6314919920229334
0.0145,1.79474375,1.0,1934.5386469427951,0.15054510801442153,1.339217799495782,0.836186299310448,0.2884322375,0.6330716980396668
0.015,1.794375,1.0,1984.2964893299165,0.15530987838466703,1.3385174480602107,0.8442644998986893,0.28841675,0.6345852594349572
0.0155,1.79399375,1.0,2031.5937854635135,0.160047921715728,1.3378440195840395,0.8517456043953885,0.2884007375,0.6360376863242956
0.016,1.7936,1.0,2076.516327187705,0.16475938802293175,1.3371954883845913,0.8586849930731286,0.2883842,0.6374336818019035
0.0165,1.7931937500000001,1.0,2119.1608930519014,0.16944442768898083,1.3365698696067987,0.8651320571618862,0.2883671375,0.6387778152833627
0.017,1.792775,1.0,2159.604307547561,0.17410318839637906,1.335965519925,0.871130992245989,0.28834955,0.6400738820839427
0.0175,1.7923437500000001,1.0,2197.920610020728,0.17873581667435814,1.3353809363764653,0.8767213513316604,0.2883314375,0.6413253428419814
0.018000000000000002,1.7919,1.0,2234.193505304102,0.18334245905214977,1.3348146159984655,0.8819385515523118,0.2883128,0.6425356279139034
0.0185,1.79144375,1.0,2268.5084752667003,0.18792326122784336,1.3342651262869174,0.8868143748371744,0.2882936375,0.6437079889935943
0.019,1.790975,1.0,2300.956513419222,0.1924783694162204,1.333731058091028,0.8913773773635978,0.28827395,0.644845602249499
0.0195,1.79049375,1.0,2331.618898428437,0.19700792820732246,1.3332111677925906,0.8956532919974693,0.2882537375,0.6459512680430421
0.02,1.79,1.0,2360.561609288614,0.2015120795564374,1.3327044205786198,0.8996653561716452,0.288233,0.6470273231104746
0.0205,1.78949375,1.0,2387.8556657262034,0.20599096541885303,1.33220978163613,0.9034345442293148,0.2882117375,0.6480760873254937
0.021,1.788975,1.0,2413.576709005729,0.21044472774985726,1.3317262161521357,0.9069798186191235,0.28818995000000003,0.6490998645324826
0.021500000000000002,1.78844375,1.0,2437.7974987780262,0.21487350715201098,1.331252757676047,0.9103183641302597,0.2881676375,0.6501007988903513
0.022,1.7879,1.0,2460.595143956454,0.21927744558903825,1.33078843374923,0.9134657663113595,0.2881448,0.6510810334749085
0.0225,1.78734375,1.0,2482.0371639172386,0.22365668303840833,1.3303323957806834,0.9164362061902208,0.28812143749999997,0.6520424371740878
0.023,1.786775,1.0,2502.178960663227,0.22801135644017925,1.3298839376181786,0.9192426104420492,0.28809755,0.6529865679257834
0.0235,1.78619375,1.0,2521.0783419832487,0.23234160273440918,1.3294423531094877,0.9218967559397713,0.28807313749999996,0.6539149744186341
0.024,1.7856,1.0,2538.795319924327,0.23664755886115627,1.3290069361023822,0.9244093879084712,0.2880482,0.6548291964174842
0.0245,1.78499375,1.0,2555.391920318928,0.24092936176047855,1.3285769804446346,0.926790324515297,0.2880227375,0.6557307650570352
0.025,1.784375,1.0,2570.91930750917,0.24518714521060767,1.3281518988902772,0.9290485685203792,0.28799675,0.6566209542560757
0.025500000000000002,1.78374375,1.0,2585.444014879179,0.24942104845827867,1.3277309748764445,0.9311923496615371,0.2879702375,0.6575013013601253
0.026000000000000002,1.7831000000000001,1.0,2599.012323836826,0.2536312047387812,1.3273136947830535,0.9332292493050262,0.2879432,0.6583729120136037
0.0265,1.78244375,1.0,2611.6652228342377,0.25781774546974395,1.3268996050663557,0.9351662409441089,0.2879156375,0.6592367608656271
0.027,1.781775,1.0,2623.444711306779,0.2619808020687958,1.3264882521826025,0.937009739018151,0.28788755,0.6600938175597876
0.0275,1.7810937500000001,1.0,2634.3937131048488,0.2661205059535656,1.326079182588046,0.9387656511781411,0.2878589375,0.6609450468198717
0.028,1.7804,1.0,2644.555994487394,0.27023698854168204,1.3256719427389376,0.9404394250311514,0.2878298,0.6617914085224685
0.0285,1.77969375,1.0,2653.976086675635,0.274330381250774,1.3252660790915294,0.9420360900068127,0.2878001375,0.6626338577564508
0.029,1.778975209268399,1.0,2662.7069238288273,0.2784008099986841,1.3248611616478854,0.9435602961199813,0.28776995878927275,0.6634732960866916
0.029500000000000002,1.7782524965615543,1.0,2671.1641743668824,0.2824484113215973,1.3244570055593046,0.9450163839844603,0.28773960485558525,0.6643101133402086
0.03,1.7775297838547093,1.0,2679.547275463753,0.286473310797858,1.3240536527270705,0.9464084003661162,0.2877092509218978,0.6651442288081735
0.0305,1.7768070711478643,1.0,2687.8511783294816,0.29047563390457415,1.3236511456302762,0.9477400972019495,0.2876788969882103,0.665975561008322
0.031,1.7760843584410193,1.0,2696.0708100995344,0.29445550611885396,1.3232495267480147,0.9490149567476771,0.2876485430545228,0.6668040288813284
0.0315,1.7753616457341743,1.0,2704.2010746511464,0.2984130529178055,1.3228488385593786,0.9502362143231909,0.2876181891208353,0.6676295517884576
0.032,1.7746389330273293,1.0,2712.236853459997,0.30234839977853695,1.322449123543461,0.9514068788764021,0.2875878351871478,0.6684520495091002
0.0325,1.7739162203204843,1.0,2720.173006496703,0.3062616721781563,1.322050424179355,0.9525297515980725,0.28755748125346037,0.6692714422381938
0.033,1.7731935076136394,1.0,2728.0085488914797,0.31015298513328016,1.3216527449799724,0.9536074353817457,0.28752712731977287,0.670087728465717
0.0335,1.7724707949067946,1.0,2735.739400265712,0.31402246859979466,1.3212561185998797,0.9546423656378175,0.28749677338608537,0.6709008490501915
0.034,1.7717480821999496,1.0,2743.3598019069254,0.31787025852757506,1.3208605927915305,0.955636819276487,0.28746641945239787,0.6717107142648842
0.0345,1.7710253694931046,1.0,2750.870764735522,0.3216964725144729,1.320466153819191,0.9565929122753776,0.28743606551871037,0.672517360511271
0.035,1.7703026567862596,1.0,2758.273315885247,0.3255012281583397,1.3200727879471283,0.9575126238608752,0.2874057115850229,0.6733208240298234
0.035500000000000004,1.7695799440794147,1.0,2765.5684983740953,0.32928464305702704,1.3196804814396086,0.9583978069369611,0.28737535765133543,0.6741211409009569
0.036000000000000004,1.7688572313725697,1.0,2772.7573707800566,0.3330468348083865,1.3192892205608981,0.9592501976044255,0.28734500371764793,0.6749183470459634
0.0365,1.7681345186657247,1.0,2779.8410069202278,0.33678792101026944,1.3188989915752636,0.9600714238591999,0.28731464978396043,0.6757124782279336
0.037,1.7674118059588797,1.0,2786.820495534562,0.34050801926052765,1.3185097807469712,0.960863013549013,0.28728429585027293,0.6765035700526668
0.0375,1.766689093252035,1.0,2793.696939973775,0.3442072471570126,1.3181215743402876,0.9616264016591793,0.2872539419165855,0.677291657969569
0.038,1.76596638054519,1.0,2800.4714578910325,0.3478857222975758,1.3177343586194792,0.962362936990887,0.287223587982898,0.6780767772725389
0.0385,1.765243667838345,1.0,2807.1451809387477,0.3515435622800688,1.3173481198488126,0.9630738882887564,0.2871932340492105,0.6788589631008408
0.039,1.7645209551315,1.0,2813.7192544684726,0.35518088470234316,1.316962844292554,0.9637604498685983,0.287162880115523,0.6796382504399685
0.0395,1.763798242424655,1.0,2820.1948372356997,0.3587978071622504,1.31657851821497,0.9644237467911083,0.2871325261818355,0.6804146741224932
0.04,1.76307552971781,1.0,2826.5731119078273,0.3623944180337915,1.3161951277838655,0.9650648341988559,0.28710217224814805,0.6811882690234214
0.0405,1.762352817010965,1.0,2832.8579644271954,0.3659708678865463,1.315812635162573,0.965684716810095,0.28707181831446055,0.6819591182132385
0.041,1.76163010430412,1.0,2839.0514803394094,0.3695272693934162,1.3154310187774536,0.9662843375065405,0.28704146438077305,0.6827272716614086
0.0415,1.7609073915972753,1.0,2845.1556292164473,0.37306373075331795,1.3150502582276768,0.9668645862999257,0.28701111044708555,0.6834927767559762
0.042,1.7601846788904303,1.0,2851.1723954183285,0.37658036016516855,1.314670333112412,0.9674263045012933,0.28698075651339805,0.684255680672588
0.0425,1.7594619661835853,1.0,2857.1037777105566,0.3800772658278847,1.3142912230308288,0.9679702878861464,0.2869504025797106,0.6850160303755926
0.043000000000000003,1.7587392534767403,1.0,2862.95178889068,0.38355455594038335,1.3139129075820966,0.968497289622853,0.2869200486460231,0.6857738726191138
0.043500000000000004,1.7580165407698953,1.0,2868.718455424588,0.38701233870158136,1.3135353663653846,0.96900802298424,0.2868896947123356,0.6865292539480997
0.044,1.7572938280630503,1.0,2874.4058170914655,0.39045072231039546,1.3131585789798628,0.9695031638604444,0.2868593407786481,0.6872822206993401
0.0445,1.7565711153562054,1.0,2880.015926638376,0.39386981496574264,1.3127825250247,0.9699833530894294,0.2868289868449606,0.6880328190024646
0.045,1.7558484026493604,1.0,2885.5508494437677,0.3972697248665397,1.3124071840990659,0.9704491986200706,0.28679863291127317,0.6887810947809068
0.0455,1.7551256899425156,1.0,2891.012663190077,0.40065056021170353,1.3120325358021303,0.9709012775213671,0.28676827897758567,0.6895270937528453
0.046,1.7544029772356706,1.0,2896.403457546602,0.4040124292001509,1.3116585597330621,0.9713401378501164,0.28673792504389817,0.6902708614321217
0.0465,1.7536802645288256,1.0,2901.7253338600844,0.40735544003079877,1.311285235491031,0.9717663003882983,0.28670757111021067,0.6910124431291245
0.047,1.7529575518219807,1.0,2906.9804048555693,0.4106797009025639,1.3109125426752066,0.9721802602604178,0.28667721717652317,0.6917518839516512
0.0475,1.7522348391151357,1.0,2912.1692730322957,0.4139852986922969,1.3105404742722082,0.9725824866552336,0.2866468632428357,0.6924892022920663
0.048,1.7515121264082907,1.0,2917.2915455914695,0.4172723039250785,1.310169032067465,0.9729734247638681,0.2866165093091482,0.6932243990635581
0.0485,1.7507894137014457,1.0,2922.355029066213,0.42054090391405186,1.3097981458352903,0.973353508021967,0.2865861553754607,0.6939576174649751
0.049,1.7500667009946007,1.0,2927.3609523423916,0.42379119554742317,1.3094278033453053,0.9737231420694126,0.28655580144177323,0.6946888855768465
0.0495,1.749343988287756,1.0,2932.3105510701607,0.4270232757133987,1.309057992367131,0.9740827135690473,0.28652544750808573,0.6954182313584132
0.05,1.748621275580911,1.0,2937.2050675179403,0.43023724130018465,1.3086887006703893,0.9744325912661871,0.2864950935743983,0.6961456826480446
0.0505,1.747898562874066,1.0,2942.0457504298774,0.43343318919598733,1.3083199160247008,0.9747731269797774,0.2864647396407108,0.6968712671636527
0.051000000000000004,1.747175850167221,1.0,2946.8338548871016,0.43661121628901295,1.3079516261996869,0.9751046565301733,0.2864343857070233,0.6975950125030879
0.051500000000000004,1.746453137460376,1.0,2951.570642171344,0.4397714194674678,1.3075838189649687,0.9754275006081246,0.2864040317733358,0.6983169461445324
0.052000000000000005,1.745730424753531,1.0,2956.2573796328584,0.442913895619558,1.3072164820901677,0.9757419655891808,0.2863736778396483,0.6990370954468803
0.0525,1.745007712046686,1.0,2960.8953405610832,0.44603874163348983,1.3068496033449049,0.9760483442973886,0.28634332390596084,0.6997554876501102
0.053,1.744284999339841,1.0,2965.4858040584113,0.44914605439746963,1.3064831704988016,0.976346916721857,0.2863129699722733,0.7004721498756459
0.0535,1.7435622866329963,1.0,2970.030054918473,0.4522359307997036,1.3061171713214788,0.9766379506894769,0.28628261603858585,0.7011871091267106
0.054,1.7428395739261513,1.0,2974.5293835057537,0.45530846772839795,1.305751593582558,0.9769217024968352,0.28625226210489835,0.7019003922886677
0.0545,1.7421168612193063,1.0,2978.985085640615,0.4583637620717589,1.3053864250516605,0.977198417504119,0.28622190817121085,0.7026120261293577
0.055,1.7413941485124613,1.0,2983.3984624861923,0.46140191071799275,1.3050216534984072,0.9774683306936055,0.2861915542375234,0.7033220372994186
0.0555,1.7406714358056163,1.0,2987.7708204389874,0.4644230105553057,1.3046572666924194,0.977731667195121,0.28616120030383585,0.7040304523326022
0.056,1.7399487230987714,1.0,2992.1034710236345,0.467427158471904,1.3042932524033184,0.9779886427806852,0.2861308463701484,0.704737297646079
0.0565,1.7392260103919264,1.0,2996.3977307890273,0.4704144513559939,1.3039295984007253,0.9782394643303883,0.2861004924364609,0.705442599540733
0.057,1.7385032976850814,1.0,3000.654921210027,0.47338498609578167,1.3035662924542615,0.9784843302713925,0.2860701385027734,0.706146384201447
0.0575,1.7377805849782366,1.0,3004.876368590875,0.47633885957947353,1.3032033223335482,0.9787234309918178,0.28603978456908596,0.7068486776973804
0.058,1.7370578722713916,1.0,3009.063403972639,0.4792761686952757,1.3028406758082063,0.9789569492311389,0.28600943063539847,0.707549505982235
0.0585,1.7363351595645466,1.0,3013.2173630436732,0.4821970103313944,1.3024783406478575,0.9791850604486042,0.28597907670171097,0.7082488948945111
0.059000000000000004,1.7356124468577017,1.0,3017.336688658131,0.48510142123435235,1.3021163296707077,0.9794079295433668,0.28594872276802347,0.7089468218950903
0.059500000000000004,1.7348897341508567,1.0,3021.42485339845,0.4879895583654521,1.3017546122122157,0.979625722548326,0.28591836883433597,0.7096433482418857
0.06,1.7341670214440117,1.0,3025.482862972688,0.4908615168848314,1.3013931789940125,0.9798385950948015,0.28588801490064847,0.7103384938006477
0.0605,1.7334443087371667,1.0,3029.5113156510206,0.49371738259685444,1.3010320242826532,0.9800466962653653,0.28585766096696097,0.711032271544286
0.061,1.7327215960303217,1.0,3033.5108119943516,0.4965572413058856,1.3006711423446924,0.9802501694625577,0.2858273070332735,0.7117246943913831
0.0615,1.731998883323477,1.0,3037.4819548195796,0.499381178816289,1.3003105274466848,0.9804491526686591,0.285796953099586,0.7124157752062945
0.062,1.731276170616632,1.0,3041.4253491652266,0.502189280932429,1.2999501738551853,0.9806437786916797,0.2857665991658985,0.7131055267992479
0.0625,1.730553457909787,1.0,3045.3416022580564,0.5049816334586696,1.2995900758367482,0.980834175398395,0.2857362452322111,0.7137939619264395
0.063,1.729830745202942,1.0,3049.231323479569,0.5077583221993754,1.2992302276579286,0.981020465935201,0.28570589129852353,0.7144810932901282
0.0635,1.729108032496097,1.0,3053.0951243348104,0.5105194329589106,1.2988706235852812,0.9812027689375133,0.2856755373648361,0.7151669335387283
0.064,1.728385319789252,1.0,3056.933618420146,0.5132650515416392,1.2985112578853604,0.9813811987283837,0.2856451834311486,0.7158514952669002
0.0645,1.727662607082407,1.0,3060.7474213931155,0.5159952637519256,1.2981521248247212,0.9815558655069632,0.2856148294974611,0.7165347910156374
0.065,1.726939894375562,1.0,3064.537150942249,0.5187101553941341,1.2977932186699184,0.9817268755274042,0.2855844755637736,0.7172168332723539
0.0655,1.7262171816687173,1.0,3068.303426758073,0.5214098122726288,1.2974345336875062,0.9818943312687495,0.28555412163008614,0.7178976344709687
0.066,1.7254944689618723,1.0,3072.046870504208,0.5240943201917742,1.29707606414404,0.9820583315963237,0.28552376769639864,0.7185772069919842
0.0665,1.7247717562550273,1.0,3075.7681057901436,0.5267637649559344,1.2967178043060739,0.9822189719151141,0.28549341376271115,0.7192555631625717
0.067,1.7240490435481823,1.0,3079.46775814383,0.5294182323694735,1.296359748440163,0.9823763443155858,0.28546305982902365,0.7199327152566433
0.0675,1.7233263308413374,1.0,3083.146454985666,0.532057808236756,1.2960018908128619,0.9825305377123625,0.28543270589533615,0.7206086754949318
0.068,1.7226036181344924,1.0,3086.8048256026905,0.534682578362146,1.2956442256907252,0.9826816379761631,0.28540235196164865,0.7212834560450623
0.0685,1.7218809054276474,1.0,3090.44350112392,0.5372926285500078,1.2952867473403078,0.982829728059371,0.2853719980279612,0.7219570690216238
0.069,1.7211581927208024,1.0,3094.063114496035,0.5398880446047057,1.2949294500281643,0.9829748881155835,0.2853416440942737,0.722629526486239
0.0695,1.7204354800139576,1.0,3097.663106018419,0.5424688642800476,1.2945723382122825,0.9831171931401594,0.2853112901605862,0.7233008213014945
0.07,1.7197127673071126,1.0,3101.244873696514,0.5450352176327145,1.2942153996479626,0.9832567205009277,0.28528093622689876,0.7239709777104262
0.07050000000000001,1.7189900546002677,1.0,3104.809033912108,0.5475871953194748,1.2938586287819953,0.9833935429156538,0.2852505822932112,0.7246400073034613
