Time [s],Phi [rad],STIM [ ],Fsee [N],Gamma [ ],Lcerel [ ],q [ ],Lmtc [m],fisomrel [ ]
0.0,1.8,1.0,17.967034453259938,1.0001702511870353e-05,1.3793397600798862,0.005000026660813516,0.288653,0.5411394975208366
0.0005,1.79999375,1.0,18.27637838581176,0.005619154909664949,1.3793024284185522,0.012940519491853718,0.2886527375,0.5412298080222866
0.001,1.799975,1.0,21.618005573699094,0.0111968452022481,1.3789383405151072,0.03560858800107898,0.28865195,0.5421101214529869
0.0015,1.79994375,1.0,31.068771913659102,0.01674324906319635,1.3780462432680496,0.07060172160997266,0.2886506375,0.5442635138740901
0.002,1.7999,1.0,53.58165862691128,0.022258541983793772,1.3763681789946756,0.11471785634478819,0.2886488,0.5483003630109435
0.0025,1.79984375,1.0,97.11784512782214,0.027742898471236555,1.373935219905576,0.16457469501641742,0.28864643749999996,0.5541213370987514
0.003,1.7997750000000001,1.0,160.9569589011297,0.033196492056350904,1.371214388969942,0.21728024853111055,0.28864354999999997,0.5605863438191092
0.0035,1.79969375,1.0,237.6820840525192,0.03861949529318373,1.3685847726592106,0.2706126828568115,0.2886401375,0.5667897492466774
0.004,1.7996,1.0,321.4655395589693,0.04401207976978514,1.3661561250213425,0.32291560168197375,0.2886362,0.5724798855527902
0.0045000000000000005,1.7994937500000001,1.0,409.26656534676516,0.049374416113392744,1.3639228419934526,0.3730343173818712,0.2886317375,0.5776790978169916
0.005,1.799375,1.0,499.41235751188344,0.05470667398152276,1.3618583667131696,0.4202472829095314,0.28862675,0.5824570230857056
0.0055,1.79924375,1.0,590.7893143336239,0.06000902210943201,1.359938856584128,0.4641735339829857,0.2886212375,0.5868750622478016
0.006,1.7991000000000001,1.0,682.5170490025668,0.0652816282532802,1.3581464340031233,0.5046798117418787,0.2886152,0.5909793743968318
0.006500000000000001,1.79894375,1.0,773.8805763059605,0.07052465924537263,1.356467265251871,0.5418006200609953,0.2886086375,0.5948057678694267
0.007,1.798775,1.0,864.2849254073298,0.07573828097926685,1.3548904093048217,0.5756766566857363,0.28860155,0.5983826447176535
0.0075,1.79859375,1.0,953.241566011759,0.08092265841752187,1.3534068045606151,0.606509811620293,0.2885939375,0.601733515593926
0.008,1.7984,1.0,1040.3562029347909,0.08607795557597175,1.3520086794957251,0.6345319710283137,0.2885858,0.6048784743612113
0.0085,1.79819375,1.0,1125.3181679968518,0.09120433565667817,1.3506891857157928,0.6599843088508941,0.2885771375,0.6078351244323795
0.009000000000000001,1.797975,1.0,1207.8780048251272,0.0963019605555164,1.3494423380573157,0.6831042769385286,0.28856795,0.6106187894548364
0.0095,1.79774375,1.0,1287.8725295715715,0.10137099211119449,1.348262384172484,0.704117541427081,0.2885582375,0.6132439788600039
0.01,1.7975,1.0,1365.1654889676881,0.10641159054768201,1.34714440533331,0.7232341701584626,0.288548,0.6157230926204803
0.0105,1.79724375,1.0,1439.658263329668,0.11142391488396934,1.3460839618552227,0.7406466064118018,0.2885372375,0.6180672555694922
0.011,1.796975,1.0,1511.3062076000847,0.11640812374337926,1.345076749170925,0.7565291642971571,0.28852595000000003,0.6202871083597785
0.0115,1.79669375,1.0,1580.1098512385386,0.12136437569162277,1.3441186163969499,0.7710386192391993,0.2885141375,0.6223927865084466
0.012,1.7964,1.0,1646.0641691319518,0.12629282718589177,1.343206081170307,0.7843155076278059,0.28850180000000003,0.6243928120144153
0.0125,1.79609375,1.0,1709.1771171153216,0.13119363355489683,1.3423359986976855,0.7964852697849127,0.2884889375,0.6262948469249308
0.013000000000000001,1.7957750000000001,1.0,1769.492343374808,0.13606695005552658,1.3415052331833932,0.8076595187685165,0.28847555,0.6281064276414421
0.0135,1.79544375,1.0,1827.0727701764679,0.14091293103413904,1.3407108034791202,0.8179375110803933,0.2884616375,0.6298346568641975
0.014,1.7951000000000001,1.0,1881.9863012318995,0.14573173070829026,1.339949995141289,0.8274075247599098,0.2884472,0.6314859719497372
0.0145,1.79474375,1.0,1934.285995431695,0.15052350048085036,1.3392205274354025,0.8361481413776063,0.2884322375,0.6330657964491304
0.015,1.794375,1.0,1984.045896741555,0.15528839175468948,1.3385201196269636,0.8442292085275147,0.28841675,0.6345794917338847
0.0155,1.79399375,1.0,2031.3482368127868,0.1600265550695455,1.3378466067221628,0.8517128994892987,0.2884007375,0.6360321120099498
0.016,1.7936,1.0,2076.2896690720854,0.1647381417792066,1.3371978505093323,0.8586545913418205,0.2883842,0.6374286020787182
0.0165,1.7931937500000001,1.0,2118.9547164962155,0.16942330133257524,1.3365719965468854,0.8651037444886884,0.2883671375,0.6387732498100873
0.017,1.792775,1.0,2159.410415442368,0.17408218060424577,1.3359675013158807,0.8711046057006931,0.28834955,0.6400696366695271
0.0175,1.7923437500000001,1.0,2197.7345287930193,0.17871492646881243,1.3353828212973764,0.8766967340791,0.2883314375,0.6413213111562885
0.018000000000000002,1.7919,1.0,2234.01464823598,0.18332168580086947,1.334816412972431,0.8819155523544053,0.2883128,0.6425317908299573
0.0185,1.79144375,1.0,2268.3370900166633,0.18790260432657202,1.3342668351167624,0.886792855663244,0.2882936375,0.6437043461129567
0.019,1.790975,1.0,2300.7950342726863,0.19245782863996264,1.3337326567551844,0.8913572089485231,0.28827395,0.6448421996655813
0.0195,1.79049375,1.0,2331.4649990666585,0.1969875027007145,1.3332126813628313,0.8956343688754949,0.2882537375,0.6459480515911742
0.02,1.79,1.0,2360.4138785685213,0.20149176855855094,1.3327058645457854,0.8996475810408854,0.288233,0.6470242592373772
0.0205,1.78949375,1.0,2387.7136372241157,0.20597076826319533,1.332211161910128,0.9034178270721919,0.2882117375,0.6480731629538352
0.021,1.788975,1.0,2413.4408864316524,0.21042464386437099,1.331727529061941,0.906964075931744,0.28818995000000003,0.6490970869338619
0.021500000000000002,1.78844375,1.0,2437.66717230475,0.21485353581053934,1.3312540111837645,0.9103035226080538,0.2881676375,0.6500981507482986
0.022,1.7879,1.0,2460.47246924087,0.21925758653472696,1.330789608180942,0.9134517540131932,0.2881448,0.6510785558657488
0.0225,1.78734375,1.0,2481.921890488395,0.2236369354292211,1.3303334945777523,0.9164229619580896,0.28812143749999997,0.6520401223215884
0.023,1.786775,1.0,2502.070668681229,0.22799171952434064,1.3298849657035876,0.9192300789559634,0.28809755,0.6529844049832361
0.0235,1.78619375,1.0,2520.976440953764,0.23232207585040437,1.3294433168878403,0.921884887103049,0.28807313749999996,0.6539129494832208
0.024,1.7856,1.0,2538.6990477473864,0.23662814143773117,1.3290078434599024,0.9243981363047825,0.2880482,0.6548272925442102
0.0245,1.78499375,1.0,2555.300342625663,0.24091005331663984,1.3285778407491662,0.9267796489284216,0.2880227375,0.6557289622723712
0.025,1.784375,1.0,2570.8336091516703,0.24516794514248128,1.328152701527456,0.9290384276733863,0.28799675,0.6566192744905371
0.025500000000000002,1.78374375,1.0,2585.362601535434,0.24940195648918584,1.3277317352356708,0.9311827102569064,0.2879702375,0.6574997121154853
0.026000000000000002,1.7831000000000001,1.0,2598.9314043303443,0.25361221985711446,1.32731444855473,0.9332200837366273,0.2879432,0.658371338543728
0.0265,1.78244375,1.0,2611.582792551129,0.25779886683317194,1.326900371048848,0.9351575212271989,0.2879156375,0.6592351639289715
0.027,1.781775,1.0,2623.3605727275944,0.26196202900426335,1.3264890322822402,0.9370014368450623,0.28788755,0.6600921932379027
0.0275,1.7810937500000001,1.0,2634.309493004406,0.2661018379572936,1.326079961819121,0.9387577379685791,0.2878589375,0.6609434263394152
0.028,1.7804,1.0,2644.4751581483715,0.2702184252791675,1.3256726892237052,0.9404318719773717,0.2878298,0.6617898580797192
0.0285,1.77969375,1.0,2653.897154844502,0.27431192024833295,1.3252668066941968,0.9420288762177338,0.2878001375,0.662632348415051
0.029,1.778975,1.0,2662.613870679084,0.2783824531663901,1.3248619235078447,0.9435534094945254,0.28776995,0.6634717176491813
0.029500000000000002,1.7782437500000001,1.0,2670.6762207058077,0.2824301581977675,1.3244575391884754,0.9450097691539774,0.2877392375,0.6643090091318844
0.03,1.7775,1.0,2678.1121006528365,0.2864551607611783,1.3240533699483903,0.9464019622720282,0.287708,0.6651448132177669
0.0305,1.77674375,1.0,2684.949814080969,0.2904575862753354,1.323649131999891,0.9477337047832838,0.2876762375,0.6659797173332815
0.031,1.775975,1.0,2691.218036403763,0.29443756015895195,1.3232445415552792,0.9490084462969378,0.28764395,0.666814305978053
0.0315,1.7751937500000001,1.0,2696.945780693245,0.29839520783074097,1.3228393148268567,0.9502293925062884,0.2876111375,0.6676491607210642
0.032,1.7744,1.0,2702.1623652713183,0.3023306547094155,1.3224331680269246,0.9513995254512149,0.2875778,0.6684848601917125
0.0325,1.77359375,1.0,2706.897383086661,0.30624402621368857,1.3220258173677848,0.9525216218624468,0.2875439375,0.6693219800657211
0.033,1.772775,1.0,2711.1799415810374,0.3101354470244288,1.3216169857313647,0.9535982703602608,0.28750955,0.6701610793656607
0.0335,1.7719437500000002,1.0,2715.034613538626,0.3140050372753394,1.3212064393021106,0.9546318896473438,0.2874746375,0.6710026254810573
0.034,1.7711000000000001,1.0,2718.49212861624,0.31785292709451574,1.3207938898254044,0.955624734819212,0.2874392,0.6718471946769335
0.0345,1.7702437500000001,1.0,2721.5708989262457,0.3216792355804757,1.3203791627515646,0.9565789231196059,0.2874032375,0.6726951277889237
0.035,1.7693750000000001,1.0,2724.289462705553,0.3254840818317371,1.3199620835309103,0.9574964350221973,0.28736675,0.6735467637198942
0.035500000000000004,1.76849375,1.0,2726.6664712343536,0.32926758494681796,1.3195424776137599,0.9583791246496113,0.2873297375,0.6744024394147314
0.036000000000000004,1.7676,1.0,2728.7206764291527,0.3330298640242362,1.319120170450432,0.9592287292841631,0.2872922,0.6752624898331863
0.0365,1.76669375,1.0,2730.4709191125357,0.3367710381625095,1.3186949874912457,0.9600468780588758,0.2872541375,0.676127247920774
0.037,1.765775,1.0,2731.9361179574557,0.3404912264601559,1.3182667541865194,0.9608350999078447,0.28721555,0.6769970445777349
0.0375,1.76484375,1.0,2733.1352591079576,0.3441905480156933,1.3178352959865716,0.9615948308466283,0.2871764375,0.6778722086260474
0.038,1.7639,1.0,2734.0715261727864,0.3478691054875029,1.3174005823850843,0.9623274310763122,0.28713679999999997,0.6787527751964584
0.0385,1.76294375,1.0,2734.7817031433333,0.3515270385983639,1.3169622781238848,0.96303415878818,0.28709663750000003,0.6796393949187408
0.039,1.761975,1.0,2735.2781618810745,0.35516446150932796,1.31652027006588,0.963716213886711,0.28705595,0.6805322660632092
0.0395,1.7609937500000001,1.0,2735.57092189875,0.3587814858562446,1.3160744667099775,0.9643747281556074,0.2870147375,0.6814315417538371
0.04,1.76,1.0,2735.670028396427,0.362378223274963,1.3156247765550848,0.9650107684649678,0.286973,0.6823373738027831
0.0405,1.7589937500000001,1.0,2735.5855486016276,0.3659547854013326,1.3151711081001094,0.9656253411789141,0.2869307375,0.6832499126879756
0.041,1.757975,1.0,2735.32756829486,0.3695112838712027,1.314713369843959,0.9662193962192774,0.28688795,0.684169307530164
0.0415,1.75694375,1.0,2734.9061885209408,0.3730478303204226,1.314251470285541,0.966793830815487,0.2868446375,0.685095706069438
0.042,1.7559,1.0,2734.331522485684,0.37656453638484166,1.3137853179237626,0.9673494929679088,0.28680079999999997,0.6860292546412092
0.0425,1.75484375,1.0,2733.6136926386853,0.38006151370030933,1.3133148212575319,0.9678871846492422,0.2867564375,0.6869700981516609
0.043000000000000003,1.753775,1.0,2732.762827940905,0.38353887390267477,1.312839888785756,0.9684076647662668,0.28671155,0.6879183800526654
0.043500000000000004,1.75269375,1.0,2731.7890613190743,0.3869967286277875,1.3123604290073427,0.9689116519021176,0.28666613750000003,0.6888742423161633
0.044,1.7516,1.0,2730.702527304508,0.3904351895114967,1.3118763504211992,0.9693998268573999,0.2866202,0.6898378254080145
0.0445,1.75049375,1.0,2729.5053186474524,0.3938543528286869,1.3113876346176776,0.9698728384209875,0.2865737375,0.6908091231097184
0.045,1.7493750000000001,1.0,2728.213847079294,0.39725434481689686,1.3108941330481978,0.9703312963757167,0.28652675,0.6917883865950558
0.0455,1.74824375,1.0,2726.834952330322,0.400635273130699,1.3103957841220912,0.9707757833047925,0.2864792375,0.6927756925995923
0.046,1.7471,1.0,2725.3734794475345,0.403997241493555,1.309892544371597,0.9712068532069595,0.2864312,0.6937710808128119
0.0465,1.7459437500000001,1.0,2723.8342722880816,0.40734035362892634,1.3093843703289536,0.971625032422859,0.28638263750000004,0.6947745899112145
0.047,1.744775,1.0,2722.222172813057,0.41066471326027465,1.3088712185264006,0.9720308212751347,0.28633355,0.6957862575446954
0.0475,1.74359375,1.0,2720.542020423907,0.41397042411106155,1.308353045496177,0.9724246955963227,0.28628393750000003,0.6968061203228082
0.048,1.7424,1.0,2718.7986513394153,0.4172575899047486,1.3078298077705213,0.9728071081531834,0.2862338,0.6978342138009054
0.0485,1.74119375,1.0,2716.9968980160875,0.4205263143647975,1.307301461881673,0.9731784899753974,0.2861831375,0.6988705724661566
0.049,1.739975,1.0,2715.1415886090567,0.4237767012146697,1.3067679643618708,0.9735392515958692,0.28613195,0.6999152297234501
0.0495,1.73874375,1.0,2713.237546475793,0.4270088541778269,1.3062292717433541,0.9738897842092776,0.2860802375,0.7009682178811703
0.05,1.7375,1.0,2711.289589721575,0.4302228769777307,1.3056853405583615,0.9742304607549531,0.286028,0.7020295681368577
0.0505,1.73624375,1.0,2709.3025307862304,0.4334188733378427,1.305136127339132,0.9745616369296694,0.2859752375,0.7030993105627457
0.051000000000000004,1.734975,1.0,2707.271825895856,0.436596943025536,1.3045816739556069,0.9748836572798456,0.28592195,0.7041773083239808
0.051500000000000004,1.7336942435564515,1.0,2705.241541576211,0.439757188625805,1.3040218014184186,0.9751968367367669,0.28586815822937095,0.705263852877231
0.052000000000000005,1.7324102562351,1.0,2703.616160055604,0.44289970934255174,1.303456778603485,0.9755015043541737,0.2858142307618742,0.7063583658150367
0.0525,1.7311262689137485,1.0,2702.518049536495,0.4460246031738791,1.3028869434559363,0.975797978743525,0.2857603032943774,0.7074601386604606
0.053,1.729842281592397,1.0,2701.909897994533,0.4491319681178902,1.3023126339209035,0.9760865644377327,0.2857063758268807,0.7085684673845849
0.0535,1.7285582942710456,1.0,2701.7545501775003,0.4522219021726879,1.3017341879435174,0.976367552643892,0.2856524483593839,0.7096826525065885
0.054,1.727274306949694,1.0,2702.0149753463907,0.45529450333637517,1.3011519434689085,0.9766412219497181,0.28559852089188714,0.7108019991865413
0.0545,1.7259903196283426,1.0,2702.654237547778,0.458349869607055,1.3005662384422074,0.9769078389868822,0.28554459342439037,0.7119258173109124
0.055,1.724706332306991,1.0,2703.643950175848,0.46138809640149087,1.299977333344745,0.9771676541710453,0.28549066595689365,0.7130535697684175
0.0555,1.7234223449856396,1.0,2704.9473512628915,0.46440928303704676,1.2993855655977715,0.977420912306044,0.2854367384893969,0.7141845762490513
0.056,1.7221383576642881,1.0,2706.539652564157,0.4674135248626363,1.2987911635389557,0.9776678412235701,0.2853828110219001,0.7153183692316232
0.0565,1.7208543703429366,1.0,2708.4011409115337,0.47040091552140684,1.2981943093740527,0.9779086565161615,0.28532888355440333,0.7164545722478692
0.057,1.7195703830215852,1.0,2710.512117733108,0.47337154865650555,1.2975951853088168,0.9781435649576363,0.28527495608690656,0.7175928114828156
0.0575,1.7182863957002337,1.0,2712.8528895153745,0.4763255179110797,1.2969939735490035,0.9783727649400094,0.2852210286194098,0.7187327158022125
0.058,1.7170024083788822,1.0,2715.403759001282,0.47926291692827644,1.2963908563003668,0.9785964468854331,0.285167101151913,0.7198739167778551
0.0585,1.7157184210575307,1.0,2718.145017124321,0.4821838393512431,1.2957860157686623,0.9788147936347804,0.2851131736844163,0.7210160487107802
0.059000000000000004,1.7144344337361792,1.0,2721.0610754779336,0.4850883766174496,1.2951795964721171,0.9790279785468641,0.2850592462169195,0.722158819599994
0.059500000000000004,1.7131504464148277,1.0,2724.133494425078,0.4879766232296144,1.2945717687218867,0.9792361698670915,0.28500531874942275,0.7233018911736584
0.06,1.7118664590934762,1.0,2727.3486517058263,0.4908486707775323,1.2939626587698887,0.9794395266893383,0.284951391281926,0.7244450103601339
0.0605,1.7105824717721247,1.0,2730.6963662068715,0.4937046087429256,1.293352361404811,0.9796382001319588,0.28489746381442926,0.7255879848795317
0.061,1.7092984844507733,1.0,2734.166441129183,0.49654452660751636,1.2927409714153422,0.9798323355538228,0.2848435363469325,0.7267306238992406
0.0615,1.7080144971294218,1.0,2737.7486615928888,0.49936851385302683,1.29212858359017,0.9800220728202954,0.2847896088794357,0.7278727380408199
0.062,1.7067305098080703,1.0,2741.43279244012,0.5021766599611791,1.2915152927179827,0.9802075465550187,0.28473568141193895,0.7290141393863165
0.0625,1.7054465224867188,1.0,2745.208576237751,0.5049690544136956,1.2909011935874684,0.9803888863783426,0.2846817539444422,0.7301546414840123
0.063,1.7041625351653673,1.0,2749.070916225986,0.5077457802849935,1.2902863340279538,0.9805662142393604,0.2846278264769454,0.7312941462902145
0.0635,1.7028785478440158,1.0,2753.007369586155,0.5105069316675046,1.2896708282578995,0.9807396518291396,0.2845738990094486,0.7324324338532606
0.064,1.7015945605226643,1.0,2757.007145725235,0.5132526011669891,1.2890547752545902,0.980909315544289,0.2845199715419519,0.7335693141024182
0.0645,1.700310573201313,1.0,2761.065941598166,0.515982873094816,1.288438215097258,0.9810753140435199,0.28446604407445514,0.7347047068606758
0.065,1.6990265858799614,1.0,2765.1794429214438,0.5186978317623544,1.2878211878651347,0.981237752107804,0.28441211660695837,0.7358385325762209
0.0655,1.69774259855861,1.0,2769.3433237401327,0.5213975614809732,1.2872037336374522,0.9813967308079171,0.28435818913946165,0.7369707123236844
0.066,1.6964586112372584,1.0,2773.5532460303234,0.5240821465620414,1.2865858924934424,0.9815523476635934,0.2843042616719649,0.7381011678052842
0.0665,1.6951746239159071,1.0,2777.804859338099,0.5267516713169281,1.2859677045123372,0.9817046967947664,0.2842503342044681,0.7392298213518642
0.067,1.6938906365945554,1.0,2782.0938004529944,0.5294062200570024,1.2853492097733683,0.9818538690653449,0.28419640673697133,0.7403565959238337
0.0675,1.6926066492732041,1.0,2786.4156931178954,0.5320458770936332,1.2847304483557678,0.9819999522199416,0.28414247926947456,0.7414814151120008
0.068,1.6913226619518524,1.0,2790.766147774059,0.5346707267381896,1.2841114603387673,0.9821430310139468,0.2840885518019778,0.7426042031383069
0.0685,1.6900386746305012,1.0,2795.140761342109,0.5372808533020406,1.2834922858015991,0.9822831873373146,0.284034624334481,0.7437248848564555
0.069,1.6887546873091495,1.0,2799.536831955304,0.539876335071962,1.2828729494317654,0.9824204992277134,0.2839806968669843,0.7448434135196871
0.0695,1.6874706999877982,1.0,2803.9532801983128,0.5424572489780881,1.2822534612906382,0.9825550413613088,0.2839267693994875,0.7459597690990248
0.07,1.6861867126664465,1.0,2808.382424581304,0.5450236967827365,1.2816338905708766,0.9826868902204116,0.28387284193199075,0.7470738255162994
0.07050000000000001,1.6849027253450952,1.0,2812.8229378308083,0.5475757563716388,1.2810142493521381,0.9828161156828663,0.283818914464494,0.7481855601436682
0.07100000000000001,1.6836187380237435,1.0,2817.273488449195,0.5501135056305261,1.2803945497140807,0.9829427853507863,0.2837649869969972,0.749294950544126
0.07150000000000001,1.6823347507023922,1.0,2821.732740697639,0.5526370224451299,1.2797748037363628,0.9830669646403662,0.2837110595295005,0.7504019744715551
0.07200000000000001,1.6810507633810408,1.0,2826.1993545818927,0.5551463847011817,1.2791550234986417,0.9831887168675816,0.2836571320620037,0.7515066098707678
0.0725,1.6797667760596893,1.0,2830.6719858416263,0.5576416702844126,1.2785352210805756,0.9833081033299845,0.28360320459450694,0.7526088348775347
0.073,1.6784827887383378,1.0,2835.1492859428363,0.5601229570805543,1.2779154085618227,0.983425183384802,0.28354927712701017,0.753708627818607
