Time [s],Phi [rad],STIM [ ],Fsee [N],Gamma [ ],Lcerel [ ],q [ ],Lmtc [m],fisomrel [ ]
0.0,1.8,1.0,18.08449548150452,0.000351368728114409,1.3793266219091749,0.0050319908605857295,0.288653,0.5411712816038708
0.0005,1.79999375,1.0,18.50337013821347,0.005958607136263328,1.3792772916096452,0.013915352197232115,0.2886527375,0.5412906124657277
0.001,1.799975,1.0,22.09846829031613,0.01153439337027861,1.378889537566353,0.03740962051648675,0.28865195,0.5422280558761325
0.0015,1.79994375,1.0,32.102013110727405,0.01707890385299662,1.3779589339738187,0.07305255904337295,0.2886506375,0.5444739930783626
0.002,1.7999,1.0,55.71178569662078,0.02259231401538235,1.3762313332002087,0.11761109950218186,0.2886488,0.5486287752499793
0.0025,1.79984375,1.0,100.61801492716195,0.028074798305829943,1.373768047041734,0.16771638685333706,0.28864643749999996,0.5545199203144393
0.003,1.7997750000000001,1.0,165.45965285280633,0.03352653019523502,1.3710470107251884,0.22051756176594764,0.28864354999999997,0.560982512219075
0.0035,1.79969375,1.0,242.74122521097382,0.038947682178908656,1.3684297578614277,0.2738298868134212,0.2886401375,0.5671540609763066
0.004,1.7996,1.0,326.83144155789256,0.04433842578649116,1.3660145906787502,0.3260288423547101,0.2886362,0.5728103297521268
0.0045000000000000005,1.7994937500000001,1.0,414.81208162938117,0.049698931587465835,1.3637931054005328,0.37598828394570394,0.2886317375,0.5779801545377451
0.005,1.799375,1.0,505.06183804073726,0.055029369182532525,1.3617386531886635,0.42301005970705885,0.28862675,0.5827332486902164
0.0055,1.79924375,1.0,596.4829029495539,0.06032990724214488,1.3598278842920686,0.4667308489614915,0.2886212375,0.5871297630289978
0.006,1.7991000000000001,1.0,688.2108111789112,0.06560071347408117,1.3580431514379612,0.5070296125696433,0.2886152,0.5912152477945574
0.006500000000000001,1.79894375,1.0,779.5342859844307,0.07084195463014184,1.3563709283067746,0.5439489301321968,0.2886086375,0.5950247495464531
0.007,1.798775,1.0,869.8690250875254,0.07605379662375418,1.354800353382983,0.5776342996112247,0.28860155,0.5985864452784131
0.0075,1.79859375,1.0,958.7249966121301,0.08123640418341449,1.3533225846012995,0.6082902767057972,0.2885939375,0.6019233138094948
0.008,1.7984,1.0,1045.7287735277723,0.08638994158291675,1.3519296809913992,0.636149670286827,0.2885858,0.6050558024148343
0.0085,1.79819375,1.0,1130.560400236614,0.09151457165271926,1.350615061336968,0.6614538679656135,0.2885771375,0.6080008889147772
0.009000000000000001,1.797975,1.0,1212.9765148079823,0.09661045638823493,1.3493727457004394,0.6844397775037444,0.28856795,0.6107738665871687
0.0095,1.79774375,1.0,1292.8158367311503,0.10167775755186441,1.348197033149559,0.705332208826339,0.2885582375,0.6133891138579239
0.01,1.7975,1.0,1369.9427650226307,0.10671663517497484,1.3470830580098996,0.7243402054498642,0.288548,0.6158588993702063
0.0105,1.79724375,1.0,1444.269042989088,0.11172724843224177,1.3460263005155049,0.7416550637095214,0.2885372375,0.6181945132383722
0.011,1.796975,1.0,1515.7521615748208,0.11670975587059534,1.345022479516284,0.7574500210417542,0.28852595000000003,0.6204065326161844
0.0115,1.79669375,1.0,1584.3898522300972,0.121664316090679,1.3440675195837242,0.7718808534389797,0.2885141375,0.622504916988213
0.012,1.7964,1.0,1650.1694296494936,0.1265910850152807,1.3431580598394817,0.7850871861272077,0.28850180000000003,0.6244979144362333
0.0125,1.79609375,1.0,1713.1125139698006,0.13149021826098584,1.3422908201151316,0.7971935187829328,0.2884889375,0.6263934772478018
0.013000000000000001,1.7957750000000001,1.0,1773.2659300251971,0.13636187087433507,1.3414626551102307,0.8083106700526186,0.28847555,0.6281991555008664
0.0135,1.79544375,1.0,1830.6979423255964,0.14120619809002483,1.34067054820161,0.8185371787233889,0.2884616375,0.6299221224107607
0.014,1.7951000000000001,1.0,1885.4627023866756,0.1460233528114274,1.3399119579346026,0.8279607581004499,0.2884472,0.6315684338426817
0.0145,1.79474375,1.0,1937.6157834888613,0.1508134866607283,1.3391845891923533,0.8366594226727171,0.2884322375,0.6331435409898423
0.015,1.794375,1.0,1987.2337165715915,0.155576751260113,1.3384861468580065,0.8447025190778941,0.28841675,0.6346528328610335
0.0155,1.79399375,1.0,2034.3973865087517,0.16031329728748558,1.3378144914910919,0.8521517916718659,0.2884007375,0.636101305288951
0.016,1.7936,1.0,2079.2069184600664,0.1650232760987563,1.3371674581444184,0.8590622222932764,0.2883842,0.6374939578074996
0.0165,1.7931937500000001,1.0,2121.7360261465087,0.1697068359688695,1.3365433129611979,0.8654829663157275,0.2883671375,0.6388348166489197
0.017,1.792775,1.0,2162.0582131812007,0.17436412426597864,1.3359404510510766,0.8714579492757684,0.28834955,0.6401275935829056
0.0175,1.7923437500000001,1.0,2200.2578927102113,0.1789952883582371,1.335357267523701,0.8770264473175629,0.2883314375,0.6413759665785612
0.018000000000000002,1.7919,1.0,2236.42175026512,0.1836004747602316,1.3347922348857428,0.8822236538730058,0.2883128,0.6425834166460765
0.0185,1.79144375,1.0,2270.642955486732,0.1881798305540252,1.334243849444026,0.8870811425626061,0.2882936375,0.6437533453725741
0.019,1.790975,1.0,2303.0009659993857,0.19273350067879563,1.3337108225986436,0.8916273314562888,0.28827395,0.6448886698996703
0.0195,1.79049375,1.0,2333.5644128640224,0.19726162800346783,1.333192038342474,0.8958878317732663,0.2882537375,0.6459919183201126
0.02,1.79,1.0,2362.4076426564834,0.20176435539696672,1.3326863806683964,0.8998857254190613,0.288233,0.6470655998653152
0.0205,1.78949375,1.0,2389.6102391803315,0.20624182572821723,1.3321927335692896,0.9036418488410751,0.2882117375,0.6481122058793463
0.021,1.788975,1.0,2415.2429319404355,0.21069417988714334,1.3317101128478976,0.907175069639993,0.28818995000000003,0.6491339318700097
0.021500000000000002,1.78844375,1.0,2439.394515083081,0.21512156174556016,1.3312373999539404,0.9105024478408619,0.2881676375,0.650133242575744
0.022,1.7879,1.0,2462.127221560685,0.2195241105068523,1.3307737688030365,0.9136395155348498,0.2881448,0.6511119702545769
0.0225,1.78734375,1.0,2483.498297048498,0.22390196410971905,1.3303184703343074,0.9166003967070517,0.28812143749999997,0.6520717734566431
0.023,1.786775,1.0,2503.567690242647,0.22825526049285966,1.3298707554868738,0.9193979409399905,0.28809755,0.6530143006202778
0.0235,1.78619375,1.0,2522.397826938962,0.23258413759497334,1.329429875199857,0.9220438560360348,0.28807313749999996,0.6539411904521896
0.024,1.7856,1.0,2540.050844063208,0.23688873287171977,1.3289951044632002,0.9245488293827591,0.2880482,0.6548540218088265
0.0245,1.78499375,1.0,2556.5803445775095,0.2411691818600382,1.3285658174775907,0.9269226437603987,0.2880227375,0.6557541568408245
0.025,1.784375,1.0,2572.0614320680384,0.24542562370153928,1.3281412032103057,0.9291742208441937,0.28799675,0.6566433378689186
0.025500000000000002,1.78374375,1.0,2586.5368018830945,0.24965819102190498,1.3277207699601425,0.9313117869467119,0.2879702375,0.6575226305380464
0.026000000000000002,1.7831000000000001,1.0,2600.05040378703,0.2538670164468171,1.3273040260258981,0.9333428898139703,0.2879432,0.6583930948572647
0.0265,1.78244375,1.0,2612.6473375175783,0.2580522326019575,1.3268904797063703,0.935274463753792,0.2879156375,0.6592557853231477
0.027,1.781775,1.0,2624.3737537041725,0.26221397211300806,1.326479639300356,0.9371128877195959,0.28788755,0.6601117510277725
0.0275,1.7810937500000001,1.0,2635.276760146188,0.26635236760565073,1.3260710131066529,0.9388640371871476,0.2878589375,0.6609620357512788
0.028,1.7804,1.0,2645.3974103905207,0.27046754802384065,1.3256641733445051,0.9405333384625332,0.2878298,0.6618075452801024
0.0285,1.77969375,1.0,2654.7857393299696,0.2745596486122311,1.325258616245175,0.9421257932056487,0.2878001375,0.6626493385149044
0.029,1.778975,1.0,2663.475191677542,0.27862879726525136,1.3248539973411761,0.9436460444351248,0.28776995,0.6634881390671529
0.029500000000000002,1.7782437500000001,1.0,2671.4982443027147,0.28267512110817494,1.3244499860468482,0.9450983903678445,0.2877392375,0.6643246382468113
0.03,1.7775,1.0,2678.887859815603,0.2866987472662751,1.3240462517765301,0.9464868129432517,0.287708,0.6651595239463701
0.0305,1.77674375,1.0,2685.677441948314,0.2906998028648254,1.3236424639445614,0.947815005109599,0.2876762375,0.6659934806501699
0.031,1.775975,1.0,2691.9007933592643,0.2946784150290991,1.3232382919652814,0.9490863954337289,0.28764395,0.6668271894367586
0.0315,1.7751937500000001,1.0,2697.5895425787976,0.2986347089498962,1.322833428415391,0.9503041726057583,0.2876111375,0.6676612802856012
0.032,1.7744,1.0,2702.7692803873865,0.3025688059587833,1.3224276238736552,0.9514713089894666,0.2875778,0.6684962607244539
0.0325,1.77359375,1.0,2707.482662581524,0.3064808431630989,1.3220204755223548,0.9525905588004789,0.2875439375,0.6693329507154225
0.033,1.772775,1.0,2711.7500523762337,0.31037094102013624,1.3216117864341772,0.9536645085887329,0.28750955,0.6701717437073252
0.0335,1.7719437500000002,1.0,2715.5919967012824,0.3142392199871885,1.321201359681809,0.9546955714744317,0.2874746375,0.6710130310540725
0.034,1.7711000000000001,1.0,2719.0292087095986,0.31808580052154906,1.3207889983379377,0.9556860008408051,0.2874392,0.6718572019940772
0.0345,1.7702437500000001,1.0,2722.082551147281,0.321910803080511,1.3203745054752498,0.9566379027918444,0.2874032375,0.6727046436271975
0.035,1.7693750000000001,1.0,2724.773020581725,0.3257143481213677,1.3199576841664324,0.9575532474993887,0.28736675,0.6735557408892011
0.035500000000000004,1.76849375,1.0,2727.1217324908725,0.32949655610141226,1.3195383374841727,0.9584338795501868,0.2873297375,0.6744108765237594
0.036000000000000004,1.7676,1.0,2729.1499072113706,0.33325754747793807,1.3191162685011575,0.9592815273914681,0.2872922,0.675270431051968
0.0365,1.76669375,1.0,2730.8788567473293,0.3369974427082382,1.3186912802900739,0.960097811962879,0.2872541375,0.6761347827393928
0.037,1.765775,1.0,2732.3263007676683,0.34071635766083214,1.31826320928043,0.9608842569065713,0.28721555,0.6770042398549783
0.0375,1.76484375,1.0,2733.5079816000302,0.34441441032389003,1.3178319104492076,0.9616422956248314,0.2871764375,0.6778790711103537
0.038,1.7639,1.0,2734.4452639964707,0.3480917271930351,1.3173971882067768,0.9623732723782463,0.28713679999999997,0.6787596457858162
0.0385,1.76294375,1.0,2735.149901457136,0.35174842137049545,1.3169589346862753,0.963078457204153,0.28709663750000003,0.6796461534519816
0.039,1.761975,1.0,2735.633684362,0.35538460595849936,1.316517042020841,0.9637590456672401,0.28705595,0.6805387822397232
0.0395,1.7609937500000001,1.0,2735.9084350449057,0.359000394059275,1.316071402343612,0.9644161640260004,0.2870147375,0.6814377188155056
0.04,1.76,1.0,2735.9860031245257,0.36259589877505055,1.3156219077877258,0.9650508739875487,0.286973,0.6823431483559832
0.0405,1.7589937500000001,1.0,2735.87826109412,0.3661712332080543,1.3151684504863208,0.9656641770876283,0.2869307375,0.6832552545218481
0.041,1.757975,1.0,2735.5971001687335,0.3697265104605143,1.3147109225725344,0.9662570187289855,0.28688795,0.6841742194309447
0.0415,1.75694375,1.0,2735.1544263905016,0.37326184363465886,1.314249216179505,0.9668302919080611,0.2868446375,0.6851002236306338
0.042,1.7559,1.0,2734.5621569923824,0.37677734583271616,1.31378322344037,0.967384840657029,0.28680079999999997,0.6860334460694225
0.0425,1.75484375,1.0,2733.832217019074,0.3802731301569144,1.3133128364882676,0.9679214632256389,0.2867564375,0.6869740640678448
0.043000000000000003,1.753775,1.0,2732.967256396392,0.383749289344489,1.3128380317527064,0.968440918644759,0.28671155,0.687922085105525
0.043500000000000004,1.75269375,1.0,2731.9863221357577,0.3872059598612376,1.3123586367647908,0.9689439205825863,0.28666613750000003,0.6888778126225812
0.044,1.7516,1.0,2730.8968379892813,0.3906432509073191,1.311874584630851,0.9694311492880725,0.2866202,0.6898413375680298
0.0445,1.75049375,1.0,2729.7044800938793,0.39406126752515097,1.3113858243501741,0.9699032502600381,0.2865737375,0.6908127180923549
0.045,1.7493750000000001,1.0,2728.414925742595,0.3974601147571506,1.310892304922047,0.9703608357941637,0.28652675,0.691792011289085
0.0455,1.74824375,1.0,2727.0338523538912,0.40083989764573535,1.3103939753457563,0.9708044870103434,0.2864792375,0.6927792731793943
0.046,1.7471,1.0,2725.566936498843,0.4042007212333228,1.3098907846205894,0.9712347557373266,0.2864312,0.6937745586965418
0.0465,1.7459437500000001,1.0,2724.019852985641,0.40754269056233033,1.3093826817458332,0.9716521662659645,0.28638263750000004,0.694777921670142
0.047,1.744775,1.0,2722.3982740016304,0.4108659106751753,1.3088696157207744,0.9720572169813914,0.28633355,0.6957894148102715
0.0475,1.74359375,1.0,2720.7078683140057,0.4141704866142753,1.3083515355447004,0.972450381883569,0.28628393750000003,0.6968090896914074
0.048,1.7424,1.0,2718.954300526535,0.41745652342204764,1.307828390216898,0.9728321120048014,0.2862338,0.697836996736203
0.0485,1.74119375,1.0,2717.1432303957235,0.4207241261409098,1.3073001287366537,0.9732028367321033,0.2861831375,0.6988731851990946
0.049,1.739975,1.0,2715.2803122031405,0.42397339981327925,1.306766700103255,0.9735629650416231,0.28613195,0.6999177031497437
0.0495,1.73874375,1.0,2713.3711941863976,0.42720444948157343,1.3062280533159887,0.9739128866517264,0.2860802375,0.7009705974563138
0.05,1.7375,1.0,2711.4137895482,0.4304173620377013,1.305684207856952,0.9742529757171,0.286028,0.7020317763611856
0.0505,1.73624375,1.0,2709.4163859247697,0.43361225347302795,1.3051350885995046,0.9745835862058,0.2859752375,0.7031013319686623
0.051000000000000004,1.734975,1.0,2707.3876820471637,0.43678923696162447,1.3045806165639064,0.9749050552713009,0.28592195,0.7041793622881078
0.051500000000000004,1.73369375,1.0,2705.3298292846107,0.4399484089519937,1.304020772436557,0.975217706767752,0.2858681375,0.705265847981758
0.052000000000000005,1.7324,1.0,2703.244976308737,0.4430898658926384,1.3034555369038556,0.9755218500110412,0.2858138,0.706360768885181
0.0525,1.73109375,1.0,2701.1352689811642,0.4462137042320612,1.3028848906522021,0.9758177805553199,0.28575893750000003,0.7074641040006491
0.053,1.729775,1.0,2699.0028502487485,0.44932002041876506,1.302308814367996,0.9761057809215538,0.28570355000000003,0.7085758314904865
0.0535,1.72844375,1.0,2696.8498600473963,0.4524089109012527,1.3017272887376365,0.9763861212814566,0.2856476375,0.7096959286703919
0.054,1.7271,1.0,2694.678435214074,0.4554804721280269,1.3011402944475239,0.9766590600998898,0.2855912,0.710824372002738
0.0545,1.7257437500000001,1.0,2692.4907094072278,0.4585348005475903,1.300547812184057,0.9769248447385838,0.2855342375,0.7119611370898495
0.055,1.724375,1.0,2690.288813034943,0.46157199260844584,1.2999498226336361,0.9771837120238159,0.28547675,0.713106198667252
0.0555,1.72299375,1.0,2688.074873192294,0.46459214475909616,1.29934630648266,0.9774358887804759,0.2854187375,0.7142595305969048
0.056,1.7216,1.0,2685.8510136059513,0.4675953534480441,1.298737244417529,0.9776815923347748,0.2853602,0.7154211058604005
0.0565,1.72019375,1.0,2683.6193545878705,0.47058171512379243,1.2981226171246423,0.977921030987677,0.28530113749999997,0.716590896552149
0.057,1.718775,1.0,2681.382012997096,0.47355132623484386,1.2975024052903992,0.9781544044609896,0.28524155,0.7177688738725353
0.0575,1.71734375,1.0,2679.141102208881,0.47650428322970123,1.2968765896011998,0.978381904317892,0.2851814375,0.7189550081210485
0.058,1.7159,1.0,2676.876597792547,0.47944067675917884,1.2962453539034045,0.9786037252900901,0.2851208,0.7201488848553783
0.0585,1.71444375,1.0,2674.633319904546,0.48236060247864815,1.2956082869253527,0.9788200215697483,0.2850596375,0.7213512139702116
0.059000000000000004,1.7129785771745938,1.0,2672.560398151684,0.48526415197069944,1.2949656340162858,0.9790309770721435,0.28499810024133293,0.722561462848758
0.059500000000000004,1.7115130338846374,1.0,2671.039720451284,0.4881514154684985,1.2943177465983424,0.9792367741765032,0.2849365474231548,0.7237789031800825
0.06,1.7100474905946808,1.0,2670.0507821090487,0.49102248320521097,1.2936649760936616,0.9794375881773739,0.28487499460497656,0.7250028119129757
0.0605,1.7085819473047241,1.0,2669.555052813887,0.49387744541400275,1.2930076739243817,0.9796335876250134,0.2848134417867984,0.7262324713693343
0.061,1.7071164040147677,1.0,2669.5141603837196,0.49671639232803955,1.2923461915126417,0.9798249346470047,0.28475188896862025,0.7274671693496614
0.0615,1.705650860724811,1.0,2669.8898568261675,0.4995394141804871,1.2916808802805804,0.9800117852522511,0.28469033615044204,0.7287061992306944
0.062,1.7041853174348545,1.0,2670.6439871370408,0.5023466012045111,1.2910120916503363,0.9801942896184312,0.2846287833322639,0.729948860055154
0.0625,1.702719774144898,1.0,2671.7495650678215,0.5051380403709509,1.2903400750256622,0.9803725868191162,0.2845672305140857,0.7311946455168779
0.063,1.7012542308549414,1.0,2673.167934390735,0.5079138236621815,1.289665187462009,0.9805468167334981,0.2845056776959075,0.7324428545044616
0.0635,1.6997886875649848,1.0,2674.871973011053,0.5106740394538486,1.2889876802775335,0.9807171084924585,0.28444412487772935,0.7336929867595985
0.064,1.6983231442750284,1.0,2676.8429346814887,0.5134187734412992,1.2883077280387654,0.9808835824817146,0.2843825720595512,0.7349446873505272
0.0645,1.6968576009850718,1.0,2679.062086867002,0.5161481113198808,1.2876255053122345,0.9810463547684211,0.284321019241373,0.7361976042534495
0.065,1.6953920576951151,1.0,2681.51070161931,0.5188621387849407,1.2869411866644709,0.9812055372921099,0.28425946642319483,0.7374513883787797
0.0655,1.6939265144051587,1.0,2684.17004712668,0.5215609415318261,1.2862549466620041,0.9813612380459052,0.28419791360501667,0.7387056935954501
0.066,1.692460971115202,1.0,2687.021379939946,0.5242446052558845,1.2855669598713642,0.9815135612485724,0.28413636078683846,0.739960176753274
0.0665,1.6909954278252455,1.0,2690.0459378739533,0.5269132156524631,1.2848774008590809,0.9816626075079252,0.2840748079686603,0.7412144977033628
0.067,1.689529884535289,1.0,2693.2290108731895,0.529566856095502,1.284186406881931,0.9818084720147299,0.28401325515048215,0.7424683869373008
0.0675,1.6880643412453324,1.0,2696.5546891245626,0.5322056125044196,1.283494125977731,0.9819512473986639,0.28395170233230393,0.7437215578320229
0.068,1.6865987979553758,1.0,2700.0080632552545,0.534829570216634,1.2828006967849555,0.9820910226689381,0.2838901495141258,0.7449737432970143
0.0685,1.6851332546654194,1.0,2703.5803512258785,0.5374388106178809,1.2821062017129725,0.9822278809283709,0.2838285966959476,0.7462247798312489
0.069,1.6836677113754628,1.0,2707.262755105374,0.5400334150938956,1.2814107231711502,0.9823619025030232,0.2837670438777694,0.7474745053708236
0.0695,1.6822021680855062,1.0,2711.046459199236,0.5426134650304134,1.2807143435688568,0.9824931650561405,0.28370549105959125,0.7487227592943425
0.07,1.6807366247955497,1.0,2714.922628327214,0.5451790418131698,1.2800171453154603,0.9826217436966898,0.2836439382414131,0.7499693824278711
0.07050000000000001,1.6792710815055931,1.0,2718.8824062527246,0.5477302268279002,1.2793192108203286,0.9827477110827897,0.2835823854232349,0.7512142170494541
0.07100000000000001,1.6778055382156365,1.0,2722.916914262248,0.5502671014603399,1.27862062249283,0.9828711375203009,0.2835208326050567,0.7524571068932012
0.07150000000000001,1.67633999492568,1.0,2727.01995867397,0.5527897433339738,1.2779214381093573,0.9829920897098942,0.28345927978687857,0.7536979408138605
0.07200000000000001,1.6748744516357235,1.0,2731.185622245727,0.5552982315012854,1.2772217127834833,0.9831106321874149,0.28339772696870036,0.7549366133972957
0.0725,1.673408908345767,1.0,2735.401134526519,0.5577926556796947,1.276521563705471,0.9832268308573664,0.2833361741505222,0.7561729107330394
0.073,1.6719433650558104,1.0,2739.6630178760024,0.5602730922413048,1.2758210234062397,0.9833407450049398,0.28327462133234405,0.7574067699207098
0.0735,1.6704778217658538,1.0,2743.967784570663,0.5627396175582189,1.2751201244167083,0.9834524320590975,0.28321306851416583,0.7586381286381855
