Time [s],Phi [rad],STIM [ ],Fsee [N],Gamma [ ],Lcerel [ ],q [ ],Lmtc [m],fisomrel [ ]
0.0,1.8,1.0,17.967429977883768,1.0061235406784127e-05,1.379339715767992,0.005000026977876654,0.288653,0.5411396047227647
0.0005,1.79999375,1.0,18.276757385790702,0.005619214108627279,1.379302386318829,0.012940683969327408,0.2886527375,0.5412299098623783
0.001,1.799975,1.0,21.61840738309291,0.011196904069151173,1.3789382994760258,0.035608895619848153,0.28865195,0.5421102206320723
0.0015,1.79994375,1.0,31.069265374522356,0.016743307599902526,1.3780462012267314,0.07060214182549883,0.2886506375,0.5442636152360897
0.002,1.7999,1.0,53.58234658897175,0.022258600192155392,1.3763681343630818,0.11471835379799199,0.2886488,0.5483004701404759
0.0025,1.79984375,1.0,97.1187666995493,0.02774295635309525,1.3739351754970897,0.1645752366981648,0.28864643749999996,0.5541214430037015
0.003,1.7997750000000001,1.0,160.95803396156614,0.033196549613538164,1.371214348729323,0.21728080813181516,0.28864354999999997,0.5605864390863031
0.0035,1.79969375,1.0,237.6832272071875,0.03861955252752076,1.3685847374469728,0.2706132401334108,0.2886401375,0.5667898320189608
0.004,1.7996,1.0,321.4667077927732,0.04401213668308282,1.36615609407926,0.32291614180210865,0.2886362,0.5724799578080997
0.0045000000000000005,1.7994937500000001,1.0,409.26773978249753,0.04937447270745172,1.3639228144249493,0.3730348304822071,0.2886317375,0.5776791618017344
0.005,1.799375,1.0,499.41352671618336,0.05470673025813142,1.3618583418676613,0.42024776326262236,0.28862675,0.5824570804234273
0.0055,1.79924375,1.0,590.7904734052448,0.06000907807037708,1.359938833938669,0.4641739789199888,0.2886212375,0.5868751142310944
0.006,1.7991000000000001,1.0,682.5181895641357,0.06528168390033007,1.3581464132707424,0.5046802208316117,0.2886152,0.5909794217516027
0.006500000000000001,1.79894375,1.0,773.8814422912534,0.07052471458063833,1.3564672504689317,0.5418009970053679,0.2886086375,0.5948058014767856
0.007,1.798775,1.0,864.2859496394473,0.07573833600405401,1.3548903927601874,0.5756769984991894,0.28860155,0.5983826821636478
0.0075,1.79859375,1.0,953.2434445226403,0.08092271313316571,1.3534067756671657,0.6065101142418713,0.2885939375,0.601733580716
0.008,1.7984,1.0,1040.3452543431965,0.08607800961231286,1.3520088406922763,0.6345323567630521,0.2885858,0.6048781124823968
0.0085,1.79819375,1.0,1125.3154220990618,0.09120438952506131,1.3506892245875652,0.6599845947645464,0.2885771375,0.6078350374941717
0.009000000000000001,1.797975,1.0,1207.900545756364,0.09630201479260135,1.349442030060895,0.6831043466152636,0.28856795,0.61061947585115
0.0095,1.79774375,1.0,1287.8918977704352,0.10137104596578772,1.348262127878424,0.7041176230587812,0.2885582375,0.6132445481045673
0.01,1.7975,1.0,1365.166774844532,0.10641164359547516,1.3471443888063108,0.7232343599785134,0.288548,0.6157231292101177
0.0105,1.79724375,1.0,1439.660184703363,0.11142396760437505,1.3460839378077543,0.7406467751564145,0.2885372375,0.6180673086462962
0.011,1.796975,1.0,1511.32307486186,0.11640817674441414,1.3450765431295126,0.7565292324689274,0.28852595000000003,0.6202875618041633
0.0115,1.79669375,1.0,1580.1212027854185,0.12136442819581818,1.3441184807849862,0.7710387088937911,0.2885141375,0.6223930841270189
0.012,1.7964,1.0,1646.0561288900055,0.12629287855669982,1.3432061752798459,0.7843156859468905,0.28850180000000003,0.6243926060260833
0.0125,1.79609375,1.0,1709.1735086164401,0.13119368482841484,1.3423360401473146,0.7964854133231938,0.2884889375,0.6262947564293886
0.013000000000000001,1.7957750000000001,1.0,1769.5069209699097,0.13606700180892337,1.3415050686143957,0.807659569710338,0.28847555,0.6281067860672096
0.0135,1.79544375,1.0,1827.0923499256762,0.14091298290188847,1.3407105859509951,0.8179375356830784,0.2884616375,0.6298351295310254
0.014,1.7951000000000001,1.0,1881.9934006382844,0.14573178151097335,1.3399499174270184,0.8274075948714535,0.2884472,0.631486140438021
0.0145,1.79474375,1.0,1934.2807029816424,0.1505235501255957,1.339220584581174,0.8361482517430545,0.2884322375,0.6330656728201741
0.015,1.794375,1.0,1984.0515815787237,0.15528844172014314,1.3385200590190636,0.8442292719240224,0.28841675,0.6345796225820464
0.0155,1.79399375,1.0,2031.3725655706214,0.16002660620708847,1.3378463503836724,0.851712895214594,0.2884007375,0.63603266432536
0.016,1.7936,1.0,2076.314152409379,0.1647381928196096,1.337197595349245,0.8586545852221057,0.2883842,0.6374291507993841
0.0165,1.7931937500000001,1.0,2118.961109923878,0.1694233507908845,1.3365719305900257,0.8651037921670967,0.2883671375,0.6387733913868079
0.017,1.792775,1.0,2159.3975685117557,0.17408222830207767,1.3359676326023011,0.8711047055173569,0.28834955,0.6400693553686392
0.0175,1.7923437500000001,1.0,2197.7245913494285,0.17871497433393094,1.3353829219615494,0.8766968202029481,0.2883314375,0.6413210958435372
0.018000000000000002,1.7919,1.0,2234.016997892065,0.1833217346307619,1.3348163893650091,0.8819156011373972,0.2883128,0.6425318412390899
0.0185,1.79144375,1.0,2268.3485553003466,0.18790265412966065,1.3342667207979149,0.8867928785657893,0.2882936375,0.6437045898182681
0.019,1.790975,1.0,2300.8005401370733,0.19245787776771736,1.3337326022455007,0.8913572443265187,0.28827395,0.6448423156838214
0.0195,1.79049375,1.0,2331.454613741042,0.19698754961640438,1.3332127835022844,0.8956344382325454,0.2882537375,0.6459478345365425
0.02,1.79,1.0,2360.3974902052796,0.201491814294158,1.332706024733658,0.8996476597766916,0.288233,0.6470239193428782
0.0205,1.78949375,1.0,2387.7066681232914,0.20597081480687515,1.332211229638919,0.9034178818363721,0.2882117375,0.6480730194572621
0.021,1.788975,1.0,2413.4450469690264,0.21042469149140133,1.3317274888441435,0.9069641050503894,0.28818995000000003,0.6490971720190009
0.021500000000000002,1.78844375,1.0,2437.6794622106386,0.214853584684582,1.3312538929754067,0.9103035342466952,0.2881676375,0.6500984004739725
0.022,1.7879,1.0,2460.480357780501,0.21925763472326254,1.3307895326587849,0.9134517729274904,0.2881448,0.6510787151893581
0.0225,1.78734375,1.0,2481.915411751098,0.22363698068419888,1.3303335563344374,0.9164230052480423,0.28812143749999997,0.6520399922176119
0.023,1.786775,1.0,2502.0551449461195,0.22799176261252488,1.3298851130822087,0.919230135656475,0.28809755,0.6529840949194464
0.0235,1.78619375,1.0,2520.965997811771,0.2323221196370422,1.3294434156600154,0.9218849328304792,0.28807313749999996,0.6539127419587445
0.024,1.7856,1.0,2538.698819360282,0.2366281870032544,1.3290078456124532,0.9243981634980186,0.2880482,0.6548272880275898
0.0245,1.78499375,1.0,2555.306331877132,0.24091009995666515,1.3285777844841178,0.9267796650448934,0.2880227375,0.6557290801770046
0.025,1.784375,1.0,2570.8429737353376,0.24516799374277812,1.3281526138196045,0.9290384384815888,0.28799675,0.6566194580464335
0.025500000000000002,1.78374375,1.0,2585.3647506897296,0.2494020036070969,1.327731715163509,0.9311827309796183,0.2879702375,0.6574997540688283
0.026000000000000002,1.7831000000000001,1.0,2598.9208085024125,0.2536122627156375,1.3273145472565837,0.9332201209055487,0.2879432,0.6583711325070716
0.0265,1.78244375,1.0,2611.5647281311585,0.257798906495445,1.3269005389138853,0.935157566614825,0.2879156375,0.6592348139598578
0.027,1.781775,1.0,2623.349064802046,0.2619620692696957,1.326489138980148,0.9370014715072768,0.28788755,0.6600919710714335
0.0275,1.7810937500000001,1.0,2634.310813500084,0.2661018806818557,1.3260799496013802,0.9387577545000201,0.2878589375,0.6609434517473258
0.028,1.7804,1.0,2644.487752129201,0.27021847037539126,1.32567257292359,0.9404318734216779,0.2878298,0.6617900996343397
0.0285,1.77969375,1.0,2653.9183739717896,0.2743119679937685,1.3252666110927855,0.9420288669816765,0.2878001375,0.6626327541716027
0.029,1.778975,1.0,2662.6418236572417,0.2783825031804536,1.3248616662549748,0.9435533924133308,0.28776995,0.6634722506315095
0.029500000000000002,1.7782437500000001,1.0,2670.6978366401913,0.28243020557891263,1.3244573405561657,0.9450097592837653,0.2877392375,0.664309420150575
0.03,1.7775,1.0,2678.120241646158,0.28645520240167005,1.3240532952433217,0.9464019669568329,0.287708,0.6651449676082417
0.0305,1.77674375,1.0,2684.9475737881075,0.2904576236500017,1.3236491525315563,0.9477337201618191,0.2876762375,0.6659796749540987
0.031,1.775975,1.0,2691.214033345057,0.2944375969090789,1.3232445781994633,0.9490084630080904,0.28764395,0.6668142304357496
0.0315,1.7751937500000001,1.0,2696.945632245497,0.29839524618053404,1.32283931618431,0.9502294047810257,0.2876111375,0.6676491579261707
0.032,1.7744,1.0,2702.1686707480344,0.30233069546599944,1.322433110423364,0.9513995308288458,0.2875778,0.6684849786438609
0.0325,1.77359375,1.0,2706.909710023188,0.30624406876710764,1.322025704853893,0.952521620931295,0.2875439375,0.6693222111395196
0.033,1.772775,1.0,2711.1955461889293,0.31013549008549085,1.3216168434131645,0.9535982659502039,0.28750955,0.6701613712785459
0.0335,1.7719437500000002,1.0,2715.053185800063,0.31400508342278166,1.3212062700384462,0.954631882940999,0.2874746375,0.671002972219352
0.034,1.7711000000000001,1.0,2718.499372460453,0.3178529681059001,1.3207938238484673,0.955624738316804,0.2874392,0.6718473296577758
0.0345,1.7702437500000001,1.0,2721.5673901059786,0.32167927155347414,1.3203791946918517,0.9565789358803488,0.2874032375,0.6726950625274253
0.035,1.7693750000000001,1.0,2724.283191911367,0.3254841164237557,1.3199621405845756,0.957496449781036,0.28736675,0.6735466472976284
0.035500000000000004,1.76849375,1.0,2726.663057339526,0.32926762066125004,1.3195425086609027,0.9583791365448728,0.2873297375,0.6744023761438039
0.036000000000000004,1.7676,1.0,2728.72335991359,0.33302990221046236,1.3191201460550954,0.959228735689388,0.2872922,0.6752625394826995
0.0365,1.76669375,1.0,2730.4805570800954,0.336771079015898,1.3186948999014168,0.9600468784280658,0.2872541375,0.6761274259465113
0.037,1.765775,1.0,2731.9511805897973,0.3404912690220622,1.31826661733413,0.9608350956330451,0.28721555,0.6769973223555181
0.0375,1.76484375,1.0,2733.151827397309,0.34419059017346043,1.3178351454874977,0.961594825126849,0.2871764375,0.6778725136892256
0.038,1.7639,1.0,2734.099151077992,0.34786916041459776,1.3174003314957832,0.9623274183664822,0.28713679999999997,0.6787532830560171
0.0385,1.76294375,1.0,2734.809854271841,0.3515270975944074,1.3169620224886363,0.9630341465569452,0.28709663750000003,0.6796399116706417
0.039,1.761975,1.0,2735.3019316858736,0.3551645124778295,1.3165200542361335,0.9637162038636848,0.28705595,0.6805327017422038
0.0395,1.7609937500000001,1.0,2735.5891427014667,0.3587815296907017,1.31607430127392,0.9643747214358603,0.2870147375,0.6814318752366175
0.04,1.76,1.0,2735.6821006527134,0.3623782609940388,1.3156246669467726,0.9650107656427848,0.286973,0.6823375944347541
0.0405,1.7589937500000001,1.0,2735.5914410664104,0.36595481814885544,1.3151710545994677,0.9656253423804774,0.2869307375,0.6832500202253169
0.041,1.757975,1.0,2735.32781798579,0.3695113129161665,1.314713367576782,0.966219401132789,0.28688795,0.6841693120806165
0.0415,1.75694375,1.0,2734.9019005013147,0.3730478570569866,1.314251509223492,0.9667938387189383,0.2868446375,0.6850956280317522
0.042,1.7559,1.0,2734.3243694889075,0.3765645623323306,1.3137853828843744,0.9673495027546871,0.28680079999999997,0.6860291246431969
0.0425,1.75484375,1.0,2733.605914555102,0.38006154050321317,1.3133148919042061,0.9678871948517457,0.2867564375,0.6869699569867845
0.043000000000000003,1.753775,1.0,2732.757231188944,0.38353890333064905,1.3128399396277632,0.9684076735776845,0.28671155,0.6879182786151067
0.043500000000000004,1.75269375,1.0,2731.786355769936,0.3869967565008823,1.3123604535894624,0.9689116581927443,0.28666613750000003,0.6888741933462542
0.044,1.7516,1.0,2730.7019128117417,0.39043521375228274,1.3118763560054763,0.9693998309664656,0.2866202,0.6898378143008465
0.0445,1.75049375,1.0,2729.513645111622,0.3938543907738103,1.3113875589333963,0.9698728381423468,0.2865737375,0.6908092734103974
0.045,1.7493750000000001,1.0,2728.2274796181423,0.39725439271932944,1.310894009104521,0.9703312937904536,0.28652675,0.6917886323434888
0.0455,1.74824375,1.0,2726.849343270602,0.4006353247427049,1.3103956532501482,0.970775780696264,0.2864792375,0.692775951669049
0.046,1.7471,1.0,2725.385161976485,0.4039972919978012,1.3098924381015762,0.9712068522529285,0.2864312,0.6937712908401172
0.0465,1.7459437500000001,1.0,2723.840859651692,0.40734039963848306,1.3093843103901028,0.9716250342215236,0.28638263750000004,0.6947747081774251
0.047,1.744775,1.0,2722.222357323886,0.410664752818615,1.3088712168470267,0.972030826369694,0.28633355,0.6957862608527967
0.0475,1.74359375,1.0,2720.5355722990407,0.4139704566920617,1.3083531042036456,0.9724247039981451,0.28628393750000003,0.6968060048723714
0.048,1.7424,1.0,2718.786417389987,0.41725761641268777,1.3078299191912577,0.9728071193636527,0.2862338,0.6978339950596422
0.0485,1.74119375,1.0,2716.9808002091518,0.42052633713435783,1.307301608541161,0.9731785030064996,0.2861831375,0.6988702850383132
0.049,1.739975,1.0,2715.1246225228265,0.42377672401093647,1.3067681189846538,0.9735392649895839,0.28613195,0.6999149272149785
0.0495,1.73874375,1.0,2713.2195120547008,0.42700887163279205,1.3062294361602318,0.9738897974449764,0.2860802375,0.700967896776105
0.05,1.7375,1.0,2711.2717323578318,0.43022289448657114,1.3056855034195067,0.9742304737131308,0.286028,0.7020292506350854
0.0505,1.73624375,1.0,2709.285558977077,0.43341889528045546,1.3051362821806594,0.9745616496885654,0.2859752375,0.7030990092377711
0.051000000000000004,1.734975,1.0,2707.26395797091,0.4365969723242813,1.304581745765118,0.9748836652534907,0.28592195,0.7041771688350542
0.051500000000000004,1.73369375,1.0,2705.209891797962,0.43975722392788474,1.304021867494311,0.9751968448788063,0.2858681375,0.7052637247617081
0.052000000000000005,1.7324,1.0,2703.126319129729,0.44289974840110213,1.3034566206896663,0.9755014984553231,0.2858138,0.7063586714273216
0.0525,1.73109375,1.0,2701.016194679084,0.4460246440537696,1.3028859786726121,0.9757979220731329,0.28575893750000003,0.7074620023071874
0.053,1.729775,1.0,2698.882469044575,0.44913200919572344,1.3023099147645771,0.9760863987527806,0.28570355000000003,0.7085737099331445
0.0535,1.72844375,1.0,2696.7280885704395,0.4522219421367998,1.301728402286989,0.976367199131612,0.2856476375,0.7096937858843779
0.054,1.7271,1.0,2694.555995222424,0.45529454118683493,1.3011414145612763,0.9766405821084009,0.2855912,0.7108222207781681
0.0545,1.7257437500000001,1.0,2692.369126479459,0.458349904655665,1.3005489249088669,0.9769067954491253,0.2855342375,0.7119590042606005
0.055,1.724375,1.0,2690.170415240782,0.4613881308531263,1.2999509066511894,0.9771660763565405,0.28547675,0.7131041249972241
0.0555,1.72299375,1.0,2687.960852227677,0.464409309955602,1.2993473508565694,0.9774186522868408,0.2854187375,0.7142575367830164
0.056,1.7216,1.0,2685.742138991211,0.4674135450765778,1.2987382420657934,0.9776647420037561,0.2853602,0.7154192051257636
0.0565,1.72019375,1.0,2683.5166370026423,0.4704009349237533,1.2981235587450826,0.9779045544100945,0.28530113749999997,0.7165891062537223
0.057,1.718775,1.0,2681.285650753678,0.47337157131081675,1.297503289018849,0.9781382897298079,0.28524155,0.7177671971395639
0.0575,1.71734375,1.0,2679.0504826078654,0.47632554605145644,1.2968774210115042,0.978366140015069,0.2851814375,0.7189534339718052
0.058,1.7159,1.0,2676.812432786781,0.47926295095936045,1.29624594284746,0.978588289543262,0.2851208,0.7201477721505724
0.0585,1.71444375,1.0,2674.5727993594155,0.48218387784821715,1.2956088426511285,0.9788049151916182,0.2850596375,0.7213501662833557
0.059000000000000004,1.7129750000000001,1.0,2672.3328782341273,0.48508841853171475,1.2949661085469213,0.9790161867909158,0.28499795,0.7225605701807585
0.059500000000000004,1.71149375,1.0,2670.0939631545734,0.48797666482354146,1.2943177286592502,0.9792222674595802,0.2849357375,0.723778936852232
0.06,1.71,1.0,2667.8573456978543,0.4908487085373855,1.293663691112527,0.9794233139194012,0.284873,0.7250052185018059
0.0605,1.7084937500000001,1.0,2665.6243152766956,0.49370464148693516,1.2930039840311633,0.9796194767940246,0.2848097375,0.7262393665238067
0.061,1.7069750000000001,1.0,2663.3961591439456,0.49654455548587867,1.2923385955395714,0.9798109008912775,0.28474595,0.7274813314985679
0.0615,1.7054437500000001,1.0,2661.1727950547847,0.49936854176263196,1.291667526349363,0.9799977260897982,0.2846816375,0.7287310397743737
0.062,1.7039,1.0,2658.955381182093,0.5021766885051652,1.2909907657499036,0.9801800861196702,0.2846168,0.7299884382917243
0.0625,1.70234375,1.0,2656.7455675668716,0.5049690838482177,1.2903082984811007,0.9803581094289137,0.2845514375,0.7312534816103575
0.063,1.7007750000000001,1.0,2654.542883739858,0.5077458158339949,1.2896201288025415,0.980531920656907,0.28448555,0.732526087348212
0.0635,1.69919375,1.0,2652.3442718877504,0.5105069724156273,1.2889262848386829,0.9807016410301947,0.28441913750000003,0.7338061286011361
0.064,1.6976,1.0,2650.1581851364554,0.5132526412179077,1.288226688575828,0.9808673819089082,0.2843522,0.7350936734458312
0.0645,1.69599375,1.0,2647.991556274569,0.5159829092483086,1.2875212759024053,0.9810292512146409,0.2842847375,0.7363887624472352
0.065,1.6943803618669648,1.0,2646.0759717267,0.5186978624501647,1.2868103300909701,0.9811873702000192,0.2842169751984125,0.7376907989576172
0.0655,1.6927669397197072,1.0,2644.7279136660036,0.5213975867668107,1.2860941344140786,0.9813418558267146,0.2841492114682277,0.7389991908605202
0.066,1.6911535175724495,1.0,2643.913110705668,0.5240821677056917,1.2853730167455788,0.9814928231193442,0.2840814477380429,0.7403132694946671
0.0665,1.6895400954251918,1.0,2643.581426390226,0.5267516906422302,1.2846474378759158,0.9816403895994328,0.28401368400785804,0.7416321304549638
0.067,1.6879266732779339,1.0,2643.695931485239,0.5294062395632732,1.2839177380409497,0.9817846628587602,0.28394592027767324,0.7429550957452509
0.0675,1.6863132511306762,1.0,2644.2204981056884,0.5320458983633207,1.2831842511495297,0.981925746532861,0.2838781565474884,0.7442815047859697
0.068,1.6846998289834185,1.0,2645.1278269645973,0.5346707485951636,1.2824472303944179,0.9820637367690295,0.2838103928173036,0.7456108483498809
0.0685,1.6830864068361606,1.0,2646.3734276103805,0.5372808768511786,1.281707088295585,0.9821987343868052,0.2837426290871187,0.7469423354720137
0.069,1.681472984688903,1.0,2647.9264936378813,0.539876366514295,1.280964111354616,0.9823308307627187,0.2836748653569339,0.7482754085800732
0.0695,1.6798595625416453,1.0,2649.7665455107517,0.5424572982205295,1.2802184909958823,0.9824601096611955,0.28360710162674907,0.7496096852805825
0.07,1.6782461403943876,1.0,2651.8731236729213,0.5450237526058983,1.2794704186437553,0.9825866521102032,0.28353933789656427,0.750944786680753
0.07050000000000001,1.6766327182471297,1.0,2654.225777735186,0.5475758103064183,1.2787200857226066,0.982710536514165,0.28347157416637947,0.7522803374195881
0.07100000000000001,1.675019296099872,1.0,2656.8040564750486,0.5501135519581061,1.2779676836568072,0.9828318387615307,0.2834038104361946,0.753615965696649
0.07150000000000001,1.6734058739526143,1.0,2659.5874986487706,0.5526370581969781,1.277213403870729,0.9829506323272907,0.2833360467060098,0.7549513032984825
0.07200000000000001,1.6717924518053566,1.0,2662.5556246154065,0.5551464096590508,1.276457437788743,0.9830669883706992,0.28326828297582496,0.7562859856227147
0.0725,1.6701790296580987,1.0,2665.6942390590875,0.5576416841061292,1.275699918794682,0.9831809730441246,0.28320051924564016,0.7576197537519316
0.073,1.668565607510841,1.0,2668.9833195533693,0.5601229639156354,1.2749410336779492,0.9832926530977627,0.2831327555154553,0.7589522576533827
0.0735,1.6669521853635834,1.0,2672.4097596947227,0.5625903275973322,1.274180905360863,0.9834020901651547,0.2830649917852705,0.7602832625494179
0.074,1.6653387632163257,1.0,2675.9638188995127,0.5650438518518629,1.2734196256529764,0.9835093425065223,0.28299722805508565,0.7616125902671755
