Time [s],Phi [rad],STIM [ ],Fsee [N],Gamma [ ],Lcerel [ ],q [ ],Lmtc [m],fisomrel [ ]
0.0,1.8,1.0,18.28380896581476,0.0005733657530911992,1.3793044256820162,0.0050848471795134475,0.288653,0.5412249765881246
0.0005,1.79999375,1.0,18.768550996197074,0.006179358933488739,1.3792481202678317,0.014578266038054115,0.2886527375,0.5413611711521564
0.001,1.799975,1.0,22.52834934894224,0.011753906924478124,1.3788463202531043,0.038604477680294534,0.28865195,0.5423324796896759
0.0015,1.79994375,1.0,32.90388414136784,0.017297186109597296,1.3778921397692898,0.07466310064770208,0.2886506375,0.5446349831013633
0.002,1.7999,1.0,57.2480228254014,0.022809371881110704,1.3761342579092937,0.11950234425659424,0.2886488,0.548861671004544
0.0025,1.79984375,1.0,103.04570189578575,0.02829063864795127,1.373653799741975,0.16976352174605824,0.28864643749999996,0.5547922128137244
0.003,1.7997750000000001,1.0,168.51004351790328,0.033741159844082,1.3709349098928305,0.22262285907591953,0.28864354999999997,0.5612477443329009
0.0035,1.79969375,1.0,246.1290487010524,0.03916110792565608,1.3683268546466465,0.2759191555845996,0.2886401375,0.5673958167924367
0.004,1.7996,1.0,330.40294230641695,0.044550654383880846,1.3659210297365874,0.32804846704576157,0.2886362,0.5730286989684807
0.0045000000000000005,1.7994937500000001,1.0,418.4904984512372,0.04990996974785928,1.3637075272275427,0.37790307672545087,0.2886317375,0.5781786818814614
0.005,1.799375,1.0,508.79523532958177,0.055239223567775934,1.3616599089203252,0.42479996342668824,0.28862675,0.5829148924736673
0.0055,1.79924375,1.0,600.2457448172413,0.060538584544876345,1.35975483415478,0.4683868822231456,0.2886212375,0.5872973829791668
0.006,1.7991000000000001,1.0,691.9634588210401,0.0658082202481111,1.3579753133495243,0.5085508968099519,0.2886152,0.5913701372203761
0.006500000000000001,1.79894375,1.0,783.2595671445677,0.07104829747338082,1.3563076418337117,0.5453394759838313,0.2886086375,0.5951685726112865
0.007,1.798775,1.0,873.5467205437619,0.07625898202566041,1.354741200229958,0.5789012726866648,0.28860155,0.598720283352707
0.0075,1.79859375,1.0,962.333579217628,0.08144043861985065,1.3532672917590067,0.6094425174316989,0.2885939375,0.6020478972361506
0.008,1.7984,1.0,1049.2600089044035,0.08659283161712263,1.3518778680382877,0.6371965792854203,0.2885858,0.605172085410808
0.0085,1.79819375,1.0,1134.0007932054712,0.09171632361652608,1.3505665080627387,0.6624049500513474,0.2885771375,0.6081094496961026
0.009000000000000001,1.797975,1.0,1216.3187078128262,0.09681107668497191,1.3493272056133823,0.6853041514016699,0.28856795,0.6108753297778883
0.0095,1.79774375,1.0,1296.055126465134,0.10187725252306293,1.3481542771510466,0.706118420899149,0.2885582375,0.6134840538948731
0.01,1.7975,1.0,1373.0758726913414,0.10691501111352547,1.347042882315944,0.7250561302767636,0.288548,0.6159478247252612
0.0105,1.79724375,1.0,1447.2937313198333,0.11192451164497408,1.345988524447323,0.7423078694178427,0.2885372375,0.6182778729297325
0.011,1.796975,1.0,1518.6688868185488,0.11690591264647462,1.3449869196576867,0.7580461665362357,0.28852595000000003,0.6204847744422859
0.0115,1.79669375,1.0,1587.1991026246926,0.12185937258368876,1.3440340188421542,0.7724261382488077,0.2885141375,0.6225784243600647
0.012,1.7964,1.0,1652.8706695560495,0.1267850473214409,1.343126494632151,0.785586801357935,0.28850180000000003,0.6245669919689172
0.0125,1.79609375,1.0,1715.7075181494872,0.1316830925740723,1.3422610577032086,0.7976520827503366,0.2884889375,0.626458445088906
0.013000000000000001,1.7957750000000001,1.0,1775.7516854065634,0.13655366326502721,1.3414346326208453,0.8087323166579944,0.28847555,0.628260177446009
0.0135,1.79544375,1.0,1833.0808753129752,0.14139691484973055,1.3406441089228092,0.8189255447554155,0.2884616375,0.6299795633169175
0.014,1.7951000000000001,1.0,1887.744013658867,0.14621299979384167,1.3398870159134773,0.8283190997213963,0.2884472,0.6316225013183407
0.0145,1.79474375,1.0,1939.797873919282,0.1510020698016753,1.3391610547414514,0.8369906322256337,0.2884322375,0.6331944481717673
0.015,1.794375,1.0,1989.3201330951517,0.15576427657754618,1.338463926555334,0.845009167508103,0.28841675,0.6347007985355405
0.0155,1.79399375,1.0,2036.3895509985443,0.16049977082149733,1.3377935219755388,0.8524361773591208,0.2884007375,0.6361464812224529
0.016,1.7936,1.0,2081.1099574927134,0.1652087037412597,1.3371476434728573,0.859326382951923,0.2883842,0.6375365640966171
0.0165,1.7931937500000001,1.0,2123.5527422246996,0.16989122339698678,1.3365245873575267,0.865728729073746,0.2883671375,0.6388750067086939
0.017,1.792775,1.0,2163.792256557753,0.17454747729201406,1.3359227448011521,0.8716869457875804,0.28834955,0.6401655278228955
0.0175,1.7923437500000001,1.0,2201.913736353712,0.179177612929677,1.3353405069753388,0.8772401368190286,0.2883314375,0.6414118124410803
0.018000000000000002,1.7919,1.0,2237.999988011244,0.18378177667530177,1.3347763893710476,0.8824233557956508,0.2883128,0.6426172484683825
0.0185,1.79144375,1.0,2272.1490946918752,0.18836011592088855,1.3342288420229955,0.8872680295886297,0.2882936375,0.643785335331529
0.019,1.790975,1.0,2304.4341380736273,0.19291277466155915,1.3336966427660069,0.8918024738572377,0.28827395,0.6449188475978826
0.0195,1.79049375,1.0,2334.926536016339,0.1974398960724349,1.3331786498865024,0.8960521874310803,0.2882537375,0.6460203675376515
0.02,1.79,1.0,2363.703475246112,0.20194162332863713,1.3326737216709028,0.9000401526008932,0.288233,0.647092458257751
0.0205,1.78949375,1.0,2390.843294484702,0.20641809893575372,1.3321807565048904,0.9037871259945461,0.2882117375,0.6481375797443836
0.021,1.788975,1.0,2416.423623304785,0.21086946521156608,1.331698705352862,0.9073118880575493,0.28818995000000003,0.6491580639899084
0.021500000000000002,1.78844375,1.0,2440.5226392727664,0.21529586453312088,1.3312265543668553,0.9106314553694635,0.2881676375,0.6501561533235352
0.022,1.7879,1.0,2463.198396793687,0.2196974353400948,1.3307635182941284,0.9137613081975463,0.2881448,0.6511335936405924
0.0225,1.78734375,1.0,2484.511966611762,0.22407431607216463,1.3303088118819388,0.9167155094892607,0.28812143749999997,0.6520921198760904
0.023,1.786775,1.0,2504.527185669751,0.228426645169007,1.3298616498775437,0.9195068542546361,0.28809755,0.653033456441533
0.0235,1.78619375,1.0,2523.310420639608,0.2327545610702986,1.3294212470282012,0.922147001438549,0.28807313749999996,0.6539593176224007
0.024,1.7856,1.0,2540.9177315682177,0.23705819898789335,1.3289869369119884,0.9246466103856851,0.2880482,0.6548711586137352
0.0245,1.78499375,1.0,2557.421409337711,0.24133769980143446,1.3285579188547294,0.9270154012827581,0.2880227375,0.6557707077737533
0.025,1.784375,1.0,2572.868011416145,0.24559319717080122,1.3281336512488695,0.929262310709777,0.28799675,0.6566591419581802
0.025500000000000002,1.78374375,1.0,2587.303733097496,0.24982482425305377,1.3277136093130284,0.9313955302159348,0.2879702375,0.6575375965275121
0.026000000000000002,1.7831000000000001,1.0,2600.7760694496374,0.25403271420525225,1.3272972682658257,0.9334225761726015,0.2879432,0.6584072008473474
0.0265,1.78244375,1.0,2613.3337035180575,0.25821700018445687,1.3268841033258805,0.9353503545361658,0.2879156375,0.6592690784210303
0.027,1.781775,1.0,2625.026400636008,0.26237781534772775,1.3264735897118125,0.937185218608923,0.28788755,0.6601243470047293
0.0275,1.7810937500000001,1.0,2635.89438807749,0.2665152893160363,1.3260652999550835,0.9389330338195709,0.2878589375,0.6609739163431168
0.028,1.7804,1.0,2645.9896296371894,0.27062955755521895,1.3256587057017681,0.940599196982806,0.2878298,0.6618189011500293
0.0285,1.77969375,1.0,2655.3532688938058,0.2747207509427475,1.3252533858088278,0.9421887048957236,0.2878001375,0.6626601882011921
0.029,1.778975,1.0,2664.017569810565,0.27878899675039187,1.324849006852044,0.9437061875430578,0.28776995,0.6634984781480889
0.029500000000000002,1.7782437500000001,1.0,2672.0153307691007,0.28283442224992195,1.324445235407199,0.9451559296369362,0.2877392375,0.6643344681810182
0.03,1.7775,1.0,2679.379837113932,0.28685715471310774,1.3240417380500744,0.9465419007817663,0.287708,0.6651688520455579
0.0305,1.77674375,1.0,2686.144816162147,0.29085732141171916,1.3236381813564528,0.9478677826455599,0.2876762375,0.666002320051938
0.031,1.775975,1.0,2692.34439467777,0.2948350496175261,1.3232342319021158,0.9491369934672911,0.28764395,0.6668355590773255
0.0315,1.7751937500000001,1.0,2698.012433447655,0.29879046615797084,1.32282956198023,0.9503527107631148,0.2876111375,0.6676692407897095
0.032,1.7744,1.0,2703.1761869683246,0.30272369370486696,1.3224239071415445,0.9515178971739532,0.2875778,0.6685039033915201
0.0325,1.77359375,1.0,2707.8710723573736,0.30663486310757926,1.3220169308253922,0.9526353054477681,0.2875439375,0.6693402304266409
0.033,1.772775,1.0,2712.118548196639,0.31052409567963335,1.3216084261162988,0.9537075139526823,0.28750955,0.6701786360044553
0.0335,1.7719437500000002,1.0,2715.940260769669,0.3143915127345549,1.32119818609879,0.9547369282655664,0.2874746375,0.6710195320371399
0.034,1.7711000000000001,1.0,2719.3580256499167,0.31823723558586947,1.3207860038573913,0.955725794808041,0.2874392,0.6718633282181306
0.0345,1.7702437500000001,1.0,2722.3938102387424,0.3220613855471027,1.3203716724766281,0.9566762132530291,0.2874032375,0.6727104319978576
0.035,1.7693750000000001,1.0,2725.0697172519453,0.3258640839317802,1.319954985041026,0.9575901478256306,0.28736675,0.6735612485567503
0.035500000000000004,1.76849375,1.0,2727.407969156234,0.3296454520534275,1.3195357346351106,0.9584694376084214,0.2873297375,0.6744161807755107
0.036000000000000004,1.7676,1.0,2729.429936527123,0.3334056093427075,1.3191137230425358,0.9593158064092193,0.2872922,0.6752756114985068
0.0365,1.76669375,1.0,2731.1526644592423,0.3371446765756603,1.3186887921722004,0.9601308752559372,0.2872541375,0.676139839744337
0.037,1.765775,1.0,2732.592208797703,0.3408627720789888,1.3182607935860804,0.9609161659739346,0.28721555,0.6770091430674692
0.0375,1.76484375,1.0,2733.764506891729,0.3445600120396639,1.3178295804959619,0.9616731076943984,0.2871764375,0.6778837938831661
0.038,1.7639,1.0,2734.685550880038,0.3482365126446564,1.3173950061136308,0.962403043820222,0.28713679999999997,0.6787640628001539
0.0385,1.76294375,1.0,2735.371380019484,0.35189239008093703,1.3169569236508736,0.9631072381058461,0.28709663750000003,0.6796502185898415
0.039,1.761975,1.0,2735.838073490638,0.3555277605354767,1.3165151863194762,0.9637868802421572,0.28705595,0.6805425281541686
0.0395,1.7609937500000001,1.0,2736.0928036031137,0.3591427396972887,1.3160697284951335,0.9644430982816635,0.2870147375,0.6814410928858821
0.04,1.76,1.0,2736.1646469018806,0.36273744232746713,1.3156202859356296,0.9650769376481078,0.286973,0.6823464129652788
0.0405,1.7589972950379589,1.0,2736.2271080108026,0.3663119817766801,1.315166884383873,0.9656894099202082,0.28693088639159425,0.6832584023844464
0.041,1.7579942091735523,1.0,2736.677734288754,0.3698664705650943,1.314709787048506,0.9662814902899811,0.2868887567852892,0.6841764985200383
0.0415,1.7569911233091455,1.0,2737.506574780274,0.3734010212128764,1.3142492571381703,0.966854099633086,0.2868466271789841,0.6851001415437121
0.042,1.755988037444739,1.0,2738.6853001380173,0.37691574565317226,1.3137855532817848,0.9674081076200655,0.286804497572679,0.6860287836468246
0.0425,1.7549849515803324,1.0,2740.1802133155543,0.3804107559156362,1.3133189832230774,0.9679443406180517,0.28676236796637394,0.6869617817348754
0.043000000000000003,1.7539818657159258,1.0,2741.9657465451514,0.3838861619924299,1.3128497811790139,0.9684635741479363,0.2867202383600689,0.6878986429089387
0.043500000000000004,1.752978779851519,1.0,2744.017995240718,0.38734207343252425,1.3123781664275336,0.9689665411662205,0.2866781087537638,0.6888389066944265
0.044,1.7519756939871125,1.0,2746.3130598006774,0.39077859978489016,1.3119043582465753,0.9694539360241038,0.28663597914745875,0.6897821151364543
0.0445,1.750972608122706,1.0,2748.8292178939573,0.3941958498007192,1.3114285561369423,0.9699264152359619,0.28659384954115363,0.6907278521124343
0.045,1.7499695222582994,1.0,2751.545216662835,0.3975939324183038,1.3109509552402756,0.9703846011721492,0.28655171993484857,0.6916757124845667
0.0455,1.7489664363938928,1.0,2754.4447838352594,0.4009729543831783,1.3104717054564634,0.9708290807404499,0.2865095903285435,0.6926253830068719
0.046,1.747963350529486,1.0,2757.511833993613,0.40433302235157514,1.3099909548540065,0.9712604111083236,0.2864674607222384,0.6935765558313179
0.0465,1.7469602646650795,1.0,2760.7325381357473,0.40767424115977524,1.3095088309232614,0.9716791198857623,0.2864253311159333,0.6945289654990943
0.047,1.745957178800673,1.0,2764.0952275150016,0.41099671414685407,1.309025441465222,0.9720857070173068,0.28638320150962826,0.6954823868852826
0.0475,1.7449540929362661,1.0,2767.5744816277106,0.41430055673357546,1.3085410182558492,0.9724806584325493,0.28634107190332314,0.6964363522118742
0.048,1.7439510070718596,1.0,2771.1622891746515,0.41758587068911984,1.3080556355140245,0.97286442365358,0.28629894229701813,0.6973907060843447
0.0485,1.742947921207453,1.0,2774.850623997778,0.4208527577826674,1.307569367458629,0.9732374307036004,0.286256812690713,0.6983452940086059
0.049,1.7419448353430464,1.0,2778.631443562792,0.4241013197833985,1.3070822883085442,0.9736000873348758,0.28621468308440795,0.6992999623953703
0.0495,1.7409417494786397,1.0,2782.4966875630234,0.42733165846049337,1.306594472282652,0.9739527821757635,0.2861725534781029,0.7002545585641651
0.05,1.739938663614233,1.0,2786.4382766458034,0.4305438755831324,1.3061059935998331,0.9742958858028428,0.28613042387179777,0.7012089307469991
0.0505,1.7389355777498265,1.0,2790.4481112614953,0.4337380729204958,1.3056169264789697,0.9746297517436641,0.2860882942654927,0.7021629280916711
0.051000000000000004,1.73793249188542,1.0,2794.518070633369,0.43691435224176395,1.3051273451389425,0.9749547174151876,0.28604616465918764,0.7031164006647344
0.051500000000000004,1.7369294060210132,1.0,2798.6400118507945,0.4400728153161171,1.3046373237986333,0.9752711050025754,0.2860040350528825,0.7040691994541028
0.052000000000000005,1.7359263201566066,1.0,2802.8095787811494,0.4432135566933657,1.3041469025040777,0.9755792193324103,0.28596190544657746,0.7050212426568082
0.0525,1.7349232342922,1.0,2807.020113694387,0.4463366794543017,1.3036561418221568,0.975879353943258,0.2859197758402724,0.7059724092273029
0.053,1.7339201484277935,1.0,2811.2622953931973,0.4494422921448451,1.3031651260011226,0.976171791521617,0.28587764623396733,0.7069225330890417
0.0535,1.732917062563387,1.0,2815.533344589831,0.452530489850808,1.302673880491963,0.976456797454336,0.28583551662766227,0.7078715627166354
0.054,1.7319139766989802,1.0,2819.830473743603,0.45560136765800285,1.3021824307456664,0.9767346257145435,0.28579338702135715,0.7088194469025527
0.0545,1.7309108908345736,1.0,2824.15088693883,0.458655020652242,1.3016908022132203,0.9770055194497211,0.2857512574150521,0.7097661347574732
0.055,1.729907804970167,1.0,2828.4917797762937,0.46169154391933775,1.3011990203456132,0.9772697115347134,0.285709127808747,0.710711575710596
0.0555,1.7289047191057603,1.0,2832.850339279672,0.4647110325451025,1.3007071105938326,0.9775274250920464,0.2856669982024419,0.7116557195099125
0.056,1.7279016332413537,1.0,2837.22374381656,0.4677135816153485,1.3002150984088667,0.9777788739817412,0.28562486859613684,0.7125985162224313
0.0565,1.7268985473769471,1.0,2841.6091630328165,0.4706992862158881,1.2997230092417038,0.9780242632626471,0.2855827389898318,0.7135399162343672
0.057,1.7258954615125406,1.0,2846.003757802586,0.47366824143253367,1.2992308685433316,0.9782637896271682,0.2855406093835267,0.7144798702512865
0.0575,1.724892375648134,1.0,2850.404680191663,0.47662054235109763,1.2987387017647383,0.9784976418111274,0.28549847977722165,0.7154183292982104
0.058,1.7238892897837272,1.0,2854.8090734356333,0.4795562840573922,1.2982465343569116,0.9787260009803704,0.28545635017091653,0.7163552447196797
0.0585,1.7228862039193207,1.0,2859.2161817010942,0.4824755493683106,1.2977543730338956,0.9789490390148476,0.28541422056461146,0.7172906037601777
0.059000000000000004,1.7218831180549141,1.0,2863.623962411374,0.4853784362546833,1.2972622359078647,0.9791669229347539,0.2853720909583064,0.7182243721398501
0.059500000000000004,1.7208800321905073,1.0,2868.02871556432,0.4882650519675961,1.2967701557323104,0.9793798147802216,0.2853299613520013,0.7191564880950901
0.06,1.7198769463261008,1.0,2872.429765416068,0.4911354841505325,1.2962781383635753,0.9795878672460411,0.2852878317456962,0.7200869410963461
0.0605,1.7188738604616942,1.0,2876.8264342212397,0.49398982044697587,1.2957861896580014,0.979791227166582,0.28524570213939116,0.7210157206875026
0.061,1.7178707745972877,1.0,2881.218042241548,0.49682814850040957,1.2952943154719312,0.979990035786084,0.2852035725330861,0.7219428164858532
0.0615,1.716867688732881,1.0,2885.603907755055,0.4996505559543171,1.294802521661707,0.9801844290144912,0.28516144292678103,0.7228682181820754
0.062,1.7158646028684743,1.0,2889.983347066232,0.5024571304521818,1.294310814083671,0.9803745376697031,0.2851193133204759,0.7237919155402004
0.0625,1.7148615170040677,1.0,2894.3556745170085,0.505247959637487,1.2938191985941656,0.9805604877070628,0.28507718371417085,0.7247138983975838
0.063,1.7138584311396612,1.0,2898.7202024980156,0.5080231311537161,1.2933276810495329,0.9807424004368461,0.2850350541078658,0.725634156664871
0.0635,1.7128553452752544,1.0,2903.0762414608857,0.5107827326443527,1.2928362673061153,0.980920392730461,0.28499292450156066,0.726552680325961
0.064,1.7118522594108478,1.0,2907.4230999318925,0.5135268517528799,1.2923449632202553,0.9810945772160261,0.2849507948952556,0.7274694594379707
0.0645,1.7108491735464413,1.0,2911.760084525168,0.5162555761227813,1.2918537746482948,0.9812650624639461,0.28490866528895054,0.7283844841311938
0.065,1.7098460876820347,1.0,2916.0864999575906,0.5189689933975402,1.2913627074465763,0.9814319531630682,0.28486653568264547,0.7292977446090586
0.0655,1.7088430018176282,1.0,2920.4016490642985,0.5216671912206401,1.2908717674714423,0.9815953502879592,0.2848244060763404,0.7302092311480843
0.066,1.7078399159532214,1.0,2924.7048328145597,0.5243502572355643,1.2903809605792347,0.981755351257814,0.2847822764700353,0.7311189340978347
0.0665,1.7068368300888148,1.0,2928.99747622957,0.527018222217169,1.2898902739723415,0.9819120453756466,0.2847401468637302,0.7320268783681149
0.067,1.7058337442244083,1.0,2933.2773183286836,0.5296712413441453,1.2893997272111726,0.9820655286942956,0.28469801725742516,0.7329330289862848
0.0675,1.7048306583600015,1.0,2937.544153931847,0.5323093993891534,1.2889093217875265,0.9822158884235475,0.28465588765112004,0.7338373845161719
0.068,1.703827572495595,1.0,2941.797971196347,0.5349327751136019,1.2884190574972607,0.9823632083291169,0.284613758044815,0.7347399466594127
0.0685,1.7028244866311883,1.0,2946.0387584794717,0.5375414472788993,1.287928934136233,0.9825075693448959,0.2845716284385099,0.7356407171147092
0.069,1.7018214007667818,1.0,2950.2665043378356,0.5401354946464543,1.2874389515003009,0.9826490496884145,0.28452949883220485,0.7365396975778307
0.0695,1.700818314902375,1.0,2954.4811975268494,0.5427149959776754,1.286949109385322,0.9827877249708357,0.28448736922589973,0.737436889741615
0.07,1.6998152290379684,1.0,2958.682827000353,0.5452800300339711,1.2864594075871543,0.9829236683017689,0.28444523961959467,0.7383322952959714
0.07050000000000001,1.6988121431735619,1.0,2962.871381909434,0.5478306755767501,1.2859698459016549,0.9830569503891905,0.2844031100132896,0.739225915927882
0.07100000000000001,1.6978090573091553,1.0,2967.046851602136,0.550367011367421,1.2854804241246818,0.9831876396347226,0.28436098040698454,0.7401177533214025
0.07150000000000001,1.6968059714447485,1.0,2971.2092256227215,0.5528891161673924,1.2849911420520923,0.9833158022245174,0.2843188508006794,0.7410078091576663
