Time [s],Phi [rad],STIM [ ],Fsee [N],Gamma [ ],Lcerel [ ],q [ ],Lmtc [m],fisomrel [ ]
0.0,1.8,1.0,19.35333060743394,0.0012022088297012046,1.3791873336081033,0.005370631431328036,0.288653,0.5415081824973755
0.0005,1.79999375,1.0,20.005361810871403,0.006804674697683985,1.379114709435926,0.016578561724852885,0.2886527375,0.5416837917388821
0.001,1.799975,1.0,24.237441037379682,0.012375715161919643,1.3786784490742947,0.04208810165114585,0.28865195,0.5427379853529554
0.0015,1.79994375,1.0,35.738303047448134,0.01791550649415947,1.3776623326502635,0.07929447233556897,0.2886506375,0.5451886559220718
0.002,1.7999,1.0,62.235182710806434,0.023424223977148575,1.3758277816247275,0.12489952535619073,0.2886488,0.5495965515275387
0.0025,1.79984375,1.0,110.48872525601445,0.028902041911204313,1.3733116755439958,0.17557953948346625,0.28864643749999996,0.5556071202249184
0.003,1.7997750000000001,1.0,177.62824756120403,0.03434913361753531,1.3706057366384943,0.22858613640100928,0.28864354999999997,0.5620261096002521
0.0035,1.79969375,1.0,256.1295135725299,0.039765671445447945,1.3680271590134063,0.2818242221126209,0.2886401375,0.5680995224123755
0.004,1.7996,1.0,340.86396763794414,0.045151826775986746,1.3656498593904935,0.3337477041074054,0.2886362,0.5736612893103071
0.0045000000000000005,1.7994937500000001,1.0,429.2044215539177,0.0505077700439965,1.3634603890823171,0.3833003239500412,0.2886317375,0.5787517396942942
0.005,1.799375,1.0,519.6401441603055,0.05583367069227634,1.3614327939227389,0.4298408371676183,0.28862675,0.5834385697614892
0.0055,1.79924375,1.0,611.1182655256887,0.06112969727156288,1.359545036968405,0.4730483085215972,0.2886212375,0.5877785918092739
0.006,1.7991000000000001,1.0,702.7878296004502,0.0663960172803083,1.3577806608789544,0.5128312357279045,0.2886152,0.5918144091231461
0.006500000000000001,1.79894375,1.0,793.9737962905037,0.07163279747537288,1.3561264586720516,0.5492510576553756,0.2886086375,0.5955801831431873
0.007,1.798775,1.0,884.0865625198114,0.07684020334810943,1.3545723606381095,0.5824649057696856,0.28860155,0.5991021717841787
0.0075,1.79859375,1.0,972.678724129699,0.08201839994958732,1.3531093493925612,0.6126830490354919,0.2885939375,0.6024036587103385
0.008,1.7984,1.0,1059.3593285258967,0.08716755090195824,1.3517301625455915,0.6401409521140464,0.2885858,0.605503484552461
0.0085,1.79819375,1.0,1143.823860551709,0.09228781900715136,1.350428281864795,0.6650799616261205,0.2885771375,0.6084184287923717
0.009000000000000001,1.797975,1.0,1225.8643730163376,0.09737936676905562,1.3491974816244743,0.6877353714548716,0.28856795,0.6111642819742504
0.0095,1.79774375,1.0,1305.2992171729672,0.10244235490761176,1.3480325555929413,0.7083300075566188,0.2885582375,0.6137542737482341
0.01,1.7975,1.0,1382.0021728743764,0.10747694349913195,1.3469286714352575,0.7270702838540472,0.288548,0.6162005642097167
0.0105,1.79724375,1.0,1455.9083434035035,0.11248329198742245,1.3458811502458587,0.7441446598864383,0.2885372375,0.6185147637264085
0.011,1.796975,1.0,1526.9818192201722,0.1174615592490576,1.3448857577566227,0.7597236981500928,0.28852595000000003,0.6207073153591842
0.0115,1.79669375,1.0,1595.188190965268,0.12241190208668028,1.3439389094457295,0.7739608357586666,0.2885141375,0.6227870745193951
0.012,1.7964,1.0,1660.5361694331655,0.12733447707976603,1.3430370599917103,0.7869932267976145,0.28850180000000003,0.6247626768885324
0.0125,1.79609375,1.0,1723.0657911626104,0.13222944037417916,1.3421767869747256,0.7989431446254768,0.2884889375,0.6266423675244045
0.013000000000000001,1.7957750000000001,1.0,1782.8283197519258,0.13709694766917943,1.3413549633248776,0.8099194717864269,0.28847555,0.6284336384358147
0.0135,1.79544375,1.0,1839.8573545422876,0.14193715183209216,1.3405690158527903,0.8200191740612532,0.2884616375,0.6301426831666513
0.014,1.7951000000000001,1.0,1894.2129724769345,0.14675020573024267,1.3398163713690883,0.8293283873014546,0.2884472,0.6317756178238071
0.0145,1.79474375,1.0,1945.9745195953697,0.15153626185349015,1.339094509573958,0.8379236620942648,0.2884322375,0.6333383723749904
0.015,1.794375,1.0,1995.227076064169,0.15629547219238488,1.3384010808239761,0.8458731121751392,0.28841675,0.6348364429118776
0.0155,1.79399375,1.0,2042.0571239991684,0.16102798822067146,1.3377339211590547,0.8532374052181176,0.2884007375,0.6362748676611272
0.016,1.7936,1.0,2086.5282510559186,0.16573395837761806,1.3370912771123993,0.8600707060476543,0.2883842,0.6376577515775882
0.0165,1.7931937500000001,1.0,2128.717565210096,0.17041353110249285,1.3364713952172158,0.8664213192862793,0.2883671375,0.6389891588028704
0.017,1.792775,1.0,2168.7145562813403,0.17506685483456405,1.3358725220067096,0.8723323838287935,0.28834955,0.6402731153088406
0.0175,1.7923437500000001,1.0,2206.6024931816464,0.17969407645596527,1.335293081256211,0.8778425308201887,0.2883314375,0.6415132323396554
0.018000000000000002,1.7919,1.0,2242.483413499459,0.18429534457531682,1.3347314062121243,0.8829863414270543,0.2883128,0.6427132834670085
0.0185,1.79144375,1.0,2276.428251912803,0.18887080364584916,1.3341862309102872,0.8877949422400977,0.2882936375,0.6438761577486487
0.019,1.790975,1.0,2308.5086879991295,0.1934205974601219,1.3336563531594936,0.8922963177126195,0.28827395,0.6450045854474085
0.0195,1.79049375,1.0,2338.802825894272,0.1979448698106947,1.3331405707685378,0.8965156542091286,0.2882537375,0.646101275854633
0.02,1.79,1.0,2367.394652099543,0.20244376449012708,1.3326376815462135,0.9004756570120335,0.288233,0.6471689184169638
0.0205,1.78949375,1.0,2394.3545669234672,0.206917422909775,1.3321466672912858,0.9041968680954691,0.2882117375,0.6482097940283542
0.021,1.788975,1.0,2419.7750139032637,0.21136598980789084,1.3316663403698188,0.9076978305215567,0.28818995000000003,0.6492265263574346
0.021500000000000002,1.78844375,1.0,2443.7149695504327,0.2157896042213071,1.331195877441867,0.9109954154104339,0.2881676375,0.6502209526961473
0.022,1.7879,1.0,2466.235878263532,0.22018840505866577,1.3307344635206764,0.9141049298574621,0.2881448,0.6511948808663597
0.0225,1.78734375,1.0,2487.4022353044525,0.22456253122860897,1.3302812836194915,0.9170402820522889,0.28812143749999997,0.6521501074319549
0.023,1.786775,1.0,2507.281328645146,0.22891212163977867,1.3298355227515581,0.9198141284971031,0.28809755,0.6530884181479795
0.0235,1.78619375,1.0,2525.934698307948,0.23323731305247053,1.329396444328895,0.9224380174233772,0.28807313749999996,0.6540114236718149
0.024,1.7856,1.0,2543.428327862325,0.23753824535089388,1.3289632906922388,0.924922486779807,0.2880482,0.6549207696968545
0.0245,1.78499375,1.0,2559.815731611981,0.24181505440939502,1.328535440360181,0.927277190219218,0.2880227375,0.6558178074851465
0.025,1.784375,1.0,2575.145074806286,0.24606787391600776,1.3281123376059096,0.9295109734139444,0.28799675,0.6567037433379643
0.025500000000000002,1.78374375,1.0,2589.4659754738595,0.25029683755876586,1.3276934267026124,0.9316319433394976,0.2879702375,0.6575797770915166
0.026000000000000002,1.7831000000000001,1.0,2602.829379794069,0.25450207902570304,1.3272781519234778,0.9336475399859919,0.2879432,0.6584471022753604
0.0265,1.78244375,1.0,2615.2874443158075,0.2586837320048531,1.3268659575416935,0.9355646002327764,0.2879156375,0.6593069062511221
0.027,1.781775,1.0,2626.882424656663,0.2628419270137408,1.3264563897538197,0.9373894291765377,0.28788755,0.6601601581278768
0.0275,1.7810937500000001,1.0,2637.665053505496,0.2669767993269031,1.326048924741733,0.9391278267733952,0.2878589375,0.6610079677128817
0.028,1.7804,1.0,2647.682184344041,0.27108848164402416,1.3256430826241772,0.9407851481703747,0.2878298,0.6618513480198448
0.0285,1.77969375,1.0,2656.967008858787,0.275177101745283,1.3252385163963063,0.942366355785506,0.2878001375,0.6626910314168674
0.029,1.778975,1.0,2665.5533117384816,0.27924278741085834,1.3248348790532736,0.943876037354996,0.28776995,0.6635277466532051
0.029500000000000002,1.7782437500000001,1.0,2673.4754187605295,0.28328566642092917,1.324431823590233,0.9453184390519322,0.2877392375,0.6643622188836604
0.03,1.7775,1.0,2680.7681475479926,0.2873058665556743,1.3240290030023383,0.946697495282448,0.287708,0.6651951696853018
0.0305,1.77674375,1.0,2687.4667609958274,0.2913035155952727,1.3236260702847429,0.9480168555288132,0.2876762375,0.6660273170665009
0.031,1.775975,1.0,2693.606923367167,0.29527874131990317,1.3232226784326004,0.9492799085642251,0.28764395,0.6668593754682901
0.0315,1.7751937500000001,1.0,2699.216651310323,0.29923166651662547,1.3228185536355914,0.9504898118587006,0.2876111375,0.6676919050657679
0.032,1.7744,1.0,2704.332038669517,0.30316242262891235,1.322413350983092,0.9516494972200877,0.2875778,0.6685256094000432
0.0325,1.77359375,1.0,2708.9770423036953,0.3070711326889614,1.3220068389384962,0.9527617061994694,0.2875439375,0.6693609556021599
0.033,1.772775,1.0,2713.1740019774843,0.310957918403428,1.3215988026835206,0.9538289960821456,0.28750955,0.67019837408331
0.0335,1.7719437500000002,1.0,2716.9454473652922,0.31482290147896763,1.3211890273998812,0.954853753029915,0.2874746375,0.6710382929780561
0.034,1.7711000000000001,1.0,2720.3140789350077,0.3186662036222357,1.3207772982692945,0.9558382055665606,0.2874392,0.6718811381219774
0.0345,1.7702437500000001,1.0,2723.3027498556607,0.32248794653988755,1.3203634004734772,0.9567844368489956,0.2874032375,0.6727273330263726
0.035,1.7693750000000001,1.0,2725.934448927571,0.32628825193857863,1.3199471191941456,0.9576943958461895,0.28736675,0.6735772988500228
0.035500000000000004,1.76849375,1.0,2728.2291618022605,0.33006723850198133,1.3195282680040885,0.9585699097946699,0.2873297375,0.6744313965124598
0.036000000000000004,1.7676,1.0,2730.202835568258,0.333825021401271,1.3191066980894302,0.9594126941681312,0.2872922,0.6752899082731546
0.0365,1.76669375,1.0,2731.889172946804,0.33756173496262487,1.3186821000653017,0.9602243460118302,0.2872541375,0.6761534410011767
0.037,1.765775,1.0,2733.30111512969,0.34127749383510014,1.3182543539599112,0.9610063788759006,0.28721555,0.677022213601912
0.0375,1.76484375,1.0,2734.4516597912,0.34497241266775375,1.3178233398014658,0.961760214544725,0.2871764375,0.6778964434867412
0.038,1.7639,1.0,2735.3538546052555,0.34864660610964293,1.3173889376181733,0.962487189612433,0.28713679999999997,0.6787763465484926
0.0385,1.76294375,1.0,2736.020791082167,0.3523001888098246,1.3169510274382419,0.9631885615179363,0.28709663750000003,0.6796621371359785
0.039,1.761975,1.0,2736.465598724017,0.35593327541735603,1.3165094892898785,0.9638655140893133,0.28705595,0.6805540280276157
0.0395,1.7609937500000001,1.0,2736.701439499818,0.35954598058129417,1.3160642032012915,0.9645191626422965,0.2870147375,0.6814522304041223
0.04,1.76,1.0,2736.7415026392323,0.3631384189506961,1.3156150492006882,0.9651505586731051,0.286973,0.6823569538203036
0.0405,1.7589937500000001,1.0,2736.598999745704,0.366710705174619,1.3151619073162764,0.96576069418187,0.2869307375,0.6832684061759147
0.041,1.757975,1.0,2736.287160228421,0.3702629539021199,1.3147046575762638,0.9663505056593107,0.28688795,0.6841867936856078
0.0415,1.75694375,1.0,2735.817146152078,0.37379527610496455,1.3142431989016146,0.9669208787446503,0.2868446375,0.68511228298495
0.042,1.7559,1.0,2735.197917876038,0.37730778047524177,1.3137774503010018,0.9674726519087521,0.28680079999999997,0.6860449989878902
0.0425,1.75484375,1.0,2734.44554933192,0.3808005905630064,1.3133072662606935,0.9680066153252825,0.2867564375,0.686985194222739
0.043000000000000003,1.753775,1.0,2733.566877802907,0.3842738135654573,1.3128325851778957,0.9685235209960087,0.28671155,0.6879329516929675
0.043500000000000004,1.75269375,1.0,2732.5687453026057,0.3877275566797933,1.3123533454498146,0.969024081068569,0.28666613750000003,0.6888883532726683
0.044,1.7516,1.0,2731.457997048165,0.3911619271032132,1.3118694854736566,0.9695089703420359,0.2866202,0.6898514796887651
0.0445,1.75049375,1.0,2730.2414800190427,0.39457703203291594,1.3113809436466277,0.9699788285910187,0.2865737375,0.6908224105029837
0.045,1.7493750000000001,1.0,2728.9260415987906,0.3979729786661003,1.3108876583659343,0.9704342627231032,0.28652675,0.6918012240935781
0.0455,1.74824375,1.0,2727.5185283015107,0.40134987419996526,1.3103895680287823,0.9708758487830944,0.2864792375,0.6927879976368174
0.046,1.7471,1.0,2726.025784582479,0.4047078258317095,1.3098866110323781,0.9713041338163165,0.2864312,0.6937828070882257
0.0465,1.7459437500000001,1.0,2724.454651732643,0.40804694075853193,1.309378725773928,0.9717196376021455,0.28638263750000004,0.6947857271635863
0.047,1.744775,1.0,2722.8119668572963,0.41136732617763144,1.3088658506506379,0.97212285426796,0.28633355,0.6957968313196998
0.0475,1.74359375,1.0,2721.1010663760176,0.4146690800308841,1.3083479558820523,0.9725142548729319,0.28628393750000003,0.6968161291561222
0.048,1.7424,1.0,2719.325157416857,0.417952302493201,1.307825012852134,0.972894288074215,0.2862338,0.6978436271128301
0.0485,1.74119375,1.0,2717.498351373244,0.42121712284480844,1.3072968935953835,0.973263377726399,0.2861831375,0.6988795254675624
0.049,1.739975,1.0,2715.623707789833,0.42446364008979487,1.3067635707036627,0.973621930723509,0.28613195,0.6999238255393462
0.0495,1.73874375,1.0,2713.7042834116587,0.42769195323224835,1.3062250167688338,0.973970334848472,0.2860802375,0.7009765277580594
0.05,1.7375,1.0,2711.7431319240236,0.43090216127625713,1.3056812043827593,0.9743089598404244,0.286028,0.7020376316553117
0.0505,1.73624375,1.0,2709.7433037091764,0.43409436322590944,1.3051321061373007,0.9746381583931512,0.2859752375,0.7031071358552776
0.051000000000000004,1.734975,1.0,2707.7078456196446,0.43726865808529347,1.3045776946243206,0.9749582670896679,0.28592195,0.7041850380654786
0.051500000000000004,1.73369375,1.0,2705.6398007682833,0.4404251448584975,1.304017942435681,0.9752696072775707,0.2858681375,0.7052713350675222
0.052000000000000005,1.7324,1.0,2703.542208334661,0.44356392254960963,1.3034528221632442,0.9755724858893847,0.2858138,0.7063660227077886
0.0525,1.73109375,1.0,2701.4181033888117,0.4466850901627181,1.3028823063988721,0.9758671962118223,0.28575893750000003,0.7074690958880732
0.053,1.729775,1.0,2699.270516730666,0.44978874670191127,1.3023063677344269,0.9761540186075471,0.28570355000000003,0.7085805485561782
0.0535,1.72844375,1.0,2697.102474747119,0.4528749911712772,1.3017249787617706,0.9764332211927592,0.2856476375,0.7097003736964576
0.054,1.7271,1.0,2694.9169992850298,0.4559439225749042,1.3011381120727656,0.9767050604736564,0.2855912,0.710828563320314
0.0545,1.7257437500000001,1.0,2692.717107541211,0.45899563991688036,1.3005457402592737,0.9769697819445986,0.2855342375,0.7119651084566492
0.055,1.724375,1.0,2690.505811968998,0.462030242201294,1.2999478359131575,0.97722762065058,0.28547675,0.7131099991422625
0.0555,1.72299375,1.0,2688.2825286613484,0.4650478266445212,1.2993444045213247,0.9774788034905157,0.2854187375,0.7142631616127982
0.056,1.7216,1.0,2686.0487412871307,0.46804848552051176,1.298735432635701,0.977723546308349,0.2853602,0.7154245576784456
0.0565,1.72019375,1.0,2683.808736860527,0.4710323130105993,1.2981208810892195,0.9779620546921696,0.28530113749999997,0.7165941972531487
0.057,1.718775,1.0,2681.56560162094,0.4739994033922478,1.2975007216615262,0.9781945264127607,0.28524155,0.7177720682744615
0.0575,1.71734375,1.0,2679.3182932150435,0.4769498506621736,1.296874963962318,0.9784211532970282,0.2851814375,0.7189580860088405
0.058,1.7159,1.0,2677.0667537244503,0.4798837485877083,1.296243608582189,0.9786421188900741,0.2851208,0.7201521823156979
0.0585,1.71444375,1.0,2674.815086183135,0.4828011896110281,1.295606617906701,0.9788575971368826,0.2850596375,0.7213543604903117
0.059000000000000004,1.7129750000000001,1.0,2672.566137270997,0.4857022659039184,1.2949639657989038,0.9790677556700143,0.28499795,0.7225646010209921
0.059500000000000004,1.71149375,1.0,2670.3143716755553,0.48858706937067775,1.294315703106658,0.9792727596883062,0.2849357375,0.7237827388546987
0.06,1.710002904538128,1.0,2668.2079609237894,0.4914556916942142,1.293661779377237,0.9794727624308568,0.2848731219906014,0.725008798893479
0.0605,1.7085114258909075,1.0,2666.6529713030004,0.4943082232674115,1.2930025061458297,0.9796679304975948,0.28481047988741814,0.726242128164104
0.061,1.7070199472436873,1.0,2665.635367060139,0.49714475420340676,1.2923382940366908,0.9798584293787358,0.28474783778423485,0.7274818936215477
0.0615,1.7055284685964671,1.0,2665.1115373918683,0.499965374360544,1.291669541385755,0.9800444176586492,0.2846851956810516,0.728727291542804
0.062,1.704036989949247,1.0,2665.03944735349,0.502770173383378,1.290996633527834,0.9802260473052419,0.28462255357786836,0.7299775487100366
0.0625,1.7025455113020265,1.0,2665.3842058670753,0.5055592396613063,1.290319891231819,0.980403461224533,0.2845599114746851,0.7312320177141096
0.063,1.7010540326548063,1.0,2666.112559196382,0.5083326612947976,1.2896396210766172,0.9805767963284104,0.2844972693715019,0.7324900825975561
0.0635,1.699562554007586,1.0,2667.200053156009,0.5110905237026456,1.2889560493674692,0.9807461802595587,0.2844346272683186,0.7337512804016093
0.064,1.6980710753603656,1.0,2668.6041675693123,0.5138329182548478,1.288269568998902,0.9809117449112019,0.28437198516513534,0.7350148456287858
0.0645,1.6965795967131454,1.0,2670.296367171292,0.5165599325383661,1.2875804444997456,0.9810736107699137,0.2843093430619521,0.7362802549149514
0.065,1.6950881180659252,1.0,2672.257697422305,0.5192716512297988,1.2868888525077133,0.9812318894732475,0.28424670095876886,0.7375471502130342
0.0655,1.6935966394187048,1.0,2674.469218051712,0.5219681590057448,1.2861949696605195,0.9813866887266256,0.2841840588555856,0.7388151764700712
0.066,1.6921051607714845,1.0,2676.9119937400283,0.5246495405428024,1.2854989725958779,0.9815381124746764,0.2841214167524023,0.7400839816540121
0.0665,1.6906136821242643,1.0,2679.5670854935656,0.5273158805175705,1.2848010379515027,0.9816862610639762,0.2840587746492191,0.7413532167785291
0.067,1.689122203477044,1.0,2682.415542709834,0.5299672636066475,1.2841013423651078,0.9818312313976825,0.28399613254603584,0.7426225359258414
0.0675,1.6876307248298237,1.0,2685.438395935532,0.532603774486632,1.2834000624744069,0.981973117082515,0.2839334904428526,0.7438915962675456
0.068,1.6861392461826035,1.0,2688.622206043055,0.5352254946443401,1.2826973240351798,0.9821120059358116,0.28387084833966936,0.7451601498193513
0.0685,1.6846477675353833,1.0,2691.949133840802,0.537832510151524,1.281993292915631,0.9822479850231426,0.28380820623648606,0.7464278786690024
0.069,1.6831562888881628,1.0,2695.4039325023286,0.5404249054908693,1.2812881109728451,0.9823811372905629,0.2837455641333028,0.7476945109226032
0.0695,1.6816648102409426,1.0,2698.977998802661,0.5430027609021506,1.2805818590595688,0.9825115398357489,0.2836829220301196,0.74895988637333
0.07,1.6801733315937224,1.0,2702.662714096206,0.5455661566251429,1.279874618028549,0.9826392672235738,0.28362027992693634,0.7502238462480033
0.07050000000000001,1.678681852946502,1.0,2706.449442470542,0.5481151728996205,1.2791664687325328,0.9827643915885096,0.2835576378237531,0.7514862332123973
0.07100000000000001,1.6771903742992817,1.0,2710.3295290462597,0.5506498899653585,1.278457492024267,0.9828869827322502,0.2834949957205698,0.7527468913761328
0.07150000000000001,1.6756988956520615,1.0,2714.294298421186,0.5531703880621314,1.2777477687564986,0.9830071082168048,0.2834323536173866,0.754005666297151
0.07200000000000001,1.6742074170048413,1.0,2718.335053258987,0.555676747429714,1.277037379781975,0.9831248334533034,0.2833697115142033,0.755262404985771
0.0725,1.6727159383576211,1.0,2722.443073024386,0.5581690483078807,1.2763264059534425,0.9832402217867359,0.2833070694110201,0.7565169559083332
0.073,1.6712244597104007,1.0,2726.615281021569,0.5606473631321575,1.2756148765749404,0.9833533318240912,0.28324442730783683,0.7577692596000649
0.0735,1.6697329810631805,1.0,2730.8405640472483,0.5631117787301365,1.274902893911021,0.983464224401976,0.2831817852046536,0.7590191292070981
