Time [s],Phi [rad],STIM [ ],Fsee [N],Gamma [ ],Lcerel [ ],q [ ],Lmtc [m],fisomrel [ ]
0.0,1.8,1.0,17.965007637140378,1.001255082798919e-05,1.3793399871582601,0.0050000267184668835,0.288653,0.5411389481593465
0.0005,1.79999375,1.0,18.274542636079357,0.00561916569713134,1.3793026323417754,0.012940553701977574,0.2886527375,0.5412293147276784
0.001,1.799975,1.0,21.616288347309414,0.011196855929204741,1.378938515909516,0.03560865785619011,0.28865195,0.5421096975774665
0.0015,1.79994375,1.0,31.06708465946139,0.016743259729983962,1.3780463870193387,0.07060182179719303,0.2886506375,0.5442631672883431
0.002,1.7999,1.0,53.57997247412968,0.02225855259074845,1.3763682883851842,0.11471797622575776,0.2886488,0.5483001004400728
0.0025,1.79984375,1.0,97.11623376121547,0.027742909018694986,1.3739352975542458,0.16457482304467858,0.28864643749999996,0.5541211519228879
0.003,1.7997750000000001,1.0,160.95550978928006,0.03319650254464625,1.3712144432119033,0.2172803767970985,0.28864354999999997,0.560586215404581
0.0035,1.79969375,1.0,237.6808198101159,0.03861950572264746,1.368584811601375,0.2706128070302952,0.2886401375,0.5667896577065654
0.004,1.7996,1.0,321.46444412847137,0.04401209014074752,1.3661561540351927,0.32291571934080676,0.2886362,0.572479817800243
0.0045000000000000005,1.7994937500000001,1.0,409.265614351848,0.04937442642618341,1.3639228643169736,0.37303442717907753,0.2886317375,0.5776790460055153
0.005,1.799375,1.0,499.4115380200327,0.05470668423648179,1.3618583841273304,0.42024738410367385,0.28862675,0.5824569828978234
0.0055,1.79924375,1.0,590.7885948523088,0.060009032306845136,1.3599388706410656,0.46417362664744255,0.2886212375,0.5868750299797012
0.006,1.7991000000000001,1.0,682.5164324389963,0.06528163839348448,1.358146445210619,0.5046798959047941,0.2886152,0.5909793487978225
0.006500000000000001,1.79894375,1.0,773.8633565108931,0.07052466909594175,1.3564675592068356,0.5418008765329935,0.2886086375,0.594805099595412
0.007,1.798775,1.0,864.2917701345973,0.07573829107663582,1.3548902987407059,0.5756766517454074,0.28860155,0.5983828949608818
0.0075,1.79859375,1.0,953.2561956478339,0.08092266855636789,1.3534065795423622,0.606509732449136,0.2885939375,0.6017340227556378
0.008,1.7984,1.0,1040.3586181365722,0.08607796551696448,1.352008643936727,0.6345320029243163,0.2885858,0.6048785541894981
0.0085,1.79819375,1.0,1125.3182780741006,0.09120434549709291,1.3506891841575064,0.6599843560545268,0.2885771375,0.6078351279175465
0.009000000000000001,1.797975,1.0,1207.883864959416,0.09630197053979746,1.3494422579849088,0.6831042766637899,0.28856795,0.6106189679030882
0.0095,1.79774375,1.0,1287.8726180943925,0.10137100183633806,1.3482623830010811,0.7041175805266712,0.2885582375,0.6132439814617611
0.01,1.7975,1.0,1365.1609603003649,0.10641160002042134,1.3471444635390084,0.723234235812579,0.288548,0.6157229637570601
0.0105,1.79724375,1.0,1439.6606609267908,0.11142392457176496,1.3460839318474545,0.7406466246570474,0.2885372375,0.618067321801679
0.011,1.796975,1.0,1511.3135798823882,0.11640813367808114,1.345076659114942,0.7565291524557928,0.28852595000000003,0.6202873065499688
0.0115,1.79669375,1.0,1580.0992949126419,0.1213643848773897,1.3441187425091936,0.7710387037180776,0.2885141375,0.6223925097381738
0.012,1.7964,1.0,1646.0502455413339,0.12629283626940038,1.343206244143495,0.7843156035833029,0.28850180000000003,0.6243924552962872
0.0125,1.79609375,1.0,1709.1753129935091,0.13119364310273277,1.3423360194210285,0.7964853020037896,0.2884889375,0.6262948016803737
0.013000000000000001,1.7957750000000001,1.0,1769.4986128566914,0.1360669597945274,1.3415051624060426,0.807659512238903,0.28847555,0.6281065817921636
0.0135,1.79544375,1.0,1827.0760390095231,0.1409129407619248,1.340710767162786,0.8179375174346755,0.2884616375,0.6298347357759752
0.014,1.7951000000000001,1.0,1881.9738222454414,0.1457317394226339,1.3399501317439573,0.8274075926507874,0.2884472,0.6314856757884761
0.0145,1.79474375,1.0,1934.279420746491,0.150523509343313,1.3392205984262509,0.8361481828217139,0.2884322375,0.6330656428677814
0.015,1.794375,1.0,1984.0509705120105,0.15528840113433595,1.3385200655338405,0.8442292057561727,0.28841675,0.6345796085171056
0.0155,1.79399375,1.0,2031.3605822437585,0.16002656515990107,1.3378464766450817,0.851712872407847,0.2884007375,0.6360323922783937
0.016,1.7936,1.0,2076.294044201426,0.16473815151036322,1.3371978049125628,0.8586545911432036,0.2883842,0.6374287001344046
0.0165,1.7931937500000001,1.0,2118.9419159295185,0.16942330961624283,1.3365721286023546,0.8651037961568779,0.2883671375,0.6387729663522961
0.017,1.792775,1.0,2159.3971870487576,0.1740821888127077,1.3359676365005855,0.8711046559609912,0.28834955,0.6400693470159773
0.0175,1.7923437500000001,1.0,2197.7284127508046,0.17871493521467985,1.3353828832515455,0.8766967621435907,0.2883314375,0.6413211786411996
0.018000000000000002,1.7919,1.0,2234.013600470442,0.18332169493708128,1.3348164234995257,0.8819155655579123,0.2883128,0.6425317683513594
0.0185,1.79144375,1.0,2268.3394195950877,0.1879026140948339,1.3342668118888166,0.8867928599433631,0.2882936375,0.643704395630378
0.019,1.790975,1.0,2300.7846250204125,0.1924578370134055,1.333732759810035,0.8913572434952398,0.28827395,0.6448419803239078
0.0195,1.79049375,1.0,2331.448795882006,0.19698751052114136,1.333212840720902,0.89563441532232,0.2882537375,0.6459477129423048
0.02,1.79,1.0,2360.399729162659,0.20149177676742813,1.3327060028489612,0.8996476211165342,0.288233,0.6470239657789126
0.0205,1.78949375,1.0,2387.7041277699172,0.20597077713746978,1.3322112543272167,0.9034178557166274,0.2882117375,0.6480729671503105
0.021,1.788975,1.0,2413.4332076742667,0.21042465301647026,1.3317276032886727,0.9069640996795519,0.28818995000000003,0.6490969298990849
0.021500000000000002,1.78844375,1.0,2437.662318812294,0.2148535457896335,1.3312540578663337,0.9103035401678199,0.2881676375,0.6500980521271928
0.022,1.7879,1.0,2460.4598182461377,0.2192575949656917,1.3307897292974544,0.9134517852169933,0.2881448,0.6510783003549644
0.0225,1.78734375,1.0,2481.903946269741,0.22363694257092678,1.3303336656260123,0.9164230012511203,0.28812143749999997,0.6520397619709244
0.023,1.786775,1.0,2502.055451682712,0.22799172680616575,1.3298851101701206,0.9192301118696036,0.28809755,0.6529841010460695
0.0235,1.78619375,1.0,2520.9677757697877,0.23232208396396267,1.3294433988439143,0.9218849076280283,0.28807313749999996,0.6539127772900817
0.024,1.7856,1.0,2538.6964905486457,0.23662815033687173,1.3290078675615293,0.9243981459682863,0.2880482,0.654827241972625
0.0245,1.78499375,1.0,2555.2991197690903,0.24091006221744707,1.3285778522371012,0.9267796559718067,0.2880227375,0.6557289381991508
0.025,1.784375,1.0,2570.8349696900773,0.2451679558982429,1.3281526887847652,0.9290384312221576,0.28799675,0.6566193011585747
0.025500000000000002,1.78374375,1.0,2585.3545595542005,0.2494019641376037,1.3277318103443354,0.9311827268397277,0.2879702375,0.6574995551289049
0.026000000000000002,1.7831000000000001,1.0,2598.9207287824743,0.2536122259842557,1.3273145479991884,0.9332201030530345,0.2879432,0.6583711309569102
0.0265,1.78244375,1.0,2611.5754340448516,0.2577988731226364,1.3269004394282742,0.9351575350940181,0.2879156375,0.6592350213699019
0.027,1.781775,1.0,2623.3592873808543,0.26196203636604826,1.3264890441995638,0.9370014420019678,0.28788755,0.6600921684236456
0.0275,1.7810937500000001,1.0,2634.3138095219874,0.2661018465277937,1.3260799218810289,0.9387577356051702,0.2878589375,0.6609435093943308
0.028,1.7804,1.0,2644.4813504206622,0.27021843442117494,1.325672632040641,0.9404318673074988,0.2878298,0.6617899768486012
0.0285,1.77969375,1.0,2653.905014080731,0.2743119308594945,1.3252667342463713,0.9420288699925955,0.2878001375,0.6626324987012132
0.029,1.778975,1.0,2662.6247667966563,0.27838246502634306,1.3248618232300857,0.9435533999269248,0.28776995,0.663471925406966
0.029500000000000002,1.7782437500000001,1.0,2670.675326197666,0.28243016484078176,1.3244575474082725,0.9450097727151365,0.2877392375,0.6643089921231142
0.03,1.7775,1.0,2678.1059021589076,0.2864551651090484,1.3240534268283701,0.9464019714194166,0.287708,0.6651446956657849
0.0305,1.77674375,1.0,2684.9431077919066,0.2904575904759929,1.3236491934612036,0.9477337142464045,0.2876762375,0.6659795904716594
0.031,1.775975,1.0,2691.2139155682985,0.29443756558646494,1.3232445792775975,0.9490084528933712,0.28764395,0.6668142282131664
0.0315,1.7751937500000001,1.0,2696.945625239317,0.2983952150853143,1.322839316248377,0.9502293949737679,0.2876111375,0.6676491577942618
0.032,1.7744,1.0,2702.165833348265,0.3023306636173908,1.3224331363443662,0.9513995242943251,0.2875778,0.6684849253416306
0.0325,1.77359375,1.0,2706.9024043360773,0.3062440358275442,1.3220257715363901,0.95252161921268,0.2875439375,0.6693220741913033
0.033,1.772775,1.0,2711.183443238729,0.31013545636062423,1.3216169537952736,0.9535982692778222,0.28750955,0.6701611448706917
0.0335,1.7719437500000002,1.0,2715.037269978808,0.31400504986148076,1.321206415091841,0.9546318903323464,0.2874746375,0.6710026750760457
0.034,1.7711000000000001,1.0,2718.4896867307043,0.3178529341566429,1.3207939120661192,0.9556247391901384,0.2874392,0.6718471491751117
0.0345,1.7702437500000001,1.0,2721.565750733314,0.3216792399121233,1.3203792096148326,0.956578929383096,0.2874032375,0.6726950320362729
0.035,1.7693750000000001,1.0,2724.2834422136066,0.32548408566056186,1.3199621383072455,0.9574964418748695,0.28736675,0.673546651944691
0.035500000000000004,1.76849375,1.0,2726.660784976345,0.32926758975243003,1.3195425293265721,0.9583791312692671,0.2873297375,0.6744023340292628
0.036000000000000004,1.7676,1.0,2728.7159018215857,0.3330298705381995,1.3191202138560265,0.9592287353024617,0.2872922,0.67526240149389
0.0365,1.76669375,1.0,2730.4670032298527,0.3367710463683419,1.3186950230788232,0.9600468835356659,0.2872541375,0.6761271755892485
0.037,1.765775,1.0,2731.932376678653,0.34049123559332883,1.3182667881781762,0.960835105307088,0.28721555,0.6769969755827421
0.0375,1.76484375,1.0,2733.1303765911252,0.3441905565636319,1.3178353403373002,0.9615948370138385,0.2871764375,0.6778721187266344
0.038,1.7639,1.0,2734.0794149165567,0.3478691276297228,1.3174005107394091,0.9623274287870428,0.28713679999999997,0.6787529202243694
0.0385,1.76294375,1.0,2734.7944379924606,0.35152706323305777,1.3169621624808865,0.96303415284085,0.28709663750000003,0.6796396286844392
0.039,1.761975,1.0,2735.290777283609,0.35516448352731617,1.316520155517951,0.9637162075802894,0.28705595,0.6805324972923854
0.0395,1.7609937500000001,1.0,2735.580492155659,0.35878150274704784,1.3160743798166148,0.9643747234564762,0.2870147375,0.6814317169118059
0.04,1.76,1.0,2735.6747690860075,0.36237823362421,1.3156247335126476,0.9650107665284999,0.286973,0.6823374604434636
0.0405,1.7589937500000001,1.0,2735.584817095947,0.3659547888907599,1.31517111474182,0.9656253423945755,0.2869307375,0.6832498993380057
0.041,1.757975,1.0,2735.321863857561,0.3695112812786546,1.3147134216399021,0.9662194002526959,0.28688795,0.6841692035704885
0.0415,1.75694375,1.0,2734.8971520310283,0.37304782351985133,1.3142515523426643,0.9667938366476888,0.2868446375,0.6850955416142401
0.042,1.7559,1.0,2734.321935832094,0.37656452834630727,1.3137854049858768,0.9673494989318966,0.28680079999999997,0.6860290804140602
0.0425,1.75484375,1.0,2733.604887749963,0.380061508140263,1.313314901230466,0.9678871903507101,0.2867564375,0.6869699383512227
0.043000000000000003,1.753775,1.0,2732.7563830196505,0.38353887295264344,1.3128399473327064,0.9684076693779704,0.28671155,0.6879182632425687
0.043500000000000004,1.75269375,1.0,2731.78569530535,0.38699673242448124,1.3123604595903235,0.9689116549409352,0.28666613750000003,0.6888741813919702
0.044,1.7516,1.0,2730.7033473788315,0.3904351960478232,1.3118763429686755,0.969399827258353,0.2866202,0.6898378402311387
0.0445,1.75049375,1.0,2729.513317793118,0.3938543726520986,1.3113875619085904,0.9698728356958963,0.2865737375,0.6908092675019891
0.045,1.7493750000000001,1.0,2728.223292317338,0.39725437029756977,1.3108940471743928,0.9703312934718876,0.28652675,0.6917885568607347
0.0455,1.7482490961595998,1.0,2727.0975918043287,0.4006352967365481,1.3103958101143711,0.9707757885981734,0.28647946203870317,0.6927756411461838
0.046,1.7471231570414865,1.0,2726.4611663793303,0.40399725880439447,1.3098931092321957,0.9712068976754242,0.28643217259574244,0.6937699644464363
0.0465,1.745997217923373,1.0,2726.2773378485235,0.40734036256661926,1.3093862924891968,0.9716251748558354,0.28638488315278166,0.6947707972569808
0.047,1.7448712788052596,1.0,2726.505717202466,0.41066471476762445,1.3088757267901203,0.972031148221208,0.2863375937098209,0.6957773769128666
0.0475,1.743745339687146,1.0,2727.1147447135627,0.4139704200655733,1.3083616995965466,0.9724253139266984,0.28629030426686014,0.6967891014729883
0.048,1.7426194005690328,1.0,2728.0748857745525,0.41725758262716084,1.3078444805956808,0.9728081426876528,0.28624301482389936,0.6978054074195648
0.0485,1.7414934614509192,1.0,2729.3566566381473,0.420526306619082,1.3073243394747287,0.9731800825708699,0.2861957253809386,0.698825734586804
0.049,1.740367522332806,1.0,2730.94167556487,0.42377669162508547,1.306801445330449,0.9735415528284151,0.28614843593797784,0.6998497230329959
0.0495,1.7392415832146924,1.0,2732.7873720545085,0.4270088482333279,1.3062761872745599,0.9738929692256227,0.28610114649501706,0.700876585167598
0.05,1.738115644096579,1.0,2734.8743538875906,0.43022287762694567,1.3057487437957425,0.9742347128462716,0.2860538570520563,0.7019059491942776
0.0505,1.7369897049784657,1.0,2737.1864604891794,0.43341887962966563,1.3052192640818594,0.9745671450883242,0.28600656760909554,0.7029375026572965
0.051000000000000004,1.7358637658603522,1.0,2739.707532486568,0.4365969540652149,1.3046878973207732,0.9748906108387801,0.28595927816613476,0.7039709350326722
0.051500000000000004,1.7347378267422389,1.0,2742.4214052203606,0.4397572007573205,1.3041547927003463,0.9752054393780214,0.285911988723174,0.7050059377468412
0.052000000000000005,1.7336118876241253,1.0,2745.31190274938,0.4428997195297093,1.3036200994084413,0.9755119452270274,0.28586469928021324,0.7060422041939038
0.0525,1.732485948506012,1.0,2748.362832349418,0.4460246102061084,1.3030839666329206,0.9758104289415303,0.2858174098372525,0.7070794297514499
0.053,1.7313600093878985,1.0,2751.5579795044946,0.4491319726102448,1.3025465435616468,0.9761011778568658,0.2857701203942917,0.7081173117949635
0.0535,1.7302340702697852,1.0,2754.8846381684402,0.4522219038114456,1.3020079474010682,0.9763844645324216,0.285722830951331,0.709155611309291
0.054,1.7291081311516716,1.0,2758.3294886875415,0.4552945035945332,1.3014683007114467,0.9766605503678665,0.2856755415083702,0.7101940805680891
0.0545,1.7279821920335583,1.0,2761.8791033264624,0.45834987191464976,1.3009277267954544,0.9769296856429988,0.2856282520654094,0.7112324720845674
0.055,1.7268562529154448,1.0,2765.5260714908522,0.4613881034432865,1.300386294359294,0.9771921062580825,0.2855809626224487,0.7122706446463378
0.0555,1.7257303137973314,1.0,2769.262967687336,0.46440929285193466,1.2998440721091673,0.9774480382196675,0.2855336731794879,0.7133084579751036
0.056,1.724604374679218,1.0,2773.0823502679436,0.4674135348120855,1.2993011287512766,0.9776976981391488,0.2854863837365271,0.7143457727302671
0.0565,1.7234784355611046,1.0,2776.9767602795,0.4704009239952302,1.2987575329918244,0.9779412937022722,0.2854390942935664,0.7153824505122417
0.057,1.722352496442991,1.0,2780.9387204171157,0.47337155507286,1.2982133535370126,0.9781790241115033,0.2853918048506056,0.7164183538654616
0.0575,1.7212265573248777,1.0,2784.960734083127,0.4763255227164661,1.2976686590930437,0.9784110805030308,0.2853445154076448,0.7174533462810884
0.058,1.7201006182067642,1.0,2789.0352845501457,0.4792629215975398,1.29712351836612,0.9786376463400588,0.2852972259646841,0.7184872921994194
0.0585,1.7189746790886509,1.0,2793.1631677300943,0.4821838314569954,1.29657792518223,0.978858892342971,0.2852499365217233,0.7195201986435062
0.059000000000000004,1.7178487399705373,1.0,2797.3286673497005,0.4850883667272453,1.2960320216562033,0.9790749936088072,0.2852026470787626,0.7205517925833582
0.059500000000000004,1.716722800852424,1.0,2801.5289635837057,0.4879766161157963,1.295485833780469,0.9792861098812518,0.2851553576358018,0.7215820217954751
0.06,1.7155968617343105,1.0,2805.7612665053252,0.4908486682556122,1.2949393872066315,0.9794923946909041,0.28510806819284107,0.7226108350579614
0.0605,1.7144709226161972,1.0,2810.022778028308,0.4937046117796569,1.2943927075862942,0.9796939956693014,0.2850607787498803,0.723638181505136
0.061,1.7133449834980836,1.0,2814.3106917675955,0.4965445353208944,1.2938458205710612,0.9798910548217413,0.2850134893069195,0.7246640106279327
0.0615,1.7122190443799703,1.0,2818.622192913812,0.4993685275122885,1.2932987518125367,0.9800837087854797,0.28496619986395877,0.7256882722742601
0.062,1.711093105261857,1.0,2822.9544581226064,0.5021766769868031,1.2927515269623244,0.9802720890741932,0.284918910420998,0.7267109166493222
0.0625,1.7099671661437434,1.0,2827.3046554187467,0.5049690723774021,1.2922041716720283,0.9804563223095364,0.2848716209780372,0.7277318943158924
0.063,1.70884122702563,1.0,2831.669944114609,0.5077458023170494,1.2916567115932522,0.9806365304405628,0.28482433153507647,0.7287511561945488
0.0635,1.7077152879075166,1.0,2836.0474747428852,0.5105069554387088,1.2911091723776005,0.9808128309517372,0.2847770420921157,0.7297686535638663
0.064,1.7065893487894033,1.0,2840.4343890050804,0.5132526203753444,1.2905615796766765,0.9809853370602065,0.28472975264915495,0.7307843380605687
0.0645,1.7054634096712897,1.0,2844.8278197329,0.5159828857599198,1.2900139591420847,0.9811541579029638,0.28468246320619417,0.731798161679634
0.065,1.7043374705531764,1.0,2849.228908143941,0.5186978172188622,1.2894663006853297,0.981319395325895,0.28463517376323344,0.732810142753668
0.0655,1.7032115314350629,1.0,2853.6326499521106,0.5213975256755317,1.2889186488809519,0.981481153415861,0.28458788432027265,0.7338201987525678
0.066,1.7020855923169496,1.0,2858.036662683127,0.5240821031625349,1.2883710248767712,0.9816395301327998,0.28454059487731187,0.7348282908530631
0.0665,1.700959653198836,1.0,2862.4402400438776,0.5267516309465088,1.287823434877641,0.9817946185594079,0.28449330543435114,0.7358344079567487
0.067,1.6998337140807227,1.0,2866.8426735960725,0.52940619029409,1.2872758850884145,0.9819465085568418,0.28444601599139036,0.7368385390518752
0.0675,1.6987077749626092,1.0,2871.2432527620167,0.5320458624719153,1.2867283817139452,0.98209528689925,0.28439872654842957,0.7378406732133359
0.068,1.6975818358444958,1.0,2875.641264830102,0.5346707287466217,1.2861809309590866,0.9822410374017805,0.28435143710546884,0.7388407996026484
0.0685,1.6964558967263823,1.0,2880.0359949615836,0.5372808703848458,1.2856335390286917,0.9823838410424236,0.28430414766250806,0.7398389074679363
0.069,1.695329957608269,1.0,2884.4267261986483,0.5398763686532245,1.2850862121276143,0.9825237760780267,0.28425685821954727,0.7408349861439059
0.0695,1.6942040184901555,1.0,2888.8127394727003,0.5424573048183946,1.2845389564607077,0.9826609181547994,0.28420956877658654,0.7418290250518224
0.07,1.6930780793720421,1.0,2893.193313613465,0.5450237601469928,1.2839917782328252,0.9827953404136064,0.28416227933362576,0.742821013699483
0.07050000000000001,1.6919521402539286,1.0,2897.567725359786,0.5475758159056561,1.28344468364882,0.9829271135903246,0.28411498989066497,0.7438109416811873
0.07100000000000001,1.6908262011358153,1.0,2901.9352493703714,0.550113553361021,1.2828976789135456,0.9830563061115327,0.28406770044770424,0.7447987986777056
0.07150000000000001,1.6897002620177017,1.0,2906.295158235487,0.5526370537797244,1.2823507702318557,0.9831829841857762,0.28402041100474346,0.745784574456243
0.07200000000000001,1.6885743228995884,1.0,2910.646722490391,0.5551463984284032,1.2818039638086032,0.9833072118906422,0.2839731215617827,0.7467682588704065
