Time [s],Phi [rad],STIM [ ],Fsee [N],Gamma [ ],Lcerel [ ],q [ ],Lmtc [m],fisomrel [ ]
0.0,1.8,1.0,17.967113587683375,1.0024908726903184e-05,1.3793397512141634,0.005000026784184848,0.288653,0.5411395189693132
0.0005,1.79999375,1.0,18.276458018174722,0.005619177985711449,1.379302419572868,0.012940583757323938,0.2886527375,0.5412298294201785
0.001,1.799975,1.0,21.61809818670301,0.011196868148856247,1.37893833105598,0.035608708405597204,0.28865195,0.5421101443128462
0.0015,1.79994375,1.0,31.06890072844137,0.016743271881092148,1.378046232293402,0.07060188625617436,0.2886506375,0.5442635403340663
0.002,1.7999,1.0,53.581862031143295,0.022258564673699223,1.37636816579878,0.1147180512995653,0.2886488,0.5483003946851467
0.0025,1.79984375,1.0,97.11814074521055,0.027742921033869578,1.3739352056604104,0.1645749072148925,0.28864643749999996,0.554121371070493
0.003,1.7997750000000001,1.0,160.95731915085395,0.033196514492425395,1.371214375485409,0.21728046760626335,0.28864354999999997,0.5605863757429141
0.0035,1.79969375,1.0,237.68247701263616,0.0386195176034096,1.3685847605549728,0.2706129008948495,0.2886401375,0.5667897776997238
0.004,1.7996,1.0,321.46594816737013,0.04401210195486828,1.3661561141988494,0.32291581291120836,0.2886362,0.5724799108252525
0.0045000000000000005,1.7994937500000001,1.0,409.26698149574895,0.04937443817403512,1.3639228322248382,0.3730345179736326,0.2886317375,0.5776791204893248
0.005,1.799375,1.0,499.4127763582529,0.05470669591842199,1.3618583578127106,0.4202474706420148,0.28862675,0.5824570436259193
0.0055,1.79924375,1.0,590.7897328719349,0.06000904392328314,1.3599388484068982,0.46417370783588324,0.2886212375,0.5868750810188648
0.006,1.7991000000000001,1.0,682.5174641302583,0.06528164994477309,1.358146426457202,0.5046799715508739,0.2886152,0.5909793916324488
0.006500000000000001,1.79894375,1.0,773.8810019751799,0.07052468081517169,1.356467257985416,0.5418007660343963,0.2886086375,0.5948057843888994
0.007,1.798775,1.0,864.2853835384233,0.07573830242807134,1.3548904019045338,0.5756767893270079,0.28860155,0.5983826614669594
0.0075,1.79859375,1.0,953.242092692726,0.08092267974602398,1.3534067964597116,0.6065099315309296,0.2885939375,0.6017335338523087
0.008,1.7984,1.0,1040.3568794009932,0.08607797678464725,1.352008669536114,0.634532078557424,0.2885858,0.6048784967200731
0.0085,1.79819375,1.0,1125.3188834831046,0.09120435674729367,1.3506891755871573,0.6599844060806117,0.2885771375,0.607835147085459
0.009000000000000001,1.797975,1.0,1207.8785289774708,0.09630198152488215,1.349442330895332,0.6831043666056059,0.28856795,0.6106188054159352
0.0095,1.79774375,1.0,1287.8730574773301,0.10137101295766164,1.3482623771868263,0.7041176228233467,0.2885582375,0.6132439943755763
0.01,1.7975,1.0,1365.1666696769967,0.1064116112874752,1.347144390157998,0.7232342398463653,0.288548,0.6157231262175754
0.0105,1.79724375,1.0,1439.6597965235374,0.11142393551257748,1.3460839426661217,0.7406466675609202,0.2885372375,0.618067297923063
0.011,1.796975,1.0,1511.3078395881726,0.11640814426181503,1.3450767292353847,0.7565292193267533,0.28852595000000003,0.6202871522328094
0.0115,1.79669375,1.0,1580.1110795608372,0.121364396066589,1.3441186017226974,0.7710386714553112,0.2885141375,0.6223928187130598
0.012,1.7964,1.0,1646.0658344131093,0.12629284745436595,1.343206061678529,0.7843155530551087,0.28850180000000003,0.6243928546782962
0.0125,1.79609375,1.0,1709.1791599336427,0.1311936537242047,1.3423359752325288,0.7964853094590164,0.2884889375,0.6262948981555914
0.013000000000000001,1.7957750000000001,1.0,1769.4942528208956,0.13606697014933106,1.3415052116272868,0.8076595556877326,0.28847555,0.6281064745899301
0.0135,1.79544375,1.0,1827.0733967182925,0.1409129509510897,1.3407107965183147,0.8179375502605765,0.2884616375,0.6298346719893353
0.014,1.7951000000000001,1.0,1881.986425118509,0.1457317505136825,1.3399499937851522,0.8274075628760325,0.2884472,0.6314859748899075
0.0145,1.79474375,1.0,1934.285878997326,0.15052352020070014,1.3392205286926138,0.8361481775478824,0.2884322375,0.6330657937292845
0.015,1.794375,1.0,1984.0452515549498,0.15528841137573324,1.3385201265055138,0.8442292439606267,0.28841675,0.6345794768835809
0.0155,1.79399375,1.0,2031.3473569522396,0.16002657461745895,1.337846615992789,0.8517129332561011,0.2884007375,0.6360320920351432
0.016,1.7936,1.0,2076.2869860959163,0.16473816107383424,1.3371978784708256,0.8586546285085815,0.2883842,0.6374285419476222
0.0165,1.7931937500000001,1.0,2118.9522649364194,0.16942332052453088,1.336572021838069,0.8651037785229216,0.2883671375,0.6387731955224312
0.017,1.792775,1.0,2159.4092004304134,0.17408219976733755,1.3359675137324152,0.8711046339532101,0.28834955,0.6400696100652405
0.0175,1.7923437500000001,1.0,2197.734479987972,0.17871494560004295,1.3353828217917603,0.8766967572552748,0.2883314375,0.6413213100988405
0.018000000000000002,1.7919,1.0,2234.014580399174,0.18332170482043572,1.3348164136539997,0.8819155740496496,0.2883128,0.6425317893745974
0.0185,1.79144375,1.0,2268.3371450174145,0.18790262331746524,1.3342668345683562,0.8867928757185983,0.2882936375,0.6437043472820512
0.019,1.790975,1.0,2300.793261133,0.19245784728729526,1.333732674309805,0.8913572320845995,0.28827395,0.6448421623023777
0.0195,1.79049375,1.0,2331.4634179638183,0.19698752121367416,1.333212696912929,0.8956343901765883,0.2882537375,0.6459480185459583
0.02,1.79,1.0,2360.413529928308,0.2014917870485879,1.3327058679535595,0.8996475983428244,0.288233,0.6470242520065964
0.0205,1.78949375,1.0,2387.7145532771124,0.20597078674402242,1.332211153007529,0.9034178406215562,0.2882117375,0.648073181815715
0.021,1.788975,1.0,2413.442066929152,0.21042466225196377,1.331727517650669,0.9069640880853327,0.28818995000000003,0.6490971110756538
0.021500000000000002,1.78844375,1.0,2437.6692727850163,0.21485355424403235,1.3312539909806334,0.9103035322249284,0.2881676375,0.6500981934292172
0.022,1.7879,1.0,2460.472512963968,0.21925760453493362,1.330789607762352,0.913451766849555,0.2881448,0.651078556748818
0.0225,1.78734375,1.0,2481.9198892217128,0.22363695325615152,1.330333513654238,0.9164229779542494,0.28812143749999997,0.6520400821327976
0.023,1.786775,1.0,2502.066833701096,0.22799173733451247,1.3298850021119275,0.9192300976098182,0.28809755,0.6529843283852474
0.0235,1.78619375,1.0,2520.971185850213,0.23232209369684295,1.3294433665910563,0.9218849075289421,0.28807313749999996,0.6539128450546903
0.024,1.7856,1.0,2538.6929907425792,0.23662815926996938,1.3290079005472606,0.9243981572846338,0.2880482,0.6548271727598338
0.0245,1.78499375,1.0,2555.2943084646854,0.24091007098071826,1.3285778974361762,0.9267796689561509,0.2880227375,0.6557288434834876
0.025,1.784375,1.0,2570.826314885004,0.24516796262772408,1.3281527698450144,0.9290384488884207,0.28799675,0.656619131514812
0.025500000000000002,1.78374375,1.0,2585.355192478784,0.24940197340131576,1.3277318044330864,0.9311827305825132,0.2879702375,0.6574995674841622
0.026000000000000002,1.7831000000000001,1.0,2598.927767448836,0.2536122366752678,1.3273144824328476,0.9332200975256859,0.2879432,0.6583712678243532
0.0265,1.78244375,1.0,2611.5849766512474,0.25779888384272936,1.3269003507529662,0.9351575259531992,0.2879156375,0.6592352062423077
0.027,1.781775,1.0,2623.3687675958827,0.2619620462968496,1.3264889563021116,0.9370014327888028,0.28788755,0.6600923514437431
0.0275,1.7810937500000001,1.0,2634.322011963697,0.2661018554307777,1.326079845988952,0.938757727937513,0.2878589375,0.660943667218818
0.028,1.7804,1.0,2644.488423674835,0.27021844263766276,1.3256725667221565,0.9404318610541579,0.2878298,0.6617901125146765
0.0285,1.77969375,1.0,2653.912481509681,0.27431193931065395,1.3252666654103937,0.9420288634311695,0.2878001375,0.6626326414949075
0.029,1.778975,1.0,2662.630144799607,0.27838247159761287,1.3248617737360109,0.9435533954780462,0.28776995,0.6634720279499136
0.029500000000000002,1.7782437500000001,1.0,2670.6915367210263,0.28243017562868067,1.3244573984470567,0.9450097562457466,0.2877392375,0.6643093003602294
0.03,1.7775,1.0,2678.125858064159,0.2864551773342744,1.3240532437048498,0.9464019512175014,0.287708,0.6651450741210626
0.0305,1.77674375,1.0,2684.961850161217,0.2904576021653738,1.3236490216926862,0.9477336957568765,0.2876762375,0.6659799450171147
0.031,1.775975,1.0,2691.228628610461,0.2944375755729584,1.3232444445938616,0.9490084389531444,0.28764395,0.6668145058648149
0.0315,1.7751937500000001,1.0,2696.9556485999933,0.2983952230080079,1.3228392245916722,0.9502293860258508,0.2876111375,0.6676493465084432
0.032,1.7744,1.0,2702.1726720683705,0.3023306699215018,1.3224330738694139,0.9513995185828348,0.2875778,0.6684850538109729
0.0325,1.77359375,1.0,2706.909736702034,0.30624404176441977,1.3220257046103825,0.9525216129604775,0.2875439375,0.6693222116396259
0.033,1.772775,1.0,2711.189308953436,0.31013545868857617,1.3216169002983724,0.9535982636821246,0.28750955,0.6701612545997028
0.0335,1.7719437500000002,1.0,2715.041060836677,0.3140050473288151,1.3212063805427336,0.9546318856802645,0.2874746375,0.6710027458502442
0.034,1.7711000000000001,1.0,2718.498488067798,0.31785293742179294,1.3207938319035115,0.9556247310670386,0.2874392,0.6718473131781302
0.0345,1.7702437500000001,1.0,2721.5792331516286,0.3216792475172641,1.3203790868863903,0.9565789178529351,0.2874032375,0.6726952827992436
0.035,1.7693750000000001,1.0,2724.3010619985953,0.3254840961649833,1.3199619779970533,0.9574964272260188,0.28736675,0.6735469790695574
0.035500000000000004,1.76849375,1.0,2726.6818514284146,0.3292676019147049,1.3195423377411843,0.9583791139749512,0.2873297375,0.6744027244607744
0.036000000000000004,1.7676,1.0,2728.739577295303,0.3330298833161835,1.319119998624467,0.9592287160034285,0.2872922,0.6752628395341842
0.0365,1.76669375,1.0,2730.492303236015,0.3367710589191736,1.3186947931525856,0.9600468630246213,0.2872541375,0.6761276429127253
0.037,1.765775,1.0,2731.9581700392587,0.34049124727342983,1.3182665538312235,0.9608350845147036,0.28721555,0.6769974512512658
0.0375,1.76484375,1.0,2733.155385637457,0.3441905669287067,1.3178351131660642,0.9615948169961742,0.2871764375,0.6778725792050867
0.038,1.7639,1.0,2734.102215720049,0.34786913643475875,1.317400303662792,0.9623274107142371,0.28713679999999997,0.67875333939658
0.0385,1.76294375,1.0,2734.8164055777984,0.3515270739148768,1.316961962997614,0.9630341361649939,0.28709663750000003,0.6796400319282501
0.039,1.761975,1.0,2735.3110782031426,0.35516449433194325,1.3165199711860378,0.9637161926027222,0.28705595,0.680532869388998
0.0395,1.7609937500000001,1.0,2735.5981643696596,0.35878151197416686,1.3160742193617494,0.9643747105903115,0.2870147375,0.68143204035351
0.04,1.76,1.0,2735.689150370954,0.36237824072122726,1.3156246029399834,0.9650107561447241,0.286973,0.6823377232748018
0.0405,1.7589937500000001,1.0,2735.5955452045782,0.36595479445280404,1.315171017335974,0.9656253348159367,0.2869307375,0.6832500951256605
0.041,1.757975,1.0,2735.3534587373465,0.3695112757898743,1.3147131347609982,0.9662193744210957,0.28688795,0.6841697793651333
0.0415,1.7569481042107598,1.0,2735.1464411487727,0.37304781475284876,1.3142512551050853,0.9667938097964343,0.2868448203768519,0.6850961373242301
0.042,1.755921037583608,1.0,2735.3406771569507,0.37656452304458937,1.3137856548865114,0.9673495190197224,0.28680168357851155,0.6860285803171019
0.0425,1.7548939709564564,1.0,2735.9199116351274,0.3800615088655218,1.3133165592252078,0.9678873274472369,0.28675854678017115,0.6869666253675919
0.043000000000000003,1.753866904329305,1.0,2736.8594667354973,0.38353888041607187,1.3128441932411066,0.9684080159552778,0.2867154099818308,0.687909791949366
0.043500000000000004,1.7528398377021532,1.0,2738.1347220954535,0.3869967458966651,1.3123687820541388,0.9689123237907538,0.2866722731834904,0.6888576020344833
0.044,1.7518127710750016,1.0,2739.721099076667,0.39043521350772725,1.3118905507842364,0.9694009512119491,0.2866291363851501,0.6898095801387297
0.0445,1.7507857044478499,1.0,2741.5940461271784,0.3938543914496841,1.311409724551331,0.969874561936828,0.2865859995868097,0.690765253363725
0.045,1.7497586378206984,1.0,2743.729025267871,0.3972543879229612,1.310926528475354,0.9703337854146408,0.2865428627884693,0.6917241514357937
0.0455,1.7487315711935467,1.0,2746.101499701852,0.4006353111279844,1.3104411876762374,0.9707792189351739,0.28649972599012896,0.6926858067416044
0.046,1.747704504566395,1.0,2748.686922547955,0.40399726926517926,1.3099539272739125,0.971211429588691,0.28645658919178857,0.693649754360581
0.0465,1.7466774379392433,1.0,2751.46072669771,0.4073403705349715,1.309464972388311,0.9716309560884577,0.28641345239344823,0.6946155320940751
0.047,1.7456503713120917,1.0,2754.4127162440427,0.41066471377343555,1.3089744178378542,0.9720382997913092,0.28637031559510784,0.6955829372505073
0.0475,1.7446233046849402,1.0,2757.518873040785,0.41397041315196487,1.3084824833968132,0.9724339484760817,0.2863271787967675,0.6965515224404812
0.048,1.7435962380577885,1.0,2760.7610077092763,0.4172575768941004,1.3079893357915688,0.9728183617268165,0.2862840419984271,0.6975209471896309
0.0485,1.7425691714306368,1.0,2764.130303240008,0.42052630602318886,1.3074950567980874,0.973191970258424,0.2862409052000867,0.6984910396834854
0.049,1.7415421048034851,1.0,2767.6179294848052,0.4237767015625769,1.306999728192334,0.9735551843656197,0.2861977684017464,0.699461629112988
0.0495,1.7405150381763335,1.0,2771.215041179151,0.4270088645356113,1.3065034317502748,0.9739083950796624,0.286154631603406,0.7004325456801805
0.05,1.739487971549182,1.0,2774.91277611393,0.4302228959656388,1.3060062492478755,0.9742519752494909,0.28611149480506565,0.7014036206034666
0.0505,1.7384609049220303,1.0,2778.702253454254,0.433418896876006,1.3055082624611012,0.9745862805528347,0.28606835800672525,0.7023746861224456
0.051000000000000004,1.7374338382948786,1.0,2782.5745722074475,0.43659696829005956,1.305009553165918,0.9749116504424176,0.2860252212083849,0.7033455755023184
0.051500000000000004,1.736406771667727,1.0,2786.5208098384387,0.43975721123114636,1.3045102031382918,0.9752284090319654,0.2859820844100445,0.7043161230378707
0.052000000000000005,1.7353797050405753,1.0,2790.5320210346454,0.44289972672261296,1.304010294154188,0.9755368659263376,0.28593894761170413,0.7052861640570283
0.0525,1.7343526384134238,1.0,2794.599236617867,0.4460246157878061,1.3035099079895722,0.9758373169997692,0.2858958108133638,0.7062555349239841
0.053,1.7333255717862721,1.0,2798.717068981147,0.4491319733219041,1.303009094047701,0.9761300424739758,0.28585267401502346,0.707224135600738
0.0535,1.7322985051591204,1.0,2802.8795342110607,0.45222190051593075,1.3025079069470957,0.9764153113535299,0.28580953721668306,0.7081918566150742
0.054,1.7312714385319687,1.0,2807.0780830526814,0.45529450255752374,1.3020064241467924,0.9766933828294742,0.28576640041834267,0.7091585451979202
0.0545,1.7302443719048173,1.0,2811.3096636321984,0.45834987376901604,1.3015046736437248,0.97696450095474,0.28572326362000233,0.710124144677905
0.055,1.7292173052776656,1.0,2815.571215173319,0.46138810847274053,1.3010026834348276,0.9772288994642837,0.28568012682166194,0.7110885987405388
0.0555,1.728190238650514,1.0,2819.8596678403483,0.4644093009910303,1.3005004815170351,0.9774868022980793,0.2856369900233216,0.7120518514286672
0.056,1.7271631720233622,1.0,2824.171942597686,0.46741354564621823,1.2999980958872817,0.9777384240934259,0.2855938532249812,0.7130138471428742
0.0565,1.7261361053962105,1.0,2828.5049510874687,0.4704009367606373,1.2994955545425015,0.9779839706486183,0.28555071642664087,0.713974530641835
0.057,1.725109038769059,1.0,2832.8555955237553,0.47337156865662056,1.2989928854796293,0.9782236393598556,0.2855075796283005,0.7149338470426189
0.0575,1.7240819721419074,1.0,2837.220768605058,0.4763255356565009,1.298490116695599,0.9784576196331458,0.2854644428299601,0.7158917418209427
0.058,1.7230549055147557,1.0,2841.5973534435543,0.4792629320826113,1.2979872761873452,0.9786860932728234,0.28542130603161975,0.7168481608113739
0.0585,1.722027838887604,1.0,2845.9822235115744,0.48218385225728466,1.297484391951802,0.9789092348481855,0.28537816923327936,0.717803050207483
0.059000000000000004,1.7210007722604523,1.0,2850.3735608232564,0.4850883831937177,1.2969814802606172,0.9791272107824122,0.28533503243493896,0.7187563787698107
0.059500000000000004,1.7199737056333009,1.0,2854.7712460455427,0.48797660754691957,1.2964785422378424,0.9793401798168481,0.2852918956365986,0.7197081441088135
0.06,1.7189466390061492,1.0,2859.1688606574794,0.49084864528993155,1.2959756349478857,0.9795483006004435,0.2852487588382583,0.7206582382563644
0.0605,1.7179195723789975,1.0,2863.565632321842,0.49370458328472216,1.2954727651738172,0.979751720293736,0.2852056220399179,0.7216066487262063
0.061,1.7168925057518458,1.0,2867.9607863616407,0.4965445083932599,1.294969939698707,0.9799505804522664,0.2851624852415775,0.7225533631190724
0.0615,1.7158654391246944,1.0,2872.3535457663465,0.4993685074775133,1.294467165305626,0.980145017283207,0.28511934844323716,0.7234983691226693
0.062,1.7148383724975427,1.0,2876.743131198787,0.5021766673994509,1.2939644487776445,0.9803351618883602,0.28507621164489677,0.724441654511657
0.0625,1.713811305870391,1.0,2881.1287610038175,0.504969075021041,1.2934617968978324,0.9805211404943498,0.28503307484655643,0.7253832071476256
0.063,1.7127842392432393,1.0,2885.509651216953,0.5077458172042524,1.29295921644926,0.9807030746707697,0.28498993804821604,0.7263230149790676
0.0635,1.7117571726160876,1.0,2889.885015575181,0.5105069808110534,1.292456714214998,0.9808810815370069,0.2849468012498757,0.7272610660413488
0.064,1.7107301059889362,1.0,2894.254065527738,0.5132526527034126,1.2919542969781166,0.9810552739584059,0.2849036644515353,0.7281973484566764
0.0645,1.7097030393617845,1.0,2898.616010248753,0.5159829197432985,1.2914519715216861,0.9812257607323949,0.2848605276531949,0.7291318504340634
0.065,1.7086759727346328,1.0,2902.970056650272,0.5186978687926795,1.290949744628777,0.9813926467651636,0.2848173908548546,0.7300645602692903
0.0655,1.707648906107481,1.0,2907.315409396605,0.5213975867135243,1.2904476230824593,0.9815560332394304,0.2847742540565142,0.730995466344865
0.066,1.7066218394803294,1.0,2911.651270919997,0.5240821603678012,1.2899456136658034,0.9817160177738137,0.28473111725817385,0.7319245571299766
0.0665,1.705594772853178,1.0,2915.976841436369,0.5267516766174788,1.2894437231618798,0.9818726945742844,0.28468798045983346,0.7328518211804498
0.067,1.7045677062260263,1.0,2920.2913189633073,0.5294062223245256,1.288941958353759,0.9820261545781434,0.2846448436614931,0.7337772471386947
0.0675,1.7035406395988746,1.0,2924.595932111724,0.5320458398797729,1.2884403081742908,0.9821764818320252,0.2846017068631527,0.7347008565698985
0.068,1.702513572971723,1.0,2928.888672037071,0.5346706670547791,1.287938789997646,0.9823237650636012,0.28455857006481233,0.7356226186692969
0.0685,1.7014865063445712,1.0,2933.1692791363616,0.5372807877405514,1.2874374058100195,0.9824680857750309,0.284515433266472,0.7365425310625197
0.069,1.7004594397174198,1.0,2937.437703064504,0.5398762802674056,1.2869361557593288,0.9826095222904506,0.28447229646813166,0.7374605947642161
0.0695,1.699432373090268,1.0,2941.6938935470203,0.5424572229656573,1.2864350399934912,0.9827481503231367,0.28442915966979126,0.7383768107905839
0.07,1.6984053064631164,1.0,2945.937800380516,0.5450236941656221,1.2859340586604235,0.9828840430805411,0.28438602287145087,0.7392911801593669
0.07050000000000001,1.6973782398359647,1.0,2950.169373432922,0.5475757721976154,1.2854332119080434,0.9830172713644182,0.28434288607311053,0.7402037038898533
0.07100000000000001,1.696351173208813,1.0,2954.3885626437955,0.5501135353919528,1.2849324998842677,0.9831479036663018,0.28429974927477014,0.7411143830028756
0.07150000000000001,1.6953241065816615,1.0,2958.5953180252745,0.5526370620789499,1.2844319227370138,0.9832760062585763,0.28425661247642975,0.7420232185208082
0.07200000000000001,1.6942970399545099,1.0,2962.7895896621094,0.5551464305889223,1.283931480614199,0.9834016432813769,0.2842134756780894,0.7429302114675661
