Time [s],Phi [rad],STIM [ ],Fsee [N],Gamma [ ],Lcerel [ ],q [ ],Lmtc [m],fisomrel [ ]
0.0,1.8,1.0,18.170265840070414,0.00045909662418276535,1.379317055314359,0.005054496803140077,0.288653,0.541194424577945
0.0005,1.79999375,1.0,18.62151556176799,0.0060657307640289955,1.3792642693225228,0.01423420178156139,0.2886527375,0.541322111018026
0.001,1.799975,1.0,22.296444127367224,0.011640916119199263,1.3788695826899786,0.037987132391267754,0.28865195,0.5422762733173516
0.0015,1.79994375,1.0,32.478302095733774,0.01718482909343892,1.3779274872327805,0.07383247649877099,0.2886506375,0.5445497907969279
0.002,1.7999,1.0,56.442775783654234,0.02269764509894487,1.3761849770139947,0.11852791247583636,0.2886488,0.5487399970311873
0.0025,1.79984375,1.0,101.77911868445997,0.028179538565615985,1.373713235374286,0.16870944368594673,0.28864643749999996,0.5546505666648072
0.003,1.7997750000000001,1.0,166.9295921486693,0.03363068294455124,1.3709928631072223,0.22153917464436165,0.28864354999999997,0.5611106362356689
0.0035,1.79969375,1.0,244.3767011198255,0.03905125071407006,1.368379992165356,0.27484401972335143,0.2886401375,0.5672709865186614
0.004,1.7996,1.0,328.55810246105057,0.04444141338433576,1.3659692946576998,0.32700937058872465,0.2886362,0.5729160566573525
0.0045000000000000005,1.7994937500000001,1.0,416.5893598307972,0.049801341497847776,1.3637517099463798,0.3769180943214619,0.2886317375,0.5780761910429999
0.005,1.799375,1.0,506.8729297728496,0.05513120466516186,1.3617004176917271,0.423879240827061,0.28862675,0.5828214535766267
0.0055,1.79924375,1.0,598.3059677935745,0.06043117150453024,1.3597924634375502,0.4675351228871163,0.2886212375,0.5872110435380711
0.006,1.7991000000000001,1.0,690.0337802405548,0.06570140973043584,1.358010173870263,0.5077684347239491,0.2886152,0.5912905465732909
0.006500000000000001,1.79894375,1.0,781.3427048523649,0.07094208605128763,1.356340187367078,0.5446243001104405,0.2886086375,0.5950946137346804
0.007,1.798775,1.0,871.6560992199226,0.07615336640251591,1.3547715939625715,0.5782496508406114,0.28860155,0.5986515182310468
0.0075,1.79859375,1.0,960.4786171289061,0.08133541543239628,1.353295701614871,0.6088499111915676,0.2885939375,0.6019838878203319
0.008,1.7984,1.0,1047.4433142592097,0.08648839744525753,1.351904513046656,0.6366581619422831,0.2885858,0.6051122885758797
0.0085,1.79819375,1.0,1132.2316258617388,0.09161247530738122,1.350591466598285,0.661915809397402,0.2885771375,0.6080536465193356
0.009000000000000001,1.797975,1.0,1214.5987685844673,0.09670781094734049,1.3493506333534644,0.684859612391432,0.28856795,0.6108231344883077
0.0095,1.79774375,1.0,1294.385223095946,0.10177456582063077,1.3481763118408634,0.7057140961319756,0.2885582375,0.6134351271457075
0.01,1.7975,1.0,1371.4689142262653,0.106812900542863,1.3470634825372099,0.7246878937686938,0.288548,0.6159022292383414
0.0105,1.79724375,1.0,1445.7480916896372,0.11182297390165978,1.3460078233795014,0.7419720589304272,0.2885372375,0.6182352875005732
0.011,1.796975,1.0,1517.1774131684272,0.11680494435008158,1.345005098996509,0.7577395045008593,0.28852595000000003,0.6204447757219675
0.0115,1.79669375,1.0,1585.7583680583366,0.12175897028658568,1.344051196115928,0.7721456576294783,0.2885141375,0.6225407348571403
0.012,1.7964,1.0,1651.495718761985,0.1266852085371441,1.3431425583269243,0.7853297557320187,0.28850180000000003,0.624531838854762
0.0125,1.79609375,1.0,1714.3954767138061,0.13158381410585157,1.3422761028473964,0.797416112747913,0.2884889375,0.626425604016577
0.013000000000000001,1.7957750000000001,1.0,1774.4994507725835,0.13645494199680286,1.3414487468952419,0.8085153219480772,0.28847555,0.6282294427412918
0.0135,1.79544375,1.0,1831.8633069945442,0.1412987463741544,1.3406576160204284,0.8187257478688403,0.2884616375,0.6299502189007601
0.014,1.7951000000000001,1.0,1886.5727599596662,0.14611538179866168,1.3398998195749547,0.8281347691312104,0.2884472,0.6315947469799529
0.0145,1.79474375,1.0,1938.6844906773522,0.15090499987638384,1.3391730612338455,0.8368202300134906,0.2884322375,0.6331684774657593
0.015,1.794375,1.0,1988.261348451636,0.15566775147562384,1.3384752011378889,0.8448513792786669,0.28841675,0.6346764611437044
0.0155,1.79399375,1.0,2035.3845406468438,0.1604037874646848,1.337804099427873,0.8522898234142284,0.2884007375,0.6361236939085577
0.016,1.7936,1.0,2080.135242072872,0.16511325768095733,1.3371577911948758,0.8591904835850659,0.2883842,0.6375147443768896
0.0165,1.7931937500000001,1.0,2122.617644397594,0.169796312585707,1.3365342247760126,0.8656023072581147,0.2883671375,0.6388543225586998
0.017,1.792775,1.0,2162.904769087962,0.17445309942635503,1.3359318060147016,0.8715691324356357,0.28834955,0.6401461151393524
0.0175,1.7923437500000001,1.0,2201.0712995248855,0.1790837648442999,1.3353490333834848,0.8771301834608437,0.2883314375,0.6413935771963087
0.018000000000000002,1.7919,1.0,2237.2015140581548,0.1836884554809399,1.3347844053549036,0.8823205872899729,0.2883128,0.6426001337090677
0.0185,1.79144375,1.0,2271.3789679742667,0.18826731689774928,1.334236515071799,0.8871718754297641,0.2882936375,0.6437689795684283
0.019,1.790975,1.0,2303.696421790491,0.1928204956824003,1.3337039411945302,0.8917123732579012,0.28827395,0.64490331515063
0.0195,1.79049375,1.0,2334.2272268887505,0.1973481353078677,1.3331855229837033,0.8959676309274711,0.2882537375,0.6460057629913142
0.02,1.79,1.0,2363.0406952608346,0.201850378007586,1.3326801959395063,0.8999606979879542,0.288233,0.6470787220333283
0.0205,1.78949375,1.0,2390.211230341029,0.20632736601498974,1.3321868955621277,0.9037123819681355,0.2882117375,0.6481245740331508
0.021,1.788975,1.0,2415.817897361441,0.21077924156351344,1.331704557351756,0.9072414970002889,0.28818995000000003,0.6491456844135063
0.021500000000000002,1.78844375,1.0,2439.925844625378,0.21520614421938644,1.331232291533035,0.9105651175353366,0.2881676375,0.6501440339469851
0.022,1.7879,1.0,2462.6265623102463,0.2196082179669319,1.330768990132118,0.9136986886716363,0.2881448,0.651122050915111
0.0225,1.78734375,1.0,2483.974339096157,0.22398560021847813,1.3303139342622041,0.9166563163015196,0.28812143749999997,0.6520813291843888
0.023,1.786775,1.0,2504.0253773528852,0.22833842827107037,1.3298664118196755,0.9194508350146957,0.28809755,0.6530234386263147
0.0235,1.78619375,1.0,2522.8382815161735,0.23266683942175378,1.329425710700914,0.922093939109562,0.28807313749999996,0.653949939825248
0.024,1.7856,1.0,2540.47385564024,0.23697097096757364,1.3289911188023011,0.9245962996530406,0.2880482,0.6548623844043693
0.0245,1.78499375,1.0,2556.9894549563887,0.24125095911049033,1.3285619752704085,0.9269676766281398,0.2880227375,0.6557622079285952
0.025,1.784375,1.0,2572.4421611878715,0.24550693993114442,1.3281376383153807,0.9292170046141094,0.28799675,0.6566507982168508
0.025500000000000002,1.78374375,1.0,2586.8971491788666,0.2497390506021062,1.3277174053543446,0.9313524612007871,0.2879702375,0.6575296627162507
0.026000000000000002,1.7831000000000001,1.0,2600.3957851135174,0.25394742305575757,1.327300809545376,0.9333815863875623,0.2879432,0.658399808899686
0.0265,1.78244375,1.0,2612.9805491041834,0.2581321892244806,1.32688738404655,0.9353113074633255,0.2879156375,0.6592622390025615
0.027,1.781775,1.0,2624.694941530228,0.26229348104065736,1.326476662015943,0.937147997008899,0.28788755,0.6601179501241319
0.0275,1.7810937500000001,1.0,2635.5833942085715,0.2664314304366698,1.3260681766116298,0.9388975247028806,0.2878589375,0.6609679343149458
0.028,1.7804,1.0,2645.6911863964333,0.27054616934489983,1.3256614609916866,0.9405653036597893,0.2878298,0.6618131786503834
0.0285,1.77969375,1.0,2655.0571806060884,0.27463782561989836,1.3252561145325075,0.9421563398409252,0.2878001375,0.6626545279311747
0.029,1.778975,1.0,2663.7311225589892,0.27870653433374526,1.324851642425774,0.9436752502410769,0.28776995,0.6634930178994807
0.029500000000000002,1.7782437500000001,1.0,2671.744071312514,0.28275242234492143,1.3244477274977315,0.9451263290086964,0.2877392375,0.6643293116121101
0.03,1.7775,1.0,2679.126596196473,0.2867756160224028,1.3240440613986684,0.9465135553726705,0.287708,0.6651640506130614
0.0305,1.77674375,1.0,2685.9096912268924,0.2907762417351655,1.3236403357788715,0.9478406198023179,0.2876762375,0.6659978732683014
0.031,1.775975,1.0,2692.1247358650576,0.2947544258521854,1.3232362422886288,0.9491109485932461,0.28764395,0.666831414767624
0.0315,1.7751937500000001,1.0,2697.803457884736,0.29871029474243854,1.3228314725782278,0.9503277260712566,0.2876111375,0.6676653071204497
0.032,1.7744,1.0,2702.977353307602,0.3026439742426142,1.3224257232764116,0.9514939151161971,0.2875778,0.6685001689084275
0.0325,1.77359375,1.0,2707.669563134002,0.3065555814640343,1.3220187698028079,0.9526122817059831,0.2875439375,0.6693364537458107
0.033,1.772775,1.0,2711.921428240583,0.31044525539436035,1.3216102236271832,0.953685391161975,0.28750955,0.6701749491660498
0.0335,1.7719437500000002,1.0,2715.7523507983974,0.3143131157247772,1.3211998984175306,0.9547156546897586,0.2874746375,0.6710160244150767
0.034,1.7711000000000001,1.0,2719.181893377449,0.31815928214646977,1.320787607841843,0.9557053239184478,0.2874392,0.6718600467318493
0.0345,1.7702437500000001,1.0,2722.2297633596622,0.3219838743506227,1.320373165568114,0.9566565033429557,0.2874032375,0.672707381326103
0.035,1.7693750000000001,1.0,2724.9157981214835,0.32578701202842086,1.3199563852643357,0.9575711616573307,0.28736675,0.6735583913538903
0.035500000000000004,1.76849375,1.0,2727.2599509865913,0.32956881487104905,1.3195370805985014,0.9584511420895762,0.2873297375,0.6744134378909019
0.036000000000000004,1.7676,1.0,2729.28227794774,0.3333294025696921,1.3191150652386043,0.9592981718363036,0.2872922,0.6752728799035757
0.0365,1.76669375,1.0,2731.0029251593364,0.33706889481553476,1.3186901528526374,0.9601138706849249,0.2872541375,0.6761370742179931
0.037,1.765775,1.0,2732.4421171988233,0.3407874112997619,1.3182621571085933,0.9608997589016901,0.28721555,0.6770063754865596
0.0375,1.76484375,1.0,2733.6161757045807,0.34448506751082647,1.317830927736653,0.9616572670834321,0.2871764375,0.6778810630550336
0.038,1.7639,1.0,2734.5342972153103,0.3481619744804665,1.317396379667167,0.962387745334217,0.28713679999999997,0.6787612824431619
0.0385,1.76294375,1.0,2735.227688365924,0.351818267579105,1.3169582283683359,0.9630924497775041,0.28709663750000003,0.6796475812168554
0.039,1.761975,1.0,2735.706595880278,0.3554540585847367,1.316516380030497,0.963772575890459,0.28705595,0.6805401185344068
0.0395,1.7609937500000001,1.0,2735.9812961734906,0.3590694592753561,1.3160707408439882,0.9644292498639704,0.2870147375,0.6814390522395806
0.04,1.76,1.0,2736.0620913972693,0.3626645814289578,1.315621216999147,0.9650635333550852,0.286973,0.6823445388392135
0.0405,1.7589937500000001,1.0,2735.9593056807817,0.36623953682353644,1.315167714686311,0.965676427864958,0.2869307375,0.6832567334802553
0.041,1.757975,1.0,2735.6832815663706,0.3697944372370865,1.314710140095818,0.9662688787754534,0.28688795,0.6841757899262454
0.0415,1.75694375,1.0,2735.244376640756,0.3733293944476026,1.3142483994180059,0.966841779074305,0.2868446375,0.6851018605332317
0.042,1.7559,1.0,2734.6529603610443,0.37684452023307935,1.313782398843212,0.9673959727958414,0.28680079999999997,0.6860350962251257
0.0425,1.75484375,1.0,2733.9194110761932,0.38033992637151137,1.313312044561774,0.9679322582016938,0.2867564375,0.6869756464684977
0.043000000000000003,1.753775,1.0,2733.0541132428243,0.38381572464089314,1.3128372427640296,0.9684513907235949,0.28671155,0.6879236592468101
0.043500000000000004,1.75269375,1.0,2732.0674548373436,0.38727202681921935,1.3123578996403167,0.9689540856882849,0.28666613750000003,0.6888792810340876
0.044,1.7516,1.0,2730.9703654595946,0.39070894451567323,1.3118739164693751,0.9694410204300541,0.2866202,0.6898426665371595
0.0445,1.75049375,1.0,2729.7716647676098,0.3941265854647119,1.3113852136935087,0.9699128379873222,0.2865737375,0.6908139307814029
0.045,1.7493750000000001,1.0,2728.473269219422,0.3975250565869725,1.3108917744992827,0.9703701530102328,0.28652675,0.6917930629741299
0.0455,1.74824375,1.0,2727.0829429578653,0.4009044647553921,1.3103935289310078,0.9708135448148288,0.2864792375,0.6927801568805982
0.046,1.7471,1.0,2725.608447233555,0.40426491684290794,1.3098904070329938,0.9712435635202997,0.2864312,0.6937753049391756
0.0465,1.7459437500000001,1.0,2724.040898776552,0.4076065188586802,1.3093824902555873,0.9716607427905285,0.28638263750000004,0.6947782995001641
0.047,1.744775,1.0,2722.422457000954,0.410929378044369,1.3088693956204174,0.9720655564162031,0.28633355,0.6957898483707847
0.0475,1.74359375,1.0,2720.7535840974533,0.41423359917436536,1.308351119336374,0.972458481874989,0.28628393750000003,0.6968099081760373
0.048,1.7424007233511205,1.0,2719.046878798487,0.417519285943582,1.3078278737669273,0.9728399885960308,0.28623383038074707,0.697838010625423
0.0485,1.7412049758536792,1.0,2717.7280088668335,0.42078654204693156,1.307299871275548,0.9732105234183711,0.28618360898585454,0.6988736897768868
0.049,1.740009228356238,1.0,2716.9082536152328,0.4240354711793268,1.3067673242257059,0.9735705118912423,0.28613338759096196,0.6999164821026806
0.0495,1.7388134808587967,1.0,2716.5621783532374,0.427266175996317,1.3062304623016967,0.9739203605400778,0.28608316619606944,0.7009658927247739
0.05,1.7376177333613554,1.0,2716.638654880825,0.430478760139451,1.3056897505116523,0.9742604727806795,0.2860329448011769,0.7020209707657009
0.0505,1.7364219858639143,1.0,2717.104850376629,0.4336733246699547,1.3051454881351086,0.9745912220663439,0.2859827234062844,0.7030810939757217
0.051000000000000004,1.735226238366473,1.0,2717.9320967315048,0.4368499698908583,1.3045979372213041,0.9749129622260768,0.28593250201139186,0.7041457163282094
0.051500000000000004,1.7340304908690316,1.0,2719.091784228194,0.4400087961051922,1.304047359819478,0.975226031048126,0.28588228061649934,0.7052142952385361
0.052000000000000005,1.7328347433715905,1.0,2720.5553431962558,0.44314990361598683,1.3034940179788688,0.9755307511552171,0.2858320592216068,0.7062862916168434
0.0525,1.7316389958741492,1.0,2722.3046951241868,0.4462733883116798,1.3029380784733895,0.9758274243452192,0.2857818378267143,0.7073613539886815
0.053,1.7304432483767078,1.0,2724.301523996464,0.44937935588264194,1.3023798924154015,0.97611635166482,0.2857316164318217,0.7084387776238845
0.0535,1.7292475008792667,1.0,2726.5260836621937,0.45246790423431293,1.3018196418569057,0.9763978097812998,0.2856813950369292,0.7095181881038558
0.054,1.7280517533818254,1.0,2728.9633454392992,0.45553912921146505,1.3012574659421894,0.9766720605944595,0.28563117364203666,0.7105992959632992
0.0545,1.7268560058843843,1.0,2731.598279186617,0.45859312665887053,1.3006935038155407,0.976939354810519,0.28558095224714414,0.7116818136579509
0.055,1.725660258386943,1.0,2734.415847578707,0.4616299924213017,1.3001278946212473,0.9771999325180294,0.2855307308522516,0.7127654555810505
0.0555,1.7244645108895016,1.0,2737.4010008098767,0.46464982234353086,1.2995607775035967,0.977454023729581,0.28548050945735903,0.7138499380785736
0.056,1.7232687633920603,1.0,2740.538671727882,0.4676527122703303,1.2989922916068768,0.977701848891598,0.2854302880624665,0.7149349794632281
0.0565,1.7220730158946191,1.0,2743.8137713959322,0.4706387580464723,1.2984225760753754,0.9779436193643481,0.285380066667574,0.716020300027222
0.057,1.7208772683971778,1.0,2747.212960867307,0.47360805401864586,1.2978517539643093,0.9781795368174903,0.28532984527268146,0.7171056526160222
0.0575,1.7196815208997367,1.0,2750.726370146446,0.4765606933985484,1.2972799166944242,0.9784097928631253,0.28527962387778893,0.7181908518181002
0.058,1.7184857734022954,1.0,2754.3388962224885,0.4794967746409568,1.2967072028700688,0.9786345745337884,0.2852294024828964,0.719275624250701
0.0585,1.717290025904854,1.0,2758.04369189244,0.48241638858004854,1.2961336761307007,0.9788540565932506,0.2851791810880039,0.7203598401189963
0.059000000000000004,1.7160942784074127,1.0,2761.833895673473,0.48531962605000073,1.2955594001157773,0.9790684069189678,0.28512895969311136,0.7214433705459243
0.059500000000000004,1.7148985309099716,1.0,2765.702630700556,0.4882065778849908,1.2949844384647566,0.9792777868291933,0.28507873829821884,0.7225260875753579
0.06,1.7137027834125302,1.0,2769.6430037143955,0.49107733491919586,1.2944088548170958,0.9794823513921064,0.28502851690332626,0.7236078641750199
0.0605,1.7125070359150891,1.0,2773.6481041388483,0.4939319879867934,1.2938327128122529,0.9796822497180793,0.28497829550843373,0.7246885742391331
0.061,1.7113112884176478,1.0,2777.7110032481264,0.49677062792196064,1.2932560760896852,0.9798776252361215,0.2849280741135412,0.7257680925908188
0.0615,1.7101155409202065,1.0,2781.8247534238603,0.4995933455588748,1.2926790082888504,0.9800686159554757,0.2848778527186487,0.7268462949842316
0.062,1.7089197934227653,1.0,2785.9880120996218,0.5024002205971867,1.2921015224446715,0.9802553512188511,0.28482763132375616,0.7279231523772484
0.0625,1.707724045925324,1.0,2790.1901733562904,0.5051913548261688,1.2915237148433387,0.9804379615486832,0.2847774099288636,0.7289984811350119
0.063,1.7065282984278827,1.0,2794.425274748654,0.5079668403693001,1.2909456397744976,0.9806165697679023,0.28472718853397105,0.7300721769649499
0.0635,1.7053325509304416,1.0,2798.6907610017033,0.5107267621611459,1.29036732078353,0.980791292113358,0.28467696713907853,0.731144193306743
0.064,1.7041368034330002,1.0,2802.9840692643393,0.5134712051362715,1.2897887814158184,0.9809622406081551,0.284626745744186,0.7322144839462214
0.0645,1.702941055935559,1.0,2807.3026289884147,0.5162002542292424,1.2892100452167445,0.9811295232460152,0.2845765243492935,0.7332830030157163
0.065,1.7017453084381178,1.0,2811.6438618195366,0.518913994374624,1.2886311357316909,0.981293244166285,0.28452630295440096,0.7343497049943695
0.0655,1.7005495609406764,1.0,2816.0051815008223,0.5216125105069817,1.2880520765060395,0.9814535038201235,0.28447608155950843,0.7354145447084145
0.066,1.699353813443235,1.0,2820.383993788156,0.5242958875608806,1.2874728910851725,0.9816103991283811,0.28442586016461585,0.7364774773314176
0.0665,1.698158065945794,1.0,2824.777696378759,0.5269642104708864,1.2868936030144718,0.9817640236316384,0.2843756387697233,0.7375384583844856
0.067,1.6969623184483527,1.0,2829.1836788507253,0.5296175641715642,1.2863142358393198,0.9819144676328455,0.2843254173748308,0.7385974437364361
0.0675,1.6957665709509113,1.0,2833.5993226161486,0.5322560335974797,1.2857348131050985,0.9820618183329807,0.2842751959799383,0.7396543896039363
0.068,1.6945708234534702,1.0,2838.0220008856368,0.534879703683198,1.2851553583571902,0.9822061599601105,0.28422497458504575,0.7407092525516021
0.0685,1.6933750759560289,1.0,2842.4496846261254,0.5374886553021115,1.2845758897433903,0.982347573377711,0.28417475319015323,0.7417619992881306
0.069,1.6921793284585875,1.0,2846.8838048472035,0.5400829514672684,1.2839963945597308,0.9824861341646544,0.28412453179526065,0.7428126526692402
0.0695,1.6909835809611464,1.0,2851.318018854096,0.5426627105697628,1.2834169292759283,0.9826219220679387,0.2840743104003681,0.7438611103310059
0.07,1.689787833463705,1.0,2855.7516828087214,0.5452280103233396,1.2828374995436809,0.9827550093145163,0.2840240890054756,0.7449073624103263
0.07050000000000001,1.6885920859662638,1.0,2860.184150904979,0.5477789284417429,1.2822581110146878,0.982885465762156,0.2839738676105831,0.7459513991276154
0.07100000000000001,1.6873963384688226,1.0,2864.6147753735927,0.5503155426387175,1.2816787693406475,0.9830133589934309,0.28392364621569055,0.746993210786793
0.07150000000000001,1.6862005909713813,1.0,2869.042906487693,0.5528379306280079,1.2810994801732585,0.983138754405372,0.283873424820798,0.7480327877752675
0.07200000000000001,1.68500484347394,1.0,2873.4678925689113,0.5553461701233585,1.2805202491642196,0.9832617152950195,0.2838232034259055,0.7490701205639163
0.0725,1.6838090959764989,1.0,2877.889079994445,0.5578403388385137,1.2799410819652297,0.9833823029410808,0.283772982031013,0.750105199707068
