Time [s],Phi [rad],STIM [ ],Fsee [N],Gamma [ ],Lcerel [ ],q [ ],Lmtc [m],fisomrel [ ]
0.0,1.8,1.0,18.4416466048553,0.0007017470091354875,1.3792869340489304,0.005126883438823902,0.288653,0.5412672884558747
0.0005,1.79999375,1.0,18.96278190923471,0.006307020072208154,1.3792268843472528,0.014971979824564212,0.2886527375,0.5414125324881229
0.001,1.799975,1.0,22.818109088700268,0.011880851985168589,1.3788174220427336,0.03930386339460919,0.28865195,0.5424022983319434
0.0015,1.79994375,1.0,33.4151077397094,0.017423419108809256,1.377849980066876,0.07560037447520608,0.2886506375,0.5447365834294051
0.002,1.7999,1.0,58.19034810105168,0.022934896813045082,1.3760753556790626,0.12059946547897256,0.2886488,0.549002955519345
0.0025,1.79984375,1.0,104.49429390683198,0.02841545948456559,1.373586269204758,0.17094892566744369,0.28864643749999996,0.5549531232833868
0.003,1.7997750000000001,1.0,170.31641131682628,0.033865280533936816,1.3708690044252283,0.22384033302624168,0.28864354999999997,0.5614036401678573
0.0035,1.79969375,1.0,248.1252131979948,0.039284532396513944,1.3682665536657015,0.2771262606576561,0.2886401375,0.5675374536071014
0.004,1.7996,1.0,332.50159038789764,0.044673386540980596,1.3658662881923742,0.3292145513483697,0.2886362,0.5731564386617812
0.0045000000000000005,1.7994937500000001,1.0,420.6398221777508,0.05003201345742586,1.3636576973456258,0.3790082049333561,0.2886317375,0.5782942575295831
0.005,1.799375,1.0,510.9839155525981,0.055360582759005496,1.3616138798847681,0.4258325151631913,0.28862675,0.5830210518963154
0.0055,1.79924375,1.0,602.4285617159478,0.06065926293891404,1.3597125628312907,0.4693422222721944,0.2886212375,0.5873943626956146
0.006,1.7991000000000001,1.0,694.1449784140837,0.06592822178192981,1.357935961692471,0.509428279857097,0.2886152,0.5914599723446616
0.006500000000000001,1.79894375,1.0,785.412665761768,0.07116762584432118,1.3562711328036123,0.5461414864809657,0.2886086375,0.5952515303916799
0.007,1.798775,1.0,875.6706794999739,0.07637764109874551,1.3547070945524142,0.5796319683511939,0.28860155,0.5987974396498237
0.0075,1.79859375,1.0,964.4261007896229,0.08155843221774611,1.3532352763828357,0.6101069345815733,0.2885939375,0.6021200239755793
0.008,1.7984,1.0,1051.297110569512,0.08671016314168994,1.351848017794463,0.6378003383189482,0.2885858,0.6052390700704953
0.0085,1.79819375,1.0,1135.9883823116104,0.09183299711931425,1.35053849135291,0.6629534229600166,0.2885771375,0.6081720857143683
0.009000000000000001,1.797975,1.0,1218.251937635975,0.09692709587533255,1.3493008923504313,0.6858026121811022,0.28856795,0.6109339496275269
0.0095,1.79774375,1.0,1297.9171623925104,0.10199262055126772,1.3481297239684245,0.7065719020101126,0.2885582375,0.613538569163484
0.01,1.7975,1.0,1374.8824729434727,0.10702973220923204,1.347019737198266,0.725469048709441,0.288548,0.6159990497284644
0.0105,1.79724375,1.0,1449.0456050230275,0.11203858948561381,1.345966662921608,0.7426843517035977,0.2885372375,0.6183261101622655
0.011,1.796975,1.0,1520.3577143986959,0.11701935072817972,1.3449663455762433,0.7583899919308084,0.28852595000000003,0.6205300396038644
0.0115,1.79669375,1.0,1588.806594929643,0.12197217363189056,1.344014862585105,0.772740747807825,0.2885141375,0.6226204538282889
0.012,1.7964,1.0,1654.4177290930713,0.12689721583763436,1.3431084281589387,0.7858750688016651,0.28850180000000003,0.6246065259129541
0.0125,1.79609375,1.0,1717.2004580893395,0.13179463236539032,1.3422439451960841,0.7979166463813753,0.2884889375,0.6264957971193232
0.013000000000000001,1.7957750000000001,1.0,1777.190222573966,0.1366645778420589,1.3414184246211938,0.808975556436355,0.28847555,0.6282954697996883
0.0135,1.79544375,1.0,1834.446370517627,0.14150720643268164,1.340628966133203,0.8191496537886883,0.2884616375,0.6300124599203614
0.014,1.7951000000000001,1.0,1889.044696548975,0.1463226722935551,1.3398728020393535,0.8285259189316272,0.2884472,0.6316533113326479
0.0145,1.79474375,1.0,1941.0501628342329,0.15111112762899506,1.3391475544358618,0.8371817703050488,0.2884322375,0.6332236489801473
0.015,1.794375,1.0,1990.5247363024178,0.15587272311065567,1.3384511028560868,0.8451861145424697,0.28841675,0.634728478875952
0.0155,1.79399375,1.0,2037.5485730556145,0.16060760941019114,1.337781326833387,0.8526002561379894,0.2884007375,0.6361727526871067
0.016,1.7936,1.0,2082.205421125161,0.16531593620669705,1.3371362414819958,0.859478837395838,0.2883842,0.6375610799725555
0.0165,1.7931937500000001,1.0,2124.594952095865,0.1699978541236739,1.336513848507984,0.8658705829956562,0.2883671375,0.6388980540891124
0.017,1.792775,1.0,2164.792783566525,0.17465351065095389,1.3359125316862388,0.8718191118227956,0.28834955,0.6401874077045332
0.0175,1.7923437500000001,1.0,2202.872307796104,0.17928305214501647,1.3353308071379013,0.8773634655876622,0.2883314375,0.6414325567099606
0.018000000000000002,1.7919,1.0,2238.9164169374467,0.18388662496234115,1.3347671909841128,0.8825386099184016,0.2883128,0.6426368872468322
0.0185,1.79144375,1.0,2273.013027484973,0.1884643750067231,1.3342202358980353,0.8873759190595665,0.2882936375,0.643803679579916
0.019,1.790975,1.0,2305.2473265541394,0.19301644749778252,1.3336885990239125,0.8919036078100895,0.28827395,0.6449359658209777
0.0195,1.79049375,1.0,2335.708704217085,0.1975429880272797,1.3331709636355982,0.8961470740100882,0.2882537375,0.646036699585864
0.02,1.79,1.0,2364.4611588791017,0.20204413826889756,1.3326663214618562,0.9001292803174761,0.288233,0.6471081586895312
0.0205,1.78949375,1.0,2391.573603749697,0.20652003989631887,1.3321736642314497,0.9038709568683838,0.2882117375,0.648152604563304
0.021,1.788975,1.0,2417.11946145381,0.21097083458322655,1.3316919836731418,0.9073908487336928,0.28818995000000003,0.64917228305796
0.021500000000000002,1.78844375,1.0,2441.173052620261,0.21539666344066397,1.331220302546788,0.9107059394714364,0.2881676375,0.6501693596326986
0.022,1.7879,1.0,2463.803905682326,0.2197976665553376,1.3307577249207825,0.9138316513853832,0.2881448,0.6511458144299362
0.0225,1.78734375,1.0,2485.091903028818,0.2241739857364759,1.3303032870143805,0.9167819834280503,0.28812143749999997,0.6521037582509432
0.023,1.786775,1.0,2505.0903890274935,0.22852575761215627,1.3298563058913806,0.9195697249471114,0.28809755,0.6530446985449361
0.0235,1.78619375,1.0,2523.855042088186,0.23285311881045623,1.329416098615581,0.9222065296411674,0.28807313749999996,0.6539701338421232
0.024,1.7856,1.0,2541.4436814472906,0.2371562059594533,1.3289819822507796,0.9247030320786574,0.2880482,0.654881554063609
0.0245,1.78499375,1.0,2557.9160842926103,0.241435155687225,1.328553273860775,0.9270689508581481,0.2880227375,0.6557804408015515
0.025,1.784375,1.0,2573.325649641011,0.24569010279738143,1.3281293669317829,0.9293131923145723,0.28799675,0.6566681076433272
0.025500000000000002,1.78374375,1.0,2587.731805628747,0.24992118402873095,1.3277096129671508,0.9314439121374132,0.2879702375,0.6575459488804853
0.026000000000000002,1.7831000000000001,1.0,2601.1896671311797,0.2541285345301595,1.327293417060015,0.9334686023892609,0.2879432,0.6584152396338618
0.0265,1.78244375,1.0,2613.7393518025874,0.2583122855223327,1.3268803352231466,0.9353941692914503,0.2879156375,0.6592769338150615
0.027,1.781775,1.0,2625.4219648608373,0.26247256822591625,1.326469923469317,0.9372269663307983,0.28788755,0.6601319804526096
0.0275,1.7810937500000001,1.0,2636.2795150477605,0.2666095138615758,1.3260617378112973,0.9389728458531661,0.2878589375,0.6609813237738419
0.028,1.7804,1.0,2646.3548349602697,0.2707232536499769,1.325655334261859,0.9406372052148658,0.2878298,0.6618259032742246
0.0285,1.77969375,1.0,2655.6915057521583,0.2748139188117853,1.3252502688337735,0.9422250281249651,0.2878001375,0.662666653774101
0.029,1.778975,1.0,2664.3261911956797,0.27888163593941084,1.324846167414802,0.9437409297622418,0.28776995,0.6635043607012578
0.029500000000000002,1.7782437500000001,1.0,2672.3078011638095,0.28292654019973484,1.3244425485911557,0.9451891698508482,0.2877392375,0.6643400276265164
0.03,1.7775,1.0,2679.6655166278856,0.28694875749830157,1.324039117226672,0.9465737167499423,0.287708,0.6651742681982118
0.0305,1.77674375,1.0,2686.428210524919,0.2909484133500391,1.323635584772197,0.9478982517202613,0.2876762375,0.6660076794297133
0.031,1.775975,1.0,2692.625126174229,0.29492563326987564,1.3232316626785787,0.949166192631904,0.28764395,0.6668408553636527
0.0315,1.7751937500000001,1.0,2698.2858427319984,0.2988805427727392,1.3228270623966638,0.9503807160913542,0.2876111375,0.6676743870674124
0.032,1.7744,1.0,2703.4402424917075,0.30281326737355785,1.3224214953772992,0.9515447774516514,0.2875778,0.6685088626232978
0.0325,1.77359375,1.0,2708.118480030517,0.3067239325872597,1.3220146730713325,0.952661128931031,0.2875439375,0.6693448671134021
0.033,1.772775,1.0,2712.333215088641,0.3106126549736583,1.3216064686715217,0.9537323523714637,0.28750955,0.6701826508566122
0.0335,1.7719437500000002,1.0,2716.1312158556966,0.31447956977763825,1.3211964460923,0.9547608263655017,0.2874746375,0.6710230963573859
0.034,1.7711000000000001,1.0,2719.5375627650083,0.31832479979426476,1.3207843689195062,0.955748791398174,0.2874392,0.6718666730131191
0.0345,1.7702437500000001,1.0,2722.5698500547533,0.3221484637406984,1.3203700702800898,0.9566983482395073,0.2874032375,0.6727137055763084
0.035,1.7693750000000001,1.0,2725.2457933777337,0.32595068033409985,1.3199533833010013,0.95761146215412,0.28736675,0.6735645169459265
0.035500000000000004,1.76849375,1.0,2727.583217443752,0.32973156829162975,1.31953414110919,0.9584899732090848,0.2873297375,0.674419428142896
0.036000000000000004,1.7676,1.0,2729.600044278043,0.33349124633044863,1.3191121768316063,0.9593356056844736,0.2872922,0.6752787582837807
0.0365,1.76669375,1.0,2731.314282098026,0.33722983316771715,1.3186873235952,0.9601499766739612,0.2872541375,0.6761428245527052
0.037,1.765775,1.0,2732.74401480697,0.34094744752059597,1.3182594145269209,0.9609346039535042,0.28721555,0.6770119421714973
0.0375,1.76484375,1.0,2733.907392105382,0.3446442081062457,1.3178282827537189,0.9616909131878493,0.2871764375,0.6778864243680552
0.038,1.7639,1.0,2734.82262021944,0.34832023364182696,1.317393761402544,0.9624202445372987,0.28713679999999997,0.678766582342937
0.0385,1.76294375,1.0,2735.4953530228377,0.3519756344157118,1.3169557980059154,0.9631238678009689,0.28709663750000003,0.679652493974596
0.039,1.761975,1.0,2735.9516325259037,0.35561053543143484,1.3165141553178004,0.9638029641196234,0.28705595,0.6805446093222556
0.0395,1.7609937500000001,1.0,2736.207724029362,0.3592250529027969,1.3160686851820969,0.9644586526525701,0.2870147375,0.6814431959415197
0.04,1.76,1.0,2736.2734777953992,0.3628192983905636,1.3156192979192582,0.9650919928352978,0.286973,0.6823484017249826
0.0405,1.7589937500000001,1.0,2736.1587651279633,0.3663933834555007,1.3151659038497379,0.9657039841001074,0.2869307375,0.6832603732480159
0.041,1.757975,1.0,2735.873475025949,0.36994741965837397,1.3147084132939892,0.9662955699007275,0.28688795,0.6841792557461086
0.0415,1.75694375,1.0,2735.4275110146955,0.37348151855994915,1.3142467365724655,0.9668676414265549,0.2868446375,0.6851051930916948
0.042,1.7559,1.0,2734.8307881558685,0.37699579172099196,1.3137807840056202,0.9674210410334265,0.28680079999999997,0.6860383277704667
0.0425,1.75484375,1.0,2734.0932302360084,0.38049035070226817,1.3133104659139063,0.967956565415246,0.2867564375,0.6869788008571778
0.043000000000000003,1.753775,1.0,2733.224767132346,0.38396530706454346,1.3128356926177775,0.9684749685384846,0.28671155,0.6879267519909292
0.043500000000000004,1.75269375,1.0,2732.235332358406,0.38742077236858363,1.312356374437687,0.9689769643595015,0.28666613750000003,0.6888823193499475
0.044,1.7516,1.0,2731.1271653564313,0.39085685078991916,1.3118724916217486,0.9694632337365303,0.2866202,0.6898455005409514
0.0445,1.75049375,1.0,2729.914937909585,0.39427365876970244,1.3113839114766785,0.9699344151950062,0.2865737375,0.6908165168159568
0.045,1.7493750000000001,1.0,2728.609015965663,0.3976713063658177,1.31089054039587,0.9703911164775822,0.28652675,0.6917955098608545
0.0455,1.74824375,1.0,2727.214678505047,0.4010498984140309,1.3103923309885996,0.9708339171429267,0.2864792375,0.6927825282635958
0.046,1.7471,1.0,2725.737203684263,0.40440953975010774,1.3098892358641452,0.9712633675549348,0.2864312,0.6937776195648475
0.0465,1.7459437500000001,1.0,2724.181868013185,0.40775033520981413,1.3093812076317837,0.9716799906292347,0.28638263750000004,0.694780830243301
0.047,1.744775,1.0,2722.5539455818007,0.4110723896289159,1.3088681989007926,0.9720842834591672,0.28633355,0.6957922057008303
0.0475,1.74359375,1.0,2720.8587073375284,0.4143758078431789,1.308350162280449,0.9724767188306193,0.28628393750000003,0.6968117902475153
0.048,1.7424,1.0,2719.101420410786,0.4176606946883689,1.3078270503800304,0.9728577466342778,0.2862338,0.6978396270865121
0.0485,1.74119375,1.0,2717.287347492289,0.4209271550002519,1.307298815808814,0.9732277951831443,0.2861831375,0.6988757582987903
0.049,1.739975,1.0,2715.4217462583756,0.4241752936145936,1.306765411176077,0.9735872724424797,0.28613195,0.6999202248277183
0.0495,1.73874375,1.0,2713.506816348853,0.42740520355072953,1.3062268169187936,0.9739365676673342,0.2860802375,0.7009730121166571
0.05,1.7375,1.0,2711.549715340008,0.43061699850844903,1.305682968244567,0.9742760513760977,0.286028,0.702034193001247
0.0505,1.73624375,1.0,2709.5557525588524,0.4338107866726067,1.3051338171394273,0.9746060774234191,0.2859752375,0.7031038062433754
0.051000000000000004,1.734975,1.0,2707.52750657206,0.43698666572000333,1.304579340448656,0.9749269839099577,0.28592195,0.7041818411092527
0.051500000000000004,1.73369375,1.0,2705.4675528589596,0.44014473332743953,1.3040195150175358,0.9752390936249086,0.2858681375,0.7052682859964998
0.052000000000000005,1.7324,1.0,2703.378463653619,0.44328508717171605,1.303454317691348,0.975542714870905,0.2858138,0.7063631284262706
0.0525,1.73109375,1.0,2701.262807798805,0.44640782492963355,1.3028837253153749,0.9758381422375243,0.28575893750000003,0.7074663550353333
0.053,1.729775,1.0,2699.1231506112495,0.4495130442779928,1.3023077147348983,0.9761256573270181,0.28570355000000003,0.708577951568123
0.0535,1.72844375,1.0,2696.9620537593873,0.4526008428935945,1.3017262627952004,0.9764055294356043,0.2856476375,0.7096979028687553
0.054,1.7271,1.0,2694.782075152981,0.4556713184532393,1.3011393463415628,0.976678016193394,0.2855912,0.7108261928730111
0.0545,1.7257437500000001,1.0,2692.585768844112,0.4587245686337279,1.300546942219268,0.976943364165797,0.2855342375,0.7119628046002807
0.055,1.724375,1.0,2690.3756849404162,0.4617606911118611,1.2999490272735974,0.9772018094190273,0.28547675,0.7131077201454806
0.0555,1.72299375,1.0,2688.1543695304686,0.4647797835644394,1.2993455783498333,0.9774535780521337,0.2854187375,0.7142609206709305
0.056,1.7216,1.0,2685.9243646204345,0.4677819436682637,1.2987365722932578,0.977698886697796,0.2853602,0.7154223863981989
0.0565,1.72019375,1.0,2683.6861956239222,0.4707672305971172,1.298122004397119,0.9779379405477074,0.28530113749999997,0.7165920615250135
0.057,1.718775,1.0,2681.4457713210622,0.4737357904810062,1.2975018205779472,0.9781709414082544,0.28524155,0.7177699832678792
0.0575,1.71734375,1.0,2679.2039113449196,0.4766877132747956,1.2968760133526325,0.9783980804166253,0.2851814375,0.7189560991576773
0.058,1.7159,1.0,2676.9613823580244,0.4796230882008949,1.2962445757117618,0.9786195409481562,0.2851208,0.7201503551063719
0.0585,1.71444375,1.0,2674.7189497456216,0.48254200448171386,1.2956075006459218,0.9788354990280431,0.2850596375,0.7213526963069878
0.059000000000000004,1.7129750000000001,1.0,2672.4773776139864,0.4854445513396621,1.2949647811456992,0.9790461236820608,0.28499795,0.7225630672310899
0.059500000000000004,1.71149375,1.0,2670.2374287898338,0.4883308179971493,1.294316410201681,0.9792515772678749,0.2849357375,0.7237814116262622
0.06,1.71,1.0,2667.999864820586,0.49120089367658504,1.293662380804454,0.9794520157881692,0.284873,0.7250076725135837
0.0605,1.7084937500000001,1.0,2665.7654459760574,0.4940548676003791,1.293002685944605,0.9796475891867142,0.2848097375,0.7262417921850992
0.061,1.7069750000000001,1.0,2663.5349312510634,0.49689282899094106,1.2923373186127207,0.9798384416284346,0.28474595,0.7274837122012903
0.0615,1.7054437500000001,1.0,2661.3090783687976,0.49971486707068064,1.2916662717993879,0.9800247117644519,0.2846816375,0.7287333733885384
0.062,1.7039,1.0,2659.088643786235,0.5025210710620075,1.2909895384951935,0.9802065329830184,0.2846168,0.729990715836589
0.0625,1.70234375,1.0,2656.874382699331,0.5053115301873312,1.290307111690724,0.9803840336471911,0.2845514375,0.7312556788960123
0.063,1.7007750000000001,1.0,2654.6670490505376,0.5080863336690614,1.2896189843765666,0.9805573373200445,0.28448555,0.7325282011756571
0.0635,1.69919375,1.0,2652.4673955366065,0.510845570729608,1.288925149543308,0.9807265629781574,0.28441913750000003,0.7338082205401055
0.064,1.6976,1.0,2650.2761736175667,0.5135893305913803,1.2882256001815349,0.9808918252140698,0.2843522,0.7350956741071237
0.0645,1.69599375,1.0,2648.0941335273533,0.5163177024767882,1.2875203292818342,0.9810532344283568,0.2842847375,0.7363904982451073
0.065,1.694375,1.0,2645.920874761639,0.5190307617569807,1.286809340447268,0.9812108965610731,0.28421675,0.737692609158811
0.0655,1.69274375,1.0,2643.7544760484343,0.5217285652810193,1.2860926513327318,0.9813649131533837,0.2841482375,0.7390018968539795
0.066,1.6911,1.0,2641.6005224585406,0.5244112605742335,1.2853702102665383,0.98151538499767,0.2840792,0.7403183772080093
0.0665,1.6894437500000001,1.0,2639.4589579429767,0.5270789273867228,1.2846420176361293,0.9816624071513359,0.2840096375,0.7416419700128618
0.067,1.687775,1.0,2637.3297265958004,0.5297316454685863,1.2839080738289463,0.9818060713277759,0.28393955,0.7429725944347498
0.0675,1.68609375,1.0,2635.212772653974,0.5323694945699234,1.2831683792324315,0.981946466035993,0.2838689375,0.7443101690142788
0.068,1.6844000000000001,1.0,2633.1080404961276,0.5349925544408335,1.2824229342340265,0.9820836767134367,0.2837978,0.7456546116665903
0.0685,1.68269375,1.0,2631.015474641401,0.5376009048314159,1.2816717392211732,0.9822177858524311,0.2837261375,0.7470058396815032
0.069,1.680975,1.0,2628.935019749118,0.5401946254917697,1.2809147945813133,0.9823488731205505,0.28365395,0.748363769723656
0.0695,1.67924375,1.0,2626.866620617309,0.5427737961719944,1.2801521007018888,0.9824770154752638,0.28358123749999997,0.7497283178326491
0.07,1.6775,1.0,2624.8102221822637,0.5453384966221894,1.279383657970341,0.9826022872731635,0.283508,0.7510993994231872
0.07050000000000001,1.67574375,1.0,2622.7657695172884,0.5478888065924538,1.2786094667741124,0.9827247603740674,0.2834342375,0.7524769292852194
0.07100000000000001,1.673975,1.0,2620.7332078320396,0.5504248058328869,1.2778295275006444,0.9828445042402661,0.28335995,0.7538608215840839
0.07150000000000001,1.67219375,1.0,2618.712482471607,0.5529465740935882,1.2770438405373787,0.9829615860311729,0.2832851375,0.7552509898606488
0.07200000000000001,1.6704,1.0,2616.703538915597,0.5554541911246569,1.2762524062717575,0.9830760706936199,0.2832098,0.7566473470314535
0.0725,1.66859375,1.0,2614.7063227771623,0.5579477366761922,1.2754552250912223,0.983188021048026,0.2831339375,0.7580498053888522
0.073,1.6667750000000001,1.0,2612.720779802344,0.5604272904982938,1.274652297383215,0.9832974978706518,0.28305755,0.7594582766011544
0.0735,1.66494375,1.0,2610.746855869108,0.5628929323410605,1.2738436235351773,0.9834045599721422,0.2829806375,0.7608726717127681
0.074,1.6631,1.0,2608.7844969861867,0.5653447419545921,1.2730292039345512,0.9835092642725497,0.2829032,0.7622929011443408
0.0745,1.6612437500000001,1.0,2606.8336492926587,0.5677827990889875,1.2722090389687783,0.9836116658730143,0.2828252375,0.7637188746929022
0.075,1.659375,1.0,2604.8942590569627,0.5702071834943463,1.2713831290253006,0.9837118181242713,0.28274675,0.7651505015320059
0.0755,1.65749375,1.0,2602.966272675843,0.5726179749207677,1.2705514744915598,0.9838097726921456,0.2826677375,0.7665876902118713
