Time [s],Phi [rad],STIM [ ],Fsee [N],Gamma [ ],Lcerel [ ],q [ ],Lmtc [m],fisomrel [ ]
0.0,1.8,1.0,18.449538187618966,0.0007072846662088503,1.3792860614690552,0.005128885336500751,0.288653,0.5412693991559059
0.0005,1.79999375,1.0,18.972183631323045,0.006312526667404297,1.3792258591912911,0.01498913152023017,0.2886527375,0.5414150118642445
0.001,1.799975,1.0,22.831618209170475,0.011886327692721492,1.3788160792457362,0.03933416582185202,0.28865195,0.5424055424263012
0.0015,1.79994375,1.0,33.438262141419635,0.017428864101968797,1.3778480782254883,0.07564089518191054,0.2886506375,0.5447411663944685
0.002,1.7999,1.0,58.23220794685413,0.02294031126409946,1.3760727502368681,0.12064683945204133,0.2886488,0.5490092044938718
0.0025,1.79984375,1.0,104.55753268440743,0.028420843564894167,1.3735833318333455,0.17100008196285998,0.28864643749999996,0.5549601217356395
0.003,1.7997750000000001,1.0,170.39459628624178,0.03387063441390336,1.370866159750812,0.22389285410412127,0.28864354999999997,0.5614103684683838
0.0035,1.79969375,1.0,248.2118845810026,0.039289856245429376,1.3682639409645558,0.2771783103000723,0.2886401375,0.5675435898764482
0.004,1.7996,1.0,332.59244238657465,0.04467868052751027,1.3658639222980786,0.32926482198768786,0.2886362,0.5731619590582446
0.0045000000000000005,1.7994937500000001,1.0,420.73523719104537,0.05003727775584813,1.3636554882003595,0.3790558052223963,0.2886317375,0.5782993810642799
0.005,1.799375,1.0,511.08006611542413,0.05536581751509149,1.3616118600531546,0.42587699506057086,0.28862675,0.583025710041128
0.0055,1.79924375,1.0,602.530841809133,0.06066446834883463,1.3597105840067683,0.46938329279574337,0.2886212375,0.5873989022752224
0.006,1.7991000000000001,1.0,694.2493665536025,0.06593339797872506,1.3579340802232611,0.5094659692330206,0.2886152,0.5914642672663524
0.006500000000000001,1.79894375,1.0,785.5182181930791,0.07117277301119959,1.3562693442907054,0.5461759082521911,0.2886086375,0.5952555941284146
0.007,1.798775,1.0,875.7728477720409,0.07638275940401063,1.3547054550186868,0.5796633469118382,0.28860155,0.5988011485331199
0.0075,1.79859375,1.0,964.5196016393365,0.08156352177907931,1.3532338466399896,0.6101355324417912,0.2885939375,0.6021232448594271
0.008,1.7984,1.0,1051.3914886951272,0.08671522421693771,1.351846635545592,0.6378262962725456,0.2885858,0.6052421717322938
0.0085,1.79819375,1.0,1136.0776827790971,0.09183802977102912,1.3505372331646435,0.662977026411137,0.2885771375,0.608174898486213
0.009000000000000001,1.797975,1.0,1218.334805933107,0.09693210026600689,1.3492997648937823,0.6858240936924592,0.28856795,0.610936461240907
0.0095,1.79774375,1.0,1298.000569251576,0.10199759687467888,1.3481286245609625,0.7065914199105738,0.2885582375,0.6135410100806519
0.01,1.7975,1.0,1374.9679667616394,0.10703468071143613,1.347018642277854,0.7254867911982126,0.288548,0.6160014729325088
0.0105,1.79724375,1.0,1449.1287683061528,0.11204351021148672,1.3459656254606887,0.7427005273825412,0.2885372375,0.6183283992334009
0.011,1.796975,1.0,1520.4368716983827,0.11702424381003876,1.3449653815256974,0.7584047709695355,0.28852595000000003,0.620532160551116
0.0115,1.79669375,1.0,1588.877935065278,0.12197703915429361,1.3440140126594928,0.7727542936522976,0.2885141375,0.6226223185392676
0.012,1.7964,1.0,1654.487928979278,0.12690205410906158,1.3431076085690503,0.7858874730407241,0.28850180000000003,0.6246083193304444
0.0125,1.79609375,1.0,1717.2735587746347,0.13179944362505505,1.342243107486071,0.7979280055249368,0.2884889375,0.6264976255684874
0.013000000000000001,1.7957750000000001,1.0,1777.2634189433145,0.13666936216776843,1.3414176000930413,0.8089859882726367,0.28847555,0.6282972651361866
0.0135,1.79544375,1.0,1834.5165930874264,0.1415119641124463,1.3406281875456967,0.8191592639250223,0.2884616375,0.6300141513052733
0.014,1.7951000000000001,1.0,1889.1064367410424,0.14632740291869162,1.3398721274636598,0.8285348090902365,0.2884472,0.6316547735118807
0.0145,1.79474375,1.0,1941.106181302019,0.15111583166737771,1.339146950630325,0.8371899998608247,0.2884322375,0.6332249549685964
0.015,1.794375,1.0,1990.5766575168398,0.1558774008540484,1.3384505502119093,0.8451937406156667,0.28841675,0.6347296717514537
0.0155,1.79399375,1.0,2037.5968089048802,0.16061226097424758,1.3377808193746292,0.8526073337637738,0.2884007375,0.6361738458628958
0.016,1.7936,1.0,2082.2493007283365,0.16532056146238927,1.3371357848293326,0.8594854189256211,0.2883842,0.6375620618224169
0.0165,1.7931937500000001,1.0,2124.635389681362,0.17000245310898848,1.3365134318953318,0.8658767104065264,0.2883671375,0.6388989481952356
0.017,1.792775,1.0,2164.837333909386,0.17465808410592912,1.3359120769830197,0.8718248038328092,0.28834955,0.6401883818142661
0.0175,1.7923437500000001,1.0,2202.923542252478,0.1792876004104711,1.3353302887530238,0.8773687533189742,0.2883314375,0.6414336653214722
0.018000000000000002,1.7919,1.0,2238.9717289760774,0.18389114797987438,1.3347666358659709,0.8825435351344906,0.2883128,0.6426380724202183
0.0185,1.79144375,1.0,2273.068136385755,0.18846887277139887,1.334219686982488,0.8873805235243588,0.2882936375,0.6438048495960705
0.019,1.790975,1.0,2305.297442648183,0.19302091960871656,1.3336881033415455,0.8919079297089731,0.28827395,0.6449370206898024
0.0195,1.79049375,1.0,2335.7500319962332,0.1975474341124428,1.333170557549441,0.8961511451569558,0.2882537375,0.6460375624432226
0.02,1.79,1.0,2364.5020331253168,0.20204855954805095,1.3326659222814958,0.9001331027350677,0.288233,0.6471090055886537
0.0205,1.78949375,1.0,2391.617966247532,0.20652443698310224,1.332173233447534,0.9038745419149125,0.2882117375,0.6481535171588331
0.021,1.788975,1.0,2417.16674497413,0.21097520748515802,1.3316915269573801,0.9073942159525067,0.28818995000000003,0.6491732491858468
0.021500000000000002,1.78844375,1.0,2441.2213105931332,0.21540101212177948,1.331219838720859,0.9107091093695411,0.2881676375,0.6501703394060211
0.022,1.7879,1.0,2463.8525140629085,0.2198019907127388,1.3307572598775605,0.9138346397252495,0.2881448,0.6511467954027037
0.0225,1.78734375,1.0,2485.132575058348,0.22417828402880055,1.33030289956924,0.9167848184766296,0.28812143749999997,0.6521045744137517
0.023,1.786775,1.0,2505.127830662733,0.22853003163456378,1.3298559506456533,0.9195724102271708,0.28809755,0.6530454458662382
0.0235,1.78619375,1.0,2523.8915919093306,0.23285736951415698,1.329415753122895,0.9222090722398336,0.28807313749999996,0.6539708596762626
0.024,1.7856,1.0,2541.4792693245336,0.2371604336517086,1.3289816470170595,0.9247054422659893,0.2880482,0.6548822574169098
0.0245,1.78499375,1.0,2557.948196359772,0.24143936003134717,1.3285529723442413,0.9270712417448941,0.2880227375,0.6557810725885338
0.025,1.784375,1.0,2573.3574624805215,0.2456942846372011,1.3281290691205354,0.9293153673058596,0.28799675,0.6566687308612593
0.025500000000000002,1.78374375,1.0,2587.7565693413294,0.24992534066599187,1.3277093817913015,0.9314459881533906,0.2879702375,0.6575464320343207
0.026000000000000002,1.7831000000000001,1.0,2601.2051307658594,0.25413266564266046,1.327293273076655,0.9334705892692698,0.2879432,0.6584155401746499
0.0265,1.78244375,1.0,2613.752614141793,0.25831639337704415,1.326880212033043,0.9353960634518121,0.2879156375,0.6592771906289314
0.027,1.781775,1.0,2625.437646733706,0.2624766542184922,1.3264697781293353,0.9372287676538202,0.28788755,0.6601322830618067
0.0275,1.7810937500000001,1.0,2636.29973113606,0.2666135785163538,1.3260615508344022,0.9389745573658288,0.2878589375,0.6609817125875782
0.028,1.7804,1.0,2646.379170104476,0.2707272966199782,1.3256551096171132,0.9406388327980144,0.2878298,0.661826369835032
0.0285,1.77969375,1.0,2655.716995307705,0.2748179388787146,1.325250033946338,0.942226580250211,0.2878001375,0.6626671410009757
0.029,1.778975,1.0,2664.3549000007442,0.27888563564191216,1.324845903290947,0.9437424092237126,0.28776995,0.6635049078925024
0.029500000000000002,1.7782437500000001,1.0,2672.327112403795,0.2829305138742777,1.3244423711911968,0.9451905946491185,0.2877392375,0.6643403946933473
0.03,1.7775,1.0,2679.6750321565164,0.2869527054736015,1.3240390299336315,0.9465750907741227,0.287708,0.6651744485958898
0.0305,1.77674375,1.0,2686.4336751386363,0.2909523388048667,1.3236355347043398,0.9478995721993201,0.2876762375,0.6660077827698854
0.031,1.775975,1.0,2692.6300335226524,0.294929538236631,1.323231617768261,0.9491674592055548,0.28764395,0.6668409479429618
0.0315,1.7751937500000001,1.0,2698.2914220472335,0.2988844281374521,1.322827011390334,0.9503819306200313,0.2876111375,0.6676744920815854
0.032,1.7744,1.0,2703.4454478046437,0.30281713287588774,1.3224214478354985,0.9515459438425908,0.2875778,0.6685089603815717
0.0325,1.77359375,1.0,2708.1199816183507,0.3067277768204956,1.3220146593686934,0.9526622529791289,0.2875439375,0.6693448952540317
0.033,1.772775,1.0,2712.3431310086917,0.31061648433983347,1.3216063782548584,0.9537334252813698,0.28750955,0.6701828363067377
0.0335,1.7719437500000002,1.0,2716.14321474924,0.3144833798024591,1.3211963367589323,0.9547618560692734,0.2874746375,0.6710233203209265
0.034,1.7711000000000001,1.0,2719.539616511021,0.318328577953406,1.3207843502175731,0.9557497890378391,0.2874392,0.6718667112738821
0.0345,1.7702437500000001,1.0,2722.565871040061,0.32215221452102805,1.320370106493845,0.9566993128295731,0.2874032375,0.672713631585212
0.035,1.7693750000000001,1.0,2725.2391974511625,0.32595440772768874,1.3199534433022948,0.9576123930856837,0.28736675,0.673564394512134
0.035500000000000004,1.76849375,1.0,2727.5764741157545,0.3297352752795186,1.3195342024250645,0.9584908705335812,0.2873297375,0.6744193031906185
0.036000000000000004,1.7676,1.0,2729.5946740263125,0.33349493488264814,1.3191122256442946,0.9593364700764189,0.2872922,0.675278658942426
0.0365,1.76669375,1.0,2731.3108543133817,0.33723350424320775,1.3186873547421267,0.9601508093959302,0.2872541375,0.6761427612482969
0.037,1.765775,1.0,2732.742146317646,0.340951101067328,1.318259431500702,0.9609354068232523,0.28721555,0.6770119077195473
0.0375,1.76484375,1.0,2733.9057462169253,0.3446478430611393,1.3178282977021614,0.9616916885474833,0.2871764375,0.6778863940680686
0.038,1.7639,1.0,2734.818906208244,0.34832384793077215,1.317393795128646,0.9624209952244096,0.28713679999999997,0.6787665140747292
0.0385,1.76294375,1.0,2735.498926245152,0.3519792333823569,1.3169557655622972,0.9631245880413403,0.28709663750000003,0.6796525595561802
0.039,1.761975,1.0,2735.9556914348213,0.3556141084916257,1.3165141184673912,0.9638036588647549,0.28705595,0.6805446837079409
0.0395,1.7609937500000001,1.0,2736.2029261611656,0.359228590503983,1.3160687287394368,0.9644593289497719,0.2870147375,0.6814431081410597
0.04,1.76,1.0,2736.2653517383987,0.36282280912539394,1.3156193716906226,0.9650926487074734,0.286973,0.6823482532321958
0.0405,1.7589937500000001,1.0,2736.151598163401,0.3663968741155671,1.315165968915463,0.9657046182804602,0.2869307375,0.6832602424667649
0.041,1.757975,1.0,2735.8703123004016,0.3699508952342109,1.3147084420084727,0.9662961818015569,0.28688795,0.6841791981141574
0.0415,1.75694375,1.0,2735.4301551684866,0.37348498224103377,1.3142467125641668,0.9668682311095547,0.2868446375,0.6851052412073149
0.042,1.7559,1.0,2734.8397993660365,0.3769992448957441,1.31378070217706,0.9674216091814526,0.28680079999999997,0.6860384915219107
0.0425,1.75484375,1.0,2734.1079266308657,0.3804937929580504,1.313310332441667,0.9679571133055237,0.2867564375,0.6869790675551406
0.043000000000000003,1.753775,1.0,2733.2432255366602,0.3839687361876611,1.3128355249525026,0.9684754980172102,0.28671155,0.6879270865041204
0.043500000000000004,1.75269375,1.0,2732.25438932637,0.38742418434428455,1.3123562013040817,0.9689774778177993,0.28666613750000003,0.6888826642438903
0.044,1.7516,1.0,2731.1501138809163,0.39086024718762924,1.3118722830909186,0.9694637296939641,0.2866202,0.6898459153050316
0.0445,1.75049375,1.0,2729.939095825208,0.3942770344774037,1.3113836919075288,0.9699348954545947,0.2865737375,0.6908169528508838
0.045,1.7493750000000001,1.0,2728.630030769641,0.39767465597331625,1.3108903493484265,0.9703915838998389,0.28652675,0.6917958886543792
0.0455,1.74824375,1.0,2727.2316116882553,0.4010532214350754,1.3103921770081268,0.9708343728359273,0.2864792375,0.6927828330744761
0.046,1.7471,1.0,2725.7480847901256,0.4044128269958207,1.309889136890859,0.9712638120797036,0.2864312,0.6937778151691278
0.0465,1.7459437500000001,1.0,2724.188590793946,0.4077535927103417,1.3093811464646665,0.9716804240196839,0.28638263750000004,0.6947809509317875
0.047,1.744775,1.0,2722.559405457954,0.4110756275806513,1.3088681492093384,0.9720847056100078,0.28633355,0.695792303584177
0.0475,1.74359375,1.0,2720.864782195845,0.4143790333859886,1.3083501069746977,0.9724771298697309,0.28628393750000003,0.6968118990073103
0.048,1.7424,1.0,2719.1089717026707,0.41766391190559243,1.3078269816105677,0.9728581469246057,0.2862338,0.697839762093518
0.0485,1.74119375,1.0,2717.2962214639088,0.4209303649187018,1.3072987349667717,0.9732281853238278,0.2861831375,0.6988759167341256
0.049,1.739975,1.0,2715.430775295772,0.4241784942045556,1.306765328893133,0.9735876532693255,0.28613195,0.6999203858070409
0.0495,1.73874375,1.0,2713.5168729184516,0.42740840154239285,1.3062267252394744,0.9739369397641532,0.2860802375,0.7009731911642458
0.05,1.7375,1.0,2711.5587495613336,0.4306201887114524,1.3056828858556193,0.9742764156859943,0.286028,0.7020343536191977
0.0505,1.73624375,1.0,2709.5606356004773,0.4338139574909733,1.3051337725913912,0.9746064347912934,0.2859752375,0.7031038929341364
0.051000000000000004,1.734975,1.0,2707.5267562286704,0.43698980966019435,1.3045793472966132,0.9749273346550764,0.28592195,0.7041818278072994
0.051500000000000004,1.73369375,1.0,2705.4613311572143,0.4401478469983546,1.304019571821108,0.9752394375511162,0.2858681375,0.7052681758600451
0.052000000000000005,1.7324,1.0,2703.3685743503524,0.44328817128469283,1.3034544080146997,0.9755430512767185,0.2858138,0.7063629536238781
0.0525,1.73109375,1.0,2701.247979419605,0.4464108662887587,1.3028838608025657,0.9758384707496601,0.28575893750000003,0.7074660933205741
0.053,1.729775,1.0,2699.1028176651316,0.44951603855263406,1.3023079005911418,0.9761259781254317,0.28570355000000003,0.7085775932403583
0.0535,1.72844375,1.0,2696.941139168367,0.4526038092861494,1.3017264540446432,0.9764058419897285,0.2856476375,0.709697534852187
0.054,1.7271,1.0,2694.764419032809,0.455674271714213,1.3011395078597905,0.9766783201032478,0.2855912,0.7108258826720766
0.0545,1.7257437500000001,1.0,2692.5741301629373,0.458727519061733,1.300547048733305,0.9769436591700978,0.2855342375,0.7119626004390955
0.055,1.724375,1.0,2690.3717432230887,0.46176364455361774,1.2999490633619077,0.9772020954023126,0.28547675,0.713107651110696
0.0555,1.72299375,1.0,2688.158726600811,0.46478274141477544,1.2993455384423198,0.9774538550510012,0.2854187375,0.7142609968580282
0.056,1.7216,1.0,2685.9365463733616,0.4677849028701143,1.2987364606712621,0.9776991549063567,0.2853602,0.7154225990612483
0.0565,1.72019375,1.0,2683.706666278679,0.4707702221445427,1.2981218167454558,0.9779382027685948,0.28530113749999997,0.7165924183048115
0.057,1.718775,1.0,2681.4705476904114,0.47373879246296885,1.2975015933616219,0.9781711978917329,0.28524155,0.7177704143727557
0.0575,1.71734375,1.0,2679.2296495957944,0.4766907070503009,1.2968757772164812,0.9783983314019834,0.2851814375,0.718956546243974
0.058,1.7159,1.0,2676.9854285790793,0.4796260591314473,1.296244355006755,0.9786197866924069,0.2851208,0.7201507720874735
0.0585,1.71444375,1.0,2674.7393388075834,0.4825449419313161,1.2956073134291644,0.978835739795347,0.2850596375,0.7213530492576269
0.059000000000000004,1.7129750000000001,1.0,2672.4928320221547,0.4854474486748156,1.2949646391804301,0.9790463597340668,0.28499795,0.722563334289409
0.059500000000000004,1.71149375,1.0,2670.247357531718,0.4883336725868541,1.2943163189572735,0.9792518088549027,0.2849357375,0.7237815828936239
0.06,1.71,1.0,2668.0043622113285,0.49120370689233983,1.2936623394564153,0.9794522431411534,0.284873,0.7250077499521209
0.0605,1.7084937500000001,1.0,2665.7652905045015,0.4940576448161811,1.2930026873745768,0.979647812509851,0.2848097375,0.7262417895129976
0.061,1.7069750000000001,1.0,2663.53090452511,0.4968955686821718,1.2923373556646152,0.979838660562259,0.28474595,0.727483643121876
0.0615,1.7054437500000001,1.0,2661.3014441011637,0.4997175539621629,1.291666342075449,0.9800249251372621,0.2846816375,0.7287332426668596
0.062,1.7039,1.0,2659.079945797938,0.502523728004739,1.2909896185966,0.9802067415053357,0.2846168,0.7299905671843279
0.0625,1.70234375,1.0,2656.8666560237684,0.5053141751110618,1.2903071828767685,0.9803842378467765,0.2845514375,0.731255547098707
0.063,1.7007750000000001,1.0,2654.6618207910146,0.5080889795822929,1.2896190325646553,0.9805575375579005,0.28448555,0.7325281121693659
0.0635,1.69919375,1.0,2652.4656857200052,0.5108482257195939,1.2889251653089606,0.9807267594633995,0.28441913750000003,0.7338081914897634
0.064,1.6976,1.0,2650.2784960420086,0.5135919978241265,1.2882255787583856,0.9808920180177514,0.2843522,0.735095713486587
0.0645,1.69599375,1.0,2648.1004966038763,0.5163203801970523,1.2875202705616304,0.9810534234963235,0.2842847375,0.7363906059188994
0.065,1.694375,1.0,2645.9319318713538,0.519033457139533,1.2868092383673961,0.9812110821767656,0.28421675,0.7376927958772772
0.0655,1.69274375,1.0,2643.773045933326,0.5217313129527301,1.2860924798243827,0.9813650965112524,0.2841482375,0.7390022097829566
0.066,1.6911,1.0,2641.6240825058553,0.5244140319378054,1.2853699925812914,0.9815155652901016,0.2840792,0.7403187733869698
0.0665,1.6894437500000001,1.0,2639.4852849370277,0.5270816983959206,1.2846417742868224,0.9816625837972544,0.2840096375,0.741642411769291
0.067,1.687775,1.0,2637.356896210431,0.5297343966282371,1.2839078225896763,0.981806243958079,0.28393955,0.7429730493379748
0.0675,1.68609375,1.0,2635.239158950533,0.5323722109359167,1.2831681351385538,0.9819466344799286,0.2838689375,0.7443106098282964
0.068,1.6844000000000001,1.0,2633.1323154269885,0.534995225620121,1.2824227095821557,0.9820838409858533,0.2837978,0.7456550163018921
0.0685,1.68269375,1.0,2631.0366075593597,0.5376035249820118,1.2816715435691823,0.9822179461418501,0.2837261375,0.7470061911459
0.069,1.680975,1.0,2628.952276922181,0.5401971933227505,1.2809146347483342,0.9823490297779978,0.28365395,0.7483640560720981
0.0695,1.67924375,1.0,2626.8795647498646,0.5427763149434989,1.2801519807683124,0.9824771690038189,0.28358123749999997,0.7497285321160432
0.07,1.6775,1.0,2624.8187119420386,0.5453409741454186,1.279383579277817,0.9826024383181743,0.283508,0.751099539636211
0.07050000000000001,1.67574375,1.0,2622.771859794053,0.5478911981945457,1.2786094103006516,0.9827249053801499,0.2834342375,0.7524770296298572
0.07100000000000001,1.673975,1.0,2620.7380101787517,0.5504271341526975,1.2778294829525345,0.9828446442677341,0.28335995,0.7538609005176254
0.07150000000000001,1.67219375,1.0,2618.716755289296,0.552948866107196,1.2770438008860583,0.9829617225078039,0.2832851375,0.7552510599190245
0.07200000000000001,1.6704,1.0,2616.7079021031645,0.5554564692066076,1.276252365766274,0.9830762047781144,0.2832098,0.7566474183945686
0.0725,1.66859375,1.0,2614.7112579512054,0.5579500185994994,1.2754551792582327,0.9831881536431392,0.2831339375,0.758049885905022
0.073,1.6667750000000001,1.0,2612.7266305139415,0.560429589434438,1.2746522430269855,0.9832976296355607,0.28305755,0.7594583718120079
0.0735,1.66494375,1.0,2610.7538278175825,0.56289525685999,1.2738435587375838,0.9834046913340919,0.2829806375,0.7608727848786209
0.074,1.6631,1.0,2608.792658230262,0.565347096024722,1.2730291280550787,0.9835093954378216,0.2829032,0.7622930332700364
0.0745,1.6612437500000001,1.0,2606.842930458171,0.5677851820772009,1.272208952644521,0.983611796837256,0.2828252375,0.7637190245541228
0.075,1.659375,1.0,2604.9044535420435,0.5702095901659933,1.2713830341709624,0.9837119486822267,0.28274675,0.7651506657020479
0.0755,1.65749375,1.0,2602.9770368532586,0.5726203954396658,1.2705513742994536,0.9838099024468182,0.2826677375,0.7665878630888934
