Time [s],Phi [rad],STIM [ ],Fsee [N],Gamma [ ],Lcerel [ ],q [ ],Lmtc [m],fisomrel [ ]
0.0,1.8,1.0,17.968777483487127,3.662004198370476e-05,1.3793395648062723,0.005000353765117405,0.288653,0.5411399699380993
0.0005,1.79999375,1.0,18.286957671486398,0.005645623941311529,1.379301253424095,0.013014580734168214,0.2886527375,0.5412326503536689
0.001,1.799975,1.0,21.648356631278638,0.011223165763554949,1.3789352416616416,0.03574742188652605,0.28865195,0.542117610417198
0.0015,1.79994375,1.0,31.141291760114306,0.01676942198697645,1.3780400683812173,0.0707916828249804,0.2886506375,0.5442784014614942
0.002,1.7999,1.0,53.73838164807169,0.02228456809814355,1.3763580189674163,0.11494278286209854,0.2886488,0.5483247498690114
0.0025,1.79984375,1.0,97.38169525137073,0.027768778599679567,1.3739225141502478,0.16481937226591767,0.28864643749999996,0.554151637154202
0.003,1.7997750000000001,1.0,161.30055011443525,0.03322222701773297,1.3712015348317745,0.2175326605441046,0.28864354999999997,0.5606167746764505
0.0035,1.79969375,1.0,238.07044569414447,0.038645085901764166,1.368572814944516,0.2708637311496175,0.2886401375,0.5668178574103175
0.004,1.7996,1.0,321.8787835383086,0.04403752683527621,1.3661451832610376,0.32315868338708814,0.2886362,0.572505436143945
0.0045000000000000005,1.7994937500000001,1.0,409.6945185394835,0.0493997204410142,1.3639127989109834,0.3732650647809956,0.2886317375,0.5777024068519585
0.005,1.799375,1.0,499.84902774131433,0.05473183637214546,1.3618490895238784,0.420463163872436,0.28862675,0.5824784324322074
0.0055,1.79924375,1.0,591.2299035311969,0.060034043358492904,1.3599302501359218,0.46437340537207156,0.2886212375,0.5868948183580764
0.006,1.7991000000000001,1.0,682.9582245741399,0.06530650915276172,1.3581384158948133,0.5048634909814719,0.2886152,0.5909976883302096
0.006500000000000001,1.79894375,1.0,774.3169251622662,0.07054940053194958,1.356459817537011,0.5419685881252843,0.2886086375,0.5948226992394158
0.007,1.798775,1.0,864.7243766397311,0.07576288359641191,1.3548833116577357,0.5758296439585731,0.28860155,0.5983987088866023
0.0075,1.79859375,1.0,953.666774048183,0.08094712297685942,1.3534002651450967,0.6066490180631384,0.2885939375,0.6017482544495387
0.008,1.7984,1.0,1040.7745081551761,0.08610228291190651,1.3520025214064089,0.6346584390283845,0.2885858,0.6048922988632994
0.0085,1.79819375,1.0,1125.7278310176262,0.09122852653918923,1.3506833869314723,0.6600991832231521,0.2885771375,0.6078480935276509
0.009000000000000001,1.797975,1.0,1208.2738985740473,0.09632601566085268,1.3494369290333672,0.683208689601161,0.28856795,0.6106308438384231
0.0095,1.79774375,1.0,1288.25654432242,0.10139491224499746,1.3482573029703186,0.7042125032136018,0.2885582375,0.6132552644382643
0.01,1.7975,1.0,1365.5446423083795,0.1064353766646646,1.3471395325234754,0.7233205832445765,0.288548,0.6157338806102773
0.0105,1.79724375,1.0,1440.0291542039006,0.11144756767853431,1.3460793201682393,0.7407253626660878,0.2885372375,0.6180775004843411
0.011,1.796975,1.0,1511.6648545517492,0.11643164404528672,1.3450723683800119,0.7566010715884329,0.28852595000000003,0.6202967493004126
0.0115,1.79669375,1.0,1580.44426706067,0.12138776357832626,1.3441146214816315,0.771104442943152,0.2885141375,0.622401553834673
0.012,1.7964,1.0,1646.3833084325297,0.12631608391343385,1.343202345889662,0.7843758228336251,0.28850180000000003,0.6244009878055893
0.0125,1.79609375,1.0,1709.4855952841335,0.13121676003582103,1.342332455473082,0.7965406127350845,0.2884889375,0.6263025826842167
0.013000000000000001,1.7957750000000001,1.0,1769.7896771956628,0.13608994686991366,1.341501876664446,0.8077103908699724,0.28847555,0.6281137379931809
0.0135,1.79544375,1.0,1827.3497266820407,0.1409357984768513,1.3407077266415548,0.8179843954481519,0.2884616375,0.6298413424959936
0.014,1.7951000000000001,1.0,1882.2501444831594,0.14575446970635456,1.3399471070566373,0.8274507830131664,0.2884472,0.6314922334305586
0.0145,1.79474375,1.0,1934.5487040213368,0.15054611235099086,1.3392176909107534,0.8361880791259242,0.2884322375,0.6330719329501805
0.015,1.794375,1.0,1984.3063547664258,0.15531087716728065,1.338517342888276,0.844266146628874,0.28841675,0.634585486491905
0.0155,1.79399375,1.0,2031.6025090781955,0.1600489149117444,1.3378439276735774,0.8517471337341674,0.2884007375,0.6360378843561563
0.016,1.7936,1.0,2076.5255877686604,0.1647603756302223,1.3371953918778947,0.8586864102499299,0.2883842,0.6374338893377329
0.0165,1.7931937500000001,1.0,2119.168801225089,0.16944540957076015,1.3365697880272724,0.8651333781015761,0.2883671375,0.6387779903931023
0.017,1.792775,1.0,2159.611223234365,0.1741041648372431,1.3359654492549737,0.8711322247940931,0.28834955,0.6400740335041571
0.0175,1.7923437500000001,1.0,2197.925839475804,0.17873678778707558,1.3353808834055403,0.8767225053327512,0.2883314375,0.6413254561419623
0.018000000000000002,1.7919,1.0,2234.195264569458,0.1833434247776619,1.3348145983235133,0.8819396385622108,0.2883128,0.6425356656551799
0.0185,1.79144375,1.0,2268.5086428760674,0.18792422186432564,1.3342651246157675,0.8868153958877111,0.2882936375,0.6437079925561398
0.019,1.790975,1.0,2300.9476040327468,0.19247932382760263,1.333731146293629,0.8913783555765799,0.28827395,0.6448454145202182
0.0195,1.79049375,1.0,2331.606286110215,0.19700887719251778,1.3332112918304042,0.8956542186879451,0.2882537375,0.6459510044538048
0.02,1.79,1.0,2360.548298122346,0.20151302356023226,1.3327045506843513,0.8996662288991912,0.288233,0.6470270470469512
0.0205,1.78949375,1.0,2387.842218980497,0.20599190453190724,1.3322099123137288,0.9034353660347514,0.2882117375,0.6480758104607929
0.021,1.788975,1.0,2413.5611885265243,0.21044566170870388,1.3317263661767953,0.9069805973489844,0.28818995000000003,0.6490995471401108
0.021500000000000002,1.78844375,1.0,2437.78252120653,0.2148744366917833,1.3312529017318087,0.9103190982086099,0.2881676375,0.6501004945607676
0.022,1.7879,1.0,2460.570359942774,0.2192783684445801,1.3307886710177002,0.9134664779798011,0.2881448,0.6510805329283921
0.0225,1.78734375,1.0,2482.010928072394,0.22365760002595372,1.3303326458609592,0.9164368817025141,0.28812143749999997,0.6520419103268434
0.023,1.786775,1.0,2502.1588837683853,0.22801226851847947,1.3298841282193692,0.9192432389300436,0.28809755,0.6529861669290395
0.0235,1.78619375,1.0,2521.0674846002503,0.23234251035556144,1.3294424557975202,0.9218973354653783,0.28807313749999996,0.6539147586674074
0.024,1.7856,1.0,2538.792115876148,0.23664846197060366,1.329006966300002,0.9244099244681633,0.2880482,0.6548291330550683
0.0245,1.78499375,1.0,2555.390112095443,0.2409302597970101,1.3285769974314046,0.9267908311554254,0.2880227375,0.6557307294609782
0.025,1.784375,1.0,2570.9205881267785,0.24518804026818486,1.328151886896318,0.9290490456180956,0.28799675,0.6566209793570986
0.025500000000000002,1.78374375,1.0,2585.4340737887464,0.2494219360114494,1.3277310677205318,0.9311928193530862,0.2879702375,0.6575011073047199
0.026000000000000002,1.7831000000000001,1.0,2598.996137310095,0.2536320862126176,1.3273138455609057,0.9332297053002918,0.2879432,0.6583725972708278
0.0265,1.78244375,1.0,2611.646802317159,0.25781862188554244,1.3268997762377577,0.935166678715657,0.2879156375,0.6592364040041581
0.027,1.781775,1.0,2623.427071272118,0.2619816740380506,1.3264884157329926,0.9370101556630108,0.28788755,0.6600934770158182
0.0275,1.7810937500000001,1.0,2634.378858298835,0.26612137367796873,1.3260793200285168,0.9387660452699961,0.2878589375,0.6609447610004469
0.028,1.7804,1.0,2644.544909127704,0.2702378518131235,1.3256720451062354,0.9404397964863699,0.2878298,0.6617911959066396
0.0285,1.77969375,1.0,2653.968725410826,0.2743312394513415,1.3252661469480544,0.9420364399630616,0.2878001375,0.6626337169947917
0.029,1.778975,1.0,2662.67927608266,0.2784016628190656,1.3248613215802607,0.943560643463031,0.28776995,0.6634729647357349
0.029500000000000002,1.7782437500000001,1.0,2670.7270120846492,0.28244925637365786,1.3244570724595723,0.9450167027555331,0.2877392375,0.6643099749074102
0.03,1.7775,1.0,2678.1549133354943,0.28647415060096093,1.3240529770830571,0.9464086060459238,0.287708,0.6651456251390551
0.0305,1.77674375,1.0,2684.989646286579,0.29047647018735073,1.323648766950157,0.9477400701958902,0.2876762375,0.6659804708279429
0.031,1.775975,1.0,2691.2582368211133,0.294456339819203,1.323244173560315,0.9490145456707851,0.28764395,0.666815064602388
0.0315,1.7751937500000001,1.0,2696.9880381302564,0.29841388418289366,1.3228389284129731,0.9502352389543675,0.2876111375,0.6676499563174847
0.032,1.7744,1.0,2702.206700188038,0.3023492279647985,1.3224327630075738,0.9514051328162474,0.2875778,0.6684856930462428
0.0325,1.77359375,1.0,2706.942140824512,0.30626249585129345,1.3220254088435597,0.9525270046608665,0.2875439375,0.6693228190661296
0.033,1.772775,1.0,2711.2225183972146,0.31015381252875424,1.3216165974203729,0.9536034431601934,0.28750955,0.6701618758410135
0.0335,1.7719437500000002,1.0,2715.076206061253,0.3140233026835568,1.321206060237456,0.954636863349023,0.2874746375,0.6710034019985069
0.034,1.7711000000000001,1.0,2718.526602204316,0.31787108491094257,1.3207935758407312,0.9556295239990932,0.2874392,0.6718478370513936
0.0345,1.7702437500000001,1.0,2721.6005595585434,0.32169728835809963,1.3203788927559106,0.9565835356349567,0.2874032375,0.6726956794531147
0.035,1.7693750000000001,1.0,2724.3168145734985,0.32550203265625227,1.3199618346757485,0.9575008781420452,0.28736675,0.6735472715271971
0.035500000000000004,1.76849375,1.0,2726.6932371124044,0.3292854360755424,1.3195422341962595,0.9583834057065065,0.2873297375,0.6744029354746902
0.036000000000000004,1.7676,1.0,2728.74779553098,0.3330476168861118,1.3191199239134586,0.9592328556789218,0.2872922,0.6752629915863151
0.0365,1.76669375,1.0,2730.4985454721937,0.33678869335810224,1.3186947364233608,0.9600508572641641,0.2872541375,0.676127758214428
0.037,1.765775,1.0,2731.963619281897,0.3405087837616557,1.3182665043219806,0.9608389394708171,0.28721555,0.6769975517431974
0.0375,1.76484375,1.0,2733.161216045991,0.344208006366914,1.3178350602053333,0.9615985383907996,0.2871764375,0.6778726865569904
0.038,1.7639,1.0,2734.1095922487957,0.3478864794440189,1.3174002366694335,0.9623310038724212,0.28713679999999997,0.6787534750069758
0.0385,1.76294375,1.0,2734.813655003045,0.3515443048667046,1.316961987974992,0.9630376138203932,0.28709663750000003,0.6796399814379495
0.039,1.761975,1.0,2735.3007036343097,0.3551816172327913,1.3165200653868145,0.9637195587990858,0.28705595,0.6805326792331845
0.0395,1.7609937500000001,1.0,2735.588376832796,0.3587985380061586,1.3160743082276254,0.964377965752653,0.2870147375,0.6814318612194772
0.04,1.76,1.0,2735.6859186512715,0.3623951776322942,1.315624632281855,0.9650139017695076,0.286973,0.6823376642121933
0.0405,1.7589937500000001,1.0,2735.6025942882243,0.36597164655668574,1.315170953333934,0.9656283734287098,0.2869307375,0.6832502237709797
0.041,1.757975,1.0,2735.347686942825,0.36952805522482096,1.314713187168293,0.9662223308632457,0.28688795,0.6841696741784915
0.0415,1.75694375,1.0,2734.9304948274644,0.37306451408218755,1.3142512495693632,0.9667966715096217,0.2868446375,0.6850961484186664
0.042,1.7559,1.0,2734.3603283374705,0.3765811335742731,1.313785056321575,0.9673522435709945,0.28680079999999997,0.6860297781545474
0.0425,1.75484375,1.0,2733.6465073781415,0.38007802414656533,1.3133145232093586,0.9678898492184415,0.2867564375,0.6869706937056514
0.043000000000000003,1.753775,1.0,2732.7983588481634,0.38355529624455187,1.3128395660171455,0.9684102475526418,0.28671155,0.6879190240248856
0.043500000000000004,1.75269375,1.0,2731.82521428212,0.3870130603137204,1.3123601005293657,0.9689141573461432,0.28666613750000003,0.6888748966750146
0.044,1.7516,1.0,2730.7364076480144,0.39045142679955863,1.3118760425304503,0.9694022595845078,0.2866202,0.6898384378046708
0.0445,1.75049375,1.0,2729.5412733041017,0.39387050614755426,1.31138730780483,0.9698751998229476,0.2865737375,0.6908097721239161
0.045,1.7493750000000001,1.0,2728.2491441113943,0.39727040880319486,1.3108938121369353,0.9703335903735335,0.28652675,0.6917890228793493
0.0455,1.74824375,1.0,2726.8645834153403,0.4006512350016171,1.3103955146558732,0.9707780141714546,0.2864792375,0.692776226025241
0.046,1.7471,1.0,2725.3954088794735,0.4040130971146791,1.3098923448909017,0.9712090242431487,0.2864312,0.6937714750574568
0.0465,1.7459437500000001,1.0,2723.851706769494,0.40735611135090666,1.3093842116916292,0.9716271449670112,0.28638263750000004,0.6947749029207563
0.047,1.744775,1.0,2722.2376623039318,0.41068037991768924,1.3088710775449028,0.972032876795167,0.28633355,0.6957865352559012
0.0475,1.74359375,1.0,2720.557458685768,0.4139860050224161,1.3083529049375695,0.9724266956908673,0.28628393750000003,0.6968063967364867
0.048,1.7424,1.0,2718.8152765812133,0.4172730888724767,1.3078296563564764,0.9728090545523833,0.2862338,0.6978345110569313
0.0485,1.74119375,1.0,2717.0152936317822,0.4205417336752603,1.3073012942884705,0.9731803845413293,0.2861831375,0.698870900920379
0.049,1.739975,1.0,2715.161683995667,0.42379204163815637,1.3067677812203993,0.9735410963226542,0.28613195,0.6999155880265091
0.0495,1.73874375,1.0,2713.258617921558,0.42702411496855414,1.3062290796391096,0.9738915812229298,0.2860802375,0.7009685930592597
0.05,1.7375,1.0,2711.3102613532733,0.43023805587384306,1.3056851520314485,0.9742322123130138,0.286028,0.7020299356744586
0.0505,1.73624375,1.0,2709.320775565257,0.4334339665614124,1.3051359608842632,0.9745633454206635,0.2859752375,0.7030996344873641
0.051000000000000004,1.734975,1.0,2707.2943168298048,0.4366119492386516,1.3045814686844008,0.9748853200782168,0.28592195,0.7041777070601192
0.051500000000000004,1.73369375,1.0,2705.23503611523,0.43977210611295,1.3040216379187084,0.9751984604100494,0.2858681375,0.7052641698891128
0.052000000000000005,1.7324,1.0,2703.147078815062,0.4429145393916969,1.303456431074033,0.9755030759641268,0.2858138,0.7063590383922533
0.0525,1.73109375,1.0,2701.0354784514993,0.44603932381304845,1.3028858024689194,0.9757994590785692,0.28575893750000003,0.7074623426746134
0.053,1.729775,1.0,2698.9031246734016,0.44914659455684974,1.3023097259511036,0.9760878967399526,0.28570355000000003,0.7085740739648234
0.0535,1.72844375,1.0,2696.7517915303856,0.45223644675750935,1.3017281855313387,0.9763686598232075,0.2856476375,0.7096942029845856
0.054,1.7271,1.0,2694.583261178564,0.4553089744522944,1.3011411651228233,0.9766420073498264,0.2855912,0.7108226998356775
0.0545,1.7257437500000001,1.0,2692.399313137947,0.4583642716784721,1.3005486486387565,0.976908187216742,0.2855342375,0.7119595338055398
0.055,1.724375,1.0,2690.2017242366246,0.4614024324733096,1.2999506199923374,0.9771674367649704,0.28547675,0.7131046733616467
0.0555,1.72299375,1.0,2687.992268560565,0.464423550874074,1.299347063096765,0.9774199833146003,0.2854187375,0.7142580861458592
0.056,1.7216,1.0,2685.7727174087177,0.46742772091803253,1.2987379618652384,0.9776660446683768,0.2853602,0.7154197389687609
0.0565,1.72019375,1.0,2683.544839254473,0.4704150366424523,1.2981233002109565,0.9779058295859748,0.28530113749999997,0.7165895978039794
0.057,1.718775,1.0,2681.3103997126113,0.4733855920846005,1.2975030620471184,0.9781395382308842,0.28524155,0.7177676277824886
0.0575,1.71734375,1.0,2679.071161511581,0.4763394812817443,1.296877231286923,0.9783673625917028,0.2851814375,0.7189537931868968
0.058,1.7159,1.0,2676.828884472212,0.4792767982711509,1.2962457918435695,0.9785894868794945,0.2851208,0.720148057445716
0.0585,1.71444375,1.0,2674.5853254918025,0.48219763709008734,1.2956087276302568,0.9788060879027521,0.2850596375,0.7213503831276169
0.059000000000000004,1.7129750000000001,1.0,2672.34223853375,0.4851020917758209,1.294966022560184,0.9790173354213951,0.28499795,0.7225607319356666
0.059500000000000004,1.71149375,1.0,2670.1013746234707,0.48799025636561866,1.2943176605465503,0.9792233924811298,0.2849357375,0.7237790647015485
0.06,1.71,1.0,2667.861795267849,0.4908622043131611,1.2936636502030492,0.979424415386463,0.284873,0.7250052951193278
0.0605,1.7084937500000001,1.0,2665.6210867931445,0.49371800802244303,1.2930040137263883,0.9796205550419516,0.2848097375,0.7262393110338854
0.061,1.7069750000000001,1.0,2663.3875589470445,0.49655781890636946,1.2923386746763263,0.9798119575750213,0.28474595,0.727481183955641
0.0615,1.7054437500000001,1.0,2661.1614963081392,0.4993817213526611,1.291667630360914,0.9799987620604298,0.2846816375,0.7287308462999018
0.062,1.7039,1.0,2658.943182989349,0.5021897997490387,1.2909908780882022,0.9801811022991744,0.2846168,0.7299882298133196
0.0625,1.70234375,1.0,2656.7329026412376,0.5049821384832228,1.290308415166242,0.9803591070563986,0.2845514375,0.7312532655729109
0.063,1.7007750000000001,1.0,2654.530938456259,0.5077588219429344,1.289620238903084,0.9805329002868405,0.28448555,0.7325258839850783
0.0635,1.69919375,1.0,2652.3375731725537,0.510519934515894,1.2889263466067793,0.9807026013485597,0.28441913750000003,0.7338060147846277
0.064,1.6976,1.0,2650.1530890779372,0.5132655605898224,1.2882267355853783,0.980868325205638,0.2843522,0.7350935870337897
0.0645,1.69599375,1.0,2647.9777680144985,0.5159957845524402,1.2875214031469324,0.981030182620496,0.2842847375,0.7363885291212346
0.065,1.694375,1.0,2645.8118913830112,0.5187106907914684,1.286810346599492,0.9811882803364282,0.28421675,0.7376907687610946
0.0655,1.69274375,1.0,2643.6557401472355,0.5214103636946275,1.2860935632511081,0.9813427212509233,0.2841482375,0.7390002329919777
0.066,1.6911,1.0,2641.509594839234,0.5240948876496381,1.285371050409832,0.9814936045802976,0.2840792,0.7403168481759859
0.0665,1.6894437500000001,1.0,2639.3737355640615,0.5267643470442211,1.2846428053837136,0.9816410260161316,0.2840096375,0.7416405399977339
0.067,1.687775,1.0,2637.2484420045585,0.5294188262660973,1.2839088254808046,0.9817850778739781,0.28393955,0.742971233463361
0.0675,1.68609375,1.0,2635.133993427367,0.5320584097029872,1.2831691080091554,0.9819258492347706,0.2838689375,0.7443088528995514
0.068,1.6844000000000001,1.0,2633.0306686877184,0.5346831817426116,1.2824236502768172,0.9820634260793418,0.2837978,0.745653321952545
0.0685,1.68269375,1.0,2630.9387462352256,0.5372932267726913,1.2816724495918406,0.9821978914164318,0.2837261375,0.7470045635871558
0.069,1.680975,1.0,2628.8585041198,0.5398886291809469,1.2809155032622765,0.982329325404543,0.28365395,0.7483625000857841
0.0695,1.67924375,1.0,2626.7902199973714,0.5424694733550993,1.2801528085961758,0.9824578054679787,0.28358123749999997,0.7497270530474315
0.07,1.6775,1.0,2624.7341711360373,0.545035843682869,1.2793843629015893,0.9825834064073816,0.283508,0.7510981433867125
0.07050000000000001,1.67574375,1.0,2622.690634422325,0.5475878245519767,1.2786101634865676,0.9827062005050639,0.2834342375,0.7524756913328701
0.07100000000000001,1.673975,1.0,2620.6589259300604,0.5501254681902726,1.2778302165686175,0.9828262560690305,0.28335995,0.7538596006423314
0.07150000000000001,1.67219375,1.0,2618.6392539959534,0.5526488755506331,1.2770445200953306,0.9829436417303904,0.2832851375,0.7552497891745789
0.07200000000000001,1.6704,1.0,2616.632065629123,0.5551581468802367,1.2762530697960612,0.9830584236985724,0.2832098,0.7566461780237644
0.0725,1.66859375,1.0,2614.6371754433753,0.5576533572401488,1.2754558672674576,0.9831706647743107,0.2831339375,0.7580486772574386
0.073,1.6667750000000001,1.0,2612.6543983919487,0.5601345816914353,1.2746529141061687,0.9832804257174543,0.28305755,0.7594571963424411
0.0735,1.66494375,1.0,2610.68354976359,0.5626018952951617,1.2738442119088427,0.9833877653251947,0.2829806375,0.7608716441454875
0.074,1.6631,1.0,2608.7244451787865,0.5650553731123938,1.2730297622721285,0.9834927405067895,0.2829032,0.7622919289337532
0.0745,1.6612437500000001,1.0,2606.7769005862774,0.5674950902041973,1.272209566792675,0.9835954063549674,0.2828252375,0.76371795837546
0.075,1.659375,1.0,2604.840732259492,0.5699211216316377,1.2713836270671302,0.9836958162141778,0.28274675,0.7651496395404618
0.0755,1.65749375,1.0,2602.9157567928232,0.5723335424557807,1.2705519446921432,0.9837940217458475,0.2826677375,0.7665868789008276
