Time [s],Phi [rad],STIM [ ],Fsee [N],Gamma [ ],Lcerel [ ],q [ ],Lmtc [m],fisomrel [ ]
0.0,1.8,1.0,18.069264057345535,0.0003255215750822828,1.3793283231514466,0.005027474194816474,0.288653,0.5411671659920654
0.0005,1.79999375,1.0,18.480051753173967,0.005932904965318089,1.3792798667287494,0.013839644185720621,0.2886527375,0.5412843835912695
0.001,1.799975,1.0,22.05589707226441,0.011508835368188171,1.3788938401733517,0.0372716940476507,0.28865195,0.5422176590519472
0.0015,1.79994375,1.0,32.01665006369444,0.0170534892110846,1.377966093431913,0.07286587453025287,0.2886506375,0.5444567353820743
0.002,1.7999,1.0,55.542104748311914,0.022567041929530567,1.3762421370361688,0.11739136988811714,0.2886488,0.5486028517807933
0.0025,1.79984375,1.0,100.34491673970778,0.028049667976385903,1.3737809849275842,0.16747821111824773,0.28864643749999996,0.554489079421445
0.003,1.7997750000000001,1.0,165.1121345430319,0.033501540827074405,1.3710598472431899,0.220272416843518,0.28864354999999997,0.5609521357265963
0.0035,1.79969375,1.0,242.3528474160986,0.038922832981351324,1.368441600373013,0.2735864637177619,0.2886401375,0.5671262344214698
0.004,1.7996,1.0,326.4206947429476,0.04431371597328735,1.3660253835297755,0.325793427839317,0.2886362,0.5727851358797218
0.0045000000000000005,1.7994937500000001,1.0,414.38834383933164,0.04967436037674786,1.3638029879689393,0.37576501269439494,0.2886317375,0.5779572255895147
0.005,1.799375,1.0,504.63082438979825,0.055004935796917794,1.3617477627782446,0.4228013050411555,0.28862675,0.5827122325412464
0.0055,1.79924375,1.0,596.0488046545568,0.06030561090849685,1.3598363264893278,0.46653766490554927,0.2886212375,0.5871103894727865
0.006,1.7991000000000001,1.0,687.7771295140283,0.06557655342367853,1.3580510031819182,0.5068521314278724,0.2886152,0.5911973186237948
0.006500000000000001,1.79894375,1.0,779.1037678104334,0.0708179300974757,1.35637825184971,0.5437866861575698,0.2886086375,0.5950081046190836
0.007,1.798775,1.0,869.4441913443944,0.07602990685167685,1.3548071945860956,0.5774864627882138,0.28860155,0.5985709651465069
0.0075,1.79859375,1.0,958.3075999018877,0.08121264841363017,1.3533289869106013,0.6081558279364275,0.2885939375,0.601908887145179
0.008,1.7984,1.0,1045.3204020172648,0.08636631906071134,1.351935678566451,0.6360275096849448,0.2885858,0.6050423410458283
0.0085,1.79819375,1.0,1130.1623718470762,0.09149108164049108,1.3506206833619685,0.6613428905726914,0.2885771375,0.6079883175981704
0.009000000000000001,1.797975,1.0,1212.589849368462,0.09658709813507689,1.3493780183772583,0.6843389189315019,0.28856795,0.610762118223151
0.0095,1.79774375,1.0,1292.4407719875862,0.10165453030369785,1.3482019871585507,0.7052404745226107,0.2885582375,0.6133781126876166
0.01,1.7975,1.0,1369.5797767536856,0.10669353823369623,1.3470877155599164,0.7242566759820657,0.288548,0.6158485896281843
0.0105,1.79724375,1.0,1443.9181030372247,0.11170428104923585,1.3460306860499203,0.741578904202254,0.2885372375,0.6181848351780024
0.011,1.796975,1.0,1515.4099262573302,0.11668691725728424,1.3450266541908076,0.7573804963070079,0.28852595000000003,0.6203973466131916
0.0115,1.79669375,1.0,1584.0607977771772,0.12164160557588927,1.3440714455509988,0.7718172592356317,0.2885141375,0.6224963021570347
0.012,1.7964,1.0,1649.8581016811222,0.12656850197182115,1.3431616995071638,0.7850288943330909,0.28850180000000003,0.6244899489520249
0.0125,1.79609375,1.0,1712.816918224115,0.13146776192865045,1.3422942117676306,0.7971400020613281,0.2884889375,0.6263860733111494
0.013000000000000001,1.7957750000000001,1.0,1772.984262682113,0.13633954063792034,1.3414658316491974,0.8082614577043514,0.28847555,0.6281922379340624
0.0135,1.79544375,1.0,1830.4254032448362,0.14118399290822103,1.3406735731918833,0.818491863473498,0.2884616375,0.6299155501552122
0.014,1.7951000000000001,1.0,1885.2005339311504,0.14600127210990269,1.339914825239909,0.8279189530508572,0.2884472,0.6315622180552366
0.0145,1.79474375,1.0,1937.364709922324,0.15079152982454774,1.339187297940378,0.8366207858091632,0.2884322375,0.6331376814920447
0.015,1.794375,1.0,1986.9939194823114,0.15555491763373872,1.338488701440395,0.8446667479954537,0.28841675,0.6346473182308519
0.0155,1.79399375,1.0,2034.1666612717722,0.1602915860391813,1.3378169207673085,0.8521186249826642,0.2884007375,0.6360960715666263
0.016,1.7936,1.0,2078.9866314855108,0.1650016866899482,1.3371697523844013,0.8590314152446317,0.2883842,0.637489024480362
0.0165,1.7931937500000001,1.0,2121.525877358554,0.169685367740181,1.3365454795642289,0.8654543055800679,0.2883671375,0.6388301664058776
0.017,1.792775,1.0,2161.8573857133383,0.17434277651400787,1.335942502151312,0.87143124557214,0.28834955,0.6401231991336598
0.0175,1.7923437500000001,1.0,2200.0650410049734,0.17897406033555685,1.335359219990171,0.8770015325433076,0.2883314375,0.6413717907129597
0.018000000000000002,1.7919,1.0,2236.2371948202845,0.1835793658965082,1.3347940881883935,0.8822003728178159,0.2883128,0.6425794595475198
0.0185,1.79144375,1.0,2270.4644736130426,0.1881588398283066,1.3342456281968573,0.8870593620086586,0.2882936375,0.6437495536711997
0.019,1.790975,1.0,2302.8310837173094,0.19271262767488825,1.3337125037097353,0.891606920149315,0.28827395,0.6448850920528697
0.0195,1.79049375,1.0,2333.404333975093,0.1972408721850723,1.3331936120317707,0.8958686746545819,0.2882537375,0.6459885743023657
0.02,1.79,1.0,2362.2572103317575,0.20174371610767802,1.332687850467707,0.8998677217484011,0.288233,0.647062481349415
0.0205,1.78949375,1.0,2389.46790333053,0.20622130219152462,1.3321941163222875,0.9036249105483636,0.2882117375,0.6481092764057862
0.021,1.788975,1.0,2415.109168756536,0.2106737715878303,1.3317114054045256,0.907159112822287,0.28818995000000003,0.6491311974635028
0.021500000000000002,1.78844375,1.0,2439.2654467763928,0.2151012675556533,1.3312386409537467,0.9104874049270869,0.2881676375,0.6501306209793205
0.022,1.7879,1.0,2462.003618226076,0.21950393010143487,1.3307749517568028,0.9136253164197611,0.2881448,0.6511094747776938
0.0225,1.78734375,1.0,2483.3804442000505,0.2238818970301007,1.3303195933884155,0.9165869784812649,0.28812143749999997,0.652069407601122
0.023,1.786775,1.0,2503.4553801652246,0.22823530614657633,1.3298718214233067,0.9193852471325039,0.28809755,0.6530120581341519
0.0235,1.78619375,1.0,2522.290351430395,0.23256429525578742,1.329430891436198,0.9220318359439437,0.28807313749999996,0.6539390553812241
0.024,1.7856,1.0,2539.949540902266,0.23686900216265958,1.3289960590018113,0.9245374333482916,0.2880482,0.6548520190091732
0.0245,1.78499375,1.0,2556.4872816591323,0.24114956128521714,1.3285666915316114,0.9269118245293232,0.2880227375,0.6557523253060297
0.025,1.784375,1.0,2571.9734895260885,0.24540611283316208,1.3281420266834425,0.9291639441706476,0.28799675,0.6566416145538359
0.025500000000000002,1.78374375,1.0,2586.452637091706,0.24963878963745495,1.3277215558506286,0.9313020186857023,0.2879702375,0.6575209879810056
0.026000000000000002,1.7831000000000001,1.0,2599.9691823944604,0.253847724145712,1.3273047824586377,0.9333335977194143,0.2879432,0.6583915158791578
0.0265,1.78244375,1.0,2612.5687402621647,0.25803304880554945,1.3268912099329377,0.935265617313038,0.2879156375,0.6592542629737884
0.027,1.781775,1.0,2624.2979821853837,0.2621948960645835,1.3264803416989968,0.9371044580050039,0.28788755,0.6601102885335024
0.0275,1.7810937500000001,1.0,2635.20454165804,0.2663333983704304,1.326071681182283,0.9388559967226913,0.2878589375,0.6609606464635192
0.028,1.7804,1.0,2645.3269498963004,0.27044868448622433,1.3256648239092028,0.9405256652586754,0.2878298,0.6618061940949871
0.0285,1.77969375,1.0,2654.714379732963,0.2745408893325782,1.3252592739453346,0.9421184679554805,0.2878001375,0.6626479742109496
0.029,1.778975,1.0,2663.406379690163,0.2786101432598682,1.324854630525211,0.9436390423355134,0.28776995,0.6634868272523238
0.029500000000000002,1.7782437500000001,1.0,2671.4339751290076,0.28265657278794826,1.3244505765405363,0.9450916900373664,0.2877392375,0.6643234163983214
0.03,1.7775,1.0,2678.828666525666,0.2866803044366725,1.3240467948830152,0.9464803961289449,0.287708,0.6651584015498886
0.0305,1.77674375,1.0,2685.6223867524036,0.2906814647258948,1.323642968444352,0.9478088564213107,0.2876762375,0.6659924393384189
0.031,1.775975,1.0,2691.847460587782,0.2946601801754693,1.3232387801162515,0.9490805021033288,0.28764395,0.6668261831280536
0.0315,1.7751937500000001,1.0,2697.536566456205,0.29861657730525,1.322833912790418,0.9502985219889494,0.2876111375,0.6676602830115713
0.032,1.7744,1.0,2702.7227003974076,0.3025507826350909,1.322428049358556,0.9514658826343197,0.2875778,0.6684953857998615
0.0325,1.77359375,1.0,2707.431952904729,0.30646291731509256,1.3220209383266832,0.9525853528070563,0.2875439375,0.669332000252559
0.033,1.772775,1.0,2711.6966824329434,0.3103531120724822,1.3216122731342685,0.9536595095718191,0.28750955,0.6701707454381653
0.0335,1.7719437500000002,1.0,2715.537973771159,0.3142214881271526,1.3212018519881321,0.9546907665820921,0.2874746375,0.6710120225745985
0.034,1.7711000000000001,1.0,2718.9762713387167,0.31806816597093795,1.320789480446588,0.9556813783348571,0.2874392,0.6718562156722196
0.0345,1.7702437500000001,1.0,2722.03216764013,0.3218932660956724,1.3203749640679499,0.9566334519612311,0.2874032375,0.6727037066277419
0.035,1.7693750000000001,1.0,2724.726387755276,0.32569690899319015,1.3199581084105316,0.9575489585811866,0.28736675,0.6735548751988345
0.035500000000000004,1.76849375,1.0,2727.079774668985,0.3294792151553253,1.3195387190326473,0.958429743657512,0.2873297375,0.6744100989763231
0.036000000000000004,1.7676,1.0,2729.11327543773,0.3332403050739121,1.3191166014926106,0.9592775364476215,0.2872922,0.6752697533539744
0.0365,1.76669375,1.0,2730.844150545759,0.33698029468114243,1.318691595677682,0.9600939610921553,0.2872541375,0.6761341417232556
0.037,1.765775,1.0,2732.288006971907,0.340699299161284,1.3182635571777115,0.9608805433280071,0.28721555,0.6770035337136147
0.0375,1.76484375,1.0,2733.4743534570434,0.34439745286232337,1.3178322158930862,0.9616387080393803,0.2871764375,0.6778784519786054
0.038,1.7639,1.0,2734.4150992836658,0.3480748690103454,1.3173974621453273,0.962369805546602,0.28713679999999997,0.6787590912745713
0.0385,1.76294375,1.0,2735.122196314652,0.3517316608314348,1.3169591862559564,0.9630751060631176,0.28709663750000003,0.679645644923348
0.039,1.761975,1.0,2735.6076336971437,0.35536794155167645,1.3165172785464954,0.9637558053158269,0.28705595,0.6805383047880111
0.0395,1.7609937500000001,1.0,2735.8834328336416,0.35898382439715504,1.3160716293384658,0.9644130297127456,0.2870147375,0.6814372612478556
0.04,1.76,1.0,2735.961642619175,0.3625794225939553,1.3156221289533891,0.9650478410989106,0.286973,0.682342703172609
0.0405,1.7589937500000001,1.0,2735.854334945616,0.3661548493681621,1.315168667712787,0.965661241137362,0.2869307375,0.6832548178958766
0.041,1.757975,1.0,2735.5736004722057,0.36971021794586023,1.3147111359381811,0.966254175348399,0.28688795,0.6841737911878178
0.0415,1.75694375,1.0,2735.1315446635817,0.37324564155313444,1.314249423951093,0.9668275368370608,0.2868446375,0.6850998072270609
0.042,1.7559,1.0,2734.5402840936217,0.3767612334160695,1.3137834220730442,0.9673821697358824,0.28680079999999997,0.6860330485718424
0.0425,1.75484375,1.0,2733.8119430168254,0.38025710676075014,1.3133130206255565,0.9679188723873816,0.2867564375,0.6869736961303877
0.043000000000000003,1.753775,1.0,2732.9521162315505,0.3837333647996405,1.3128381692839497,0.9684384035234777,0.28671155,0.6879218107113101
0.043500000000000004,1.75269375,1.0,2731.9721357592075,0.3871901258319223,1.3123587656550704,0.9689414797868009,0.28666613750000003,0.6888775558623752
0.044,1.7516,1.0,2730.883205212832,0.39062750515894984,1.3118747085160967,0.9694287797609922,0.2866202,0.6898410911607136
0.0445,1.75049375,1.0,2729.691063100061,0.39404560822020807,1.3113859463011601,0.9699009491241845,0.2865737375,0.6908124759124077
0.045,1.7493750000000001,1.0,2728.401449072617,0.39744454045518185,1.3108924274443916,0.9703586003380933,0.28652675,0.6917917683601202
0.0455,1.74824375,1.0,2727.020102881252,0.4008244073033562,1.3103941003799224,0.9708023146764437,0.2864792375,0.6927790256675339
0.046,1.7471,1.0,2725.5527633893894,0.404185314204216,1.309890913541884,0.9712326441105862,0.2864312,0.6937743039036245
0.0465,1.7459437500000001,1.0,2724.0051676456824,0.40752736659724614,1.3093828153644071,0.9716501130636351,0.28638263750000004,0.694777658026764
0.047,1.744775,1.0,2722.3830500154695,0.4108506699219316,1.3088697542816232,0.9720552200434615,0.28633355,0.6957891418686534
0.0475,1.74359375,1.0,2720.692141371601,0.41415532961775725,1.3083516787276634,0.9724484391639786,0.28628393750000003,0.6968088081180862
0.048,1.7424,1.0,2718.9381683433126,0.41744145112420805,1.3078285371366591,0.9728302215633358,0.2862338,0.6978367083045423
0.0485,1.74119375,1.0,2717.126852625388,0.42070913988076897,1.3073002779427414,0.9732009967269064,0.2861831375,0.6988728927816132
0.049,1.739975,1.0,2715.2639103449424,0.42395850132692486,1.306766849580041,0.9735611737222787,0.28613195,0.6999174107102566
0.0495,1.73874375,1.0,2713.3519807026564,0.4271896200661969,1.3062282284778932,0.9739111417840206,0.2860802375,0.7009702553676379
0.05,1.7375,1.0,2711.4002728412866,0.43040262503491206,1.3056843311279513,0.9742512731950029,0.286028,0.7020315360422735
0.0505,1.73624375,1.0,2709.411878742334,0.4335976168877216,1.3051351297196667,0.9745819234117064,0.2859752375,0.7031012519482212
0.051000000000000004,1.734975,1.0,2707.3893616887203,0.43677469320662676,1.3045806012343817,0.9749034315957432,0.28592195,0.704179392065378
0.051500000000000004,1.73369375,1.0,2705.3352819023467,0.43993395157362897,1.3040207226534382,0.9752161215402066,0.2858681375,0.7052659445066366
0.052000000000000005,1.7324,1.0,2703.252196387628,0.4430754895707294,1.303455470958179,0.9755203024981232,0.2858138,0.7063608965100441
0.0525,1.73109375,1.0,2701.1426587870724,0.4461994047799294,1.302884823129946,0.975816269959261,0.28575893750000003,0.7074642344309355
0.053,1.729775,1.0,2699.0092192479237,0.4493057947832304,1.3023087561500815,0.9761043063789315,0.28570355000000003,0.7085759437340262
0.0535,1.72844375,1.0,2696.8544243012334,0.45239475716263367,1.301727246999928,0.9763846818621379,0.2856476375,0.7096960089854736
0.054,1.7271,1.0,2694.6808167523886,0.4554663895001404,1.3011402726608277,0.976657654806165,0.2855912,0.7108244138449056
0.0545,1.7257437500000001,1.0,2692.490935583127,0.45852078937775204,1.3005478101141226,0.9769234725044668,0.2855342375,0.7119611410574149
0.055,1.724375,1.0,2690.2873158657894,0.46155805437746983,1.299949836341155,0.9771823717144837,0.28547675,0.7131061724455177
0.0555,1.72299375,1.0,2688.0724886890257,0.46457828208129515,1.2993463283232676,0.9774345791918331,0.2854187375,0.7142594889010794
0.056,1.7216,1.0,2685.8489810952483,0.46758157007122925,1.2987372630418024,0.9776803121931205,0.2853602,0.7154210703772097
0.0565,1.72019375,1.0,2683.6185047863614,0.47056801532628356,1.298122624914768,0.9779197793254717,0.28530113749999997,0.7165908817408437
0.057,1.718775,1.0,2681.3830072789633,0.47353771022586844,1.2975023961720227,0.9781531800641593,0.28524155,0.7177688911731661
0.0575,1.71734375,1.0,2679.1443659284196,0.47649074760729987,1.2968765596577192,0.9783807058203514,0.2851814375,0.7189550648144027
0.058,1.7159,1.0,2676.9026180482083,0.47942722055156073,1.2962451150762486,0.9786025412271359,0.2851208,0.7201493360760849
0.0585,1.71444375,1.0,2674.655929581899,0.48234722206859026,1.2956080793151463,0.9788188644570941,0.2850596375,0.7213516053686548
0.059000000000000004,1.7129750000000001,1.0,2672.4121211521865,0.4852508447793788,1.2949653806006247,0.9790298416597117,0.28499795,0.7225619395635479
0.059500000000000004,1.71149375,1.0,2670.1811219982346,0.4881381807554852,1.2943169276601625,0.9792356312977673,0.2849357375,0.7237804403465646
0.06,1.7100042960458477,1.0,2668.145367990114,0.4910093208738556,1.293662983247163,0.9794364047107168,0.2848731804339256,0.725006544229517
0.0605,1.7085146594982739,1.0,2666.669975217873,0.4938643560114362,1.2930038101150285,0.9796323266230601,0.2848106156989275,0.726239691511723
0.061,1.7070250229507,1.0,2665.729602678235,0.4967033765986858,1.2923397195326858,0.9798235580074464,0.2847480509639294,0.7274792359169344
0.0615,1.7055353864031262,1.0,2665.274404063624,0.4995264729121373,1.291671167406603,0.9800102613721423,0.2846854862289313,0.7287242669122109
0.062,1.7040457498555526,1.0,2665.267607030772,0.5023337337796862,1.2909984908430623,0.9801925868272916,0.2846229214939332,0.7299741018082277
0.0625,1.7025561133079787,1.0,2665.6732871493064,0.5051252479264305,1.2903220202508665,0.9803706785625729,0.2845603567589351,0.7312280757571922
0.063,1.701066476760405,1.0,2666.4646131887685,0.507901101493872,1.28964200324704,0.9805446710150578,0.284497792023937,0.7324856822545973
0.0635,1.699576840212831,1.0,2667.5966377728714,0.5106613862828443,1.2889588546761843,0.9807147026790276,0.2844352272889389,0.7337461106639918
0.064,1.6980872036652572,1.0,2669.0391143742568,0.5134061903475549,1.2882728545565572,0.9808808999662652,0.2843726625539408,0.7350088052481316
0.0645,1.6965975671176834,1.0,2670.7715682533913,0.5161355989586168,1.2875841933417305,0.9810433800658482,0.2843100978189427,0.7362733792729151
0.065,1.6951079305701098,1.0,2672.773547206831,0.5188496973866432,1.286893061485277,0.9812022559996982,0.2842475330839446,0.7375394492079245
0.0655,1.693618294022536,1.0,2675.024610732507,0.521548570902247,1.286199649440769,0.9813576368059268,0.2841849683489465,0.7388066347575922
0.066,1.692128657474962,1.0,2677.5043199994243,0.5242323047760412,1.2855041476617792,0.9815096277128972,0.2841224036139484,0.7400745588900541
0.0665,1.6906390209273883,1.0,2680.1922286210574,0.526900984278639,1.2848067466018798,0.9816583303045313,0.2840598388789503,0.7413428478636883
0.067,1.6891493843798144,1.0,2683.067874233485,0.5295546946806533,1.2841076367146431,0.9818038426773589,0.2839972741439522,0.7426111312513405
0.0675,1.6876597478322406,1.0,2686.116855688586,0.5321935182753017,1.2834069527001226,0.9819462567130457,0.2839347094089541,0.7438791427335155
0.068,1.686170111284667,1.0,2689.319375697659,0.5348175420285061,1.2827048785264887,0.9820856638400923,0.283872144673956,0.7451465295195256
0.0685,1.6846804747370931,1.0,2692.6619304140354,0.5374268491665868,1.282001540257583,0.9822221494408707,0.2838095799389579,0.7464130462128532
0.069,1.6831908381895193,1.0,2696.1347522924266,0.5400215207762703,1.2812970295772879,0.982355794298845,0.28374701520395984,0.7476785113233242
0.0695,1.6817012016419455,1.0,2699.728057591769,0.5426016379442831,1.280591438169484,0.9824866765211573,0.28368445046896174,0.7489427449808055
0.07,1.6802115650943716,1.0,2703.432044085334,0.5451672817573519,1.279884857718054,0.9826148716478744,0.28362188573396363,0.7502055689417879
0.07050000000000001,1.678721928546798,1.0,2707.2368889570093,0.547718533302203,1.2791773799068786,0.9827404527560847,0.2835593209989655,0.7514668065954413
0.07100000000000001,1.6772322919992242,1.0,2711.132746883792,0.5502554736655633,1.27846909641984,0.9828634905591237,0.2834967562639674,0.7527262829691259
0.07150000000000001,1.6757426554516504,1.0,2715.109748305077,0.552778183934159,1.2777600989408193,0.9829840535011868,0.2834341915289693,0.7539838247333746
0.07200000000000001,1.6742530189040765,1.0,2719.1647450803557,0.5552867372977595,1.277050417707697,0.9831022045986866,0.2833716267939712,0.7552393687754805
0.0725,1.6727633823565027,1.0,2723.283262375468,0.5577812230883914,1.276340185970058,0.9832180104457106,0.2833090620589731,0.7564926709758729
0.073,1.671273745808929,1.0,2727.4578785268113,0.5602617218751995,1.2756294724615598,0.9833315321636914,0.283246497323975,0.7577436030311296
0.0735,1.6697841092613552,1.0,2731.6846295190585,0.562728309876871,1.2749183143048355,0.9834428273140229,0.2831839325889769,0.7589920933028944
