Time [s],Phi [rad],STIM [ ],Fsee [N],Gamma [ ],Lcerel [ ],q [ ],Lmtc [m],fisomrel [ ]
0.0,1.8,1.0,17.967828489326735,1.4949477085545019e-05,1.3793396711219683,0.005000059374504086,0.288653,0.541139712733026
0.0005,1.79999375,1.0,18.27876651082665,0.005624074931137632,1.3793021631503593,0.01295425967548975,0.2886527375,0.5412304497112828
0.001,1.799975,1.0,21.624038536734936,0.011201737626290393,1.3789377243743564,0.03563436986908658,0.28865195,0.5421116104782664
0.0015,1.79994375,1.0,31.0826280497979,0.016748114044610043,1.378045062895605,0.0706370101527275,0.2886506375,0.5442663597584763
0.002,1.7999,1.0,53.61115837090095,0.022263379676504363,1.3763662654536186,0.11475964868563043,0.2886488,0.5483049560857662
0.0025,1.79984375,1.0,97.16725181648688,0.027747709028319037,1.3739328394044965,0.16462016343965485,0.28864643749999996,0.5541270140780964
0.003,1.7997750000000001,1.0,161.02117137144245,0.03320127563001124,1.3712119856667186,0.2173271590849107,0.28864354999999997,0.5605920334737624
0.0035,1.79969375,1.0,237.75458963553422,0.038624252034775174,1.3685825394598914,0.270659343545032,0.2886401375,0.5667949987413827
0.004,1.7996,1.0,321.54263849571703,0.044016809829815644,1.3661540830835026,0.3229607842712381,0.2886362,0.5724846538306105
0.0045000000000000005,1.7994937500000001,1.0,409.3463690417774,0.049379119641535074,1.3639209687851441,0.3730772091812045,0.2886317375,0.5776834454033232
0.005,1.799375,1.0,499.4937507309452,0.05471135112662998,1.3618566371825036,0.42028741265115516,0.28862675,0.5824610144354909
0.0055,1.79924375,1.0,590.8714215198438,0.06001367301938612,1.3599372524630593,0.4642106885157694,0.2886212375,0.5868787445451018
0.006,1.7991000000000001,1.0,682.5992432709264,0.06528625307528,1.3581449399739247,0.5047139569064771,0.2886152,0.590982786897557
0.006500000000000001,1.79894375,1.0,773.9644084046071,0.07052925812721993,1.3564658342210674,0.5418318172500404,0.2886086375,0.5948090211513983
0.007,1.798775,1.0,864.3686056490671,0.07574285406285576,1.3548890576328034,0.5757050782129457,0.28860155,0.5983857039939436
0.0075,1.79859375,1.0,953.323199110376,0.08092720585345935,1.3534055489849892,0.606535667022741,0.2885939375,0.6017363454930433
0.008,1.7984,1.0,1040.4356775859205,0.08608247751934987,1.3520075094126864,0.6345554677312356,0.2885858,0.6048811011386399
0.0085,1.79819375,1.0,1125.3964357061072,0.09120883219685134,1.3506880777539993,0.6600056477274598,0.2885771375,0.6078376024273116
0.009000000000000001,1.797975,1.0,1207.9609980327555,0.09630643204883575,1.3494412040628585,0.6831236171078165,0.28856795,0.6106213166552924
0.0095,1.79774375,1.0,1287.94991057149,0.10137543849943235,1.3482613602224796,0.7041351535617556,0.2885582375,0.6132462531122078
0.01,1.7975,1.0,1365.225253541413,0.1064160115587432,1.3471436372049486,0.7232503055318429,0.288548,0.6157247932019103
0.0105,1.79724375,1.0,1439.7066110905628,0.11142831060517847,1.346083356750712,0.7406613736743729,0.2885372375,0.6180685911357124
0.011,1.796975,1.0,1511.3802680566118,0.11641249588929807,1.3450758444967164,0.756542489991559,0.28852595000000003,0.6202890993140244
0.0115,1.79669375,1.0,1580.190859646931,0.12136872370368623,1.3441176486356052,0.7710507550998833,0.2885141375,0.6223949103874431
0.012,1.7964,1.0,1646.1294259373362,0.12629715034092717,1.3432053173600214,0.7843266907279183,0.28850180000000003,0.6243944838514255
0.0125,1.79609375,1.0,1709.229337652264,0.13119793209360509,1.3423353988626083,0.796495582830074,0.2884889375,0.6262961565228918
0.013000000000000001,1.7957750000000001,1.0,1769.5433235952744,0.13607122446341074,1.3415046576618095,0.8076689953605402,0.28847555,0.6281076811074309
0.0135,1.79544375,1.0,1827.1292395885882,0.14091718209762244,1.340710176115449,0.8179462066925163,0.2884616375,0.6298360200617977
0.014,1.7951000000000001,1.0,1882.0351135309652,0.14573595757143354,1.3399494608161635,0.8274155679813108,0.2884472,0.6314871303915808
0.0145,1.79474375,1.0,1934.3286413388853,0.15052770322546982,1.3392200669647056,0.8361555893143431,0.2884322375,0.6330667926290199
0.015,1.794375,1.0,1984.081698119621,0.1552925704773986,1.3385197379382614,0.8442361202585572,0.28841675,0.634580315772356
0.0155,1.79399375,1.0,2031.397268832904,0.16003071167323765,1.337846090100809,0.8517192582231853,0.2884007375,0.6360332251390183
0.016,1.7936,1.0,2076.344400718439,0.16474227581263315,1.3371972801099365,0.858660472414006,0.2883842,0.6374298287195823
0.0165,1.7931937500000001,1.0,2118.995732516764,0.1694274112680779,1.336571573412849,0.8651092502743156,0.2883671375,0.6387741580688752
0.017,1.792775,1.0,2159.4364309979355,0.1740862664120647,1.335967235456751,0.8711097733498993,0.28834955,0.6400702063123345
0.0175,1.7923437500000001,1.0,2197.752159958369,0.17871898860479468,1.3353826426980115,0.8767015746892562,0.2883314375,0.6413216931661285
0.018000000000000002,1.7919,1.0,2234.039619205825,0.1833257259974029,1.3348161620851953,0.8819200528828032,0.2883128,0.6425323265514677
0.0185,1.79144375,1.0,2268.374379320087,0.18790662368642083,1.3342664633110424,0.8867970329314534,0.2882936375,0.6437051387293609
0.019,1.790975,1.0,2300.8290527363147,0.19246182568481504,1.3337323199633895,0.8913611274399903,0.28827395,0.6448429164918809
0.0195,1.79049375,1.0,2331.4828672595245,0.196991476005552,1.333212505630072,0.8956380794123115,0.2882537375,0.6459484250374017
0.02,1.79,1.0,2360.41763623937,0.20149571811165515,1.332705827816552,0.899651095641492,0.288233,0.6470243371712463
0.0205,1.78949375,1.0,2387.71190960414,0.20597469490128534,1.332211178699891,0.9034211427596747,0.2882117375,0.6480731273814705
0.021,1.788975,1.0,2413.4482238867063,0.21042854998595023,1.33172745813452,0.9069671788856776,0.28818995000000003,0.6490972369885533
0.021500000000000002,1.78844375,1.0,2437.6864909562355,0.21485742261859053,1.3312538253707535,0.9103064238035016,0.2881676375,0.6500985432947779
0.022,1.7879,1.0,2460.4900719434436,0.2192614520521469,1.3307894396589062,0.9134544942109929,0.2881448,0.6510789113843969
0.0225,1.78734375,1.0,2481.925491803806,0.22364077753956008,1.330333460249292,0.9164255751222676,0.28812143749999997,0.6520401946419944
0.023,1.786775,1.0,2502.0621695521786,0.22799553833377073,1.3298850463922254,0.9192325709505688,0.28809755,0.6529842352257631
0.0235,1.78619375,1.0,2520.9273704987568,0.23232587070341648,1.3294437810023894,0.9218873172314838,0.28807313749999996,0.653911974358577
0.024,1.7856,1.0,2538.6674347328712,0.23663191600768846,1.3290081414137729,0.9244004108869596,0.2880482,0.6548266673579555
0.0245,1.78499375,1.0,2555.3102289645176,0.24091380905347987,1.3285777478736,0.9267817389385752,0.2880227375,0.6557291568951304
0.025,1.7843778618145343,1.0,2571.007346460923,0.24517168380293436,1.328152366777766,0.9290403715200527,0.28799687019621045,0.6566199750578782
0.025500000000000002,1.783761320263763,1.0,2586.2091418687723,0.2494056742181957,1.327731764522165,0.9311846173841909,0.287970975451078,0.6574996509030238
0.026000000000000002,1.7831447787129917,1.0,2600.9675932442083,0.2536159142614076,1.327315707502691,0.9332220981237986,0.28794508070594566,0.6583687105293778
0.0265,1.7825282371622204,1.0,2615.303696701945,0.2578025378947138,1.3269039621152388,0.9351598142582803,0.28791918596081323,0.6592276771471892
0.027,1.7819116956114494,1.0,2629.235988934992,0.2619656783540024,1.3264963212786092,0.9370042079619656,0.28789329121568086,0.6600770159168853
0.0275,1.781295154060678,1.0,2642.769633633046,0.26610546758019316,1.3260927047082587,0.9387612301699725,0.2878673964705485,0.6609169258164937
0.028,1.7806786125099068,1.0,2655.9147754365704,0.27022203591037364,1.325692988048967,0.9404363599972719,0.2878415017254161,0.6617476962236463
0.0285,1.7800620709591355,1.0,2668.6828358108837,0.2743155131820962,1.3252970373877409,0.9420346534597341,0.2878156069802837,0.6625696347792052
0.029,1.7794455294083642,1.0,2681.0795220169744,0.27838601623002884,1.3249047733844521,0.9435607858427947,0.28778971223515126,0.6633829344132584
0.029500000000000002,1.778828987857593,1.0,2693.1020583996074,0.2824336408077797,1.3245161958968878,0.9450190861786925,0.2877638174900189,0.6641876230886885
0.03,1.7782124463068218,1.0,2704.7972207783596,0.28645859104393356,1.3241308531512006,0.9464135425983377,0.2877379227448865,0.6649846621029172
0.0305,1.7775959047560506,1.0,2716.172978600411,0.29046098736897225,1.3237486515719896,0.9477478704233011,0.28771202799975415,0.6657742685118574
0.031,1.7769793632052793,1.0,2727.2374543765677,0.29444095021337763,1.3233694975838548,0.9490255186046272,0.2876861332546217,0.666556658266471
0.0315,1.776362821654508,1.0,2737.9989172616542,0.2983986000076316,1.3229932976113958,0.9502496921467279,0.28766023850948935,0.6673320462312382
0.032,1.7757462801037367,1.0,2748.465776828333,0.3023340571822159,1.3226199580792126,0.9514233723829872,0.2876343437643569,0.6681006462020636
0.0325,1.7751297385529656,1.0,2758.646577035782,0.30624744216761246,1.3222493854119048,0.9525493353319828,0.28760844901922455,0.6688626709236276
0.033,1.7745131970021943,1.0,2768.5499903919895,0.3101388753943032,1.3218814860340724,0.9536301683366024,0.2875825542740922,0.6696183321061775
0.0335,1.773896655451423,1.0,2778.184812310391,0.3140084772927698,1.3215161663703145,0.954668285165008,0.28755665952895976,0.6703678404417609
0.034,1.7732801139006518,1.0,2787.559955660942,0.3178563682934943,1.3211533328452316,0.9556659397320001,0.2875307647838274,0.6711114056198976
0.0345,1.7726635723498805,1.0,2796.6844455145388,0.32168266882695845,1.3207928918834229,0.9566252385814151,0.28750487003869496,0.6718492363426996
0.035,1.7720470307991092,1.0,2805.567414082543,0.3254874993236441,1.3204347499094882,0.9575481522544829,0.2874789752935626,0.6725815403394253
0.035500000000000004,1.7714304892483381,1.0,2814.21809584965,0.3292709802140332,1.3200788133480275,0.9584365256552384,0.2874530805484302,0.6733085243804803
0.036000000000000004,1.7708139476975668,1.0,2822.645822901398,0.33303323192860756,1.3197249886236402,0.9592920875119233,0.2874271858032978,0.6740303942908583
0.0365,1.7701974061467955,1.0,2830.8600204456525,0.3367743748978489,1.3193731821609265,0.9601164590225847,0.2874012910581654,0.674747354963022
0.037,1.7695808645960243,1.0,2838.870202528165,0.34049452955223924,1.3190233003844856,0.9609111617636124,0.287375396313033,0.6754596103692293
0.0375,1.768964323045253,1.0,2846.685967942442,0.3441938163222604,1.3186752497189178,0.961677624931598,0.2873495015679006,0.6761673635732952
0.038,1.7683477814944817,1.0,2854.3169963335863,0.34787235563839425,1.3183289365888222,0.9624171919814934,0.28732360682276825,0.6768708167418036
0.0385,1.7677312399437106,1.0,2861.7730444960794,0.35153026793112263,1.3179842674187991,0.9631311267175005,0.2872977120776358,0.6775701711547502
0.039,1.7671146983929393,1.0,2869.0572767020867,0.35516765805232065,1.3176412077342738,0.9638206213031362,0.28727181733250345,0.6782655074907904
0.0395,1.766498156842168,1.0,2876.178147803684,0.35878465118762454,1.3172996765432627,0.9644867985849935,0.287245922587371,0.6789570002089951
0.04,1.7658816152913968,1.0,2883.142617834448,0.36238136376596264,1.3169596066173517,0.9651307166571451,0.28722002784223866,0.6796447951944313
0.0405,1.7652650737406255,1.0,2889.9555871528587,0.36595790618281837,1.3166209493766419,0.9657533742688622,0.2871941330971063,0.6803290000504911
0.041,1.7646485321898542,1.0,2896.6219956457376,0.36951438883367493,1.316283656241234,0.9663557143027873,0.28716823835197386,0.6810097219218016
0.0415,1.7640319906390831,1.0,2903.146821232925,0.3730509221140157,1.3159476786312287,0.9669386274838083,0.2871423436068415,0.6816870674985263
0.042,1.7634154490883118,1.0,2909.535078423737,0.3765676164193239,1.3156129679667272,0.9675029558047054,0.28711644886170906,0.6823611430205154
0.0425,1.7627989075375405,1.0,2915.7918169267327,0.38006458214508293,1.31527947566783,0.9680494956929039,0.2870905541165767,0.6830320542813078
0.043000000000000003,1.7621823659867693,1.0,2921.9221203108195,0.3835419296867761,1.3149471531546386,0.9685790009403413,0.2870646593714443,0.683699906631979
0.043500000000000004,1.761565824435998,1.0,2927.9311047192655,0.3869997694398867,1.3146159518472533,0.9690921854164042,0.2870387646263119,0.684364804984843
0.044,1.760949282885227,1.0,2933.8239176360985,0.39043821179989796,1.3142858231657752,0.9695897255820085,0.2870128698811795,0.6850268538169996
0.0445,1.7603327413344556,1.0,2939.605736704394,0.3938573671622933,1.313956718530305,0.9700722628212534,0.28698697513604715,0.6856861571737337
0.045,1.7597161997836843,1.0,2945.281768596987,0.397257345922556,1.3136285893609436,0.9705404056055535,0.2869610803909147,0.6863428186717622
0.0455,1.759099658232913,1.0,2950.8501909421607,0.4006382272289383,1.313301448770458,0.9709947317471391,0.28693518564578235,0.6869968182344774
0.046,1.7584831166821417,1.0,2956.3236216208215,0.4040001601238847,1.3129751837576213,0.9714357904152143,0.28690929090065,0.6876483876016682
0.0465,1.7578665751313705,1.0,2961.704977881747,0.4073432475936474,1.3126497664359156,0.9718641032977764,0.28688339615551756,0.6882975878430084
0.047,1.7572500335805994,1.0,2966.996901879522,0.4106675912661667,1.312325171461053,0.9722801664181113,0.2868575014103852,0.6889444747188258
0.0475,1.756633492029828,1.0,2972.2020507349116,0.41397329276938283,1.3120013734887472,0.9726844516406102,0.28683160666525276,0.6895891037663752
0.048,1.7560169504790568,1.0,2977.3230960805013,0.41726045373123594,1.3116783471747109,0.9730774080732515,0.2868057119201204,0.6902315303011493
0.0485,1.7554004089282855,1.0,2982.3627236195553,0.42052917577966636,1.3113560671746571,0.9734594633760815,0.286779817174988,0.6908718094181454
0.049,1.7547838673775142,1.0,2987.323632699697,0.4237795605426142,1.3110345081442987,0.9738310249827988,0.2867539224298556,0.6915099959930938
0.0495,1.754167325826743,1.0,2992.208535900661,0.42701170964801977,1.3107136447393486,0.9741924812419677,0.2867280276847232,0.6921461446836412
0.05,1.7535507842759719,1.0,2997.0201586361472,0.4302257247238232,1.31039345161552,0.9745442024838268,0.2867021329395908,0.692780309930497
0.0505,1.7529342427252006,1.0,3001.761238770332,0.43342170739796476,1.3100739034285258,0.9748865420181803,0.2866762381944584,0.6934125459585372
0.051000000000000004,1.7523177011744293,1.0,3006.434526248032,0.4365997592983847,1.3097549748340789,0.9752198370683971,0.28665034344932605,0.6940429067778673
0.051500000000000004,1.751701159623658,1.0,3011.042782739526,0.4397599820530232,1.3094366404878923,0.9755444096461481,0.2866244487041936,0.6946714461848433
0.052000000000000005,1.7510846180728867,1.0,3015.588781299719,0.44290247728982046,1.309118875045679,0.9758605673711293,0.28659855395906125,0.6952982177630544
0.0525,1.7504680765221154,1.0,3020.0753060409634,0.44602734663671667,1.3088016531631521,0.9761686042396835,0.2865726592139288,0.6959232748842612
0.053,1.7498515349713444,1.0,3024.5051518209866,0.4491346917216522,1.3084849494960242,0.9764688013459277,0.28654676446879646,0.6965466707092964
0.0535,1.749234993420573,1.0,3028.8761545055604,0.4522245710464707,1.3081687815799077,0.9767614258430607,0.2865208697236641,0.6971683739143979
0.054,1.7486184518698018,1.0,3033.19563372437,0.4552971359132415,1.3078530851413657,0.9770467377046274,0.28649497497853166,0.6977885139315787
0.0545,1.7480019103190305,1.0,3037.4652736939775,0.45835248246235283,1.3075378446615422,0.9773249832217016,0.2864690802333993,0.698407124046343
0.055,1.7473853687682592,1.0,3041.6863353186345,0.4613907028119696,1.3072230483223197,0.9775963981059703,0.28644318548826686,0.6990242301643546
0.0555,1.7467688272174882,1.0,3045.860084649098,0.4644118890802568,1.3069086843055817,0.9778612081983704,0.2864172907431345,0.699639858092528
0.056,1.7461522856667169,1.0,3049.987792767561,0.46741613338537935,1.306594740793211,0.9781196299638462,0.2863913959980021,0.7002540335393614
0.0565,1.7455357441159456,1.0,3054.0707356760277,0.4704035278455022,1.3062812059670905,0.9783718709573784,0.2863655012528697,0.7008667821152572
0.057,1.7449192025651743,1.0,3058.110194187778,0.4733741645787903,1.3059680680091033,0.9786181302631826,0.2863396065077373,0.701478129332834
0.0575,1.744302661014403,1.0,3062.1074538216276,0.4763281357034085,1.305655315101132,0.9788585989088185,0.2863137117626049,0.702088100607231
0.058,1.7436861194636317,1.0,3066.0638046996905,0.47926553333752187,1.30534293542506,0.9790934602558428,0.2862878170174725,0.7026967212564017
0.0585,1.7430695779128607,1.0,3069.9805414478624,0.4821864495992953,1.3050309171627703,0.9793228903685016,0.28626192227234015,0.7033040165014004
0.059000000000000004,1.7424530363620894,1.0,3073.858963099538,0.48509097660689376,1.3047192484961458,0.9795470583618718,0.2862360275272078,0.7039100114666585
0.059500000000000004,1.741836494811318,1.0,3077.7003730027027,0.48797920647848214,1.3044079176070693,0.979766126730741,0.28621013278207535,0.7045147311802542
0.06,1.7412199532605468,1.0,3081.506078729808,0.49085123133222536,1.3040969126774238,0.9799802516604406,0.28618423803694293,0.7051182005741687
0.0605,1.7406034117097755,1.0,3085.2773919905726,0.49370714328628845,1.3037862218890925,0.9801895833207513,0.28615834329181056,0.7057204444845377
0.061,1.7399868701590044,1.0,3089.01562854843,0.4965470344588363,1.3034758334239582,0.9803942661439284,0.2861324485466782,0.706321487651894
0.0615,1.7393703286082332,1.0,3092.722108139488,0.4993709969680339,1.303165735463904,0.9805944390878188,0.2861065538015458,0.7069213547213975
0.062,1.7387537870574619,1.0,3096.39815439507,0.5021791229320461,1.3028559161908124,0.9807902358849786,0.2860806590564134,0.70752007024306
0.0625,1.7381372455066906,1.0,3100.0432313719493,0.50497146623151,1.3025463796796597,0.9809817832584233,0.286054764311281,0.7081176280061582
0.063,1.7375207039559193,1.0,3103.658764255379,0.507748131059529,1.3022371132834,0.9811692061246322,0.2860288695661486,0.7087140540628737
0.0635,1.736904162405148,1.0,3107.247474604939,0.5105092465466259,1.3019280933446236,0.9813526260308989,0.2860029748210162,0.709309395565307
0.064,1.736287620854377,1.0,3110.809909212011,0.5132548946880032,1.3016193147809185,0.9815321576199755,0.28597708007588385,0.7099036637470957
0.0645,1.7356710793036056,1.0,3114.3466166284243,0.5159851574788636,1.3013107725098738,0.981707911404308,0.2859511853307514,0.7104968698007114
0.065,1.7350545377528344,1.0,3117.8581471399593,0.5187001169144098,1.3010024614490783,0.9818799939448952,0.28592529058561905,0.7110890248775388
0.0655,1.734437996202063,1.0,3121.345052739414,0.521399854989844,1.3006943765161203,0.9820485080211564,0.2858993958404866,0.7116801400879518
0.066,1.7338214546512918,1.0,3124.807887101467,0.5240844537003688,1.300386512628589,0.9822135527923199,0.28587350109535425,0.7122702265013858
0.0665,1.7332049131005205,1.0,3128.2472055568855,0.526753995041187,1.3000788647040726,0.9823752239508128,0.2858476063502219,0.7128592951464123
0.067,1.7325883715497494,1.0,3131.6635650682556,0.529408561007501,1.2997714276601604,0.9825336138681023,0.28582171160508946,0.7134473570108075
0.0675,1.7319718299989781,1.0,3135.0575242060368,0.5320482335945133,1.2994641964144407,0.9826888117334107,0.2857958168599571,0.7140344230416241
0.068,1.7313552884482069,1.0,3138.429643124629,0.5346730947974264,1.2991571658845025,0.9828409036857001,0.28576992211482466,0.714620504145256
0.0685,1.7307387468974356,1.0,3141.7804835401025,0.537283226611443,1.2988503309879342,0.9829899729392967,0.2857440273696923,0.7152056111875069
0.069,1.7301222053466643,1.0,3145.1106087071626,0.5398787110317655,1.298543686642325,0.9831360999035046,0.2857181326245599,0.715789754993652
0.0695,1.729505663795893,1.0,3148.420583397882,0.5424596300535967,1.2982372277652632,0.9832793622965332,0.2856922378794275,0.716372946348503
0.07,1.728889122245122,1.0,3151.7109738804834,0.545026065672139,1.2979309492743378,0.9834198352540507,0.2856663431342951,0.7169551959964666
0.07050000000000001,1.7282725806943506,1.0,3154.9823478984044,0.5475780998825948,1.2976248460871374,0.9835575914326441,0.2856404483891627,0.7175365146416066
