Time [s],Phi [rad],STIM [ ],Fsee [N],Gamma [ ],Lcerel [ ],q [ ],Lmtc [m],fisomrel [ ]
0.0,1.8,1.0,18.038717470060156,0.00027304241790668536,1.379331737151363,0.005019356884735603,0.288653,0.5411589068550042
0.0005,1.79999375,1.0,18.433233491332693,0.005880720174710175,1.3792850419199545,0.013686889343531603,0.2886527375,0.5412718653564361
0.001,1.799975,1.0,21.97017602497001,0.01145694329298959,1.378902516483635,0.03699245417718385,0.28865195,0.5421966932473491
0.0015,1.79994375,1.0,31.84454365123958,0.01700188820938711,1.377980557195212,0.07248742740221802,0.2886506375,0.5444218698418275
0.002,1.7999,1.0,55.1993881410219,0.022515730368681947,1.3762640087522067,0.11694560895659224,0.2886488,0.5485503689978295
0.0025,1.79984375,1.0,99.79209368383174,0.027998644232797406,1.3738072286377823,0.166994814420643,0.28864643749999996,0.5544265172772347
0.003,1.7997750000000001,1.0,164.40764050288365,0.03345080328635456,1.3710859111315188,0.2197747301014084,0.28864354999999997,0.56089045459085
0.0035,1.79969375,1.0,241.56498832751126,0.03887238003813287,1.368465653151657,0.273092168051155,0.2886401375,0.5670697144372538
0.004,1.7996,1.0,325.5872108754225,0.04426354603119544,1.3660473051793987,0.3253153194132488,0.2886362,0.5727339616419012
0.0045000000000000005,1.7994937500000001,1.0,413.5283729692687,0.04962447184830237,1.3638230600706585,0.37531151379137073,0.2886317375,0.5779106535740499
0.005,1.799375,1.0,503.7559626650326,0.0549553271036802,1.3617662651865274,0.42237725645954965,0.28862675,0.582669545194487
0.0055,1.79924375,1.0,595.1677012710607,0.060256280480830794,1.3598534713485446,0.4661452206770024,0.2886212375,0.5870710432347008
0.006,1.7991000000000001,1.0,686.8967048882517,0.06552749970068839,1.3580669507603376,0.5064915731451907,0.2886152,0.5911609017002359
0.006500000000000001,1.79894375,1.0,778.2298932268319,0.07076915152792143,1.3563931235514144,0.5434570715660654,0.2886086375,0.5949743032055685
0.007,1.798775,1.0,868.581576503509,0.07598140188977645,1.3548210906310203,0.5771861148816978,0.28860155,0.5985395205465985
0.0075,1.79859375,1.0,957.4602178234117,0.08116441552658904,1.353341988912483,0.6078826753012464,0.2885939375,0.6018795882377896
0.008,1.7984,1.0,1044.4913414009345,0.08631835672500089,1.3519478582242563,0.6357793212405747,0.2885858,0.6050150034800981
0.0085,1.79819375,1.0,1129.3539494400484,0.09144338833000863,1.350632105120746,0.6611174254750294,0.2885771375,0.607962776972558
0.009000000000000001,1.797975,1.0,1211.8038072155614,0.0965396723477094,1.3493887396575115,0.6841340176415026,0.28856795,0.6107382289557898
0.0095,1.79774375,1.0,1291.678804173929,0.10160737055206594,1.3482120537560502,0.705054107662956,0.2885582375,0.6133557577136275
0.01,1.7975,1.0,1368.842743180624,0.10664664299244861,1.3470971744335196,0.7240869765104002,0.288548,0.6158276514676877
0.0105,1.79724375,1.0,1443.2068647986657,0.11165764885073269,1.3460395757003956,0.7414241708082998,0.2885372375,0.6181652169932723
0.011,1.796975,1.0,1514.7279394285597,0.11664054668158226,1.3450349746476362,0.7572391771692977,0.28852595000000003,0.6203790378504626
0.0115,1.79669375,1.0,1583.4041931077795,0.12159549511088003,1.3440792807572532,0.7716880020820779,0.2885141375,0.6224791089080717
0.012,1.7964,1.0,1649.2225087910826,0.12652265007495173,1.3431691311519727,0.7849104907343956,0.28850180000000003,0.6244736843890313
0.0125,1.79609375,1.0,1712.2036154154766,0.1314221671891785,1.34230124971057,0.7970313457958206,0.2884889375,0.6263707093322131
0.013000000000000001,1.7957750000000001,1.0,1772.3943473098868,0.13629420153017363,1.3414724853118913,0.8081615647874215,0.28847555,0.6281777480067607
0.0135,1.79544375,1.0,1829.8623898651085,0.14113890829801842,1.3406798229538415,0.8183998492736277,0.2884616375,0.6299019714035052
0.014,1.7951000000000001,1.0,1884.662394081162,0.14595644045214073,1.3399207114363334,0.8278340532921833,0.2884472,0.631549457706049
0.0145,1.79474375,1.0,1936.8498239931394,0.1507469496255116,1.339192853420109,0.8365423187675829,0.2884322375,0.6331256638671061
0.015,1.794375,1.0,1986.501138829923,0.15551058745110202,1.3384939515659104,0.8445941049584721,0.28841675,0.6346359845449461
0.0155,1.79399375,1.0,2033.6967937185195,0.1602475046009371,1.337821868368086,0.852051256974708,0.2884007375,0.6360854121565547
0.016,1.7936,1.0,2078.537509909938,0.16495785246907832,1.3371744302625561,0.8589688421732734,0.2883842,0.6374789654882675
0.0165,1.7931937500000001,1.0,2121.096677055682,0.16964177931588975,1.3365499048895022,0.8653960944628485,0.2883671375,0.6388206681086321
0.017,1.792775,1.0,2161.447793594263,0.1742994325262366,1.3359466857115012,0.8713770077425455,0.28834955,0.640114235840108
0.0175,1.7923437500000001,1.0,2199.6752872175275,0.178930959484984,1.3353631661911303,0.8769509184690643,0.2883314375,0.6413633506449629
0.018000000000000002,1.7919,1.0,2235.8658828552607,0.18353650672440364,1.3347978171285848,0.8821530733253289,0.2883128,0.6425714975954551
0.0185,1.79144375,1.0,2270.112737463497,0.1881162213360659,1.3342491338088727,0.8870150931767539,0.2882936375,0.6437420808291401
0.019,1.790975,1.0,2302.495181811996,0.19267024825322157,1.3337158278905739,0.8915654382356833,0.28827395,0.6448780172682044
0.0195,1.79049375,1.0,2333.0819455880164,0.19719873036423802,1.3331967815026726,0.895829756579103,0.2882537375,0.645981839273789
0.02,1.79,1.0,2361.9474863169226,0.20170181055748265,1.3326908767741528,0.8998311628177444,0.288233,0.6470560603037165
0.0205,1.78949375,1.0,2389.1715098795903,0.2061796317213228,1.3321969958339979,0.9035905224626459,0.2882117375,0.6481031758892437
0.021,1.788975,1.0,2414.8245945421927,0.2106323347315868,1.3317141553705871,0.9071267295753149,0.28818995000000003,0.6491253798685523
0.021500000000000002,1.78844375,1.0,2438.9959205184423,0.21506006352252366,1.3312412325713734,0.9104568667024894,0.2881676375,0.6501251461881292
0.022,1.7879,1.0,2461.7473590235727,0.21946295724333978,1.3307774043967995,0.9135964875051359,0.2881448,0.6511043008307277
0.0225,1.78734375,1.0,2483.136268356694,0.22384115385571424,1.3303219202959282,0.9165597343895546,0.28812143749999997,0.6520645056505435
0.023,1.786775,1.0,2503.222716024604,0.22819479132132597,1.3298740297178235,0.9193594734328292,0.28809755,0.6530074123651929
0.0235,1.78619375,1.0,2522.06925219416,0.23252400760185393,1.3294329821115483,0.9220074272301242,0.28807313749999996,0.6539346629371567
0.024,1.7856,1.0,2539.7376674438174,0.2368289401091781,1.3289980554610437,0.9245142972419577,0.2880482,0.6548478300473599
0.0245,1.78499375,1.0,2556.2818613433565,0.24110972455469548,1.328568620911187,0.9268898779506259,0.2880227375,0.6557482823741092
0.025,1.784375,1.0,2571.7770356354495,0.24536649993035964,1.328143866282006,0.929143101716576,0.28799675,0.6566377647369164
0.025500000000000002,1.78374375,1.0,2586.2658748437443,0.24959939888560695,1.3277232997926638,0.9312822047890948,0.2879702375,0.6575173430261729
0.026000000000000002,1.7831000000000001,1.0,2599.7923195352464,0.2538085540698739,1.327306429662324,0.9333147438899297,0.2879432,0.6583880774926727
0.0265,1.78244375,1.0,2612.4014617834714,0.25799409813259694,1.3268927641101502,0.9352476614463192,0.2879156375,0.6592510228712554
0.027,1.781775,1.0,2624.139445994455,0.2621561637232125,1.3264818113553059,0.9370873437669378,0.28788755,0.6601072284890258
0.0275,1.7810937500000001,1.0,2635.053375094099,0.26629488349115704,1.3260730796169542,0.9388396729998818,0.2878589375,0.6609577383581487
0.028,1.7804,1.0,2645.185262455632,0.2704103864302732,1.3256661321415129,0.940510080214051,0.2878298,0.6618034769642434
0.0285,1.77969375,1.0,2654.583299376834,0.27450280771886226,1.3252604820969827,0.942103575090604,0.2878001375,0.6626454680677246
0.029,1.778975,1.0,2663.281020980055,0.27857227517143296,1.324855784053595,0.9436248054258979,0.28776995,0.6634844373945281
0.029500000000000002,1.7782437500000001,1.0,2671.3114491890306,0.28261891596991573,1.3244517023066666,0.9450780732779388,0.2877392375,0.6643210869588845
0.03,1.7775,1.0,2678.7080961121783,0.28664285729624084,1.3240479011515152,0.946467364097231,0.287708,0.6651561153038834
0.0305,1.77674375,1.0,2685.504918687705,0.2906442263323387,1.3236440448834577,0.9477963740456559,0.2876762375,0.6659902175110792
0.031,1.775975,1.0,2691.736275827058,0.2946231502601397,1.3232397977978116,0.9490685346352448,0.28764395,0.6668240852029013
0.0315,1.7751937500000001,1.0,2697.4319178616092,0.2985797527163873,1.3228348696348193,0.9502870395319776,0.2876111375,0.6676583129715217
0.032,1.7744,1.0,2702.6191955694076,0.30251415772675816,1.3224289948364942,0.9514548629119388,0.2875778,0.6684934416094643
0.0325,1.77359375,1.0,2707.339940408855,0.3064265016134291,1.322021778094263,0.9525747624162025,0.2875439375,0.6693302756154633
0.033,1.772775,1.0,2711.614359607202,0.3103169047316063,1.3216130238757078,0.9536493272389732,0.28750955,0.6701692055915925
0.0335,1.7719437500000002,1.0,2715.46284389181,0.31418548743649577,1.3212025366484117,0.9546809729358121,0.2874746375,0.6710106200593933
0.034,1.7711000000000001,1.0,2718.9059501061174,0.3180323700833037,1.3207901208799566,0.9556719551352326,0.2874392,0.671854905439486
0.0345,1.7702437500000001,1.0,2721.964384673137,0.3218576730272363,1.3203755810379252,0.9566243820133871,0.2874032375,0.6727024460287367
0.035,1.7693750000000001,1.0,2724.658987907015,0.32566151662349957,1.3199587215898998,0.9575402256564225,0.28736675,0.6735536239749904
0.035500000000000004,1.76849375,1.0,2727.0107191720845,0.3294440212272997,1.3195393470034626,0.9584213324213126,0.2873297375,0.6744088192493645
0.036000000000000004,1.7676,1.0,2729.0406428893643,0.3332053071938429,1.3191172617461966,0.9592694323938644,0.2872922,0.6752684096161017
0.0365,1.76669375,1.0,2730.769915391336,0.3369454948783351,1.3186922702856836,0.960086148031898,0.2872541375,0.6761327705999898
0.037,1.765775,1.0,2732.2197726235772,0.3406647046359826,1.3182641770895063,0.9608730020721722,0.28721555,0.6770022754513374
0.0375,1.76484375,1.0,2733.4007167585683,0.34436304453357336,1.3178328847405887,0.9616314317424891,0.2871764375,0.6778770962291953
0.038,1.7639,1.0,2734.339552624149,0.34804064757905817,1.317398148223214,0.9623627790352987,0.28713679999999997,0.6787577025015137
0.0385,1.76294375,1.0,2735.047928343105,0.35169762716559483,1.3169598606341546,0.9630683153225609,0.28709663750000003,0.6796442817180399
0.039,1.761975,1.0,2735.537180560375,0.3553340962351476,1.3165179182277214,0.9637492376128858,0.28705595,0.6805370135229257
0.0395,1.7609937500000001,1.0,2735.81867729755,0.3589501677296809,1.3160722172582249,0.9644066735110364,0.2870147375,0.68143607613989
0.04,1.76,1.0,2735.903813493613,0.362545954591159,1.315622653979976,0.9650416859803977,0.286973,0.6823416463476923
0.0405,1.7589937500000001,1.0,2735.8040067849993,0.36612156976154614,1.3151691246472852,0.9656552777299718,0.2869307375,0.6832538994549235
0.041,1.757975,1.0,2735.530693523641,0.36967712618280674,1.3147115255144635,0.9662483952591504,0.28688795,0.6841730092741047
0.0415,1.75694375,1.0,2735.0953250342664,0.373212736796905,1.3142497528358215,0.9668219325902591,0.2868446375,0.6850991480951056
0.042,1.7559,1.0,2734.5093641100098,0.3767285145458053,1.3137837028656696,0.967376734715965,0.28680079999999997,0.6860324866578738
0.0425,1.75484375,1.0,2733.7842817468872,0.38022457237147195,1.3133132718583191,0.9679136007860375,0.2867564375,0.6869731941244739
0.043000000000000003,1.753775,1.0,2732.923327691321,0.3837010074459791,1.3128384307962702,0.9684332906273045,0.28671155,0.6879212889570385
0.043500000000000004,1.75269375,1.0,2731.943096921488,0.3871579463381967,1.3123590294883818,0.9689365186284412,0.28666613750000003,0.6888770302840441
0.044,1.7516,1.0,2730.8547117013773,0.3905955050124877,1.3118749674464245,0.9694239638826572,0.2866202,0.6898405761488893
0.0445,1.75049375,1.0,2729.66377378419,0.3940137884098887,1.3113861943426677,0.9698962724113781,0.2865737375,0.690811983331602
0.045,1.7493750000000001,1.0,2728.375886109908,0.39741290147143643,1.3108926598493804,0.9703540570016517,0.28652675,0.6917913075630658
0.0455,1.74824375,1.0,2726.9966517907683,0.40079294913816754,1.3103943136388319,0.9707978992356758,0.2864792375,0.6927786035098166
0.046,1.7471,1.0,2725.5316731538496,0.40415403635111863,1.3098911053832911,0.9712283513774463,0.2864312,0.6937739247586798
0.0465,1.7459437500000001,1.0,2723.9865508385046,0.40749626805132644,1.3093829847550273,0.9716459381278539,0.28638263750000004,0.6947773238012454
0.047,1.744775,1.0,2722.3668829507337,0.41081974917982755,1.3088699014263097,0.9720511582585759,0.28633355,0.6957888520181816
0.0475,1.74359375,1.0,2720.6782642742132,0.4141245846776588,1.3083518050694072,0.972444486134198,0.28628393750000003,0.6968085596633875
0.048,1.7424,1.0,2718.926285535805,0.41741087948585665,1.3078286453565893,0.9728263731311921,0.2862338,0.6978364958479821
0.0485,1.74119375,1.0,2717.116532729261,0.42067873854545784,1.3073003719601248,0.973197248961635,0.2861831375,0.6988727085241356
0.049,1.739975,1.0,2715.2545864934073,0.4239282667974991,1.3067669345522832,0.973557522908885,0.28613195,0.6999172444687347
0.0495,1.73874375,1.0,2713.3460215475084,0.42715956918301706,1.3062282828053333,0.973907584981826,0.2860802375,0.7009701492668903
0.05,1.7375,1.0,2711.395800581296,0.4303727494553718,1.3056843719145772,0.9742478072260143,0.286028,0.7020314565280308
0.0505,1.73624375,1.0,2709.4070202735306,0.433567907775505,1.3051351740447414,0.9745785452080645,0.2859752375,0.7031011656909609
0.051000000000000004,1.734975,1.0,2707.3830103846444,0.43674514469137854,1.304580659200628,0.9749001381256491,0.28592195,0.7041792794671906
0.051500000000000004,1.73369375,1.0,2705.326584047536,0.43990455970961195,1.3040208020660229,0.9752129099830967,0.2858681375,0.7052657905329469
0.052000000000000005,1.7324,1.0,2703.24055082588,0.4430462523368248,1.3034555773247125,0.9755171702272124,0.2858138,0.7063606906585633
0.0525,1.73109375,1.0,2701.127716551427,0.44617032207963675,1.3028849596604832,0.9758132145254648,0.28575893750000003,0.7074639706998325
0.053,1.729775,1.0,2698.9911909004795,0.44927686838444225,1.3023089209442495,0.9761013253141351,0.28570355000000003,0.7085756260125111
0.0535,1.72844375,1.0,2696.8350095844244,0.45236598973415176,1.3017274245375785,0.9763817720503448,0.2856476375,0.7096956673530608
0.054,1.7271,1.0,2694.6600941101324,0.4554377835692364,1.3011404622352218,0.9766548141416714,0.2855912,0.7108240497600667
0.0545,1.7257437500000001,1.0,2692.468022086908,0.4584923469659934,1.3005480198161057,0.9769206994488278,0.2855342375,0.7119607391091127
0.055,1.724375,1.0,2690.2671314196555,0.4615297767319578,1.2999500211427426,0.9771796615449895,0.28547675,0.7131058189300646
0.0555,1.7229939612322647,1.0,2688.0658505367223,0.4645501689814844,1.2993464845199945,0.9774319296589028,0.2854187463717551,0.7142591907063799
0.056,1.721608759232834,1.0,2686.243463981575,0.4675536191164147,1.298737604236355,0.9776777336622829,0.285360567887779,0.7154204203288359
0.0565,1.7202235572334033,1.0,2684.974542398303,0.47054022228200243,1.298123657026056,0.9779172986534165,0.2853023894038029,0.7165889193922532
0.057,1.7188383552339725,1.0,2684.211785896283,0.4735100730672614,1.2975050728451156,0.9781508492351972,0.2852442109198268,0.7177638126001991
0.0575,1.7174531532345418,1.0,2683.9156793224365,0.4764632652289252,1.296882211930908,0.9783785968542332,0.2851860324358507,0.7189443630070518
0.058,1.7160679512351114,1.0,2684.0582683586454,0.4793998894432684,1.2962553298111517,0.9786007382889043,0.2851278539518747,0.7201300368574164
0.0585,1.7146827492356806,1.0,2684.5840513622966,0.4823200442438477,1.2956249354953921,0.9788174772795818,0.2850696754678986,0.7213198262542897
0.059000000000000004,1.71329754723625,1.0,2685.4650650654226,0.4852238211441395,1.2949912862656368,0.9790289950367008,0.2850114969839225,0.7225132048065853
0.059500000000000004,1.7119123452368192,1.0,2686.677622409373,0.48811131052647466,1.2943546007384084,0.9792354634715816,0.28495331849994643,0.7237097226534828
0.06,1.7105271432373885,1.0,2688.198079163885,0.4909826027731842,1.2937150975302292,0.9794370478287476,0.2848951400159703,0.7249089332997702
0.0605,1.7091419412379578,1.0,2690.002819740382,0.493837788266599,1.293072995257622,0.9796339070020359,0.2848369615319942,0.7261103936566513
0.061,1.707756739238527,1.0,2692.0682440637797,0.4966769573890501,1.2924285125371098,0.9798261938334343,0.2847787830480181,0.7273136640795071
0.0615,1.7063715372390964,1.0,2694.370755504853,0.4995002005228684,1.2917818679852144,0.9800140553957148,0.284720604564042,0.7285183084026112
0.062,1.7049863352396657,1.0,2696.8876862884485,0.5023076075716134,1.2911332716554749,0.9801976327747179,0.284662426080066,0.7297239098698325
0.0625,1.7036011332402352,1.0,2699.6055779191606,0.505099264823815,1.2904828492874076,0.9803770571740428,0.2846042475960899,0.730930211319736
0.063,1.7022159312408045,1.0,2702.496890231744,0.5078752668779917,1.2898308552144104,0.9805524622071018,0.2845460691121138,0.7321367199160824
0.0635,1.7008307292413738,1.0,2705.5504272019957,0.5106356995871296,1.289177394174957,0.9807239683386004,0.28448789062813773,0.7333432228896097
0.064,1.699445527241943,1.0,2708.754981922415,0.5133806488042144,1.2885225709075203,0.9808916916700231,0.2844297121441616,0.7345495091738359
0.0645,1.6980603252425124,1.0,2712.0993333174033,0.516110200382232,1.2878664901505743,0.9810557441323409,0.2843715336601855,0.7357553694145067
0.065,1.6966751232430817,1.0,2715.572243100979,0.5188244401741681,1.2872092566425923,0.9812162336688846,0.2843133551762094,0.7369605959783467
0.0655,1.695289921243651,1.0,2719.1624529788223,0.5215234540330087,1.2865509751220479,0.9813732644089558,0.2842551766922333,0.7381649829611081
0.066,1.6939047192442203,1.0,2722.8586820926594,0.5242073278117395,1.2858917503274143,0.9815269368326986,0.2841969982082573,0.7393683261949215
0.0665,1.6925195172447896,1.0,2726.649624708013,0.5268761473633464,1.2852316869971656,0.9816773479277418,0.2841388197242812,0.7405704232549457
0.067,1.6911343152453588,1.0,2730.530778186502,0.5295299911959542,1.2845708277989651,0.9818245878448165,0.2840806412403051,0.7417711861154711
0.0675,1.6897491132459281,1.0,2734.487348697337,0.5321689520185088,1.2839093087765094,0.9819687490672216,0.284022462756329,0.7429703583866218
0.068,1.6883639112464977,1.0,2738.5105936344644,0.5347931154361203,1.2832472106974044,0.9821099178428857,0.2839642842723529,0.7441677858167735
0.0685,1.686978709247067,1.0,2742.595950263305,0.5374025621567039,1.2825845762116161,0.9822481753934256,0.28390610578837683,0.7453633842069558
0.069,1.6855935072476362,1.0,2746.7388438508146,0.5399973728881752,1.2819214479691103,0.9823836002199331,0.2838479273044007,0.7465570700733426
0.0695,1.6842083052482055,1.0,2750.9346871790067,0.5425776283384491,1.2812578686198528,0.9825162682139255,0.2837897488204246,0.7477487606486531
0.07,1.6828231032487748,1.0,2755.1788800975223,0.5451434092154412,1.2805938808138098,0.9826462527630537,0.2837315703364485,0.748938373883436
0.07050000000000001,1.6814379012493441,1.0,2759.46680911775,0.5476947962270666,1.279929527200947,0.9827736248518522,0.2836733918524724,0.7501258284472394
0.07100000000000001,1.6800526992499134,1.0,2763.793847046551,0.5502318700812409,1.2792648504312305,0.9828984531577889,0.2836152133684964,0.7513110437296635
0.07150000000000001,1.6786674972504827,1.0,2768.1553526603807,0.552754711485879,1.2785998931546259,0.9830208041428719,0.2835570348845203,0.752493939841298
0.07200000000000001,1.677282295251052,1.0,2772.546670420068,0.5552634011488964,1.2779346980210993,0.9831407421410409,0.2834988564005442,0.753674437614542
0.0725,1.6758970932516213,1.0,2776.963130225733,0.5577580197782083,1.2772693076806165,0.9832583294415658,0.2834406779165681,0.7548524586043099
0.073,1.6745118912521906,1.0,2781.4043519198817,0.5602386351694684,1.2766037260217684,0.9833736238926151,0.28338249943259197,0.7560279934657987
0.0735,1.67312668925276,1.0,2785.864264081268,0.562705338140545,1.2759380081283682,0.9834866851178784,0.2833243209486159,0.7572009428257289
