Time [s],Phi [rad],STIM [ ],Fsee [N],Gamma [ ],Lcerel [ ],q [ ],Lmtc [m],fisomrel [ ]
0.0,1.8,1.0,17.967540759384423,1.9711464577653875e-05,1.3793397033568722,0.005000103000211759,0.288653,0.5411396347484702
0.0005,1.79999375,1.0,18.28011235462257,0.005628810207647634,1.3793020136643326,0.01296749693925232,0.2886527375,0.5412308113207349
0.001,1.799975,1.0,21.62895166100796,0.011206446341642914,1.3789372226651646,0.03565919973033088,0.28865195,0.5421128229553938
0.0015,1.79994375,1.0,31.09508244323305,0.016752796347794734,1.3780440021589029,0.07067099230413086,0.2886506375,0.5442689171928554
0.002,1.7999,1.0,53.63865849998878,0.022268035715666185,1.3763644820943952,0.11479989074942876,0.2886488,0.5483092366639595
0.0025,1.79984375,1.0,97.2139269222217,0.027752338950785636,1.3739305910717612,0.16466394149311347,0.28864643749999996,0.5541323758313881
0.003,1.7997750000000001,1.0,161.08215774073946,0.033205879582272974,1.3712097035515882,0.21737232199161377,0.28864354999999997,0.560597436189866
0.0035,1.79969375,1.0,237.82363991251677,0.03862883016250186,1.368580413001843,0.27070426292192884,0.2886401375,0.5667999972939757
0.004,1.7996,1.0,321.61618978439196,0.04402136227786388,1.3661521353320127,0.3230042785080316,0.2886362,0.5724892021422431
0.0045000000000000005,1.7994937500000001,1.0,409.4225941556014,0.04938364655395813,1.3639191797462922,0.3731184966420381,0.2886317375,0.5776875976173019
0.005,1.799375,1.0,499.5715714709651,0.054715852646698995,1.361854983695483,0.42032604015905894,0.28862675,0.5824648302766
0.0055,1.79924375,1.0,590.9499789448829,0.06001814928941039,1.3599357177976978,0.46424645139651066,0.2886212375,0.5868822673898471
0.006,1.7991000000000001,1.0,682.6779361622731,0.06529070423693807,1.3581435096728562,0.5047468224592258,0.2886152,0.5909860538240075
0.006500000000000001,1.79894375,1.0,774.0422725674655,0.07053368431801843,1.3564645051335493,0.5418618714715984,0.2886086375,0.5948120426654777
0.007,1.798775,1.0,864.4477153457137,0.07574725543482083,1.3548877798481487,0.5757324449859942,0.28860155,0.5983885960282269
0.0075,1.79859375,1.0,953.4035392200394,0.08093158252676556,1.3534043133489466,0.6065605327979028,0.2885939375,0.6017391304411976
0.008,1.7984,1.0,1040.517459455015,0.08608682965287723,1.3520063054077767,0.6345780336359179,0.2885858,0.604883804059844
0.0085,1.79819375,1.0,1125.476212069537,0.091213159916084,1.3506869484752664,0.660026147298617,0.2885771375,0.607840128090261
0.009000000000000001,1.797975,1.0,1208.037997420203,0.0963107355172089,1.3494401520010109,0.6831422511005154,0.28856795,0.6106236612548164
0.0095,1.79774375,1.0,1288.014935382429,0.10137971741980036,1.348260499800476,0.7041521685044714,0.2885582375,0.6132481641540903
0.01,1.7975,1.0,1365.3068446710429,0.10642026708445436,1.3471425885763957,0.7232656751583414,0.288548,0.6157271147846917
0.0105,1.79724375,1.0,1439.800876946893,0.11143254302753802,1.3460821769797924,0.7406752934473593,0.2885372375,0.6180711950794888
0.011,1.796975,1.0,1511.444980246808,0.11641670367411745,1.3450750540329737,0.7565553521685814,0.28852595000000003,0.6202908389162638
0.0115,1.79669375,1.0,1580.226323901429,0.12137290683621775,1.3441172249721505,0.7710626628496422,0.2885141375,0.6223958401704923
0.012,1.7964,1.0,1646.1717402736742,0.12630131038610684,1.3432048220921775,0.784337556662441,0.28850180000000003,0.6243955678975663
0.0125,1.79609375,1.0,1709.2911182039802,0.1312020696367101,1.3423346892275434,0.796505453088507,0.2884889375,0.6262977058401826
0.013000000000000001,1.7957750000000001,1.0,1769.6088352314405,0.13607533903987948,1.3415039181055715,0.8076780418605992,0.28847555,0.6281092918320892
0.0135,1.79544375,1.0,1827.181056055148,0.14092127304746685,1.3407096004535848,0.8179545851310426,0.2884616375,0.6298372709144089
0.014,1.7951000000000001,1.0,1882.0771147032442,0.1457400249986724,1.3399490010547639,0.8274233275807786,0.2884472,0.6314881271743245
0.0145,1.79474375,1.0,1934.378553562368,0.15053174847755157,1.3392195280421475,0.8361627234632497,0.2884322375,0.6330679585295367
0.015,1.794375,1.0,1984.143366399581,0.1552965940091965,1.3385190804832148,0.8442426752996687,0.28841675,0.6345817351683634
0.0155,1.79399375,1.0,2031.4468069803006,0.1600347120406028,1.3378455681530235,0.8517253694090795,0.2884007375,0.6360343497428597
0.016,1.7936,1.0,2076.374583059363,0.1647462524649632,1.3371969655604181,0.8586662035496573,0.2883842,0.6374305051557596
0.0165,1.7931937500000001,1.0,2119.0194926547642,0.16943136514936397,1.3365713282977423,0.8651145961308481,0.2883671375,0.6387746842088438
0.017,1.792775,1.0,2159.4735036877955,0.17409019933394998,1.3359668566049117,0.8711147112279511,0.28834955,0.6400710180580826
0.0175,1.7923437500000001,1.0,2197.80399779346,0.17872290100627092,1.3353821175976526,0.8767061366915658,0.2883314375,0.6413228163128646
0.018000000000000002,1.7919,1.0,2234.0877619289504,0.1833296161538764,1.334815678391691,0.8819243200045193,0.2883128,0.642533359384923
0.0185,1.79144375,1.0,2268.410204900281,0.18791049076431612,1.3342661061027523,0.886801051856222,0.2882936375,0.6437059002260954
0.019,1.790975,1.0,2300.855169463358,0.1924656696805048,1.3337320614025676,0.8913649122777606,0.28827395,0.6448434668112017
0.0195,1.79049375,1.0,2331.514293031801,0.19699529870026947,1.3332121965608497,0.8956416148066629,0.2882537375,0.6459490818338447
0.02,1.79,1.0,2360.464093509344,0.20149952119105297,1.3327053737238723,0.8996543805752347,0.288233,0.6470253006864108
0.0205,1.78949375,1.0,2387.7691908723764,0.20597847831067895,1.3322106220188434,0.9034242061963236,0.2882117375,0.6480743068171337
0.021,1.788975,1.0,2413.4986625225674,0.21043231121697115,1.331726970572971,0.9069700737406003,0.28818995000000003,0.6490982684772933
0.021500000000000002,1.78844375,1.0,2437.725672380051,0.21486116106775321,1.331253448513463,0.9103091716528428,0.2881676375,0.6500993394385794
0.022,1.7879,1.0,2460.521551137422,0.21926516783364733,1.3307891382897623,0.913457099202817,0.2881448,0.651079547160448
0.0225,1.78734375,1.0,2481.958519649122,0.22364447225977166,1.3303331454224119,0.9164280312173914,0.28812143749999997,0.6520408578932899
0.023,1.786775,1.0,2502.103782304961,0.22799921410731067,1.3298846513323062,0.919234877255999,0.28809755,0.6529850663755192
0.0235,1.78619375,1.0,2521.010782457092,0.23232952944841936,1.3294429920842596,0.9218894260215649,0.28807313749999996,0.6539136319087068
0.024,1.7856,1.0,2538.7350920659633,0.2366355543552528,1.3290075037430857,0.9244024333076504,0.2880482,0.6548280053595135
0.0245,1.78499375,1.0,2555.3342328755175,0.24091742489996604,1.3285775223735985,0.9267837267265564,0.2880227375,0.6557296294350363
0.025,1.784375,1.0,2570.8675073620852,0.24517527715471407,1.3281523840406122,0.9290422985501547,0.28799675,0.6566199389300464
0.025500000000000002,1.78374375,1.0,2585.384726700814,0.2494092444452952,1.327731528596694,0.931186404234934,0.2879702375,0.6575001440168188
0.026000000000000002,1.7831000000000001,1.0,2598.945833127848,0.25361946434260446,1.3273143141484671,0.9332236066094228,0.2879432,0.6583716191119853
0.0265,1.78244375,1.0,2611.6004754354985,0.25780607071895095,1.3269002067298228,0.9351608692202247,0.2879156375,0.6592355065050993
0.027,1.781775,1.0,2623.3874928245514,0.2619691940307945,1.3264887826883844,0.9370046131744414,0.28788755,0.6600927129421457
0.0275,1.7810937500000001,1.0,2634.346612982736,0.26610896473459483,1.326079618371776,0.9387607521662478,0.2878589375,0.6609441405692504
0.028,1.7804,1.0,2644.518375844217,0.27022551328681177,1.325672290127621,0.9404347392833309,0.2878298,0.66179068699946
0.0285,1.77969375,1.0,2653.944061328842,0.2743189701439051,1.3252663743035429,0.942031608929057,0.2878001375,0.6626332453680726
0.029,1.778975,1.0,2662.6656210604156,0.27838946576233453,1.3248614472471654,0.9435560144231218,0.28776995,0.6634727043765217
0.029500000000000002,1.7782437500000001,1.0,2670.7170755472343,0.2824371270368252,1.3244571637674198,0.9450122712247132,0.2877392375,0.6643097859693932
0.03,1.7775,1.0,2678.1414050861017,0.286462086339773,1.3240531010395122,0.9464043685756558,0.287708,0.6651453689626138
0.0305,1.77674375,1.0,2684.9729514051455,0.2904644717236472,1.3236489199532058,0.9477360155501884,0.2876762375,0.6659801550163373
0.031,1.775975,1.0,2691.238760317805,0.2944444076814547,1.3232443518480494,0.949010663308265,0.28764395,0.6668146970610154
0.0315,1.7751937500000001,1.0,2696.9662047029133,0.29840201870620225,1.3228391280635927,0.9502315189755183,0.2876111375,0.6676495452523571
0.032,1.7744,1.0,2702.1829539841287,0.30233742929089663,1.3224329799393848,0.951401565915273,0.2875778,0.6684852469623989
0.0325,1.77359375,1.0,2706.9169452099586,0.3062507639285448,1.322025638814975,0.9525235820816446,0.2875439375,0.6693223467659672
0.033,1.772775,1.0,2711.196355733572,0.3101421471121534,1.321616836029912,0.9536001566559643,0.28750955,0.6701613864225403
0.0335,1.7719437500000002,1.0,2715.0492716231915,0.31401170298247444,1.3212063057113788,0.9546337053679005,0.2874746375,0.6710028991430111
0.034,1.7711000000000001,1.0,2718.4962174836232,0.31785954706047237,1.3207938525839873,0.9556264896061425,0.2874392,0.671847270868377
0.0345,1.7702437500000001,1.0,2721.5710926190104,0.3216858149313192,1.3203791609884077,0.9565806148577589,0.2874032375,0.6726951313914666
0.035,1.7693750000000001,1.0,2724.2907450167163,0.3254906244423287,1.3199620718640468,0.9574980630156168,0.28736675,0.673546787526998
0.035500000000000004,1.76849375,1.0,2726.672130078599,0.32927409344081465,1.3195424261503113,0.9583806895289527,0.2873297375,0.6744025442920054
0.036000000000000004,1.7676,1.0,2728.7322994481747,0.33303633977409086,1.3191200647866081,0.9592302329208422,0.2872922,0.6752627048807112
0.0365,1.76669375,1.0,2730.4883903990913,0.33677748128947116,1.3186948287123441,0.9600483234854961,0.2872541375,0.6761275706377858
0.037,1.765775,1.0,2731.9576157842116,0.3404976358342693,1.3182665588669258,0.9608364912444726,0.28721555,0.6769974410299926
0.0375,1.76484375,1.0,2733.1572545458134,0.3441969212557991,1.3178350961897602,0.9615961732325153,0.2871764375,0.6778726136162176
0.038,1.7639,1.0,2734.1046427866,0.3478754554013744,1.3174002816202541,0.962328720176295,0.28713679999999997,0.6787533840158908
0.0385,1.76294375,1.0,2734.8171654021803,0.3515333561183088,1.316961956097814,0.9630354026227544,0.28709663750000003,0.6796400458757889
0.039,1.761975,1.0,2735.3032760077476,0.35517073039595987,1.3165200420297234,0.963717421994536,0.28705595,0.6805327263823411
0.0395,1.7609937500000001,1.0,2735.5812487880958,0.3587877008826782,1.31607437294676,0.9643759049373937,0.2870147375,0.6814317307599248
0.04,1.76,1.0,2735.6723221375064,0.36238439352765467,1.3156247557293743,0.9650119116655179,0.286973,0.6823374157231276
0.0405,1.7589937500000001,1.0,2735.585258199524,0.36596091824333943,1.315171110736817,0.9656264493260576,0.2869307375,0.6832499073881413
0.041,1.757975,1.0,2735.3288365443027,0.36951738494218284,1.3147133583283388,0.9662204685876568,0.28688795,0.6841693306431718
0.0415,1.75694375,1.0,2734.9118513830063,0.3730539035366351,1.314251418863191,0.9667948673922423,0.2868446375,0.6850958091277781
0.042,1.7559,1.0,2734.343108923005,0.37657058393914644,1.3137852127006244,0.9673504944201883,0.28680079999999997,0.6860294652118109
0.0425,1.75484375,1.0,2733.6314248636636,0.3800675360621672,1.31331466019989,0.9678881522934836,0.2867564375,0.6869704199739397
0.043000000000000003,1.753775,1.0,2732.785622031999,0.38354486981814756,1.3128396817202388,0.9684086005391785,0.28671155,0.6879187931797822
0.043500000000000004,1.75269375,1.0,2731.8145281604775,0.38700269511953783,1.3123601976209216,0.9689125583332951,0.28666613750000003,0.6888747032596263
0.044,1.7516,1.0,2730.726973803695,0.3904411218787882,1.3118761282611895,0.9694007070435063,0.2866202,0.6898382672857465
0.0445,1.75049375,1.0,2729.5317903972273,0.39386026000834906,1.3113873940002934,0.9698736925871968,0.2865737375,0.6908096009493179
0.045,1.7493750000000001,1.0,2728.2378084559914,0.3972602194206705,1.310893915197484,0.9703321276200058,0.28652675,0.6917888185369246
0.0455,1.74824375,1.0,2726.853855913756,0.40064111002820296,1.3103956122120128,0.9707765935685733,0.2864792375,0.6927760329066638
0.046,1.7471,1.0,2725.3830967758886,0.40400302521728265,1.3098924568876384,0.971207644077099,0.2864312,0.6937712537121912
0.0465,1.7459437500000001,1.0,2723.8370058795276,0.4073460905741317,1.3093843454558183,0.9716258039841225,0.28638263750000004,0.6947746389887592
0.047,1.744775,1.0,2722.221015516177,0.4106704119611933,1.3088712290598454,0.9720315734707548,0.28633355,0.6957862367954736
0.0475,1.74359375,1.0,2720.539334696878,0.4139760912547431,1.308353069948585,0.9724254285072004,0.28628393750000003,0.6968060722362341
0.048,1.7424,1.0,2718.7961698249833,0.4172632303310568,1.3078298303709022,0.972807821999613,0.2862338,0.6978341694318291
0.0485,1.74119375,1.0,2716.9957242086543,0.4205319310664099,1.3073014725756613,0.9731791851182586,0.2861831375,0.698870551507749
0.049,1.739975,1.0,2715.142197603098,0.4237822953370782,1.306767958811728,0.9735399285373665,0.28613195,0.6999152405819067
0.0495,1.73874375,1.0,2713.2397857859,0.42701442501933723,1.306229251327967,0.973890443593291,0.2860802375,0.7009682577522731
0.05,1.7375,1.0,2711.2926801632743,0.4302284219894627,1.3056853123732435,0.9742311033670626,0.286028,0.7020296230844151
0.0505,1.73624375,1.0,2709.305067407838,0.43342438812373024,1.305136104196422,0.9745622636969024,0.2859752375,0.7030993555989486
0.051000000000000004,1.734975,1.0,2707.2811291283533,0.43660242529841553,1.3045815890463681,0.9748842641258146,0.28592195,0.7041774732588946
0.051500000000000004,1.73369375,1.0,2705.2250415706967,0.4397626353897941,1.3040217291719465,0.975197428788965,0.2858681375,0.7052639929569504
0.052000000000000005,1.7324,1.0,2703.1409753505645,0.44290512027414175,1.3034564868220224,0.9755020672451622,0.2858138,0.706358930502665
0.0525,1.73109375,1.0,2701.031630179644,0.4460299811227609,1.3028858376320986,0.9757984760282015,0.28575893750000003,0.7074622747509629
0.053,1.729775,1.0,2698.8996411879652,0.4491373150202052,1.3023097577936558,0.9760869381855176,0.28570355000000003,0.7085740125725166
0.0535,1.72844375,1.0,2696.748145503394,0.45222721934034094,1.3017282188729755,0.976367724127831,0.2856476375,0.7096941388257072
0.054,1.7271,1.0,2694.578134857708,0.4552997914874336,1.3011412120200934,0.9766410937404155,0.2855912,0.7108226097674399
0.0545,1.7257437500000001,1.0,2692.3890825023605,0.45835512879241724,1.300548742269974,0.9769072965685737,0.2855342375,0.711959354336533
0.055,1.724375,1.0,2690.1885465336045,0.46139332815951767,1.2999507406445256,0.9771665670527482,0.28547675,0.7131044425599506
0.0555,1.7229976637657058,1.0,2688.1676773501367,0.4644144859613043,1.299347223967328,0.9774191347556114,0.28541890187815966,0.7142577790275968
0.056,1.721620055385525,1.0,2686.695802535761,0.4674186972643817,1.2987385613404026,0.9776652401464488,0.285361042326192,0.7154185968375847
0.0565,1.720242447005344,1.0,2685.745603964648,0.47040605713535416,1.2981251218657706,0.9779051137334918,0.28530318277422445,0.7165861342873707
0.057,1.718864838625163,1.0,2685.277397659423,0.4733766602003735,1.2975072666775178,0.9781389760714324,0.2852453232222568,0.717759650108649
0.0575,1.7174872302449822,1.0,2685.249243299348,0.47633060095602625,1.296885378969254,0.9783670399976233,0.28518746367028924,0.7189383665634006
0.058,1.716109621864801,1.0,2685.6279138688133,0.4792679723582414,1.2962597631545343,0.9785895052167576,0.28512960411832167,0.72012166050899
0.0585,1.7147320134846202,1.0,2686.381158454163,0.4821888671920653,1.2956307155127735,0.9788065630048016,0.28507174456635404,0.7213089287162167
0.059000000000000004,1.7133544051044394,1.0,2687.4840923110223,0.4850933757687304,1.2949984654408455,0.9790183931795282,0.28501388501438646,0.7224996983021246
0.059500000000000004,1.7119767967242583,1.0,2688.8988993843004,0.4879815931669687,1.2943633612276344,0.9792251754262437,0.2849560254624188,0.7236932766797488
0.06,1.7105991883440774,1.0,2690.5944391929515,0.4908536128097386,1.2937256902188452,0.9794270790258812,0.28489816591045125,0.7248890908975223
0.0605,1.7092215799638966,1.0,2692.5525276300077,0.4937095237826361,1.293085621256812,0.9796242600363365,0.2848403063584837,0.7260867940449889
0.061,1.7078439715837155,1.0,2694.754993856074,0.49654941517125706,1.2924433231838686,0.9798168685673233,0.28478244680651604,0.7272860418532379
0.0615,1.7064663632035346,1.0,2697.183671638583,0.49937337606119747,1.291798964842349,0.9800050490569914,0.28472458725454847,0.7284864927198139
0.062,1.7050887548233538,1.0,2699.8203913227776,0.5021814955380532,1.2911527150745867,0.9801889405337042,0.28466672770258084,0.729687807731813
0.0625,1.7037111464431727,1.0,2702.646972435835,0.5049738626874204,1.2905047427229162,0.9803686768638803,0.28460886815061326,0.7308896506871565
0.063,1.7023335380629918,1.0,2705.6452169216104,0.5077505665948947,1.2898552166296708,0.9805443869867333,0.2845510085986457,0.7320916881140517
0.0635,1.700955929682811,1.0,2708.799395180846,0.5105116947720709,1.289204282897885,0.9807161938592248,0.28449314904667805,0.7332936312293372
0.064,1.6995783213026299,1.0,2712.096198755977,0.5132573348142848,1.2885520653416114,0.9808842148655512,0.2844352894947104,0.7344952346527118
0.0645,1.698200712922449,1.0,2715.518798070713,0.5159875770866068,1.2878987196685396,0.9810485649748953,0.28437742994274284,0.7356961964707132
0.065,1.6968231045422681,1.0,2719.058661700671,0.5187025061840163,1.2872443257068555,0.9812093508725573,0.28431957039077527,0.7368963563431565
0.0655,1.695445496162087,1.0,2722.707243085276,0.5214022067014928,1.286588963284745,0.9813666754704697,0.28426171083880764,0.7380955552403544
0.066,1.6940678877819062,1.0,2726.4559787433795,0.5240867632340162,1.2859327122303934,0.9815206380698355,0.28420385128684006,0.7392936354482496
0.0665,1.6926902794017253,1.0,2730.29628662933,0.5267562603765656,1.285275652371987,0.9816713345156611,0.2841459917348724,0.7404904405731416
0.067,1.6913126710215443,1.0,2734.219564631402,0.529410782724121,1.2846178635377115,0.9818188573436384,0.28408813218290485,0.7416858155460098
0.0675,1.6899350626413634,1.0,2738.2171892102783,0.5320504148716618,1.2839594255557527,0.9819632959198095,0.2840302726309373,0.7428796066264252
0.068,1.6885574542611825,1.0,2742.2813538215773,0.5346752401473611,1.2833004106400767,0.9821047361277037,0.28397241307896964,0.7440716751631502
0.0685,1.6871798458810014,1.0,2746.4103167207795,0.5372853341049946,1.2826408358557333,0.9822432578436784,0.28391455352700207,0.7452619831210856
0.069,1.6858022375008206,1.0,2750.5883482140707,0.5398807951062888,1.2819808448924188,0.9823789456701097,0.28385669397503444,0.7464502650311149
0.0695,1.6844246291206397,1.0,2754.8120830311973,0.5424617025032721,1.2813204691461753,0.9825118749667984,0.28379883442306686,0.7476364593092342
0.07,1.6830470207404586,1.0,2759.078146297629,0.5450281356479728,1.280659740013044,0.9826421186055053,0.2837409748710993,0.7488205048973552
0.07050000000000001,1.6816694123602778,1.0,2763.383153277772,0.5475801738924192,1.2799986888890664,0.982769747069851,0.28368311531913165,0.7500023412640426
0.07100000000000001,1.680291803980097,1.0,2767.7237091400393,0.5501178965886396,1.2793373471702838,0.9828948285505652,0.2836252557671641,0.7511819084051924
0.07150000000000001,1.6789141955999158,1.0,2772.0964087431403,0.5526413830886625,1.278675746252738,0.9830174290363319,0.28356739621519644,0.7523591468446414
0.07200000000000001,1.677536587219735,1.0,2776.497836445391,0.555150712744516,1.2780139175324705,0.9831376124004616,0.28350953666322887,0.7535339976347215
0.0725,1.6761589788395541,1.0,2780.924565934718,0.5576459649082285,1.2773518924055225,0.9832554404836099,0.2834516771112613,0.7547064023567458
0.073,1.6747813704593733,1.0,2785.373160081041,0.5601272189318284,1.2766897022679358,0.9833709731727456,0.28339381755929366,0.755876303121432
