Time [s],Phi [rad],STIM [ ],Fsee [N],Gamma [ ],Lcerel [ ],q [ ],Lmtc [m],fisomrel [ ]
0.0,1.8,1.0,17.96743423620625,1.2871703365699887e-05,1.3793397152909213,0.005000044068974265,0.288653,0.5411396058769222
0.0005,1.79999375,1.0,18.277708171635236,0.005622008812084581,1.3793022807064406,0.012948488326863267,0.2886527375,0.5412301653408564
0.001,1.799975,1.0,21.621452626137437,0.011199683096531606,1.3789379884604087,0.035623542221759216,0.28865195,0.5421109722626887
0.0015,1.79994375,1.0,31.076756575703218,0.016746071039137937,1.378045563040882,0.07062219084709599,0.2886506375,0.5442651539065767
0.002,1.7999,1.0,53.598715638922954,0.022261348130679256,1.3763670725041544,0.11474209865101823,0.2886488,0.548303018924275
0.0025,1.79984375,1.0,97.14645036393445,0.02774568887785849,1.373933841581253,0.16460106994014698,0.28864643749999996,0.5541246241080562
0.003,1.7997750000000001,1.0,160.99415702358996,0.0331992668109977,1.3712129966840287,0.2173074600950514,0.28864354999999997,0.5605896399644874
0.0035,1.79969375,1.0,237.72409822077526,0.038622254483649185,1.3685834785654774,0.2706397495333445,0.2886401375,0.5667927912263148
0.004,1.7996,1.0,321.5102231824694,0.04401482348337273,1.366154941561683,0.32294181098484165,0.2886362,0.5724826491389049
0.0045000000000000005,1.7994937500000001,1.0,409.31282218962,0.049377144436921566,1.3639217561981423,0.3730591978751426,0.2886317375,0.5776816178751911
0.005,1.799375,1.0,499.4595403024531,0.05470938700133676,1.361857364105317,0.42027056120719786,0.28862675,0.5824593368710204
0.0055,1.79924375,1.0,590.8369143637831,0.06001171991131023,1.359937926612835,0.46419508643704643,0.2886212375,0.5868771970205784
0.006,1.7991000000000001,1.0,682.564702800394,0.06528431092260711,1.3581455677983685,0.5046996185249262,0.2886152,0.5909813528902559
0.006500000000000001,1.79894375,1.0,773.9300472995174,0.0705273268690564,1.3564664207626764,0.5418187073717138,0.2886086375,0.5948076877188984
0.007,1.798775,1.0,864.3339380191529,0.07574093363505621,1.354889617604907,0.5756931382930045,0.28860155,0.5983844365951623
0.0075,1.79859375,1.0,953.2898490156994,0.0809252961978379,1.3534060619268777,0.6065248007079662,0.2885939375,0.6017351893920149
0.008,1.7984,1.0,1040.4003602992784,0.08608057848986163,1.352008029373693,0.6345456174358951,0.2885858,0.6048799338534737
0.0085,1.79819375,1.0,1125.3674084944068,0.09120694396371508,1.3506884886602344,0.659996655548975,0.2885771375,0.607836683422196
0.009000000000000001,1.797975,1.0,1207.9319794638873,0.09630455440740272,1.349441600559507,0.6831154514339549,0.28856795,0.6106204330306443
0.0095,1.79774375,1.0,1287.9191480909512,0.10137357125700519,1.3482617672856743,0.7041277452021644,0.2885582375,0.613245349002101
0.01,1.7975,1.0,1365.2016022811838,0.10641415503317173,1.3471439411824135,0.7232435202701955,0.288548,0.6157241202179242
0.0105,1.79724375,1.0,1439.6891256139652,0.11142646482813084,1.3460835755919542,0.7406551554152058,0.2885372375,0.6180681081169901
0.011,1.796975,1.0,1511.3462010015478,0.11641065971493574,1.3450762606348776,0.756536911037457,0.28852595000000003,0.6202881835020728
0.0115,1.79669375,1.0,1580.1555774917683,0.121366897722273,1.344118070128381,0.7710456655814255,0.2885141375,0.6223939853670876
0.012,1.7964,1.0,1646.100673099337,0.12629533480001584,1.3432056539010384,0.7843220013457085,0.28850180000000003,0.6243937472269153
0.0125,1.79609375,1.0,1709.206448326312,0.13119612689803753,1.3423356617814235,0.79649125654788,0.2884889375,0.6262955825021519
0.013000000000000001,1.7957750000000001,1.0,1769.5154866393234,0.13606942922347126,1.3415049719153858,0.8076650446619618,0.28847555,0.6281069966743354
0.0135,1.79544375,1.0,1827.1019879246405,0.14091539698358643,1.3407104788746766,0.8179425705544472,0.2884616375,0.6298353621970298
0.014,1.7951000000000001,1.0,1882.013272615399,0.14573418268360827,1.339949699897468,0.8274121961270698,0.2884472,0.6314866120523643
0.0145,1.79474375,1.0,1934.3091782874558,0.15052593834568992,1.3392202771170645,0.8361524677266905,0.2884322375,0.6330663379866772
0.015,1.794375,1.0,1984.0690345543264,0.15529081577311482,1.338519872947749,0.8442332093005313,0.28841675,0.6345800242966833
0.0155,1.79399375,1.0,2031.3804203965465,0.16002896616734305,1.3378462676221001,0.8517165750000316,0.2884007375,0.6360328426460979
0.016,1.7936,1.0,2076.325310978042,0.16474054005627092,1.337197479057536,0.8586579903063295,0.2883842,0.6374294008840642
0.0165,1.7931937500000001,1.0,2118.9750298852787,0.16942568546428613,1.3365717869871283,0.8651069493357523,0.2883671375,0.6387736996310305
0.017,1.792775,1.0,2159.4133678987105,0.17408455041577628,1.3359674711439489,0.8711076394707132,0.28834955,0.6400697013174104
0.0175,1.7923437500000001,1.0,2197.717776331935,0.17871728205697443,1.3353829909963466,0.8766996184640793,0.2883314375,0.6413209481834965
0.018000000000000002,1.7919,1.0,2233.9941257872824,0.1833240281289819,1.3348166191657294,0.8819182575042386,0.2883128,0.642531350543466
0.0185,1.7914443079590092,1.0,2268.367366710962,0.1879049356760295,1.3342667852139087,0.8867953222312397,0.2882936609342784,0.6437044524960416
0.019,1.7909855427917005,1.0,2301.2698498286522,0.19246014799071712,1.3337327174413833,0.8913595477514253,0.2882743927972514,0.644842070501243
0.0195,1.7905267776243918,1.0,2332.883919683384,0.19698980836564453,1.3332136441486528,0.8956367830502119,0.28825512466022446,0.6459460055904813
0.02,1.7900680124570831,1.0,2363.2574673888794,0.2014940600934116,1.3327087936362163,0.8996503189270365,0.2882358565231975,0.6470180441235129
0.0205,1.7896092472897744,1.0,2392.4418167512636,0.2059730464666181,1.3322173942045732,0.9034211754789706,0.28821658838617054,0.6480599585074083
0.021,1.7891504821224657,1.0,2420.484048620579,0.21042690953690313,1.3317387459575893,0.9069683692325463,0.2881973202491436,0.6490733559645601
0.021500000000000002,1.788691716955157,1.0,2447.4267731568743,0.21485579062433627,1.3312722188600392,0.9103091323192641,0.2881780521121166,0.6500596843480431
0.022,1.7882329517878481,1.0,2473.3096696770044,0.21925982901260402,1.3308172343629552,0.9134591004513704,0.28815878397508965,0.6510202724759107
0.0225,1.7877741866205394,1.0,2498.1742168413,0.2236391638729088,1.3303732176098766,0.91643247513683,0.28813951583806263,0.6519564320347485
0.023,1.7873154214532307,1.0,2522.0538858938385,0.22799393087633968,1.3299396887174366,0.9192421907347758,0.28812024770103567,0.6528692659727073
0.0235,1.786856656285922,1.0,2545.0035780848652,0.23232427281453324,1.3295159822440286,0.921899999445937,0.2881009795640087,0.6537602597122227
0.024,1.7863978911186134,1.0,2567.067057507344,0.2366303285853373,1.3291015554064511,0.9244166439832227,0.28808171142698175,0.6546306321079547
0.0245,1.7859391259513047,1.0,2588.2746049195443,0.2409122319670658,1.3286960061518829,0.9268019618619161,0.2880624432899548,0.6554812995529381
0.025,1.785480360783996,1.0,2608.6577487755217,0.24517011673803274,1.328298932427503,0.929064953662953,0.2880431751529278,0.6563131727262814
0.025500000000000002,1.7850215956166873,1.0,2628.2491878813335,0.24940411667655213,1.3279099321804904,0.9312138656757388,0.28802390701590086,0.6571271568156448
0.026000000000000002,1.7845628304493784,1.0,2647.082717635397,0.2536143655609379,1.3275286033580238,0.933256263374396,0.2880046388788739,0.6579241517294079
0.0265,1.7841040652820697,1.0,2665.19315985218,0.2578009971695041,1.3271545439072823,0.9351990968406654,0.28798537074184694,0.6587050522985272
0.027,1.783645300114761,1.0,2682.6162961704863,0.26196414528056466,1.3267873517754445,0.9370487591019268,0.28796610260482,0.6594707484680864
0.0275,1.7831865349474523,1.0,2699.377674959074,0.26610393848978453,1.326426726640763,0.938811151396648,0.287946834467793,0.6602219136945044
0.028,1.7827277697801436,1.0,2715.517833534635,0.2702205141867018,1.326072238006986,0.9404916998153173,0.287927566330766,0.6609594885239651
0.0285,1.7822690046128349,1.0,2731.0636772130724,0.2743140023624555,1.3257235867486474,0.942095430018388,0.2879082981937391,0.6616841359553456
0.029,1.7818102394455262,1.0,2746.0372366484844,0.2783845302315701,1.325380523442295,0.9436269931949919,0.28788903005671207,0.6623964125140882
0.029500000000000002,1.7813514742782173,1.0,2760.4610570760888,0.28243222500856996,1.3250427986644773,0.9450906933574689,0.2878697619196851,0.6630968719271815
0.03,1.7808927091109086,1.0,2774.3581680994266,0.2864572139079793,1.3247101629917424,0.9464905177161016,0.28785049378265815,0.6637860652100641
0.0305,1.7804339439435999,1.0,2787.752054858028,0.29045962414432264,1.3243823670006383,0.9478301640353708,0.2878312256456312,0.6644645407495638
0.031,1.7799751787762912,1.0,2800.6666305733174,0.2944395829321242,1.3240591612677135,0.949113065304563,0.2878119575086042,0.6651328443828637
0.0315,1.7795164136089825,1.0,2813.12621047485,0.29839721748590836,1.3237402963695164,0.95034241201559,0.28779268937157726,0.6657915194725054
0.032,1.7790576484416738,1.0,2825.146707987568,0.3023326485052788,1.3234256013189503,0.9515211798787906,0.2877734212345503,0.6664409451896538
0.0325,1.778598883274365,1.0,2836.7570264778633,0.30624600849452627,1.323114791822358,0.9526521298881594,0.28775415309752334,0.6670817324795735
0.033,1.7781401181070562,1.0,2847.9765258391285,0.3101374221024573,1.3228076717727582,0.9537378436743501,0.2877348849604964,0.6677143081780971
0.0335,1.7776813529397475,1.0,2858.8195745713087,0.3140070098080758,1.3225040917720892,0.9547807340565538,0.2877156168234694,0.6683390012444512
0.034,1.7772225877724388,1.0,2869.300754644479,0.3178548920903856,1.3222039024222894,0.9557830542274038,0.28769634868644245,0.6689561392342087
0.0345,1.77676382260513,1.0,2879.4348500202273,0.3216811894283905,1.321906954325297,0.9567469102074376,0.28767708054941543,0.6695660483323059
0.035,1.7763050574378214,1.0,2889.236835668089,0.32548602230109447,1.3216130980830507,0.9576742721886645,0.2876578124123885,0.6701690533846365
0.035500000000000004,1.7758462922705127,1.0,2898.721867076114,0.32926951118750125,1.3213221842974887,0.9585669848779722,0.2876385442753615,0.6707654779282229
0.036000000000000004,1.775387527103204,1.0,2907.9052702580084,0.33303177656661476,1.3210340635705493,0.9594267769389857,0.28761927613833455,0.6713556442199633
0.0365,1.7749287619358953,1.0,2916.802532252953,0.33677293891743876,1.3207485865041708,0.9602552696203047,0.2876000080013076,0.6719398732639555
0.037,1.7744699967685864,1.0,2925.422859796838,0.340493110604793,1.3204656601758848,0.9610539884641489,0.2875807398642806,0.6725183694133747
0.0375,1.7740112316012777,1.0,2933.7841482899507,0.3441924176176109,1.3201851164217908,0.9618243620928366,0.28756147172725366,0.6730914898659575
0.038,1.773552466433969,1.0,2941.900741430484,0.3478709810399617,1.3199068194789476,0.9625677355446688,0.2875422035902267,0.6736595243968879
0.0385,1.7730937012666603,1.0,2949.781249775753,0.35152891414707815,1.3196306847673498,0.9632853773967289,0.28752293545319974,0.6742226573825099
0.039,1.7726349360993516,1.0,2957.434367527437,0.3551663302141927,1.319356627706992,0.9639784819633722,0.2875036673161728,0.6747810725115363
0.0395,1.772176170932043,1.0,2964.868868555774,0.358783342516538,1.3190845637178688,0.9646481744475776,0.2874843991791458,0.6753349527964839
0.04,1.7717174057647342,1.0,2972.0936025829956,0.3623800643293466,1.3188144082199746,0.9652955156818585,0.28746513104211885,0.6758844805846536
0.0405,1.7712586405974253,1.0,2979.1174915248853,0.3659566089278512,1.3185460766333044,0.965921506495463,0.2874458629050919,0.676429837568651
0.041,1.7707998754301166,1.0,2985.949525991018,0.3695130895872843,1.3182794843778525,0.9665270917409551,0.28742659476806487,0.6769712047964553
0.0415,1.770341110262808,1.0,2992.598761944499,0.3730496195828785,1.3180145468736133,0.9671131640100455,0.28740732663103796,0.6775087626810281
0.042,1.7698823450954992,1.0,2999.074317518292,0.3765663121898665,1.3177511795405819,0.9676805670656359,0.28738805849401095,0.6780426910094672
0.0425,1.7694235799281905,1.0,3005.3850235215396,0.3800632798602078,1.3174893008000181,0.9682300991264627,0.287368790356984,0.6785731628747309
0.043000000000000003,1.7689648147608819,1.0,3011.5320187632046,0.38354061853785876,1.3172288961109027,0.9687625184722221,0.287349522219957,0.6791002151538843
0.043500000000000004,1.7685060495935732,1.0,3017.5322097957373,0.38699846351942163,1.3169698148061164,0.9692785385763971,0.28733025408293006,0.6796241597633172
0.044,1.7680472844262642,1.0,3023.390314916512,0.3904369202921319,1.3167120121904827,0.9697788392043538,0.2873109859459031,0.6801450935403557
0.0445,1.7675885192589555,1.0,3029.1110836206185,0.39385609434322516,1.3164554435688254,0.9702640648994529,0.28729171780887613,0.6806631129963584
0.045,1.7671297540916469,1.0,3034.6992953554304,0.3972560911599369,1.3162000642459684,0.9707348271539998,0.2872724496718492,0.6811783143202981
0.0455,1.7666709889243382,1.0,3040.159758320639,0.4006370162295026,1.3159458295267348,0.9711917064259417,0.2872531815348222,0.6816907933822176
0.046,1.7662122237570295,1.0,3045.497308311019,0.4039989750391579,1.3156926947159486,0.9716352540136701,0.28723391339779525,0.6822006457365525
0.0465,1.7657534585897208,1.0,3050.71680760505,0.4073420730761381,1.3154406151184337,0.9720659938001853,0.2872146452607683,0.6827079666253323
0.047,1.765294693422412,1.0,3055.8231438965713,0.41066641582767893,1.3151895460390135,0.9724844238768884,0.2871953771237413,0.6832128509812518
0.0475,1.7648359282551032,1.0,3060.8212292716075,0.4139721087810158,1.3149394427825116,0.9728910180563765,0.2871761089867143,0.6837153934306157
0.048,1.7643771630877945,1.0,3065.715999228918,0.41725925742338427,1.3146902606537518,0.9732862272827991,0.28715684084968734,0.6842156882961535
0.0485,1.7639183979204858,1.0,3070.5124117451915,0.4205279672420198,1.314441954957558,0.9736704809476117,0.2871375727126604,0.6847138295997103
0.049,1.763459632753177,1.0,3075.21544638422,0.42377834372415796,1.3141944809987534,0.974044188117884,0.2871183045756334,0.6852099110648088
0.0495,1.7630008675858684,1.0,3079.825740020588,0.4270104727895533,1.3139478314202586,0.9744077388815983,0.28709903643860646,0.6857039513600666
0.05,1.7625421024185597,1.0,3084.350294220426,0.430224474443256,1.313701944502816,0.9747615056085832,0.2870797683015795,0.6861960778544394
0.0505,1.762083337251251,1.0,3088.794677043056,0.4334204609875567,1.313456770991866,0.9751058434305087,0.28706050016455253,0.6866863925999771
0.051000000000000004,1.7616245720839423,1.0,3093.161261942295,0.4365985294496862,1.31321228908224,0.975441091349468,0.2870412320275256,0.6871749424995643
0.051500000000000004,1.7611658069166334,1.0,3097.4524328339558,0.4397587768568754,1.312968476968769,0.9757675730871409,0.2870219638904986,0.6876617743107433
0.052000000000000005,1.7607070417493247,1.0,3101.6705837668687,0.4429013002363552,1.3127253128462844,0.9760855979073236,0.28700269575347165,0.6881469346466633
0.0525,1.760248276582016,1.0,3105.8181186043703,0.4460261966153565,1.312482774909617,0.9763954613872531,0.2869834276164447,0.688630469976995
0.053,1.7597895114147073,1.0,3109.8974507160915,0.4491335630211102,1.3122408413535984,0.9766974461413298,0.2869641594794177,0.6891124266288169
0.0535,1.7593307462473986,1.0,3113.9110026807075,0.45222349648084714,1.3119994903730596,0.9769918225005632,0.28694489134239076,0.6895928507874716
0.054,1.75887198108009,1.0,3117.8612059989478,0.4552960940217982,1.311758700162832,0.9772788491508015,0.28692562320536374,0.6900717884973899
0.0545,1.7584132159127812,1.0,3121.750500817359,0.45835145267119437,1.3115184489177465,0.9775587737325816,0.28690635506833684,0.690549285662887
0.055,1.7579544507454723,1.0,3125.581335661979,0.46138966945626647,1.3112787148326344,0.9778318334052011,0.2868870869313098,0.691025388048927
0.0555,1.7574956855781636,1.0,3129.356167183816,0.4644108414042454,1.3110394761023267,0.9780982553774394,0.28686781879428286,0.6915001412818562
0.056,1.757036920410855,1.0,3133.0774599133224,0.467415065542362,1.310800710921655,0.9783582574071529,0.2868485506572559,0.6919735908501078
0.0565,1.7565781552435462,1.0,3136.747686026747,0.4704024388978473,1.3105623974854503,0.9786120482718139,0.28682928252022893,0.6924457821048762
0.057,1.7561193900762375,1.0,3140.369325122187,0.473373058497932,1.3103245139885438,0.9788598282119075,0.28681001438320197,0.6929167602607593
0.0575,1.7556606249089288,1.0,3143.9403813280237,0.47632697668487245,1.3100870765911385,0.9791017875948509,0.286790746246175,0.6933864953162034
0.058,1.7552018597416201,1.0,3147.466854033201,0.47926433524246653,1.3098500337508956,0.9793381131070645,0.28677147810914805,0.6938550911497732
0.0585,1.7547430945743112,1.0,3150.9512852435996,0.48218523745521313,1.3096133632997085,0.9795689822721071,0.2867522099721211,0.6943225933234782
0.059000000000000004,1.7542843294070025,1.0,3154.3947287790666,0.4850897708441558,1.3093770557096722,0.9797945649648638,0.2867329418350941,0.69478902232275
0.059500000000000004,1.7538255642396938,1.0,3157.798241811449,0.48797802293033776,1.3091411014528822,0.9800150244169569,0.2867136736980671,0.6952543985730191
0.06,1.7533667990723851,1.0,3161.1628847895518,0.4908500812348026,1.3089054910014335,0.9802305175281828,0.2866944055610402,0.695718742439934
0.0605,1.7529080339050764,1.0,3164.4897213646177,0.4937060332785938,1.3086702148274216,0.9804411951610216,0.2866751374240132,0.6961820742295708
0.061,1.7524492687377677,1.0,3167.779818319623,0.4965459665827547,1.3084352634029417,0.980647202419259,0.2866558692869863,0.6966444141886415
0.0615,1.751990503570459,1.0,3171.0342454989286,0.4993699686683288,1.308200627200089,0.980848678911696,0.28663660114995926,0.6971057825046931
0.062,1.7515317384031501,1.0,3174.2540757412135,0.5021781270563594,1.3079662966909587,0.981045759001849,0.2866173330129323,0.6975661993063025
0.0625,1.7510729732358414,1.0,3177.440384813642,0.5049705292678902,1.3077322623476462,0.9812385720444871,0.28659806487590533,0.6980256846632636
0.063,1.7506142080685327,1.0,3180.5942513482228,0.5077472628239643,1.3074985146422469,0.9814272426097896,0.28657879673887837,0.6984842585867725
0.0635,1.750155442901224,1.0,3183.716756780466,0.5105084152456255,1.3072650440468556,0.9816118906958657,0.2865595286018514,0.6989419410296043
0.064,1.7496966777339154,1.0,3186.808985289656,0.513254074053917,1.307031841033568,0.9817926319303141,0.28654026046482445,0.6993987518862814
0.0645,1.7492379125666067,1.0,3189.8720237414645,0.5159843267698823,1.3067988960744792,0.9819695777614703,0.2865209923277975,0.6998547109932427
0.065,1.748779147399298,1.0,3192.9069616323227,0.5186992609145648,1.3065661996416844,0.982142835639939,0.2865017241907705,0.7003098381290016
0.0655,1.7483203822319893,1.0,3195.9148910359145,0.521398964009008,1.306333742207279,0.9823125091909688,0.28648245605374356,0.7007641530142996
0.066,1.7478616170646804,1.0,3198.896906551717,0.5240835235742553,1.306101514243358,0.9824786983781985,0.28646318791671654,0.7012176753122553
0.0665,1.7474028518973717,1.0,3201.8541052556993,0.5267530271313501,1.3058695062220171,0.9826414996592607,0.28644391977968964,0.7016704246285058
0.067,1.746944086730063,1.0,3204.787586652351,0.5294075622013359,1.3056377086153512,0.9828010061337082,0.2864246516426626,0.7021224205113445
0.0675,1.7464853215627543,1.0,3207.696401399253,0.5320471693834371,1.3054061290945338,0.9829573055107089,0.28640538350563566,0.7025736489524648
0.068,1.7460265563954456,1.0,3210.5827853651517,0.5346719770511023,1.3051747486241803,0.9831104867949348,0.2863861153686087,0.7030241479660982
0.0685,1.7455677912281369,1.0,3213.4479485324728,0.5372820822734069,1.3049435567995917,0.983260634376737,0.28636684723158173,0.7034739386684126
0.069,1.7451090260608282,1.0,3216.292341228818,0.5398775629225526,1.3047125495976826,0.983407828903937,0.28634757909455477,0.7039230297119893
0.0695,1.7446502608935193,1.0,3219.1164148619637,0.5424584968707413,1.3044817229953676,0.9835521483284311,0.2863283109575278,0.7043714297250391
