Time [s],Phi [rad],STIM [ ],Fsee [N],Gamma [ ],Lcerel [ ],q [ ],Lmtc [m],fisomrel [ ]
0.0,1.8,1.0,18.05567575974627,0.00030409107122261617,1.3793298414733852,0.005023988845280051,0.288653,0.5411634928819402
0.0005,1.79999375,1.0,18.459888250484816,0.0059115946696366274,1.3792820947548632,0.013777111766380336,0.2886527375,0.541278994254984
0.001,1.799975,1.0,22.01987203605214,0.011487644606414124,1.378897484412662,0.03715754050433339,0.28865195,0.5422088530158053
0.0015,1.79994375,1.0,31.945274278305845,0.017032417312725118,1.3779720870985324,0.07271124744963652,0.2886506375,0.5444422875458529
0.002,1.7999,1.0,55.40094582423789,0.02254608822787092,1.376251137414213,0.11720929274333164,0.2886488,0.5485812550845377
0.0025,1.79984375,1.0,100.1179962789009,0.028028831808415373,1.3737917485655968,0.1672807946231243,0.28864643749999996,0.5544634206131175
0.003,1.7997750000000001,1.0,164.82344033582098,0.03348082153353551,1.3710705212116314,0.2200691859417829,0.28864354999999997,0.5609268759175007
0.0035,1.79969375,1.0,242.03026511875595,0.0389022299066721,1.3684514438478108,0.2733846327098067,0.2886401375,0.5671031043573455
0.004,1.7996,1.0,326.07959702507964,0.0442932284655691,1.3660343514316862,0.3255982172376987,0.2886362,0.5727642014412783
0.0045000000000000005,1.7994937500000001,1.0,414.03651743714147,0.04965398778772537,1.363811197233483,0.37557985766466445,0.2886317375,0.5779381784679202
0.005,1.799375,1.0,504.27300994212777,0.05498467748204863,1.3617553282387558,0.42262817882822534,0.28862675,0.5826947783509888
0.0055,1.79924375,1.0,595.6884680058002,0.06028546622674744,1.359843336530275,0.4663774455118002,0.2886212375,0.5870943021516561
0.006,1.7991000000000001,1.0,687.4171799216348,0.06555652173768926,1.3580575218974953,0.5067049311784043,0.2886152,0.5911824330759716
0.006500000000000001,1.79894375,1.0,778.7464411877438,0.07079801077213839,1.3563843318682685,0.5436521210889497,0.2886086375,0.5949942857104844
0.007,1.798775,1.0,869.0916073034113,0.07601009926037089,1.3548128736036371,0.5773638454115868,0.28860155,0.598558114557173
0.0075,1.79859375,1.0,957.9611616767583,0.08119295192745682,1.3533343018702622,0.6080443143083606,0.2885939375,0.6018969104650971
0.008,1.7984,1.0,1044.9814230807688,0.0863467330510769,1.351940657892789,0.6359261880315316,0.2885858,0.6050311649298177
0.0085,1.79819375,1.0,1129.832006111023,0.09147160550043587,1.3506253504253156,0.6612508442182559,0.2885771375,0.6079778815023107
0.009000000000000001,1.797975,1.0,1212.2684085065628,0.09656773124175132,1.3493824022736547,0.6842552693329118,0.28856795,0.6107523500685272
0.0095,1.79774375,1.0,1292.1295322114165,0.10163527202023633,1.3482060986869646,0.7051643886211604,0.2885582375,0.613368982261492
0.01,1.7975,1.0,1369.2811170093769,0.106674387998363,1.3470915481650585,0.724187378647813,0.288548,0.6158401058430577
0.0105,1.79724375,1.0,1443.6311914739354,0.11168523823870322,1.3460342718471283,0.7415157101843537,0.2885372375,0.6181769218980475
0.011,1.796975,1.0,1515.1340932935384,0.11666798124650418,1.345030019215411,0.7573227849264164,0.28852595000000003,0.6203899420925163
0.0115,1.79669375,1.0,1583.795711033082,0.12162277573428425,1.3440746086125015,0.7717644708534565,0.2885141375,0.6224893613142664
0.012,1.7964,1.0,1649.6058423562251,0.12654977779224547,1.3431646488680193,0.7849805162819073,0.28850180000000003,0.6244834941558961
0.0125,1.79609375,1.0,1712.5764188479825,0.13144914281617878,1.3422969714627526,0.7970955928320018,0.2884889375,0.6263800488757256
0.013000000000000001,1.7957750000000001,1.0,1772.7535353990586,0.1363210260283129,1.3414684338932201,0.8082206281033851,0.28847555,0.6281865709646415
0.0135,1.79544375,1.0,1830.201713530449,0.14116558200588733,1.3406760561571525,0.8184542694514126,0.2884616375,0.6299101554885482
0.014,1.7951000000000001,1.0,1884.9850422786824,0.1459829644850945,1.3399171821958475,0.8278842729152176,0.2884472,0.6315571085715401
0.0145,1.79474375,1.0,1937.157846272203,0.15077332495023354,1.3391895298544114,0.8365887362454768,0.2884322375,0.6331328534347684
0.015,1.794375,1.0,1986.795346215971,0.15553681488560359,1.3384908169779508,0.844637079531081,0.28841675,0.634642751344386
0.0155,1.79399375,1.0,2033.977968209577,0.16027358473556094,1.3378189075945968,0.852091108552179,0.2884007375,0.6360917910446215
0.016,1.7936,1.0,2078.805888500113,0.16498378619424212,1.337171634873286,0.8590058584524202,0.2883842,0.637484976520649
0.0165,1.7931937500000001,1.0,2121.3543361693983,0.16966756778642236,1.336547248208155,0.8654305269275476,0.2883671375,0.6388263702918319
0.017,1.792775,1.0,2161.6942367416395,0.17432507662290408,1.335944168501951,0.8714090887777877,0.28834955,0.6401196289844793
0.0175,1.7923437500000001,1.0,2199.9073390719454,0.17895645981448963,1.3353608166574213,0.8769808634353871,0.2883314375,0.64136837579996
0.018000000000000002,1.7919,1.0,2236.0852993693234,0.18356186447198145,1.3347956135773131,0.882181062280704,0.2883128,0.6425762025809644
0.0185,1.79144375,1.0,2270.306493065368,0.18814143571766687,1.3342472026915195,0.8870413245320824,0.2882936375,0.6437461973625456
0.019,1.790975,1.0,2302.673815771593,0.1926953210020109,1.3337140600478934,0.8915900331777292,0.28827395,0.6448817797396398
0.0195,1.79049375,1.0,2333.252740385765,0.1972236628872063,1.3331951023543036,0.8958528323573121,0.2882537375,0.6459854074206159
0.02,1.79,1.0,2362.1124403536155,0.20172660373595125,1.3326892649872413,0.8998528373118054,0.288233,0.6470594801092129
0.0205,1.78949375,1.0,2389.3271931137406,0.20620428591094386,1.3321954833231964,0.9036109139188491,0.2882117375,0.6481063802923086
0.021,1.788975,1.0,2414.97594971613,0.21065685177488236,1.3317126927386596,0.9071459282159666,0.28818995000000003,0.6491284740946035
0.021500000000000002,1.78844375,1.0,2439.1251626177623,0.21508444120803427,1.331239989831904,0.9104749981787673,0.2881676375,0.6501277714801024
0.022,1.7879,1.0,2461.8626470766085,0.2194871975951748,1.33077630096662,0.9136136170339377,0.2881448,0.6511066285677296
0.0225,1.78734375,1.0,2483.243981206925,0.22386525849520186,1.3303208938173041,0.9165759245884426,0.28812143749999997,0.652066668073142
0.023,1.786775,1.0,2503.326690179113,0.22821876135088112,1.3298730428510657,0.9193747858255514,0.28809755,0.653009488520979
0.0235,1.78619375,1.0,2522.170730945143,0.23254784360497827,1.3294320225350142,0.9220219223257522,0.28807313749999996,0.653936678981154
0.024,1.7856,1.0,2539.838285715373,0.236852642700259,1.3289971073362594,0.9245280296861966,0.2880482,0.6548498194017023
0.0245,1.78499375,1.0,2556.3850962485158,0.24113329401157965,1.3285676512830995,0.9269028944908887,0.2880227375,0.6557503141910317
0.025,1.784375,1.0,2571.8745449715802,0.2453899357671928,1.3281429531936506,0.9291554640114146,0.28799675,0.6566396756037934
0.025500000000000002,1.78374375,1.0,2586.359382654425,0.24962270306114848,1.327722426630805,0.9312939547276907,0.2879702375,0.657519167994951
0.026000000000000002,1.7831000000000001,1.0,2599.8827937595174,0.25383172804898047,1.3273055870280117,0.9333259208436984,0.2879432,0.6583898364166092
0.0265,1.78244375,1.0,2612.4891045519817,0.2580171428862226,1.3268919498187197,0.9352583025171219,0.2879156375,0.6592527204837871
0.027,1.781775,1.0,2624.223685442271,0.26217907972840865,1.326481030436378,0.9370974840066238,0.28788755,0.6601088544808698
0.0275,1.7810937500000001,1.0,2635.132858534755,0.2663176707310725,1.3260723443144362,0.9388493456049142,0.2878589375,0.660959267453086
0.028,1.7804,1.0,2645.260124873321,0.2704330467972442,1.3256654409154471,0.9405193145910391,0.2878298,0.6618049126063374
0.0285,1.77969375,1.0,2654.6442027844546,0.27452533778358346,1.3252599207539961,0.9421124088437877,0.2878001375,0.6626466324971434
0.029,1.778975,1.0,2663.337036493653,0.2785946780636453,1.3248552686055228,0.9436332521014444,0.28776995,0.6634855052909235
0.029500000000000002,1.7782437500000001,1.0,2671.368637712791,0.2826411939983004,1.324451176856327,0.9450861488962782,0.2877392375,0.6643221742236749
0.03,1.7775,1.0,2678.769484439018,0.28666501194841953,1.3240473378927073,0.9464750869357071,0.287708,0.6651572793515611
0.0305,1.77674375,1.0,2685.5704796799987,0.2906662582748734,1.3236434441009635,0.9478037644407002,0.2876762375,0.6659914575588857
0.031,1.775975,1.0,2691.802912277548,0.29464505933853286,1.3232391878673946,0.9490756148024473,0.28764395,0.6668253425600357
0.0315,1.7751937500000001,1.0,2697.498419829076,0.2986015415002686,1.3228342615782998,0.9502938288494229,0.2876111375,0.6676595648953889
0.032,1.7744,1.0,2702.688953706875,0.3025358311209513,1.3224283576199785,0.9514613749822743,0.2875778,0.6684947519211839
0.0325,1.77359375,1.0,2707.4005782207937,0.30644805026343436,1.3220212246714302,0.9525810228614751,0.2875439375,0.6693314121846692
0.033,1.772775,1.0,2711.666282557477,0.31033832816226103,1.321612550364026,0.9536553489758176,0.28750955,0.6701701768123307
0.0335,1.7719437500000002,1.0,2715.508503323138,0.3142067868807651,1.3212021205518585,0.95468676636667,0.2874746375,0.6710114724266243
0.034,1.7711000000000001,1.0,2718.9477883206855,0.3180535469455927,1.320789739847687,0.9556775300229093,0.2874392,0.6718556849759351
0.0345,1.7702437500000001,1.0,2722.0048337078906,0.32187872888339025,1.3203752128642712,0.9566297475293591,0.2874032375,0.6727031982849903
0.035,1.7693750000000001,1.0,2724.7004684171116,0.3256824532208041,1.3199583442143699,0.957545390424907,0.28736675,0.6735543940293329
0.035500000000000004,1.76849375,1.0,2727.0556394210457,0.32946484048448044,1.3195389385107423,0.9584263045595178,0.2873297375,0.6744096517073599
0.036000000000000004,1.7676,1.0,2729.0913978451017,0.33322601120106565,1.319116800366148,0.959274219548793,0.2872922,0.6752693486099237
0.0365,1.76669375,1.0,2730.8224424475925,0.3369660794727358,1.318691792947916,0.9600907619013417,0.2872541375,0.6761337407769217
0.037,1.765775,1.0,2732.2699496056152,0.3406851672135864,1.318263721228856,0.9608774540862604,0.28721555,0.6770032007320188
0.0375,1.76484375,1.0,2733.459752946289,0.34438340203730283,1.3178323485098742,0.961635723235866,0.2871764375,0.6778781831654908
0.038,1.7639,1.0,2734.403772704766,0.34806089749376545,1.3173975650071843,0.9623669200669596,0.28713679999999997,0.6787588830596627
0.0385,1.76294375,1.0,2735.1139717856345,0.35171776713285485,1.3169592609369993,0.9630723151580345,0.28709663750000003,0.6796454939613239
0.039,1.761975,1.0,2735.602350457432,0.3553541245044513,1.3165173265155323,0.9637531045724037,0.28705595,0.6805382079574614
0.0395,1.7609937500000001,1.0,2735.8809413152358,0.3589700831584353,1.3160716519589963,0.9644104150283807,0.2870147375,0.6814372156502266
0.04,1.76,1.0,2735.9618045096563,0.3625657566446873,1.3156221274836049,0.9650453086574592,0.286973,0.6823427061311323
0.0405,1.7589937500000001,1.0,2735.857023243966,0.36614125851308776,1.3151686433055705,0.9656587873873521,0.2869307375,0.6832548669544838
0.041,1.757975,1.0,2735.5786995375347,0.36969670231351703,1.3147110896411067,0.9662517969831098,0.28688795,0.684173884110036
0.0415,1.75694375,1.0,2735.1389502570773,0.3732322015958556,1.3142493567064264,0.9668252307762882,0.2868446375,0.685099941994889
0.042,1.7559,1.0,2734.5499034149248,0.3767478699099839,1.313783334717743,0.9673799331092326,0.28680079999999997,0.6860332233846074
0.0425,1.75484375,1.0,2733.8209538232622,0.3802438159219596,1.313312938785417,0.9679167037793827,0.2867564375,0.6869738596608596
0.043000000000000003,1.753775,1.0,2732.9608492894376,0.3837201494912923,1.3128380899539671,0.9684363003480158,0.28671155,0.6879219689858214
0.043500000000000004,1.75269375,1.0,2731.9837704502825,0.3871769915663225,1.3123586599480965,0.9689394379194631,0.28666613750000003,0.688877766439507
0.044,1.7516,1.0,2730.8958476475414,0.3906144482336044,1.3118745936303817,0.9694267974981732,0.2866202,0.6898413196679982
0.0445,1.75049375,1.0,2729.7032134126216,0.3940326255796922,1.3113858358633983,0.969899024688193,0.2865737375,0.6908126952284847
0.045,1.7493750000000001,1.0,2728.412001266403,0.39743162969114,1.3108923315097227,0.9703567318770807,0.28652675,0.6917919585728594
0.0455,1.74824375,1.0,2727.0283445872456,0.40081156665450196,1.310394025431931,0.970800500264534,0.2864792375,0.692779174031128
0.046,1.7471,1.0,2725.5583755462676,0.40417254255633217,1.3098908624925993,0.971230881748167,0.2864312,0.6937744047946202
0.0465,1.7459437500000001,1.0,2724.0082241098967,0.4075146634831848,1.3093827875543036,0.971648400677779,0.28638263750000004,0.6947777128990071
0.047,1.744775,1.0,2722.384017109728,0.4108380355216141,1.30886974547962,0.9720535554884511,0.28633355,0.6957891592071259
0.0475,1.74359375,1.0,2720.6918773803773,0.4141427647581741,1.3083516811311249,0.9724468202219096,0.28628393750000003,0.6968088033916107
0.048,1.7424,1.0,2718.937922963784,0.4174289572794189,1.307828539371394,0.9728286459447789,0.2862338,0.6978367039173283
0.0485,1.74119375,1.0,2717.126762456672,0.42069671196444947,1.307300278764205,0.9731994621352419,0.2861831375,0.6988728911716898
0.049,1.739975,1.0,2715.2614779053492,0.4239461227103449,1.3067668717478882,0.9735596782302651,0.28613195,0.6999173673406082
0.0495,1.73874375,1.0,2713.352116608042,0.4271773214051916,1.306228227238894,0.9739096846173,0.2860802375,0.700970257787386
0.05,1.7375,1.0,2711.401544508763,0.43039040595762956,1.3056843195304595,0.9742498538064109,0.286028,0.7020315586517856
0.0505,1.73624375,1.0,2709.4126245118773,0.4335854742762985,1.3051351229158208,0.9745805411142733,0.2859752375,0.7031012651886064
0.051000000000000004,1.734975,1.0,2707.388216272052,0.43676262426983836,1.3045806116882146,0.9749020856079651,0.28592195,0.7041793717590339
0.051500000000000004,1.73369375,1.0,2705.3311759984326,0.439921953846889,1.3040207601408775,0.9752148109888739,0.2858681375,0.7052658718219484
0.052000000000000005,1.7324,1.0,2703.2443562733433,0.4430635609160901,1.3034555425670462,0.9755190264210091,0.2858138,0.70636075792519
0.0525,1.73109375,1.0,2701.1306058863233,0.44618754338608163,1.3028849332599568,0.9758150273076729,0.28575893750000003,0.7074640216967842
0.053,1.729775,1.0,2698.992769681834,0.44929399916550344,1.3023089065128464,0.9761030960201292,0.28570355000000003,0.7085756538361196
0.0535,1.72844375,1.0,2696.8336884225346,0.4523830261629953,1.3017274366189513,0.9763835025816242,0.2856476375,0.7096956441050917
0.054,1.7271,1.0,2694.6561986667502,0.4554547222871972,1.301140497871508,0.976656505309849,0.2855912,0.7108239813191974
0.0545,1.7257437500000001,1.0,2692.4631326605604,0.45850918544674885,1.300548064563753,0.9769223514207068,0.2855342375,0.7119606533385909
0.055,1.724375,1.0,2690.257318244507,0.46154651355029014,1.2999501109889233,0.9771812775960133,0.28547675,0.7131056470590963
0.0555,1.72299375,1.0,2688.0415787754764,0.4645668045064609,1.2993466114402552,0.977433510517572,0.2854187375,0.7142589484031788
0.056,1.7216,1.0,2685.818733062413,0.46757015622390097,1.2987375402109853,0.9776792673698786,0.2853602,0.7154205423108735
0.0565,1.72019375,1.0,2683.5880252974193,0.47055664334338754,1.2981229043208806,0.9779187560840202,0.28530113749999997,0.7165903505079179
0.057,1.718775,1.0,2681.351086481145,0.4735263708397744,1.2975026889126382,0.9781521775497307,0.28524155,0.7177683357453764
0.0575,1.71734375,1.0,2679.1127589024377,0.4764794587755571,1.2968768496418515,0.9783797240883453,0.2851814375,0.71895451577401
0.058,1.7159,1.0,2676.87377621199,0.47941599590813044,1.2962453798013773,0.9786015795696165,0.2851208,0.7201488359258218
0.0585,1.71444375,1.0,2674.6348708403552,0.482336070994889,1.2956082726840732,0.9788179204904641,0.2850596375,0.721351240818682
0.059000000000000004,1.7129750000000001,1.0,2672.3967739961445,0.4852397727932276,1.294965521582796,0.9790289163269057,0.28499795,0.7225616743539194
0.059500000000000004,1.71149375,1.0,2670.160215665453,0.48812719006054084,1.294317119790403,0.9792347298665084,0.2849357375,0.7237800797139079
0.06,1.71,1.0,2667.92592461215,0.4909984115542234,1.2936630605997517,0.9794355175225861,0.284873,0.7250063993596512
0.0605,1.7084937500000001,1.0,2665.694628379198,0.4938535260316701,1.2930033373036987,0.9796314296312754,0.2848097375,0.7262405750283641
0.061,1.7069750000000001,1.0,2663.467053290975,0.4966926222502755,1.2923379431951014,0.9798226107325478,0.28474595,0.7274825477310511
0.0615,1.7054437500000001,1.0,2661.243924456489,0.49951578896743437,1.291666871566817,0.9800091998361444,0.2846816375,0.7287322577500828
0.062,1.7039,1.0,2659.0259657741153,0.5023231149405414,1.2909901157117023,0.9801913306733463,0.2846168,0.729989644636767
0.0625,1.70234375,1.0,2656.8138999360644,0.5051146889269913,1.290307668922615,0.980369131935441,0.2845514375,0.7312546472089203
0.063,1.7007750000000001,1.0,2654.6084484356606,0.5078905996841786,1.2896195244924118,0.9805427274996759,0.28448555,0.7325272035484353
0.0635,1.69919375,1.0,2652.410331574065,0.5106509359694982,1.28892567571395,0.9807122366434491,0.28441913750000003,0.7338072509988438
0.064,1.6976,1.0,2650.220268468515,0.5133957865403447,1.2882261158800867,0.9808777742474274,0.2843522,0.7350947261628789
0.0645,1.69599375,1.0,2648.0389770620745,0.5161252401541129,1.2875208382836794,0.9810394509882432,0.2842847375,0.7363895649000329
0.065,1.694375,1.0,2645.867174133548,0.5188393855681972,1.2868098362175848,0.9811973735213754,0.28421675,0.7376917023241141
0.0655,1.69274375,1.0,2643.7055753089326,0.5215383115399926,1.2860931029746603,0.9813516446547832,0.2841482375,0.7390010728007985
0.066,1.6911,1.0,2641.530422079927,0.5242221018252773,1.2853708579712437,0.9815023742828539,0.2840792,0.7403171984080237
0.0665,1.6894437500000001,1.0,2639.401664414706,0.5268908399430883,1.284642547223776,0.9816496307153676,0.2840096375,0.7416410086414558
0.067,1.687775,1.0,2637.3045925239985,0.5295446092961663,1.2839083062465662,0.9817935130750535,0.28393955,0.7429721736103507
0.0675,1.68609375,1.0,2635.216648634341,0.532183492921472,1.2831683433765055,0.98193412053196,0.2838689375,0.7443102337672368
0.068,1.6844010143852184,1.0,2633.1648124159196,0.5348075738559662,1.2824228669504851,0.9820715488745781,0.2837978426041792,0.7456547328554483
0.0685,1.6827060502198523,1.0,2631.5781264330094,0.5374169351366097,1.281672085305396,0.9822058906541512,0.2837266541092338,0.7470052179837683
0.069,1.6810110860544865,1.0,2630.5423677190165,0.5400116598003631,1.2809162067781295,0.9823372353219603,0.28365546561428845,0.748361239698301
0.0695,1.6793161218891204,1.0,2630.034516776272,0.542591829450716,1.2801554415163636,0.9824656693540512,0.2835842771193431,0.7497223488162352
0.07,1.6776211577237543,1.0,2629.987606949827,0.5451575275386107,1.279390408211375,0.9825912954913238,0.28351308862439767,0.7510873718095704
0.07050000000000001,1.6759261935583882,1.0,2630.362070177801,0.5477088350973847,1.2786214731213885,0.9827142014465368,0.2834419001294523,0.7524555953943475
0.07100000000000001,1.6742312293930222,1.0,2631.1280526916717,0.5502458318456891,1.277848913464408,0.98283446798905,0.28337071163450694,0.7538264709395661
0.07150000000000001,1.6725362652276563,1.0,2632.255775296272,0.5527685975021751,1.277073006458437,0.982952173333857,0.2832995231395616,0.7551994550130195
0.07200000000000001,1.6708413010622902,1.0,2633.715511943999,0.5552772117854939,1.2762940293214793,0.9830673932467885,0.28322833464461616,0.7565740094429259
0.0725,1.6691463368969242,1.0,2635.4775700129317,0.5577717544142967,1.275512259271539,0.9831802011447712,0.2831571461496708,0.7579496013746563
0.073,1.667451372731558,1.0,2637.5151873590758,0.5602523042399986,1.2747279465716355,0.9832906669335316,0.28308595765472544,0.7593257505501678
0.0735,1.6657564085661922,1.0,2639.802707109845,0.562718940588687,1.2739413313072603,0.983398857961376,0.2830147691597801,0.7607019993673656
0.074,1.6640614444008262,1.0,2642.3167104192416,0.5651717423334977,1.2731526328218346,0.9835048385954307,0.2829435806648347,0.7620779310666456
0.0745,1.66236648023546,1.0,2645.0409575277904,0.5676107860073778,1.2723620040388668,0.983608668212728,0.28287239216988935,0.7634532485839678
