Time [s],Phi [rad],STIM [ ],Fsee [N],Gamma [ ],Lcerel [ ],q [ ],Lmtc [m],fisomrel [ ]
0.0,1.8,1.0,18.169198381895573,0.00045773251204146844,1.3793171742368464,0.005054174737998628,0.288653,0.5411941368908606
0.0005,1.79999375,1.0,18.620030141263523,0.006064374303478025,1.3792644327924775,0.014230130459907488,0.2886527375,0.5413217156205368
0.001,1.799975,1.0,22.29393925520873,0.011639567267319385,1.3788698346126997,0.03797979124751226,0.28865195,0.5422756646063316
0.0015,1.79994375,1.0,32.47350401100692,0.01718348780755207,1.3779278870621323,0.07382257991636151,0.2886506375,0.5445488271069903
0.002,1.7999,1.0,56.433472252366386,0.02269631133661111,1.3761855651109298,0.11851629006368233,0.2886488,0.5487385861038596
0.0025,1.79984375,1.0,101.76436353069923,0.028178212284636125,1.3737139299466758,0.1686968624375813,0.28864643749999996,0.5546489112366424
0.003,1.7997750000000001,1.0,166.91100599317375,0.03362936410295401,1.3709935462671239,0.22152623577729305,0.28864354999999997,0.5611090198601513
0.0035,1.79969375,1.0,244.35595038255008,0.03904993927014298,1.3683806225421695,0.2748311805579242,0.2886401375,0.5672695055339402
0.004,1.7996,1.0,328.5361982075668,0.0444401092965722,1.3659698685322725,0.32699695958417024,0.2886362,0.5729147172400229
0.0045000000000000005,1.7994937500000001,1.0,416.56690045515796,0.049800044725243714,1.3637522325071747,0.3769063259775366,0.2886317375,0.5780749787820355
0.005,1.799375,1.0,506.850000196808,0.05512991516595935,1.3617009013501615,0.4238682416770345,0.28862675,0.5828203378905635
0.0055,1.79924375,1.0,598.2830838224288,0.06042988923923526,1.3597929077221456,0.46752494352641005,0.2886212375,0.5872100240843229
0.006,1.7991000000000001,1.0,690.0107394549899,0.06570013465664012,1.3580105904068072,0.5077590860879304,0.2886152,0.5912895955247748
0.006500000000000001,1.79894375,1.0,781.3200173535017,0.07094081813093692,1.3563405728067122,0.5446157528668795,0.2886086375,0.5950937377926795
0.007,1.798775,1.0,871.6338160812778,0.07615210559309649,1.3547719523839696,0.5782418619592655,0.28860155,0.5986507072757219
0.0075,1.79859375,1.0,960.4567247699981,0.08133416169272868,1.3532960370731866,0.6088428278686032,0.2885939375,0.6019831319782576
0.008,1.7984,1.0,1047.4219954195105,0.0864871507423449,1.3519048258618844,0.6366517252399944,0.2885858,0.605111586527796
0.0085,1.79819375,1.0,1132.2108446573668,0.09161123559568501,1.3505917598850352,0.661909961949037,0.2885771375,0.6080529907548273
0.009000000000000001,1.797975,1.0,1214.578627390979,0.09670657818525236,1.349350907800132,0.6848542976793852,0.28856795,0.6108225230204837
0.0095,1.79774375,1.0,1294.3659948061822,0.10177333998403336,1.3481765656445206,0.7057092599898831,0.2885582375,0.6134345635713867
0.01,1.7975,1.0,1371.44993492599,0.1068116815756947,1.347063725912282,0.7246834925198447,0.288548,0.6159016905481008
0.0105,1.79724375,1.0,1445.729456492139,0.11182176176608068,1.3460080561224133,0.741968047656085,0.2885372375,0.618234773910679
0.011,1.796975,1.0,1517.1591940880721,0.11680373899860066,1.3450053211212574,0.7577358427883666,0.28852595000000003,0.6204442869834761
0.0115,1.79669375,1.0,1585.7414539691747,0.12175777172936364,1.3440513978218487,0.7721423049419616,0.2885141375,0.6225402922730613
0.012,1.7964,1.0,1651.4796030176358,0.12668401670114415,1.3431427466485009,0.7853266831064026,0.28850180000000003,0.6245314267299833
0.0125,1.79609375,1.0,1714.379933839318,0.13158262894145314,1.3422762811116218,0.7974132928840942,0.2884889375,0.6264252148864734
0.013000000000000001,1.7957750000000001,1.0,1774.4845636807515,0.1364537634778016,1.3414489147216198,0.8085127291239037,0.28847555,0.6282290772813395
0.0135,1.79544375,1.0,1831.848571777967,0.1412975744820793,1.3406577795130823,0.8187233617571376,0.2884616375,0.6299498637028579
0.014,1.7951000000000001,1.0,1886.5586124274641,0.14611421649701806,1.3398999742542215,0.8281325676830005,0.2884472,0.6315944116772308
0.0145,1.79474375,1.0,1938.6705951427477,0.15090384108753646,1.3391732111021686,0.836818196595259,0.2884322375,0.6331681532864917
0.015,1.794375,1.0,1988.2476429666897,0.15566659916055967,1.338475347101903,0.844849498101098,0.28841675,0.6346761460594588
0.0155,1.79399375,1.0,2035.3712525931548,0.16040264162301293,1.3378042392984046,0.852288079460614,0.2884007375,0.6361233925766141
0.016,1.7936,1.0,2080.121015442514,0.1651121182980171,1.3371579393253394,0.8591888686829757,0.2883842,0.6375144258606209
0.0165,1.7931937500000001,1.0,2122.6038128041732,0.16979517963259522,1.3365343673447865,0.8656008054905133,0.2883671375,0.6388540165683811
0.017,1.792775,1.0,2162.891159820551,0.1744519727855399,1.3359319449792786,0.8715677341034521,0.28834955,0.6401458174184915
0.0175,1.7923437500000001,1.0,2201.0579928708207,0.17908264446978356,1.3353491680748781,0.8771288792356142,0.2883314375,0.6413932891310177
0.018000000000000002,1.7919,1.0,2237.188852480606,0.1836873413982585,1.334784532477648,0.8823193681785191,0.2883128,0.6425998622886566
0.0185,1.79144375,1.0,2271.3652368598378,0.18826620911135783,1.3342366518916209,0.8871707387282443,0.2882936375,0.6437686879218094
0.019,1.790975,1.0,2303.683244703374,0.19281939424256822,1.3337040715696715,0.8917113081054467,0.28827395,0.6449030376843863
0.0195,1.79049375,1.0,2334.2146487186915,0.19734703997570535,1.3331856466165473,0.8959666311473934,0.2882537375,0.6460055002828868
0.02,1.79,1.0,2363.0294236814857,0.20184928868277272,1.3326803060521193,0.8999597566165636,0.288233,0.6470784884090186
0.0205,1.78949375,1.0,2390.2026510127976,0.20632628273577377,1.3321869788962586,0.9037114913603802,0.2882117375,0.6481243974865327
0.021,1.788975,1.0,2415.8109934114314,0.2107781639087486,1.3317046240559636,0.9072406550503761,0.28818995000000003,0.6491455433032267
0.021500000000000002,1.78844375,1.0,2439.9279890370885,0.21520507347254045,1.331232270916905,0.9105643063533571,0.2881676375,0.6501440774975447
0.022,1.7879,1.0,2462.629643983202,0.21960715345506407,1.330768960642136,0.9136979214805803,0.2881448,0.6511221131241106
0.0225,1.78734375,1.0,2483.9727778412043,0.22398454144411634,1.3303139491382572,0.9166556002033527,0.28812143749999997,0.6520812978465844
0.023,1.786775,1.0,2504.0168956045936,0.22833737502749402,1.3298664923118688,0.9194501704407617,0.28809755,0.6530232692916575
0.0235,1.78619375,1.0,2522.8239637642723,0.2326657917929939,1.3294258460695711,0.9220933205811266,0.28807313749999996,0.6539496554252144
0.024,1.7856,1.0,2540.4581986797652,0.23696992932841285,1.3289912663179648,0.9245957164558282,0.2880482,0.6548620748931823
0.0245,1.78499375,1.0,2556.97290687642,0.24124992211318055,1.32856213067764,0.9269671248350668,0.2880227375,0.6557618822849789
0.025,1.784375,1.0,2572.436311749507,0.24550591013426667,1.328137693083646,0.9292164647006963,0.28799675,0.6566506836024968
0.025500000000000002,1.78374375,1.0,2586.8961282927066,0.24973802723362395,1.3277174148861497,0.9313519410829159,0.2879702375,0.657529642794449
0.026000000000000002,1.7831000000000001,1.0,2600.3952926833863,0.2539464055519505,1.3273008141311464,0.9333810909970779,0.2879432,0.6583997993274513
0.0265,1.78244375,1.0,2612.977877643408,0.2581311772299445,1.3268874088646316,0.935310839045401,0.2879156375,0.6592621872632881
0.027,1.781775,1.0,2624.688995396577,0.26229247440830405,1.3264767171326004,0.937147555388812,0.28788755,0.6601178353645409
0.0275,1.7810937500000001,1.0,2635.5747057752505,0.26643042922772736,1.3260682569810482,0.9388971075253667,0.2878589375,0.6609677671853988
0.028,1.7804,1.0,2645.68096408482,0.27054517338096185,1.3256615553689406,0.9405649077329067,0.2878298,0.6618129826361048
0.0285,1.77969375,1.0,2655.0453146793448,0.27463683455071247,1.3252562238910182,0.9421559639008481,0.2878001375,0.6626543010846807
0.029,1.778975,1.0,2663.720240316814,0.2787055490491063,1.3248517425550361,0.9436748900632199,0.28776995,0.6634928104558564
0.029500000000000002,1.7782437500000001,1.0,2671.73544726228,0.2827514430788283,1.3244478067299068,0.9451259821352094,0.2877392375,0.6643291476663044
0.03,1.7775,1.0,2679.1211043572525,0.2867746428425632,1.3240441117845427,0.9465132199568883,0.287708,0.6651639464852257
0.0305,1.77674375,1.0,2685.9078022361045,0.290775274542996,1.3236403530878562,0.9478402945572697,0.2876762375,0.665997837541989
0.031,1.775975,1.0,2692.1265145998395,0.2947534643828115,1.3232362260087593,0.9491106327448503,0.28764395,0.6668314483278517
0.0315,1.7751937500000001,1.0,2697.8085615468867,0.29870933856469456,1.3228314259161649,0.9503274193157673,0.2876111375,0.6676654031917595
0.032,1.7744,1.0,2702.985574961902,0.30264302329133,1.322425648178985,0.951493617136141,0.2875778,0.6685003233302342
0.0325,1.77359375,1.0,2707.6763728133938,0.30655463863882926,1.3220187076564132,0.9526119977826616,0.2875439375,0.6693365813752983
0.033,1.772775,1.0,2711.9189363283517,0.3104443150329401,1.3216102463510202,0.9536851273491165,0.28750955,0.6701749025575131
0.0335,1.7719437500000002,1.0,2715.7455492678764,0.31431217893689095,1.321199960397195,0.954715405142041,0.2874746375,0.6710158974516596
0.034,1.7711000000000001,1.0,2719.174698180081,0.3181583498216107,1.3207876733674793,0.9557050841894925,0.2874392,0.6718599126769115
0.0345,1.7702437500000001,1.0,2722.225009738214,0.32198294715802805,1.3203732088344151,0.9566562702782971,0.2874032375,0.6727072929245543
0.035,1.7693750000000001,1.0,2724.91523683096,0.325786090417072,1.3199563903705442,0.9575709332965628,0.28736675,0.6735583809344767
0.035500000000000004,1.76849375,1.0,2727.2642453434573,0.3295678990696713,1.3195370415484082,0.9584509175768595,0.2873297375,0.6744135174696775
0.036000000000000004,1.7676,1.0,2729.2910016278433,0.33332849258675484,1.3191149859405493,0.9592979513384897,0.2872922,0.6752730412887851
0.0365,1.76669375,1.0,2731.0145606646574,0.3370679904392514,1.318690047119509,0.9601136553166306,0.2872541375,0.6761372891165978
0.037,1.765775,1.0,2732.4540549135695,0.34078651209808986,1.3182620486578294,0.9608995506567141,0.28721555,0.6770065956126322
0.0375,1.76484375,1.0,2733.6286838550927,0.3444841770341991,1.317830814128052,0.9616570661441076,0.2871764375,0.6778812933376904
0.038,1.7639,1.0,2734.5539282937366,0.34816109480738056,1.3173962013927314,0.962387546069738,0.28713679999999997,0.6787616433082421
0.0385,1.76294375,1.0,2735.249657782798,0.35181739467381795,1.316958028884232,0.9630922553194731,0.28709663750000003,0.6796479844573418
0.039,1.761975,1.0,2735.7272755645454,0.3554531895622864,1.316516192273685,0.9637723884855458,0.28705595,0.6805404975400755
0.0395,1.7609937500000001,1.0,2735.9980733953507,0.35906859204348107,1.31607058852635,0.9644290709733736,0.2870147375,0.6814393592748941
0.04,1.76,1.0,2736.073369619142,0.36266371468809716,1.3156211146074859,0.9650633637004257,0.286973,0.6823447449423734
0.0405,1.7589937500000001,1.0,2735.9645049950336,0.36623867006682975,1.3151676674823523,0.9656762674709605,0.2869307375,0.6832568283601195
0.041,1.757975,1.0,2735.682838760194,0.369793570750374,1.3147101441162081,0.9662687270096395,0.28688795,0.6841757818570011
0.0415,1.75694375,1.0,2735.239744927766,0.37332852930942506,1.3142484414743127,0.9668416346838993,0.2868446375,0.6851017762467011
0.042,1.7559,1.0,2734.646608820918,0.3768436583146781,1.3137824565219256,0.9673958339420837,0.28680079999999997,0.6860349808005928
0.0425,1.75484375,1.0,2733.914823841579,0.38033907033682823,1.313312086224306,0.9679321224917371,0.2867564375,0.6869755632199397
0.043000000000000003,1.753775,1.0,2733.046665068615,0.3838148617477169,1.3128373104211308,0.9684512594043774,0.28671155,0.6879235242617124
0.043500000000000004,1.75269375,1.0,2732.0522247715994,0.38727114758608133,1.3123580380109896,0.9689539607278401,0.28666613750000003,0.6888790053887921
0.044,1.7516,1.0,2730.9533311387436,0.3907080631041052,1.3118740712634687,0.9694408995148388,0.2866202,0.6898423586528982
0.0445,1.75049375,1.0,2729.755048767501,0.39412571223793247,1.311385364719385,0.9699127209360628,0.2865737375,0.690813630862805
0.045,1.7493750000000001,1.0,2728.4624435039773,0.39752419892370683,1.3108918729195558,0.9703700369872412,0.28652675,0.6917928678334528
0.0455,1.74824375,1.0,2727.080581553156,0.40090362709757216,1.3103935504047985,0.9708134285141408,0.2864792375,0.6927801143721422
0.046,1.7471,1.0,2725.614528635573,0.40426410069567226,1.3098903517159304,0.9712434470950699,0.2864312,0.6937754142645949
0.0465,1.7459437500000001,1.0,2724.069349188983,0.407605723654151,1.3093822313937682,0.9716606167921956,0.28638263750000004,0.694778810260883
0.047,1.744775,1.0,2722.450105616044,0.41092859990915215,1.3088691439791298,0.9720654357819741,0.28633355,0.6957903440612232
0.0475,1.74359375,1.0,2720.761857578771,0.4142328333968196,1.3083510440128319,0.972458377874107,0.28628393750000003,0.6968100563016475
0.048,1.7424,1.0,2719.0096613370038,0.4175185280532971,1.3078278860356918,0.9728398939276177,0.2862338,0.6978379865395318
0.0485,1.74119375,1.0,2717.1985691345626,0.42078578781472853,1.3072996245885269,0.9732104131719127,0.2861831375,0.6988741732390001
0.049,1.739975,1.0,2715.333628629744,0.42403471661725767,1.306766214212154,0.9735703444400177,0.28613195,0.6999186537561951
0.0495,1.73874375,1.0,2713.419882372625,0.4272654183970284,1.306227609447391,0.9739200773205812,0.2860802375,0.7009714643244138
0.05,1.7375,1.0,2711.462367327783,0.4304779970901845,1.3056837648350548,0.9742599832346889,0.286028,0.7020326400391166
0.0505,1.73624375,1.0,2709.46611444271,0.43367255663286985,1.3051346349159623,0.9745904164430254,0.2859752375,0.7031022148428011
0.051000000000000004,1.734975,1.0,2707.4361482624035,0.43684920096122815,1.304580174230931,0.9749117149884766,0.28592195,0.7041802215097439
0.051500000000000004,1.73369375,1.0,2705.3735574314346,0.440008015249127,1.3040203731942235,0.9752242018448133,0.2858681375,0.7052666220753989
0.052000000000000005,1.7324,1.0,2703.2843247514897,0.4431491176990764,1.3034551775100023,0.9755281862144338,0.2858138,0.7063614644208323
0.0525,1.73109375,1.0,2701.1716589707394,0.4462726106978899,1.3028845581498822,0.9758239634053584,0.28575893750000003,0.7074647462830057
0.053,1.729775,1.0,2699.037461808829,0.449378589559794,1.3023084979905692,0.9761118156998475,0.28570355000000003,0.7085764414626466
0.0535,1.72844375,1.0,2696.883632317568,0.4524671495990149,1.3017269799087687,0.976392013047363,0.2856476375,0.7096965229436654
0.054,1.7271,1.0,2694.7120668065913,0.45553838612977904,1.3011399867811861,0.9766648137058171,0.2855912,0.7108249628872036
0.0545,1.7257437500000001,1.0,2692.524658775266,0.45859239446631267,1.300547501484527,0.976930464844235,0.2855342375,0.7119617326256642
0.055,1.724375,1.0,2690.323298851355,0.4616292699228422,1.2999495068954967,0.9771892031094516,0.28547675,0.7131068026567231
0.0555,1.72299375,1.0,2688.1098747365786,0.4646491078135939,1.299345985890801,0.9774412551592766,0.2854187375,0.7142601426373227
0.056,1.7216,1.0,2685.886271157855,0.46765200345279423,1.2987369213471451,0.9776868381643697,0.2853602,0.7154217213776455
0.0565,1.72019375,1.0,2683.654369825635,0.4706380521546695,1.2981222961412349,0.9779261602809027,0.28530113749999997,0.7165915068350697
0.057,1.718775,1.0,2681.416049398766,0.4736073492334459,1.2975020931497754,0.9781594210959359,0.28524155,0.7177694661081071
0.0575,1.71734375,1.0,2679.1731854551404,0.47655999000334986,1.2968762952494726,0.9783868120472925,0.2851814375,0.7189555654303188
0.058,1.7159,1.0,2676.9276504698882,0.4794960697786078,1.2962448853170316,0.9786085168195803,0.2851208,0.7201497701642181
0.0585,1.7144441698535224,1.0,2674.702515832855,0.482415683525209,1.2956078411574348,0.9788247114054007,0.28505965513384796,0.7213520543566353
0.059000000000000004,1.712984909658773,1.0,2672.9047422193253,0.48531892211583405,1.2949653308257192,0.9790355749437699,0.28499836620566843,0.7225620331979401
0.059500000000000004,1.7115256494640236,1.0,2671.6575335689186,0.48820587644236296,1.2943177674753752,0.9792412929387396,0.28493707727748896,0.7237788639933387
0.06,1.7100663892692742,1.0,2670.9209347268975,0.4910766370939656,1.2936655147049227,0.9794420409875072,0.2848757883493095,0.72500180316675
0.0605,1.7086071290745248,1.0,2670.6551664861404,0.49393129465981167,1.2930089361128816,0.9796379879362551,0.28481449942113,0.7262301127487159
0.061,1.7071478688797754,1.0,2670.820589249128,0.4967699397290711,1.2923483952977717,0.9798292962022432,0.28475321049295055,0.7274630604809242
0.0615,1.705688608685026,1.0,2671.381965641502,0.4995926620211601,1.291684216386403,0.9800161199261298,0.2846919215647711,0.7286999933388074
0.062,1.7042293484902766,1.0,2672.3033552853526,0.5023995518557117,1.2910167306863491,0.9801986079089886,0.2846306326365916,0.7299402501933321
0.0625,1.7027700882955272,1.0,2673.558278816272,0.5051906972957129,1.2903461830994392,0.9803768987860657,0.28456934370841214,0.7311833353303157
0.063,1.7013108281007778,1.0,2675.1208895888913,0.5079661862615108,1.2896728130925952,0.9805511258055882,0.28450805478023267,0.7324287670759644
0.0635,1.6998515679060284,1.0,2676.965366593834,0.5107261066734531,1.2889968601327397,0.9807214173608534,0.2844467658520532,0.7336760677086023
0.064,1.698392307711279,1.0,2679.067651377953,0.5134705459001284,1.2883185476192816,0.9808878963554092,0.2843854769238737,0.7349247930443498
0.0645,1.6969330475165296,1.0,2681.4041031423,0.5161995916013692,1.287638095132955,0.9810506811218169,0.28432418799569426,0.7361745096565216
0.065,1.6954737873217802,1.0,2683.95612427904,0.5189133297712301,1.286955675943197,0.9812098833659954,0.2842628990675148,0.7374248725892312
0.0655,1.6940145271270308,1.0,2686.706979290957,0.5216118457398614,1.2862714461800444,0.9813656099624096,0.2842016101393353,0.7386755711160267
0.066,1.6925552669322814,1.0,2689.639920887333,0.5242952248374139,1.2855855619735326,0.9815179640481776,0.28414032121115584,0.7399262971692016
0.0665,1.691096006737532,1.0,2692.7416324579303,0.5269635501815693,1.2848981478951642,0.9816670434959386,0.2840790322829764,0.7411768026974016
0.067,1.6896367465427824,1.0,2695.9971616326775,0.52961690630713,1.28420934334051,0.9818129436211194,0.28401774335479685,0.742426814916952
0.0675,1.688177486348033,1.0,2699.3835411724394,0.532255383783573,1.2835193607517412,0.9819557603951377,0.2839564544266174,0.7436759313741199
0.068,1.6867182261532836,1.0,2702.892395776232,0.5348790639336938,1.28282827884693,0.9820955795723012,0.2838951654984379,0.744923994529602
0.0685,1.6852589659585342,1.0,2706.5153361962653,0.5374880280802884,1.2821361763441486,0.9822324840185873,0.28383387657025844,0.7461708482076005
0.069,1.6837997057637848,1.0,2710.2439573879337,0.5400823575461527,1.2814431319614694,0.9823665538308789,0.28377258764207897,0.7474163376011445
0.0695,1.6823404455690354,1.0,2714.06983679759,0.5426621336540826,1.2807492244169643,0.9824978664505085,0.2837112987138995,0.7486603092770187
0.07,1.680881185374286,1.0,2717.98453278679,0.5452274377268738,1.2800545324287058,0.9826264967714259,0.28365000978572,0.74990261118029
0.07050000000000001,1.6794219251795366,1.0,2721.979583194901,0.5477783510873223,1.2793591347147664,0.9827525172432724,0.2835887208575405,0.7511430926384471
0.07100000000000001,1.6779626649847872,1.0,2726.046504038968,0.5503149550582238,1.2786631099932178,0.9828759979696383,0.28352743192936103,0.7523816043651398
0.07150000000000001,1.6765034047900378,1.0,2730.1767883499883,0.5528373309623743,1.2779665369821325,0.982997006801755,0.28346614300118156,0.753617998463523
0.07200000000000001,1.6750441445952884,1.0,2734.3667701132194,0.5553455529327953,1.277269450218237,0.9831156070039672,0.2834048540730021,0.7548522065550913
0.0725,1.673584884400539,1.0,2738.6075662491853,0.5578397065339284,1.2765719314913304,0.9832318626266463,0.2833435651448226,0.7560840775228153
0.073,1.6721256242057896,1.0,2742.8909000783015,0.5603198761388457,1.2758740568523386,0.9833458353818174,0.28328227621664315,0.7573134717979358
0.0735,1.6706663640110402,1.0,2747.2136681186544,0.5627861377316136,1.2751758552530035,0.9834575824853182,0.2832209872884637,0.7585403338194454
