Time [s],Phi [rad],STIM [ ],Fsee [N],Gamma [ ],Lcerel [ ],q [ ],Lmtc [m],fisomrel [ ]
0.0,1.8,1.0,18.763921699998015,0.0009098029687511651,1.3792514503224316,0.005212800153421855,0.288653,0.5413531167995287
0.0005,1.79999375,1.0,19.341477444381297,0.006513909002391049,1.3791857907337086,0.015626050258656304,0.2886527375,0.5415119136022071
0.001,1.799975,1.0,23.351837741374375,0.012086580432531465,1.378764668641971,0.04045023347278368,0.28865195,0.5425297378461031
0.0015,1.79994375,1.0,34.317314474277175,0.017627993581736646,1.377776356005749,0.07712837376948103,0.2886506375,0.5449139822800306
0.002,1.7999,1.0,59.802073570259275,0.023138323785104463,1.375975705859376,0.12238265813615797,0.2886488,0.5492419279449745
0.0025,1.79984375,1.0,106.91846335457687,0.02861774539267974,1.373474297860477,0.17287219908903956,0.28864643749999996,0.5552198623648714
0.003,1.7997750000000001,1.0,173.30185596177657,0.03406643177779607,1.3707608417612356,0.2258134044987827,0.28864354999999997,0.5616594330883292
0.0035,1.79969375,1.0,251.40829446919224,0.03948455534051631,1.368167902086465,0.27908085706305613,0.2886401375,0.5677691194937855
0.004,1.7996,1.0,335.94100246030547,0.04487228751404238,1.3657769461313594,0.3311015774320649,0.2886362,0.573364877802349
0.0045000000000000005,1.7994937500000001,1.0,424.17032890083016,0.05022979877345527,1.3635761216463995,0.3807955676895707,0.2886317375,0.5784834303844468
0.005,1.799375,1.0,514.5523436528803,0.055557258623221265,1.3615390449346003,0.4275022228181074,0.28862675,0.5831936192212279
0.0055,1.79924375,1.0,606.0175206399301,0.060854835639726906,1.3596432270037266,0.4708862987554794,0.2886212375,0.587553409663093
0.006,1.7991000000000001,1.0,697.7182035520085,0.0661226974384965,1.3578716389073295,0.5108462450069294,0.2886152,0.5916067923016006
0.006500000000000001,1.79894375,1.0,788.9574939988612,0.0713610106980755,1.3562111337468719,0.5474372825279998,0.2886086375,0.5953878450088271
0.007,1.798775,1.0,879.1594973081743,0.07656994116154446,1.3546511621679922,0.5808125252739836,0.28860155,0.5989239578217236
0.0075,1.79859375,1.0,967.8496038677258,0.08174965366277803,1.3531829719228847,0.6111804846003087,0.2885939375,0.6022378454837973
0.008,1.7984,1.0,1054.6336631844893,0.08690031183618926,1.3517991887254,0.6387758303242383,0.2885858,0.605348631416296
0.0085,1.79819375,1.0,1139.2369296320883,0.09202207930581924,1.3504927531097914,0.663839646598133,0.2885771375,0.6082743304130063
0.009000000000000001,1.797975,1.0,1221.4115582687577,0.09711511765630806,1.3492579315421136,0.6866080406656444,0.28856795,0.6110296468588148
0.0095,1.79774375,1.0,1300.9788286190671,0.102179587812817,1.348089390474467,0.7073045463481229,0.2885582375,0.6136281130073789
0.01,1.7975,1.0,1377.8266699830262,0.1072156501946312,1.3469820504083247,0.7261363558885349,0.288548,0.6160824511939884
0.0105,1.79724375,1.0,1451.8907459713353,0.11222346475581685,1.3459311867200014,0.7432928614488302,0.2885372375,0.6184043815513123
0.011,1.796975,1.0,1523.1065940079254,0.11720318925656904,1.3449328818704436,0.7589457088191154,0.28852595000000003,0.6206036575400211
0.0115,1.79669375,1.0,1591.4556214015065,0.12215498119571136,1.3439833156445786,0.773249097334806,0.2885141375,0.62268966376965
0.012,1.7964,1.0,1656.9517105870968,0.12707899729676775,1.3430788547064445,0.7863409570308013,0.28850180000000003,0.6246712355016402
0.0125,1.79609375,1.0,1719.635357062956,0.13197539430652758,1.3422160516353736,0.7983442973622159,0.2884889375,0.6265566773057887
0.013000000000000001,1.7957750000000001,1.0,1779.5306502464532,0.13684432622343368,1.3413920690318502,0.8093687852390984,0.28847555,0.6283528545987005
0.0135,1.79544375,1.0,1836.689498634459,0.1416859468768666,1.3406041029776978,0.8195118864164657,0.2884616375,0.6300664701363451
0.014,1.7951000000000001,1.0,1891.17986666193,0.1465004093595216,1.3398494794870812,0.8288602314707499,0.2884472,0.6317038625394131
0.0145,1.79474375,1.0,1943.08701864236,0.1512878673665844,1.339125605402604,0.8374908223204256,0.2884322375,0.6332711216846856
0.015,1.794375,1.0,1992.479210613951,0.156048472067203,1.3384303045968418,0.845472252980352,0.28841675,0.634773370314059
0.0155,1.79399375,1.0,2039.421929202737,0.1607823731056884,1.3377616228536386,0.8528656232711879,0.2884007375,0.6362151981099375
0.016,1.7936,1.0,2083.9964781202825,0.16548972012635163,1.3371176059568393,0.8597253521083906,0.2883842,0.6376011471745193
0.0165,1.7931937500000001,1.0,2126.2933999417282,0.17017066226926353,1.336496353475595,0.8660999853697127,0.2883671375,0.6389355998011081
0.017,1.792775,1.0,2166.4047309095236,0.1748253483543192,1.3358960823173698,0.8720329097403321,0.28834955,0.6402226463132741
0.0175,1.7923437500000001,1.0,2204.419601985701,0.17945392650240174,1.3353151544340267,0.8775629672607534,0.2883314375,0.641466030634199
0.018000000000000002,1.7919,1.0,2240.4066671147752,0.18405654181590678,1.3347522370531981,0.8827250276167561,0.2883128,0.6426688130991054
0.0185,1.79144375,1.0,2274.4427309276243,0.18863333939722976,1.334205997402516,0.8875503703617325,0.2882936375,0.6438340283807062
0.019,1.790975,1.0,2306.612069417646,0.19318446434876632,1.3336751027096123,0.8920671001577178,0.28827395,0.6449646869634238
0.0195,1.79049375,1.0,2336.993839947351,0.19771006027120724,1.3331583375912457,0.8963005376632113,0.2882537375,0.6460635270836658
0.02,1.79,1.0,2365.6808148619375,0.20221027262730681,1.3326544117119465,0.9002734914139546,0.288233,0.647133425920213
0.0205,1.78949375,1.0,2392.7437620646438,0.2066852433372588,1.3321623026964209,0.9040066136431487,0.2882117375,0.6481766730465921
0.021,1.788975,1.0,2418.24576546111,0.2111351126739027,1.3316811058156066,0.9075186047965982,0.28818995000000003,0.649195293510639
0.021500000000000002,1.78844375,1.0,2442.25378188251,0.21556002091007798,1.331209916340441,0.9108264021720992,0.2881676375,0.6501912988448919
0.022,1.7879,1.0,2464.83831803359,0.2199601083186241,1.3307478295418618,0.913945370479595,0.2881448,0.6511666876701134
0.0225,1.78734375,1.0,2486.067476342917,0.22433551399925575,1.3302939944956216,0.9168894796034219,0.28812143749999997,0.6521233329085661
0.023,1.786775,1.0,2506.0103871650745,0.22868637765186606,1.3298475777302026,0.9196714451711046,0.28809755,0.6530630595201466
0.0235,1.78619375,1.0,2524.7336872197325,0.2330128384013727,1.329407793782885,0.9223028637144395,0.28807313749999996,0.6539875809792486
0.024,1.7856,1.0,2542.2878840788508,0.23731503136626697,1.3289740305912987,0.9247943479961255,0.2880482,0.6548982372337859
0.0245,1.78499375,1.0,2558.725322024736,0.24159309166504017,1.3285456760930736,0.9271555969152062,0.2880227375,0.6557963607160241
0.025,1.784375,1.0,2574.100027892679,0.24584715441618363,1.32812211822584,0.9293954867282809,0.28799675,0.6566832765656501
0.025500000000000002,1.78374375,1.0,2588.467565219363,0.25007735473818865,1.3277027449272276,0.9315221520552451,0.2879702375,0.6575603028289554
0.026000000000000002,1.7831000000000001,1.0,2601.8766186567723,0.25428382565153246,1.3272870212023566,0.933543069490093,0.2879432,0.6584285897719648
0.0265,1.78244375,1.0,2614.3806338414242,0.2584667025147058,1.326874378894122,0.9354651048393314,0.2879156375,0.659289350837315
0.027,1.781775,1.0,2626.031654384902,0.26262611948782716,1.3264642731714593,0.9372945781054468,0.28788755,0.6601437447150217
0.0275,1.7810937500000001,1.0,2636.8664514179604,0.26676220610114565,1.3260563095780358,0.9390373320290505,0.2878589375,0.6609926115572453
0.028,1.7804,1.0,2646.9225642791916,0.2708750918849105,1.3256500936575184,0.9406987552323987,0.2878298,0.6618367873113824
0.0285,1.77969375,1.0,2656.23823413484,0.27496490636937093,1.3252452309535745,0.9422838234663041,0.2878001375,0.6626771037689924
0.029,1.778975,1.0,2664.8523410483735,0.27903177908477617,1.324841327009871,0.943797136613623,0.28776995,0.6635143886048027
0.029500000000000002,1.7782437500000001,1.0,2672.8043444992763,0.2830758395613754,1.3244379873700751,0.9452429519320708,0.2877392375,0.6643494654057875
0.03,1.7775,1.0,2680.127806282198,0.28709721488051254,1.324034876478056,0.9466252209548455,0.287708,0.665183031970188
0.0305,1.77674375,1.0,2686.861080144409,0.29109603496362796,1.3236316188940054,0.9479476045978045,0.2876762375,0.666015864961879
0.031,1.775975,1.0,2693.0380176905323,0.29507242724494576,1.323227884184529,0.9492135070042884,0.28764395,0.6668486444055889
0.0315,1.7751937500000001,1.0,2698.6844554421195,0.2990265156176201,1.3228234183955196,0.9504261006039159,0.2876111375,0.6676818894624722
0.032,1.7744,1.0,2703.8265125297903,0.3029584239748052,1.3224179675728704,0.951588336928076,0.2875778,0.6685161166651131
0.0325,1.77359375,1.0,2708.490563739579,0.3068682762096553,1.3220112777624737,0.9527029646928502,0.2875439375,0.669351839903632
0.033,1.772775,1.0,2712.703213988205,0.31075619621532447,1.3216030950102229,0.9537725461937744,0.28750955,0.6701895704076708
0.0335,1.7719437500000002,1.0,2716.491274229575,0.314622307884967,1.3211931653620104,0.9547994721880533,0.2874746375,0.6710298167242739
0.034,1.7711000000000001,1.0,2719.871269451743,0.31846673037210155,1.3207813301942597,0.9557859848221657,0.2874392,0.6718728896645452
0.0345,1.7702437500000001,1.0,2722.876414714522,0.32228959109026406,1.3203672802574564,0.9567341654536907,0.2874032375,0.6727194060600777
0.035,1.7693750000000001,1.0,2725.532389637964,0.32609101256146594,1.3199507762853373,0.9576459676467423,0.28736675,0.6735698365893178
0.035500000000000004,1.76849375,1.0,2727.855355730082,0.3298711126160467,1.3195316666677137,0.9585232287248917,0.2873297375,0.674424470652274
0.036000000000000004,1.7676,1.0,2729.86156644875,0.3336300090843458,1.3191097997943968,0.9593676704393977,0.2872922,0.6752835959029975
0.0365,1.76669375,1.0,2731.567357239542,0.3373678197967027,1.3186850240551977,0.9601809075506166,0.2872541375,0.6761474982236546
0.037,1.765775,1.0,2732.9891360828938,0.3410846625834571,1.3182571878399278,0.9609644556794792,0.28721555,0.677016461697133
0.0375,1.76484375,1.0,2734.143374551226,0.3447806552749483,1.3178261395383986,0.9617197384985563,0.2871764375,0.6778907685781838
0.038,1.7639,1.0,2735.046599375463,0.34845591570151585,1.3173917275404208,0.9624480943249494,0.28713679999999997,0.6787706992630973
0.0385,1.76294375,1.0,2735.715384521372,0.35211056169349925,1.3169538002358057,0.9631507821707798,0.28709663750000003,0.6796565322579113
0.039,1.761975,1.0,2736.167164023484,0.3557447037116126,1.3165121985677035,0.9638289851742667,0.28705595,0.6805485591767814
0.0395,1.7609937500000001,1.0,2736.4164461371165,0.35935846640123725,1.3160667903400396,0.9644838231761921,0.2870147375,0.6814470154468923
0.04,1.76,1.0,2736.473658344086,0.36295196151724635,1.3156174806404588,0.9651163527642453,0.286973,0.6823520596752858
0.0405,1.7589937500000001,1.0,2736.349242036771,0.36652530069514566,1.3151641746247307,0.9657275706971923,0.2869307375,0.6832638489576284
0.041,1.757975,1.0,2736.053656453922,0.3700785955704411,1.3147067774486247,0.9663184179321819,0.28688795,0.6841825389920337
0.0415,1.75694375,1.0,2735.5973753133844,0.37361195777863837,1.3142451942679103,0.9668897833254065,0.2868446375,0.6851082840546023
0.042,1.7559,1.0,2734.990883643974,0.37712549895524344,1.3137793302383574,0.9674425070504439,0.28680079999999997,0.6860412369743873
0.0425,1.75484375,1.0,2734.2446748170864,0.38061933073576204,1.313309090515735,0.9679773837585022,0.2867564375,0.6869815491077902
0.043000000000000003,1.753775,1.0,2733.3692477767345,0.3840935647557,1.3128343802558127,0.9684951655024885,0.28671155,0.6879293703123776
0.043500000000000004,1.75269375,1.0,2732.3727990436305,0.3875483071810472,1.3123551255587977,0.9689965652738339,0.28666613750000003,0.6888848071975373
0.044,1.7516,1.0,2731.263888638625,0.3909836701848135,1.3118712492445925,0.9694822593110594,0.2866202,0.6898479716027336
0.0445,1.75049375,1.0,2730.0526928467953,0.3943997705120302,1.311382659447313,0.9699528882438282,0.2865737375,0.6908190031744856
0.045,1.7493750000000001,1.0,2728.7450168678547,0.39779671318344284,1.3108893040126532,0.9704090610800343,0.28652675,0.6917979612580614
0.0455,1.74824375,1.0,2727.3466657582644,0.401174603219797,1.310391130786308,0.9708513558512522,0.2864792375,0.6927849041109597
0.046,1.7471,1.0,2725.8634434444975,0.40453354564183813,1.3098880876139714,0.9712803214833812,0.2864312,0.6937798888869758
0.0465,1.7459437500000001,1.0,2724.3011517963996,0.4078736454703119,1.3093801223413377,0.9716964795370012,0.28638263750000004,0.6947829716200858
0.047,1.744775,1.0,2722.665589760674,0.4111950077259639,1.3088671828141016,0.9721003258276713,0.28633355,0.6957942072081643
0.0475,1.74359375,1.0,2720.962552555683,0.4144977374295396,1.3083492168779576,0.9724923319355072,0.28628393750000003,0.6968136493965251
0.048,1.7424,1.0,2719.197830924857,0.4177819396017846,1.3078261723785995,0.9728729466125771,0.2862338,0.6978413507612906
0.0485,1.74119375,1.0,2717.377210452145,0.4210477192634445,1.3072979971617225,0.9732425970959132,0.2861831375,0.698877362692583
0.049,1.739975,1.0,2715.506470936433,0.4242951814352648,1.3067646390730203,0.9736016903332882,0.28613195,0.6999217353775498
0.0495,1.73874375,1.0,2713.5869973496274,0.4275244208081879,1.3062260859645631,0.9739506156179005,0.2860802375,0.7009744396518622
0.05,1.7375,1.0,2711.626001273739,0.4307355506649724,1.3056822725477697,0.9742897427308246,0.286028,0.7020355492666807
0.0505,1.73624375,1.0,2709.628395752937,0.43392867534703644,1.3051331544190063,0.9746194247135254,0.2859752375,0.7031050959002132
0.051000000000000004,1.734975,1.0,2707.596811179323,0.43710389293598334,1.3045787079490387,0.9749399991160895,0.28592195,0.704183069719688
0.051500000000000004,1.73369375,1.0,2705.533874762306,0.4402613015134164,1.3040189095086328,0.9752517882054971,0.2858681375,0.7052694600165235
0.052000000000000005,1.7324,1.0,2703.4422103687807,0.4434009991609389,1.3034537354685543,0.9755550997888157,0.2858138,0.7063642551982803
0.0525,1.73109375,1.0,2701.324438376108,0.4465230839601541,1.3028831621995693,0.9758502279851176,0.28575893750000003,0.7074674427805784
0.053,1.729775,1.0,2699.183175536558,0.44962765399266547,1.302307166072444,0.9761374539497265,0.28570355000000003,0.708579009378979
0.0535,1.72844375,1.0,2697.02103485505,0.45271480734007613,1.3017257234579436,0.9764170465541244,0.2856476375,0.709698940700831
0.054,1.7271,1.0,2694.8406254788783,0.45578464208398956,1.3011388107268345,0.9766892630245885,0.2855912,0.7108272215370783
0.0545,1.7257437500000001,1.0,2692.644552599426,0.4588372563060089,1.3005464042498824,0.9769543495423878,0.2855342375,0.7119638357540379
0.055,1.724375,1.0,2690.4354173670386,0.4618727480877376,1.2999484803978534,0.9772125418081629,0.28547675,0.7131087662851359
0.0555,1.72299375,1.0,2688.215074884451,0.46489121410736334,1.299345022336995,0.9774640658420152,0.2854187375,0.7142619821494389
0.056,1.7216,1.0,2685.9850765554097,0.4678927486567236,1.2987360159893517,0.9777091381465396,0.2853602,0.7154234462717148
0.0565,1.72019375,1.0,2683.7499108875427,0.4708774503549036,1.2981214203304559,0.977947965081011,0.28530113749999997,0.7165931720030346
0.057,1.718775,1.0,2681.510563358935,0.4738454116901224,1.2975012263926717,0.978180745793474,0.28524155,0.717771110634108
0.0575,1.71734375,1.0,2679.2680178312326,0.47679672515059907,1.2968754252083634,0.9784076713130619,0.2851814375,0.718957212714775
0.058,1.7159,1.0,2677.0232565414035,0.47973148322455267,1.2962440078098956,0.9786289249441106,0.2851208,0.7201514280507989
0.0585,1.71444375,1.0,2674.7772600953563,0.4826497784002023,1.295606965229632,0.978844682638096,0.2850596375,0.7213537057006605
0.059000000000000004,1.7129750000000001,1.0,2672.5310074625504,0.48555170316576696,1.2949642884999373,0.9790551133448131,0.28499795,0.7225639939723398
0.059500000000000004,1.71149375,1.0,2670.2854759733086,0.48843735000946575,1.2943159686531753,0.9792603793441047,0.2849357375,0.7237822404200993
0.06,1.71,1.0,2668.041103926833,0.4913068076802054,1.2936620016623266,0.979460636522003,0.284873,0.7250083825882516
0.0605,1.7084937500000001,1.0,2665.7982267503485,0.49416015727237156,1.2930023844397687,0.9796560341488222,0.2848097375,0.7262423555886799
0.061,1.7069750000000001,1.0,2663.5619244544946,0.4969975132015441,1.2923370702356467,0.9798467160715941,0.28474595,0.7274841752743577
0.0615,1.7054437500000001,1.0,2661.3325651364876,0.4998189616737068,1.2916660555962394,0.9800328206727313,0.2846816375,0.7287337755514395
0.062,1.7039,1.0,2659.1105162849226,0.5026245888948433,1.290989337067826,0.9802144810894832,0.2846168,0.7299910896454946
0.0625,1.70234375,1.0,2656.896144783486,0.5054144810709372,1.2903069111966858,0.9803918254504833,0.2845514375,0.7312560501002537
0.063,1.7007750000000001,1.0,2654.6898169160436,0.5081887244079725,1.289618774529098,0.9805649770999119,0.28448555,0.7325285887763506
0.0635,1.69919375,1.0,2652.4918983715315,0.5109474051119326,1.2889249236113416,0.9807340548100081,0.28441913750000003,0.7338086368500651
0.064,1.6976,1.0,2650.302754248629,0.5136906093888013,1.288225354989696,0.9808991729826205,0.2843522,0.7350961248120654
0.0645,1.69599375,1.0,2648.122749061925,0.5164184234445625,1.2875200652104402,0.9810604418404332,0.2842847375,0.7363909824661488
0.065,1.694375,1.0,2645.95224674696,0.5191309334851995,1.2868090508198535,0.9812179676084722,0.28421675,0.7376931389279805
0.0655,1.69274375,1.0,2643.791610666565,0.5218282257166963,1.2860923083642148,0.9813718526864494,0.2841482375,0.7390025226238361
0.066,1.6911,1.0,2641.6412036168813,0.5245103863450366,1.2853698343898037,0.9815221958124675,0.2840792,0.7403190612893369
0.0665,1.6894437500000001,1.0,2639.501387834038,0.527177501576204,1.2846416254428992,0.9816690922185836,0.2840096375,0.7416426819681897
0.067,1.687775,1.0,2637.3725250005077,0.5298296576161823,1.2839076780697802,0.9818126337786824,0.28393955,0.7429733110109249
0.0675,1.68609375,1.0,2635.2520397507365,0.5324669186240818,1.2831680159815229,0.9819529089926091,0.2838689375,0.7443108250162245
0.068,1.6844000000000001,1.0,2633.138290747277,0.5350893591752831,1.2824226542838304,0.9820900035835127,0.2837978,0.7456551159033036
0.0685,1.68269375,1.0,2631.038259872981,0.5376971133736951,1.2816715282718272,0.9822240003982196,0.2837261375,0.7470062186256801
0.069,1.680975,1.0,2628.9517689974996,0.5402902587480427,1.280914639452638,0.9823549788765492,0.28365395,0.7483640476441147
0.0695,1.67924375,1.0,2626.8786403415484,0.5428688728270509,1.2801519893333875,0.982483015759525,0.28358123749999997,0.7497285168129642
0.07,1.6775,1.0,2624.8186964731294,0.5454330331394447,1.2793835794212,0.9826081851979711,0.283508,0.7510995393807334
0.07050000000000001,1.67574375,1.0,2622.7717603034484,0.547982817213949,1.2786094112232003,0.9827305588560202,0.2834342375,0.7524770279906304
0.07100000000000001,1.673975,1.0,2620.73765508324,0.5505183025792889,1.2778294862465127,0.9828502060098011,0.28335995,0.7538608946811187
0.07150000000000001,1.67219375,1.0,2618.716204399142,0.5530395667641892,1.277043805998262,0.9829671936415658,0.2832851375,0.7552510508864712
0.07200000000000001,1.6704,1.0,2616.707232169732,0.5555466872973751,1.276252371985573,0.983081586529489,0.2832098,0.7566474074373235
0.0725,1.66859375,1.0,2614.710562642067,0.5580397417075714,1.2754551857155698,0.9831934473333713,0.2831339375,0.7580498745612275
0.073,1.6667750000000001,1.0,2612.726020388079,0.5605188075235031,1.2746522486953773,0.9833028366764577,0.28305755,0.7594583618832036
0.0735,1.66494375,1.0,2610.753430300829,0.5629839622738954,1.2738435624321198,0.9834098132235666,0.2829806375,0.7608727784262936
0.074,1.6631,1.0,2608.792617591103,0.565435283487473,1.2730291284329225,0.983514433755725,0.2829032,0.7622930326121133
0.0745,1.6612437500000001,1.0,2606.843407784145,0.567872848692961,1.2722089482049093,0.9836167532414819,0.2828252375,0.7637190322614064
0.075,1.659375,1.0,2604.905626716069,0.5702967354190843,1.271383023255205,0.9837168249050722,0.28274675,0.7651506845945946
0.0755,1.65749375,1.0,2602.9791005304724,0.572707021194568,1.2705513550909342,0.9838147002915847,0.2826677375,0.7665878962323318
