Time [s],Phi [rad],STIM [ ],Fsee [N],Gamma [ ],Lcerel [ ],q [ ],Lmtc [m],fisomrel [ ]
0.0,1.8,1.0,17.97251394627335,7.700259019763387e-05,1.379339146238103,0.005001555033813537,0.288653,0.5411409825616935
0.0005,1.79999375,1.0,18.304122616263154,0.005685779975376487,1.3792993477124722,0.013127573365855714,0.2886527375,0.5412372602834602
0.001,1.799975,1.0,21.69557787401854,0.011263096554020368,1.378930424672282,0.03595857490615465,0.28865195,0.5421292514594516
0.0015,1.79994375,1.0,31.252788346651865,0.01680912879729531,1.3780305887284916,0.07108025924881846,0.2886506375,0.544301256331601
0.002,1.7999,1.0,53.978033758728216,0.022324052184618845,1.376342511425754,0.11528425673860741,0.2886488,0.548361970962233
0.0025,1.79984375,1.0,97.78380944501582,0.027808041211674368,1.3739031833212183,0.16519068717935909,0.28864643749999996,0.5541977343822049
0.003,1.7997750000000001,1.0,161.82322237228948,0.03326126939751266,1.3711820072928542,0.2179156174604362,0.28864354999999997,0.560663002111121
0.0035,1.79969375,1.0,238.66070048682732,0.038683909284639155,1.368554659569757,0.2712445505297724,0.2886401375,0.5668605322366724
0.004,1.7996,1.0,322.5065751945433,0.044076132449656844,1.3661285741979508,0.3235273690923132,0.2886362,0.5725442192467337
0.0045000000000000005,1.7994937500000001,1.0,410.34448261209246,0.049438109508491805,1.3638975557685664,0.3736150086334937,0.2886317375,0.5777377835002012
0.005,1.799375,1.0,500.5121565150941,0.05477001010784906,1.3618350089013376,0.4207905378976128,0.28862675,0.5825109258079368
0.0055,1.79924375,1.0,591.8987063407653,0.060072002968955866,1.3599171919002042,0.464676488506802,0.2886212375,0.5869247926488252
0.006,1.7991000000000001,1.0,683.6276243232247,0.06534425583963431,1.3581262548896036,0.5051420132860146,0.2886152,0.5910254641541668
0.006500000000000001,1.79894375,1.0,774.983407228881,0.07058693554413367,1.3564484458984627,0.5422232331451711,0.2886086375,0.5948485504354933
0.007,1.798775,1.0,865.3637401120744,0.07580020779506191,1.3548729884161095,0.5760618932074135,0.28860155,0.5984220729994255
0.0075,1.79859375,1.0,954.3121551798087,0.08098423804448752,1.353390342399447,0.6068600911608846,0.2885939375,0.6017706182997498
0.008,1.7984,1.0,1041.4105965868157,0.08613918991010382,1.3519931595880499,0.6348501867124766,0.2885858,0.6049133150612935
0.0085,1.79819375,1.0,1126.338531211528,0.09126522636200646,1.3506747444223652,0.6602734526308515,0.2885771375,0.6078674222713929
0.009000000000000001,1.797975,1.0,1208.876739843966,0.0963625098512443,1.3494286942250038,0.6833669925420771,0.28856795,0.6106491953195434
0.0095,1.79774375,1.0,1288.8411298057583,0.10143120181035692,1.3482495693122634,0.7043564800294613,0.2885582375,0.6132724409241808
0.01,1.7975,1.0,1366.092396492489,0.10647146221447602,1.3471324940806781,0.7234517933285662,0.288548,0.6157494628613774
0.0105,1.79724375,1.0,1440.5396270739602,0.11148345024541158,1.346072932594621,0.7408451038328921,0.2885372375,0.6180915986140272
0.011,1.796975,1.0,1512.174139261909,0.11646732597041291,1.3450661484759825,0.7567103078012536,0.28852595000000003,0.6203104374233138
0.0115,1.79669375,1.0,1580.9531415902263,0.12142324615156386,1.3441085433018063,0.7712042481755297,0.2885141375,0.6224148929423117
0.012,1.7964,1.0,1646.8645763263687,0.1263513670066067,1.3431967137027836,0.7844672980175542,0.28850180000000003,0.6244133153814082
0.0125,1.79609375,1.0,1709.9382922324346,0.13125184475328383,1.3423272563096058,0.7966246062775779,0.2884889375,0.6263139336337291
0.013000000000000001,1.7957750000000001,1.0,1770.225156084169,0.1361248347221421,1.3414969611730347,0.8077876026452079,0.28847555,0.6281244435892309
0.0135,1.79544375,1.0,1827.7848286812075,0.1409704916819836,1.3407028933636072,0.8180554288575737,0.2884616375,0.6298518445588857
0.014,1.7951000000000001,1.0,1882.663829407717,0.14578896812509742,1.3399425791804518,0.8275163281534005,0.2884472,0.6315020499366781
0.0145,1.79474375,1.0,1934.930602888892,0.15058041641581846,1.3392135678049184,0.8362487057017532,0.2884322375,0.6330808527329657
0.015,1.794375,1.0,1984.6572438950714,0.1553449878556308,1.3385136023532016,0.8443223201437494,0.28841675,0.6345935619319468
0.0155,1.79399375,1.0,2031.9479940381218,0.16008283504408402,1.337840287863766,0.8517991856423699,0.2884007375,0.6360457267095908
0.016,1.7936,1.0,2076.871536797045,0.1647941069436964,1.3371917868156922,0.8587347030233095,0.2883842,0.6374416419133955
0.0165,1.7931937500000001,1.0,2119.499535320624,0.16947895178739564,1.336566376360331,0.8651783010549621,0.2883671375,0.6387853134683547
0.017,1.792775,1.0,2159.916123821563,0.1741375178081094,1.3359623336490347,0.8711741094740759,0.28834955,0.6400807090851234
0.0175,1.7923437500000001,1.0,2198.2103850277563,0.1787699525478886,1.3353780012420904,0.8767616030229576,0.2883314375,0.6413316207999376
0.018000000000000002,1.7919,1.0,2234.4752808332164,0.18337640366154392,1.3348117851503614,0.8819761481733946,0.2883128,0.6425416725906514
0.0185,1.79144375,1.0,2268.7930704600344,0.18795701715328558,1.3342622888179836,0.8868495151131629,0.2882936375,0.64371403786404
0.019,1.790975,1.0,2301.233274477495,0.1925119367422256,1.3337283182516926,0.8914102920811378,0.28827395,0.6448514336635747
0.0195,1.79049375,1.0,2331.871922549409,0.1970413061474759,1.3332086794582243,0.895684200355729,0.2882537375,0.6459565559110534
0.02,1.79,1.0,2360.7910087881896,0.2015452690881484,1.3327021784443145,0.8996944197736352,0.288233,0.6470320805433913
0.0205,1.78949375,1.0,2388.063107019735,0.20602396726988448,1.3322077657354936,0.9034619054646563,0.2882117375,0.6480803583706358
0.021,1.788975,1.0,2413.780952904183,0.21047754545338482,1.331724241926765,0.9070055721185838,0.28818995000000003,0.6491040411929627
0.021500000000000002,1.78844375,1.0,2438.0074457651235,0.214906143432513,1.3312507384317693,0.9103426159579882,0.2881676375,0.6501050646951771
0.022,1.7879,1.0,2460.802543981389,0.21930990005575718,1.3307864482626781,0.9134886448390523,0.2881448,0.6510852220847021
0.0225,1.78734375,1.0,2482.2292944057062,0.22368895417160561,1.330330564431662,0.9164578357928043,0.28812143749999997,0.6520462952878174
0.023,1.786775,1.0,2502.3535737337506,0.22804344462854648,1.3298822799508923,0.9192630860034369,0.28809755,0.652990055403065
0.0235,1.78619375,1.0,2521.238343072197,0.23237350919527283,1.3294408398609765,0.9219161552534385,0.28807313749999996,0.653918153800046
0.024,1.7856,1.0,2538.946858827291,0.2366792857392419,1.3290055078952683,0.9244277770032281,0.2880482,0.6548321931587263
0.0245,1.78499375,1.0,2555.5462620793764,0.24096091256999275,1.3285755305531093,0.9268077560493811,0.2880227375,0.6557338033218838
0.025,1.784375,1.0,2571.0822636183043,0.24521852327827692,1.3281503727061936,0.9290650995827371,0.28799675,0.6566241482550581
0.025500000000000002,1.78374375,1.0,2585.602019670188,0.24945225145484595,1.3277294992262152,0.931208060259487,0.2879702375,0.6575043856407341
0.026000000000000002,1.7831000000000001,1.0,2599.1540109125453,0.25366223069045135,1.3273123749848683,0.9332442096546563,0.2879432,0.6583756670336893
0.0265,1.78244375,1.0,2611.787927839197,0.2578485945758447,1.3268984648538467,0.935180503669202,0.2879156375,0.6592391379980815
0.027,1.781775,1.0,2623.5517203697927,0.2620114758426769,1.3264872600549535,0.9370233445689768,0.28788755,0.6600958833603607
0.0275,1.7810937500000001,1.0,2634.487739185554,0.266151005769845,1.3260783126436475,0.9387786375942435,0.2878589375,0.6609468559421929
0.028,1.7804,1.0,2644.6512551897295,0.27026731940766285,1.3256710630667468,0.9404518132422598,0.2878298,0.6617932355898439
0.0285,1.77969375,1.0,2654.0760223621437,0.27436054481110494,1.325265157888437,0.9420479123212889,0.2878001375,0.6626357686983744
0.029,1.778975,1.0,2662.796403417952,0.27843081003514575,1.324860243672904,0.9435715939760052,0.28776995,0.6634751979616755
0.029500000000000002,1.7782437500000001,1.0,2670.8473164208463,0.2824782431347599,1.3244559669843343,0.9450271695121577,0.2877392375,0.66431226239879
0.03,1.7775,1.0,2678.2641841658533,0.2865029721649219,1.324051974386914,0.9464186328195361,0.287708,0.665147697372267
0.0305,1.77674375,1.0,2685.0828863317306,0.2905051251806062,1.3236479124448286,0.9477496877723639,0.2876762375,0.6659822345985478
0.031,1.775975,1.0,2691.332186598655,0.2944848271843794,1.3232434966305968,0.9490237807437656,0.28764395,0.6668164600957441
0.0315,1.7751937500000001,1.0,2697.0449298511367,0.29844220618516154,1.322838408183865,0.9502441111439301,0.2876111375,0.6676510274276406
0.032,1.7744,1.0,2702.2608186309085,0.30237739201956076,1.3224322686158265,0.951413648487716,0.2875778,0.6684867096787357
0.0325,1.77359375,1.0,2707.001940065712,0.3062905065619595,1.3220248630339644,0.9525351751937133,0.2875439375,0.6693239400126163
0.033,1.772775,1.0,2711.2905956200193,0.3101816716867401,1.321615976545762,0.9536112845689175,0.28750955,0.6701631493320022
0.0335,1.7719437500000002,1.0,2715.1492807426125,0.31405100926828494,1.3212053942587025,0.9546443959352618,0.2874746375,0.6710047662599218
0.034,1.7711000000000001,1.0,2718.6006655378596,0.3178986411809763,1.3207929012802695,0.9556367683747568,0.2874392,0.6718492171179442
0.0345,1.7702437500000001,1.0,2721.667576461165,0.3217246892991966,1.3203782827179458,0.9565905132339931,0.2874032375,0.6726969259014669
0.035,1.7693750000000001,1.0,2724.372979037686,0.32552927549732824,1.3199613236792147,0.9575076055130434,0.28736675,0.6735483142520562
0.035500000000000004,1.76849375,1.0,2726.7399616055927,0.32931252164975355,1.3195418092715596,0.9583898942499627,0.2873297375,0.6744038014268439
0.036000000000000004,1.7676,1.0,2728.7851723949484,0.3330745422946602,1.3191195841262293,0.9592391164470134,0.2872922,0.6752636831221379
0.0365,1.76669375,1.0,2730.53637275966,0.33681546610075486,1.318694392651679,0.9600568940503245,0.2872541375,0.6761284569272241
0.037,1.765775,1.0,2732.0082148181195,0.34053540961229634,1.3182660991498734,0.9608447585271125,0.28721555,0.6769983741451626
0.0375,1.76484375,1.0,2733.2143599832257,0.3442344882556826,1.3178345774730222,0.9616041489634374,0.2871764375,0.6778736650591373
0.038,1.7639,1.0,2734.168522169818,0.3479128174573116,1.317399701473336,0.9623364180137823,0.28713679999999997,0.6787545583693787
0.0385,1.76294375,1.0,2734.884461211906,0.35157051264358147,1.3169613450030244,0.9630428380381691,0.28709663750000003,0.6796412811666892
0.039,1.761975,1.0,2735.3759766306816,0.35520768924089013,1.3165193819142977,0.9637246067391863,0.28705595,0.6805340589049456
0.0395,1.7609937500000001,1.0,2735.656901757684,0.35882446267563556,1.3160736860593656,0.9643828523446437,0.2870147375,0.6814331153725944
0.04,1.76,1.0,2735.7410982089455,0.36242094837421585,1.3156241312904382,0.9650186383769607,0.286973,0.6823386726631258
0.0405,1.7589937500000001,1.0,2735.6429327167566,0.3659972611643664,1.3151705870834145,0.965632967552602,0.2869307375,0.6832509599409944
0.041,1.7579754370135077,1.0,2735.400746095778,0.3695535121443407,1.3147129027597164,0.9662267839600007,0.2868879683545673,0.6841702450145194
0.0415,1.7569537423633668,1.0,2735.4248219301835,0.3730898191095914,1.3142512736689662,0.9668010100271869,0.2868450571792614,0.6850961001193638
0.042,1.7559320477132259,1.0,2735.8548351601257,0.3766062917456389,1.3137859589127665,0.9673565213107824,0.2868021460039555,0.6860279719043227
0.0425,1.754910353063085,1.0,2736.6623388378293,0.380103039738004,1.3133172175927197,0.9678941456338346,0.28675923482864957,0.6869653098212893
0.043000000000000003,1.753888658412944,1.0,2737.818951352669,0.38358017277220724,1.312845308810429,0.9684146661794155,0.28671632365334365,0.6879075661840156
0.043500000000000004,1.752866963762803,1.0,2739.2963374915635,0.38703780053376907,1.3123704916674965,0.9689188243540621,0.28667341247803774,0.6888541962225972
0.044,1.751845269112662,1.0,2741.066190986377,0.3904760327082102,1.3118930252655254,0.9694073224402864,0.2866305013027318,0.6898046581336681
0.0445,1.7508235744625211,1.0,2743.1002185511547,0.3938949789810512,1.3114131687061181,0.9698808260556127,0.28658759012742585,0.6907584131263227
0.045,1.7498018798123802,1.0,2745.391818138743,0.3972947356514591,1.3109309844832733,0.9703399494381688,0.28654467895212,0.6917153153324697
0.0455,1.7487801851622393,1.0,2747.9017808490307,0.40067542194293926,1.3104468307081103,0.9707853011558926,0.286501767776814,0.6926746342579397
0.046,1.7477584905120984,1.0,2750.5935694184263,0.4040371566441859,1.3099610409113625,0.9712174570011163,0.28645885660150816,0.6936356923378338
0.0465,1.7467367958619575,1.0,2753.4566656363936,0.40738004219404883,1.309473712683573,0.9716369443313606,0.2864159454262022,0.6945982817533334
0.047,1.7457151012118166,1.0,2756.480545290488,0.4107041810313782,1.3089849436152847,0.9720442644733067,0.2863730342508963,0.6955621958515923
0.0475,1.7446934065616757,1.0,2759.6546749426316,0.41400967559502394,1.3084948312970406,0.9724398942555726,0.28633012307559036,0.696527229155008
0.048,1.7436717119115346,1.0,2762.9685089174327,0.417296628323836,1.3080034733193835,0.9728242874374693,0.28628721190028444,0.6974931773698847
0.0485,1.7426500172613937,1.0,2766.411486501004,0.4205651416566644,1.3075109672728564,0.9731978760416957,0.28624430072497853,0.6984598373944906
0.049,1.7416283226112528,1.0,2769.9730293517046,0.4238153180323591,1.3070174107480024,0.9735610715982632,0.2862013895496726,0.6994270073265063
0.0495,1.7406066279611119,1.0,2773.6425391212397,0.4270472598897701,1.306522901335364,0.9739142663063123,0.2861584783743667,0.7003944864698681
0.05,1.739584933310971,1.0,2777.4093952874305,0.43026106966774735,1.3060275366254845,0.9742578341199438,0.2861155671990608,0.7013620753410004
0.0505,1.73856323866083,1.0,2781.26295319806,0.4334568498051409,1.305531414208907,0.9745921317636702,0.28607265602375487,0.702329575674443
0.051000000000000004,1.7375415440106892,1.0,2785.1925423256953,0.4366347027408006,1.3050346316761738,0.9749174996826394,0.28602974484844895,0.703296790427873
0.051500000000000004,1.7365198493605483,1.0,2789.1874647338564,0.4397947309135765,1.3045372866178286,0.975234262932359,0.28598683367314304,0.7042635237865131
0.052000000000000005,1.7354981547104074,1.0,2793.2369937543513,0.4429370367623186,1.3040394766244137,0.9755427320122744,0.2859439224978371,0.7052295811669408
0.0525,1.7344764600602662,1.0,2797.336021545449,0.4460617185726138,1.3035412485685482,0.9758432000114566,0.2859010113225312,0.7061948674025728
0.053,1.7334547654101253,1.0,2801.481312041294,0.44916887482168316,1.3030426324030464,0.9761359461220693,0.28585810014722524,0.7071593206193625
0.0535,1.7324330707599844,1.0,2805.6683008940254,0.45225860267678936,1.3025436699101458,0.9764212379932148,0.2858151889719194,0.7081228564964948
0.054,1.7314113761098435,1.0,2809.892492783466,0.4553309991857559,1.3020444021367834,0.9766993316872564,0.2857722777966134,0.7090853926589065
0.0545,1.7303896814597026,1.0,2814.1493792878123,0.4583861613964064,1.3015448701298962,0.9769704723347693,0.2857293666213075,0.7100468472523727
0.055,1.7293679868095617,1.0,2818.4344386240173,0.4614241863565645,1.301045114936421,0.9772348946942063,0.2856864554460016,0.7110071389442507
0.0555,1.7283462921594208,1.0,2822.7480683304098,0.46444515604582104,1.3005451335118636,0.9774928196564016,0.28564354427069566,0.7119662714360206
0.056,1.72732459750928,1.0,2827.0805107289857,0.4674491849579544,1.300045013524001,0.9777444672785295,0.28560063309538974,0.7129240748067032
0.0565,1.726302902859139,1.0,2831.4271463894465,0.4704363732237171,1.2995447965173923,0.9779900445297777,0.28555772192008383,0.7138804683652871
0.057,1.7252812082089979,1.0,2835.7863137612703,0.4734068119422573,1.2990444975324882,0.9782297475929344,0.2855148107447779,0.7148354224985385
0.0575,1.724259513558857,1.0,2840.156346157419,0.47636059221272303,1.2985441316097386,0.9784637647197174,0.285471899569472,0.7157889077850355
0.058,1.723237818908716,1.0,2844.535571729446,0.4792978051342623,1.298043713789594,0.9786922766155951,0.2854289883941661,0.716740894995238
0.0585,1.7222161242585752,1.0,2848.922313447713,0.48221854180602314,1.2975432591125038,0.9789154568029774,0.28538607721886017,0.717691355091548
0.059000000000000004,1.7211944296084343,1.0,2853.3148890864572,0.48512289332715364,1.2970427826189188,0.9791334719641479,0.28534316604355425,0.7186402592283474
0.059500000000000004,1.7201727349582934,1.0,2857.711611214179,0.48801095079680185,1.296542299349289,0.9793464822652261,0.28530025486824834,0.7195875787520303
0.06,1.7191510403081525,1.0,2862.110787188804,0.49088280531411577,1.2960418243440643,0.9795546416623403,0.2852573436929424,0.7205332852010146
0.0605,1.7181293456580116,1.0,2866.510719157866,0.4937385479782435,1.295541372643695,0.979758098191128,0.28521443251763645,0.7214773503057417
0.061,1.7171076510078707,1.0,2870.909704064107,0.49657826988833315,1.2950409592886314,0.9799569942405869,0.2851715213423306,0.7224197459886612
0.0615,1.7160859563577295,1.0,2875.306033654948,0.49940206214353267,1.2945405993193233,0.9801514668122379,0.2851286101670246,0.7233604443642023
0.062,1.7150642617075886,1.0,2879.6979944989284,0.5022100158429901,1.2940403077762213,0.9803416477654948,0.2850856989917187,0.724299417738728
0.0625,1.7140425670574477,1.0,2884.084157113649,0.5050022187149056,1.293540097143283,0.9805276636647643,0.2850427878164128,0.7252366433964028
0.063,1.7130208724073068,1.0,2888.4664091911877,0.5077787275986093,1.2930399505564307,0.9807096326164806,0.2849998766411069,0.7261721536284587
0.0635,1.711999177757166,1.0,2892.840026233512,0.5105396813790898,1.292539909583855,0.9808876774017975,0.28495696546580096,0.7271058714944832
0.064,1.710977483107025,1.0,2897.204737867987,0.5132851628477582,1.2920399763715285,0.9810619102469392,0.28491405429049504,0.7280377940080265
0.0645,1.7099557884568841,1.0,2901.5602730649757,0.5160152547960255,1.2915401530654236,0.9812324393403288,0.28487114311518913,0.7289679182097877
0.065,1.7089340938067432,1.0,2905.9063601432567,0.5187300400153031,1.2910404418115127,0.9813993690074886,0.2848282319398832,0.7298962411676004
0.0655,1.7079123991566023,1.0,2910.242726774998,0.5214296012970022,1.2905408447557685,0.9815627998771446,0.2847853207645773,0.7308227599764172
0.066,1.7068907045064612,1.0,2914.569099991346,0.5241140214325338,1.2900413640441628,0.9817228290390372,0.2847424095892714,0.7317474717582954
0.0665,1.7058690098563203,1.0,2918.8852061877,0.5267833832133094,1.2895420018226686,0.9818795501939098,0.28469949841396547,0.7326703736623781
0.067,1.7048473152061794,1.0,2923.190771129614,0.52943776943074,1.2890427602372583,0.9820330537961132,0.2846565872386595,0.7335914628648814
0.0675,1.7038256205560385,1.0,2927.4855199583726,0.5320772628762368,1.288543641433904,0.9821834271892415,0.28461367606335364,0.7345107365690773
0.068,1.7028039259058976,1.0,2931.769177196316,0.534701946341211,1.2880446475585785,0.9823307547351865,0.28457076488804767,0.7354281920052752
0.0685,1.7017822312557567,1.0,2936.041466753746,0.537311902617074,1.287545780757254,0.98247511793697,0.2845278537127418,0.7363438264308076
0.069,1.7007605366056158,1.0,2940.302111933666,0.5399072144952367,1.2870470431759027,0.9826165955557005,0.28448494253743584,0.737257637130011
0.0695,1.6997388419554749,1.0,2944.550835438999,0.5424879647671105,1.2865484369604974,0.9827552637219688,0.2844420313621299,0.7381696214142088
0.07,1.698717147305334,1.0,2948.7873593781082,0.5450542362241064,1.2860499642570105,0.982891196041986,0.284399120186824,0.7390797766216934
0.07050000000000001,1.6976954526551928,1.0,2953.01140527137,0.547606111657636,1.2855516272114142,0.983024463698746,0.2843562090115181,0.7399881001177089
0.07100000000000001,1.696673758005052,1.0,2957.222694057441,0.55014367385911,1.2850534279696813,0.9831551355484747,0.2843132978362122,0.7408945892944316
0.07150000000000001,1.695652063354911,1.0,2961.4209460998986,0.5526670056199399,1.2845553686777837,0.9832832782126211,0.28427038666090626,0.741799241570952
0.07200000000000001,1.6946303687047701,1.0,2965.6062898724776,0.5551761603453202,1.2840574479178997,0.9834089542877998,0.28422747548560034,0.7427020608493933
