Time [s],Phi [rad],STIM [ ],Fsee [N],Gamma [ ],Lcerel [ ],q [ ],Lmtc [m],fisomrel [ ]
0.0,1.8,1.0,17.99118446618242,0.00015695188268174002,1.3793370553700415,0.005006424174778335,0.288653,0.5411460408902617
0.0005,1.79999375,1.0,18.34878420371873,0.005765280815569795,1.3792943934113358,0.013353514491082144,0.2886527375,0.5412492446643077
0.001,1.799975,1.0,21.79957593206248,0.011342151457366669,1.3789198343913585,0.03637844178526589,0.28865195,0.542154844084265
0.0015,1.79994375,1.0,31.48508341123471,0.01688774026516702,1.3780108927204997,0.07165287013880883,0.2886506375,0.5443487403847285
0.002,1.7999,1.0,54.46562603038794,0.022402222704251823,1.3763110659475288,0.11596104801667859,0.2886488,0.5484374414714115
0.0025,1.79984375,1.0,98.59268166996331,0.02788577325654956,1.3738644184387163,0.16592612268685775,0.28864643749999996,0.5542901678108433
0.003,1.7997750000000001,1.0,162.86880722034735,0.033338565427063,1.37114303765176,0.21867378501849774,0.28864354999999997,0.560755247457348
0.0035,1.79969375,1.0,239.83827428126622,0.038760771744537285,1.368518506071107,0.2719982557633024,0.2886401375,0.5669455060048454
0.004,1.7996,1.0,323.7571383871853,0.044152563771905635,1.366095536990124,0.3242568952986534,0.2886362,0.572621357767579
0.0045000000000000005,1.7994937500000001,1.0,411.63793743573956,0.049514112111579564,1.363867257172137,0.3743073354680214,0.2886317375,0.5778080968049295
0.005,1.799375,1.0,501.8307984541881,0.05484558639724846,1.3618070370518318,0.42143813628164556,0.28862675,0.5825754717467297
0.0055,1.79924375,1.0,593.228029768911,0.06014715533368689,1.359891259022906,0.46527598352161387,0.2886212375,0.5869843165781492
0.006,1.7991000000000001,1.0,684.9568473929327,0.06541898665873902,1.3581021244911504,0.5056929037313399,0.2886152,0.5910805753664689
0.006500000000000001,1.79894375,1.0,776.3047928059267,0.07066124717051919,1.3564259146252962,0.5427268941808712,0.2886086375,0.5948997684423505
0.007,1.798775,1.0,866.6789314823452,0.07587410276984086,1.354851765157597,0.5765207663467942,0.28860155,0.598470104478755
0.0075,1.79859375,1.0,955.5884949305255,0.08105771823972692,1.3533707285287866,0.6072775822091725,0.2885939375,0.6018148221270236
0.008,1.7984,1.0,1042.6608895988252,0.08621225797775045,1.3519747663626285,0.6352295170761743,0.2885858,0.604954604094302
0.0085,1.79819375,1.0,1127.5691215598895,0.09133788472098597,1.3506573364640702,0.660617959424068,0.2885771375,0.6079063532650635
0.009000000000000001,1.797975,1.0,1210.0687109565597,0.096434760567604,1.3494124179476383,0.6836801073237923,0.28856795,0.6106854661479111
0.0095,1.79774375,1.0,1289.9963249689,0.1015030471943295,1.3482342920419161,0.704641265119855,0.2885582375,0.6133063706826067
0.01,1.7975,1.0,1367.2158584040913,0.10654290475882253,1.34711806241592,0.7237110589993955,0.288548,0.6157814118131935
0.0105,1.79724375,1.0,1441.6364040609537,0.11155449253374414,1.3460592123939936,0.7410814167180018,0.2885372375,0.6181218798381659
0.011,1.796975,1.0,1513.2177049072964,0.11653796905133663,1.3450534066596698,0.7569261700422625,0.28852595000000003,0.620338477527285
0.0115,1.79669375,1.0,1581.9548183768654,0.12149349289420977,1.3440965817723647,0.7714016924193806,0.2885141375,0.6224411428972396
0.012,1.7964,1.0,1647.8305016031543,0.12642121991164346,1.3431854121453077,0.7846481725440891,0.28850180000000003,0.6244380513094875
0.0125,1.79609375,1.0,1710.868337699571,0.13132130593125935,1.3423165770216317,0.7967905911236529,0.2884889375,0.6263372483934737
0.013000000000000001,1.7957750000000001,1.0,1771.1088915640057,0.13619390588317454,1.341486987819296,0.8079402398329657,0.28847555,0.628146164381709
0.0135,1.79544375,1.0,1828.631703371188,0.14103917544955266,1.340693487607777,0.8181960038654191,0.2884616375,0.6298722815741375
0.014,1.7951000000000001,1.0,1883.4841016413586,0.1458572671022581,1.3399336025839936,0.8276459829713788,0.2884472,0.6315215109511081
0.0145,1.79474375,1.0,1935.7217227609679,0.1506483325425075,1.3392050279087548,0.8363685063617445,0.2884322375,0.6330993273004492
0.015,1.794375,1.0,1985.421280480743,0.1554125234715176,1.3385054587428704,0.8444331988478796,0.28841675,0.6346111428612209
0.0155,1.79399375,1.0,2032.6653949313727,0.16014999073431943,1.337832730772469,0.8519020455107131,0.2884007375,0.6360620089885732
0.016,1.7936,1.0,2077.55157229044,0.16486088552194708,1.3371847011836553,0.8588302550633828,0.2883842,0.6374568791061515
0.0165,1.7931937500000001,1.0,2120.154584432077,0.16954535622903533,1.33655962002766,0.8652671715609789,0.2883671375,0.6387998155830267
0.017,1.792775,1.0,2160.5481279515407,0.1742035502737866,1.3359558762580164,0.8712568898766545,0.28834955,0.6400945446674375
0.0175,1.7923437500000001,1.0,2198.816864735564,0.1788356150744032,1.335371858828258,0.8768388355681312,0.2883314375,0.6413447586290786
0.018000000000000002,1.7919,1.0,2235.04654754851,0.1834416970841389,1.3348060464867744,0.8820483372932404,0.2883128,0.642553926134872
0.0185,1.79144375,1.0,2269.331652424386,0.1880219436215156,1.3342569195390164,0.8869170826233072,0.2882936375,0.6437254838657128
0.019,1.790975,1.0,2301.749536871126,0.19257649937121776,1.3337232078717414,0.8914735988416858,0.28827395,0.6448623103564877
0.0195,1.79049375,1.0,2332.369567376159,0.19710550729409138,1.3332037858256727,0.8957435873276519,0.2882537375,0.6459669550747426
0.02,1.79,1.0,2361.2668717046067,0.2016091103509825,1.3326975277415336,0.8997502100076094,0.288233,0.6470419484523964
0.0205,1.78949375,1.0,2388.5218554221865,0.20608745150273722,1.3322033079600477,0.9035143744590409,0.2882117375,0.6480898028711789
0.021,1.788975,1.0,2414.20448583382,0.210540671552679,1.3317201483156527,0.9070550149679524,0.28818995000000003,0.6491127015352086
0.021500000000000002,1.78844375,1.0,2438.4050424720363,0.21496891462992998,1.331246914633806,0.9103892465591662,0.2881676375,0.6501131426836226
0.022,1.7879,1.0,2461.183802725199,0.21937231962648318,1.3307827986062182,0.9135326570387027,0.2881448,0.6510929213846879
0.0225,1.78734375,1.0,2482.5986078545516,0.22375102457954707,1.3303270444094835,0.9164994155129973,0.28812143749999997,0.65205371087913
0.023,1.786775,1.0,2502.710023402201,0.2281051675263301,1.3298788962201964,0.9193024119728473,0.28809755,0.6529971741981662
0.0235,1.78619375,1.0,2521.5811107984264,0.2324348865040406,1.329437598214951,0.921953390466267,0.28807313749999996,0.653924964548356
0.024,1.7856,1.0,2539.2724808393964,0.2367403186674311,1.3290024391530784,0.9244630744847497,0.2880482,0.6548386321151944
0.0245,1.78499375,1.0,2555.842290560325,0.24102160053763455,1.3285727497744315,0.9268412697878063,0.2880227375,0.655739630438995
0.025,1.784375,1.0,2571.360597827572,0.2452788703439997,1.328147766047163,0.9290969334449509,0.28799675,0.6566296034383176
0.025500000000000002,1.78374375,1.0,2585.870349161661,0.24951226081734335,1.3277269933265428,0.9312383157883526,0.2879702375,0.6575096232306894
0.026000000000000002,1.7831000000000001,1.0,2599.4157546484207,0.25372190468848227,1.3273099369678405,0.9332729862618159,0.2879432,0.6583807562567229
0.0265,1.78244375,1.0,2612.042182558289,0.25790793468823325,1.3268961023263257,0.9352078988025059,0.2879156375,0.6592440634051544
0.027,1.781775,1.0,2623.7960593909506,0.26207048354741314,1.326484994757268,0.9370494501476857,0.28788755,0.6601006001222788
0.0275,1.7810937500000001,1.0,2634.7247753442653,0.26620968399683864,1.3260761196159374,0.9388035319079137,0.2878589375,0.6609514165057808
0.028,1.7804,1.0,2644.871240253804,0.27032566469529035,1.3256690317046853,0.9404755827579537,0.2878298,0.661797454682821
0.0285,1.77969375,1.0,2654.283457655336,0.2744185614126852,1.3252632458137026,0.9420706211326334,0.2878001375,0.6626397350852515
0.029,1.778975,1.0,2662.9943201761143,0.27848850149931165,1.3248584223250588,0.9435933029787514,0.28776995,0.6634789714428373
0.029500000000000002,1.7782437500000001,1.0,2671.0370994434043,0.2825356121929209,1.3244542231208185,0.9450479368570831,0.2877392375,0.6643158708516139
0.03,1.7775,1.0,2678.445559950264,0.28656002073126424,1.3240503100830467,0.9464385141571601,0.287708,0.6651511369103357
0.0305,1.77674375,1.0,2685.253913323315,0.2905618543520931,1.323646345093809,0.9477687364718744,0.2876762375,0.6659854697302906
0.031,1.775975,1.0,2691.4967751259287,0.29454124029315865,1.3232419900351695,0.9490420402858302,0.28764395,0.6668195659378297
0.0315,1.7751937500000001,1.0,2697.202351186673,0.2984983013730043,1.322836968720744,0.9502616256076614,0.2876111375,0.6676539911581677
0.032,1.7744,1.0,2702.3985533444716,0.30243316255072294,1.3224310103812305,0.9514304706185133,0.2875778,0.6684892970170244
0.0325,1.77359375,1.0,2707.1294317804422,0.3063459605906102,1.3220236993904766,0.9525513346715654,0.2875439375,0.6693263298178316
0.033,1.772775,1.0,2711.4149048452227,0.3102368157331658,1.3216148428468601,0.953626811071982,0.28750955,0.6701654746830021
0.0335,1.7719437500000002,1.0,2715.275073156879,0.31410584821888954,1.3212042478487593,0.9546593191609777,0.2874746375,0.6710071146808443
0.034,1.7711000000000001,1.0,2718.730202479424,0.31795317828828107,1.320791721494552,0.9556511180567401,0.2874392,0.671851630805363
0.0345,1.7702437500000001,1.0,2721.8007074268244,0.32177892618184023,1.3203770708826161,0.9566043191555088,0.2874032375,0.6726994019536836
0.035,1.7693750000000001,1.0,2724.507135991701,0.3255832121400667,1.3199601031113297,0.957520897517705,0.28736675,0.6735508049011074
0.035500000000000004,1.76849375,1.0,2726.8701548994436,0.32936615640346023,1.3195406252790707,0.9584027022502192,0.2873297375,0.6744062142737901
0.036000000000000004,1.7676,1.0,2728.9105357868684,0.33312787921252063,1.3191184444842168,0.9592514659837871,0.2872922,0.6752660025190493
0.0365,1.76669375,1.0,2730.6491422063514,0.3368685008077475,1.3186933678251465,0.9600688135336822,0.2872541375,0.6761305398732969
0.037,1.765775,1.0,2732.1069174546933,0.3405881414296407,1.3182652024002375,0.9608562698224958,0.28721555,0.6770001943276016
0.0375,1.76484375,1.0,2733.293192989391,0.3442869133187631,1.3178338614030083,0.9616152758051346,0.2871764375,0.6778751165358843
0.038,1.7639,1.0,2734.2318109687835,0.34796494135397277,1.3173991266967358,0.9623471759037961,0.28713679999999997,0.6787557218499665
0.0385,1.76294375,1.0,2734.9414759061115,0.3516223442961575,1.3169608272741078,0.9630532379588217,0.28709663750000003,0.6796423277222998
0.039,1.761975,1.0,2735.4332570440774,0.3552592349648327,1.3165188618192314,0.963734660739265,0.28705595,0.6805351087776095
0.0395,1.7609937500000001,1.0,2735.7182546032277,0.3588757261795135,1.3160731290162144,0.9643925734904689,0.2870147375,0.6814342382458529
0.04,1.76,1.0,2735.8075954497144,0.3624719307597151,1.3156235275491646,0.9650280407059455,0.286973,0.6823398879382072
0.0405,1.7589937500000001,1.0,2735.712428991072,0.3660479615249529,1.315169956102189,0.9656420665229632,0.2869307375,0.6832522282223987
0.041,1.757975,1.0,2735.4439232994214,0.3696039312947419,1.3147123133593956,0.9662355987751674,0.28688795,0.6841714279973774
0.0415,1.75694375,1.0,2735.013261461962,0.37313995288859747,1.3142504980048917,0.9668095327323002,0.2868446375,0.6850976546673393
0.042,1.7559,1.0,2734.431638159812,0.37665613912603485,1.3137844087227848,0.967364714554175,0.28680079999999997,0.6860310741150903
0.0425,1.75484375,1.0,2733.710256473682,0.38015260282656926,1.3133139441971826,0.9679019444834562,0.2867564375,0.68697185067476
0.043000000000000003,1.753775,1.0,2732.85522658514,0.383629450551269,1.312839049425628,0.9684219825716107,0.28671155,0.6879200547017523
0.043500000000000004,1.75269375,1.0,2731.878379602137,0.38708679751094455,1.312359617484753,0.9689255456923588,0.28666613750000003,0.6888758589438101
0.044,1.7516,1.0,2730.7914313527613,0.3905247572109386,1.3118755425015245,0.9694133128465329,0.2866202,0.6898394323640937
0.0445,1.75049375,1.0,2729.600463716139,0.39394343563573847,1.3113867697933357,0.969885930576623,0.2865737375,0.6908108405538016
0.045,1.7493750000000001,1.0,2728.311559528858,0.39734293876983146,1.3108932446775805,0.9703440121518916,0.28652675,0.6917901480033357
0.0455,1.74824375,1.0,2726.9308014696408,0.4007233725977048,1.310394912471652,0.9707881396009681,0.2864792375,0.6927774180858273
0.046,1.7471,1.0,2725.464271010422,0.40408484310384574,1.3098917184929444,0.9712188656012825,0.2864312,0.6937727130404647
0.0465,1.7459437500000001,1.0,2723.918047433061,0.4074274562727415,1.3093836080588503,0.971636715236702,0.28638263750000004,0.6947760939556367
0.047,1.744775,1.0,2722.298206912679,0.41075131808887944,1.308870526486764,0.9720421876337396,0.28633355,0.695787620751879
0.0475,1.74359375,1.0,2720.610821667886,0.41405653453674673,1.3083524190940787,0.972435757485788,0.28628393750000003,0.6968073521646354
0.048,1.7424,1.0,2718.861959175926,0.4173432116008307,1.3078292311981878,0.9728178764740265,0.2862338,0.697835345726826
0.0485,1.74119375,1.0,2717.0545466435315,0.42061144690957225,1.3073009366759198,0.973188975549063,0.2861831375,0.698871601779663
0.049,1.739975,1.0,2715.1943321991844,0.4238613477608895,1.306767483678923,0.97354946459767,0.28613195,0.6999161701444572
0.0495,1.73874375,1.0,2713.2898102520735,0.42709302860678644,1.3062287952661105,0.9738997333347467,0.2860802375,0.7009691484370746
0.05,1.7375,1.0,2711.3438314670034,0.4303065882264151,1.305684845870893,0.9742401548804338,0.286028,0.7020305325410983
0.0505,1.73624375,1.0,2709.3592435120213,0.4335021253989275,1.3051356099266813,0.9745710851249946,0.2859752375,0.7031003174575006
0.051000000000000004,1.734975,1.0,2707.3388908481197,0.4366797389034758,1.3045810618668865,0.9748928636751167,0.28592195,0.7041784972960455
0.051500000000000004,1.73369375,1.0,2705.285614533236,0.43983952751921207,1.304021176124919,0.9752058147401349,0.2858681375,0.7052650652666486
0.052000000000000005,1.7324,1.0,2703.202252040419,0.44298159002528836,1.3034559271341897,0.9755102479624882,0.2858138,0.7063600136706931
0.0525,1.73109375,1.0,2701.091637091172,0.4461060252008567,1.302885289328109,0.975806459196374,0.28575893750000003,0.7074633338923075
0.053,1.729775,1.0,2698.9565995025027,0.44921293182506933,1.3023092371400884,0.9760947312382505,0.28570355000000003,0.7085750163895976
0.0535,1.72844375,1.0,2696.7999650492243,0.4523024086770782,1.3017277450035378,0.9763753345125599,0.2856476375,0.709695050685842
0.054,1.7271,1.0,2694.6245553401495,0.4553745545360355,1.3011407873518688,0.9766485277157686,0.2855912,0.7108234253606396
0.0545,1.7257437500000001,1.0,2692.4331877091804,0.4584294681810932,1.3005483386184913,0.9769145584215944,0.2855342375,0.7119601280410227
0.055,1.724375,1.0,2690.2286751203924,0.4614672483914034,1.2999503732368167,0.9771736636500662,0.28547675,0.7131051453925202
0.0555,1.72299375,1.0,2688.014075150701,0.4644879641094445,1.2993468633589702,0.9774260674447053,0.2854187375,0.7142584674653891
0.056,1.7216,1.0,2685.7926042942813,0.4674917498967008,1.2987377796357231,0.9776719905473815,0.2853602,0.7154200861553512
0.0565,1.72019375,1.0,2683.5653831808686,0.4704786988108655,1.298123111882664,0.9779116417526216,0.28530113749999997,0.7165899558718005
0.057,1.718775,1.0,2681.3334907373905,0.4734489015018111,1.2975028502811814,0.9781452210670284,0.28524155,0.7177680295745312
0.0575,1.71734375,1.0,2679.098004128537,0.47640244861940995,1.296876985012665,0.9783729203391566,0.2851814375,0.7189542594699934
0.058,1.7159,1.0,2676.859998746955,0.4793394308135342,1.2962455062585034,0.9785949236556246,0.2851208,0.7201485970077902
0.0585,1.71444375,1.0,2674.6205482053147,0.4822599387340563,1.295608404200086,0.9788114077149322,0.2850596375,0.721350992877164
0.059000000000000004,1.7129750000000001,1.0,2672.3807243302867,0.48516406303084864,1.2949656690188014,0.9790225421804053,0.28499795,0.7225613970034787
0.059500000000000004,1.71149375,1.0,2670.141597158985,0.4880518943537835,1.294317290896039,0.9792284900135887,0.2849357375,0.723779758544695
0.06,1.71,1.0,2667.904234937382,0.4909235233527331,1.2936632600131877,0.979429407789314,0.284873,0.725006025887841
0.0605,1.7084937500000001,1.0,2665.669704120924,0.49377904067756995,1.2930035665516364,0.9796254459935818,0.2848097375,0.7262401466454744
0.061,1.7069750000000001,1.0,2663.439069377193,0.4966185369781664,1.2923382006927744,0.9798167493053229,0.28474595,0.7274820676521402
0.0615,1.7054437500000001,1.0,2661.2133935906663,0.4994421029043946,1.2916671526179906,0.9800034568630257,0.2846816375,0.728731734960822
0.062,1.7039,1.0,2658.99373787017,0.502249829106127,1.290990412508674,0.9801857025171523,0.2846168,0.729989093839387
0.0625,1.70234375,1.0,2656.7811615573683,0.5050418062332361,1.2903079705462135,0.9803636150691994,0.2845514375,0.7312540887670245
0.063,1.7007750000000001,1.0,2654.576722238451,0.507818124935594,1.2896198169119983,0.9805373184982097,0.28448555,0.7325266634306778
0.0635,1.69919375,1.0,2652.380289905514,0.5105788749055479,1.288925952721944,0.9807069326635974,0.28441913750000003,0.7338067405730769
0.064,1.6976,1.0,2650.192872665816,0.5133241405379002,1.2882263685953919,0.9808725720888705,0.2843522,0.7350942616272746
0.0645,1.69599375,1.0,2648.015633480401,0.5160540075547957,1.2875210537074586,0.9810343471336533,0.2842847375,0.7363891698818645
0.065,1.694375,1.0,2645.8478394591402,0.5187685619333366,1.2868100147187336,0.9811923650406309,0.28421675,0.7376913758196424
0.0655,1.69274375,1.0,2643.6887589378407,0.5214678896506253,1.2860932582898057,0.9813467291900156,0.2841482375,0.7390007894168449
0.066,1.6911,1.0,2641.5284744798323,0.5241520761754088,1.285370875966558,0.9814975434033648,0.2840792,0.7403171656571408
0.0665,1.6894437500000001,1.0,2639.3992895997703,0.526821207011642,1.2846425691752914,0.9816448888058701,0.2840096375,0.7416409687923771
0.067,1.6877791492498768,1.0,2637.4724012505235,0.5294753660802421,1.2839086283759609,0.9817888720012229,0.28393972426849484,0.7429715903497467
0.0675,1.6861143341036762,1.0,2636.1070864401454,0.5321146371547918,1.283169402858447,0.9819295987706728,0.2838698020323544,0.7443083204234391
0.068,1.6844495189574757,1.0,2635.2762454951767,0.5347391038662636,1.2824252361063913,0.9820671710455569,0.28379987979621396,0.7456504655939067
0.0685,1.682784703811275,1.0,2634.935653944331,0.537348849576229,1.281676534914827,0.9822016903429261,0.2837299575600736,0.7469972247397203
0.069,1.6811198886650747,1.0,2635.042642324632,0.5399439569749857,1.2809236931426573,0.9823332541931946,0.28366003532393314,0.7483478272675068
0.0695,1.679455073518874,1.0,2635.562977535366,0.5425245076890713,1.2801670277037112,0.9824619532863219,0.2835901130877927,0.7497016472821044
0.07,1.6777902583726736,1.0,2636.4625157901196,0.5450905833450235,1.279406855511817,0.9825878753739868,0.28352019085165225,0.7510580647098171
0.07050000000000001,1.676125443226473,1.0,2637.716028495442,0.5476422631187792,1.2786434116348793,0.9827111014610062,0.28345026861551187,0.752416610817842
0.07100000000000001,1.6744606280802725,1.0,2639.281115398696,0.5501796314580871,1.2778770903371288,0.9828317175881632,0.28338034637937143,0.7537765391127906
0.07150000000000001,1.6727958129340719,1.0,2641.1294836309316,0.5527027693152731,1.2771081556152761,0.9829498009584652,0.28331042414323104,0.7551373408529972
0.07200000000000001,1.6711309977878714,1.0,2643.242167798774,0.5552117550595794,1.2763367853903298,0.9830654223023102,0.2832405019070906,0.7564986640310549
0.0725,1.669466182641671,1.0,2645.6002131568093,0.5577066670602481,1.2755631575832975,0.983178650133983,0.28317057967095016,0.7578601600214373
0.073,1.6678013674954704,1.0,2648.1846663510305,0.5601875836865217,1.2747874501151877,0.9832895508401871,0.2831006574348097,0.7592214836071213
0.0735,1.66613655234927,1.0,2650.9765668640102,0.5626545833076421,1.2740098409070086,0.9833981887645286,0.28303073519866934,0.7605822930041959
0.074,1.6644717372030695,1.0,2653.956939161936,0.5651077442928517,1.2732305078797685,0.9835046262881623,0.2829608129625289,0.7619422498844507
0.0745,1.6628069220568689,1.0,2657.1067855439196,0.5675471450113927,1.2724496289544756,0.9836089239067961,0.2828908907263885,0.7633010193959459
