Time [s],Phi [rad],STIM [ ],Fsee [N],Gamma [ ],Lcerel [ ],q [ ],Lmtc [m],fisomrel [ ]
0.0,1.8,1.0,19.791512258849355,0.00137977213983938,1.3791402980729932,0.005487553238752942,0.288653,0.5416219208454142
0.0005,1.79999375,1.0,20.486265206522283,0.006981242018034032,1.3790639536843081,0.01717580210589155,0.2886527375,0.5418065019681784
0.001,1.799975,1.0,24.853466563527803,0.01255129207960885,1.378619400542655,0.04309775215652832,0.28865195,0.5428805788670935
0.0015,1.79994375,1.0,36.69109781735861,0.01809009856379633,1.3775871437575804,0.08062023254311569,0.2886506375,0.5453697349138786
0.002,1.7999,1.0,63.81304044233852,0.023597836723208445,1.3757333950205894,0.12643378556754822,0.2886488,0.5498227546757071
0.0025,1.79984375,1.0,112.74725581801114,0.02907468082720688,1.3732101554977556,0.1772259622290188,0.28864643749999996,0.5558487877338683
0.003,1.7997750000000001,1.0,180.32970577805085,0.034520804165579226,1.370509843459914,0.23026963598598438,0.28864354999999997,0.5622527292707593
0.0035,1.79969375,1.0,259.05545219023367,0.039936379057456985,1.3679405849608386,0.28348800515567457,0.2886401375,0.568302697508533
0.004,1.7996,1.0,343.904963532462,0.04532157685210345,1.3655718140002464,0.33535112488298674,0.2886362,0.5738432678844683
0.0045000000000000005,1.7994937500000001,1.0,432.3048957694666,0.05067656795949642,1.3633894474440282,0.3848171523752853,0.2886317375,0.5789161654538388
0.005,1.799375,1.0,522.7625129355317,0.056001521769416855,1.361367845396133,0.4312564859162173,0.28862675,0.5835882663066214
0.0055,1.79924375,1.0,614.2437958422514,0.06129660686052472,1.3594850724665941,0.474356640506729,0.2886212375,0.587916079954361
0.006,1.7991000000000001,1.0,705.8883946621795,0.06656199062666383,1.3577251806945985,0.5140322120292814,0.2886152,0.5919409920185488
0.006500000000000001,1.79894375,1.0,797.0350377282066,0.07179783984026863,1.3560749163637025,0.5503483306030628,0.2886086375,0.5956972383181833
0.007,1.798775,1.0,887.0983501634126,0.0770043199877528,1.3545242994029352,0.583464385635861,0.28860155,0.5992108454491645
0.0075,1.79859375,1.0,975.6268178203467,0.08218159598795009,1.3530644939394008,0.6135918912644779,0.2885939375,0.6025046655590397
0.008,1.7984,1.0,1062.2358078717016,0.08732983154055879,1.3516882221540967,0.6409667145961828,0.2885858,0.6055975586673812
0.0085,1.79819375,1.0,1146.6211258325225,0.09244918934477786,1.3503890285642661,0.6658301906899158,0.2885771375,0.608506150069483
0.009000000000000001,1.797975,1.0,1228.5776455141877,0.09753983197923483,1.3491607009688469,0.6884172937555344,0.28856795,0.6112461890910188
0.0095,1.79774375,1.0,1307.9245574764725,0.10260192008144794,1.3479980650734156,0.7089503845273973,0.2885582375,0.6138308249526748
0.01,1.7975,1.0,1384.5378291027653,0.10763561362363779,1.3468962953512589,0.7276353248963807,0.288548,0.6162721947435337
0.0105,1.79724375,1.0,1458.3485421318,0.11264107199926818,1.3458507929072525,0.7446600394029876,0.2885372375,0.6185817252724004
0.011,1.796975,1.0,1529.3293154909836,0.117618454267122,1.3448572404479076,0.7601944855626647,0.28852595000000003,0.6207700373426469
0.0115,1.79669375,1.0,1597.4464163549676,0.12256791715567968,1.3439120686689345,0.7743915770718532,0.2885141375,0.6228459471423917
0.012,1.7964,1.0,1662.7071031690646,0.12748961719616625,1.3430117688811865,0.7873879938473369,0.28850180000000003,0.6248180051307384
0.0125,1.79609375,1.0,1725.1407024777973,0.13238371009684785,1.3421530565614392,0.7993056184685446,0.2884889375,0.6266941514211243
0.013000000000000001,1.7957750000000001,1.0,1784.8135485194516,0.13725035188975093,1.3413326418788027,0.8102528596733589,0.28847555,0.6284822308291996
0.0135,1.79544375,1.0,1841.76142504959,0.14208969559784498,1.3405479409292214,0.8203263214367509,0.2884616375,0.6301884564058278
0.014,1.7951000000000001,1.0,1896.0396969393305,0.14690189392868722,1.3397964443951873,0.8296118453633378,0.2884472,0.6318188022206263
0.0145,1.79474375,1.0,1947.7248234951546,0.15168709934275762,1.33907567158056,0.8381857122466345,0.2884322375,0.6333791101472965
0.015,1.794375,1.0,1996.9019220486443,0.15644546369180795,1.3383832785705716,0.8461157851964437,0.28841675,0.6348748621933384
0.0155,1.79399375,1.0,2043.6536901925112,0.16117713824720362,1.3377171464305029,0.8534625234404954,0.2884007375,0.6363109981085404
0.016,1.7936,1.0,2088.0472734110012,0.16588227159272287,1.3370754879029025,0.8602798831528916,0.2883842,0.6376916946907532
0.0165,1.7931937500000001,1.0,2130.163448792774,0.17056101231214404,1.3364565157303185,0.8666159853488882,0.2883671375,0.6390210874445597
0.017,1.792775,1.0,2170.091565596265,0.17521350858471033,1.3358584824260162,0.8725138183989194,0.28834955,0.6403031880819303
0.0175,1.7923437500000001,1.0,2207.91963596954,0.17983990785749837,1.3352797677210426,0.8780118675563113,0.2883314375,0.6415417007554965
0.018000000000000002,1.7919,1.0,2243.7459334092177,0.18444035836292264,1.334718747198135,0.8831446077586964,0.2883128,0.6427403069965274
0.0185,1.79144375,1.0,2277.63604600388,0.18901500404936558,1.3341742111529136,0.8879430748648269,0.2882936375,0.6439017748734948
0.019,1.790975,1.0,2309.6625725768045,0.1935639888652097,1.333644949880999,0.8924351573344311,0.28827395,0.645028850187837
0.0195,1.79049375,1.0,2339.9045453704525,0.19808745675883752,1.3331297536780113,0.8966459564837918,0.2882537375,0.6461242576990673
0.02,1.79,1.0,2368.4451363890994,0.20258555138165213,1.3326274299040333,0.9005981058896709,0.288233,0.6471906660568796
0.0205,1.78949375,1.0,2395.3597910419157,0.20705841476550288,1.3321369126686917,0.9043120713618195,0.2882117375,0.648230456769483
0.021,1.788975,1.0,2420.7341007545588,0.21150619096134227,1.3316570824206075,0.907806352774797,0.28818995000000003,0.6492461086742677
0.021500000000000002,1.78844375,1.0,2444.6274149689502,0.21592901894157335,1.3311871129152497,0.9110977678254422,0.2881676375,0.6502394650473904
0.022,1.7879,1.0,2467.102426404096,0.22032703767859924,1.3307261779080872,0.9142015742951967,0.2881448,0.6512123572905237
0.0225,1.78734375,1.0,2488.224894570373,0.22470038614482307,1.3302734511545886,0.9171316363127916,0.28812143749999997,0.6521666054286912
0.023,1.786775,1.0,2508.0633844190193,0.22904920331264794,1.3298281064102229,0.9199005709549787,0.28809755,0.6531040185645622
0.0235,1.78619375,1.0,2526.6778716195154,0.23337362545811335,1.3293894227547998,0.9225198958373892,0.28807313749999996,0.6540261740346295
0.024,1.7856,1.0,2544.13665999229,0.23767379332639785,1.3289566213295763,0.9250001154482036,0.2880482,0.6549347617456307
0.0245,1.78499375,1.0,2560.4914416756565,0.24194984225125582,1.3285290985278433,0.9273508594785451,0.2880227375,0.6558310950908248
0.025,1.784375,1.0,2575.789914033616,0.24620190586422852,1.3281063035296943,0.9295809500121424,0.28799675,0.6567163698471943
0.025500000000000002,1.78374375,1.0,2590.081216436182,0.25043011779685725,1.3276876855152229,0.9316984727328723,0.2879702375,0.6575917753879987
0.026000000000000002,1.7831000000000001,1.0,2603.4158069431323,0.2546346116806833,1.327272693664522,0.9337108483835719,0.2879432,0.6584584948391834
0.0265,1.78244375,1.0,2615.8453457139453,0.258815521147248,1.3268607771576855,0.9356248964186301,0.2879156375,0.6593177052164346
0.027,1.781775,1.0,2627.4133470937295,0.2629729774996567,1.3264514707608983,0.9374469039750236,0.28788755,0.6601703993560152
0.0275,1.7810937500000001,1.0,2638.165556337403,0.2671071140813921,1.3260442970598834,0.9391826622583797,0.2878589375,0.6610175904168576
0.028,1.7804,1.0,2648.156289762645,0.27121806511260166,1.3256387073030858,0.9408375029479508,0.2878298,0.6618604346491558
0.0285,1.77969375,1.0,2657.418081599723,0.2753059582697957,1.3252343609043256,0.9424163772758671,0.2878001375,0.6626996507881215
0.029,1.778975,1.0,2665.9840502992656,0.2793709212294847,1.3248309172774226,0.9439238627846791,0.28776995,0.6635359540201156
0.029500000000000002,1.7782437500000001,1.0,2673.887847800796,0.283413081668179,1.3244280358361973,0.9453641963455144,0.2877392375,0.6643700560059538
0.03,1.7775,1.0,2681.163611373195,0.28743256726238897,1.324025375994469,0.9467413038650647,0.287708,0.665202664896821
0.0305,1.77674375,1.0,2687.8459180272043,0.29142950568862513,1.323622597166058,0.948058827049471,0.2876762375,0.6660344853427785
0.031,1.775975,1.0,2693.9697414996,0.29540402462339777,1.3232193587647842,0.9493201475486557,0.28764395,0.666866218493883
0.0315,1.7751937500000001,1.0,2699.562899229431,0.29935624732586136,1.3228153888685212,0.9505284159120017,0.2876111375,0.6676984206303107
0.032,1.7744,1.0,2704.661330085074,0.303286304327534,1.3224103440444883,0.9516865571212966,0.2875778,0.6685317922612075
0.0325,1.77359375,1.0,2709.2902828635206,0.3071943193614531,1.3220039810179323,0.9527973053628994,0.2875439375,0.6693668246447804
0.033,1.772775,1.0,2713.4720342813243,0.3110804140691165,1.3215960856188929,0.9538632123670726,0.28750955,0.6702039467940234
0.0335,1.7719437500000002,1.0,2717.229050009806,0.31494471009202213,1.3211864436774106,0.9548866591816823,0.2874746375,0.671043585452352
0.034,1.7711000000000001,1.0,2720.583965654152,0.31878732907166785,1.3207748410235254,0.95586986961766,0.2874392,0.6718861650712118
0.0345,1.7702437500000001,1.0,2723.559568749261,0.32260839264955155,1.3203610634872776,0.9568149224841859,0.2874032375,0.6727321077847593
0.035,1.7693750000000001,1.0,2726.1787817727327,0.32640802246717104,1.319944896898707,0.9577237627352542,0.28736675,0.6735818333816189
0.035500000000000004,1.76849375,1.0,2728.462638211201,0.3301863380421158,1.3195261453429528,0.9585982130452058,0.2873297375,0.6744357220735786
0.036000000000000004,1.7676,1.0,2730.426609992201,0.33394345333967607,1.3191046643679745,0.9594399856104326,0.2872922,0.6752940471256453
0.0365,1.76669375,1.0,2732.1029994665937,0.337679502668332,1.3186801573511258,0.9602506755759166,0.2872541375,0.6761573893834877
0.037,1.765775,1.0,2733.5049162088203,0.341394600743435,1.3182525028081575,0.9610317933225635,0.28721555,0.6770259708429327
0.0375,1.76484375,1.0,2734.64552638522,0.345088862280336,1.3178215792548211,0.9617847576930637,0.2871764375,0.677900011989705
0.038,1.7639,1.0,2735.53804619045,0.34876240199438624,1.3173872652068679,0.9625109025486405,0.28713679999999997,0.6787797317745705
0.0385,1.76294375,1.0,2736.195735611024,0.35241533460093705,1.316949439180049,0.9632114827870596,0.28709663750000003,0.6796653475875398
0.039,1.761975,1.0,2736.631892515438,0.35604777481533956,1.3165079796901156,0.9638876798715417,0.28705595,0.680557075231127
0.0395,1.7609937500000001,1.0,2736.8598470729653,0.3596598373529449,1.316062765252819,0.9645406069151683,0.2870147375,0.6814551288926705
0.04,1.76,1.0,2736.892956498055,0.36325163692910434,1.3156136743839106,0.9651713133608981,0.286973,0.6823597211157106
0.0405,1.7589937500000001,1.0,2736.744600123127,0.366823288259169,1.3151605855991413,0.965780789293299,0.2869307375,0.6832710627704284
0.041,1.757975,1.0,2736.4281747977684,0.37037490605849016,1.3147033774142627,0.966369969414561,0.28688795,0.6841893630231382
0.0415,1.75694375,1.0,2735.953357505926,0.37390659817095595,1.314241962237529,0.9669397384221563,0.2868446375,0.6851147613810824
0.042,1.7559,1.0,2735.3312808609676,0.377418481190434,1.3137762393599202,0.9674909329830244,0.28680079999999997,0.6860474222357975
0.0425,1.75484375,1.0,2734.5736654751013,0.3809106720593715,1.3133061028005577,0.9680243440603168,0.2867564375,0.6869875189666019
0.043000000000000003,1.753775,1.0,2733.687865997437,0.38438327821748675,1.31283148627146,0.9685407219385932,0.28671155,0.6879351441236904
0.043500000000000004,1.75269375,1.0,2732.6812417309993,0.38783640710449785,1.3123523234846455,0.9690407771539312,0.28666613750000003,0.6888903890744369
0.044,1.7516,1.0,2731.5611549678383,0.39127016616012283,1.311868548152133,0.9695251829918662,0.2866202,0.6898533439843133
0.0445,1.75049375,1.0,2730.334969423693,0.39468466282408,1.3113800939859408,0.9699945778044833,0.2865737375,0.6908240977975341
0.045,1.7493750000000001,1.0,2729.0100487684413,0.3980800045360874,1.3108868946980874,0.9704495671613927,0.28652675,0.6918027382174118
0.0455,1.74824375,1.0,2727.5937552545624,0.4014562987358632,1.3103888840005915,0.97089072584802,0.2864792375,0.6927893516864393
0.046,1.7471,1.0,2726.0934484436143,0.40481365286312554,1.3098859956054714,0.9713185997234125,0.2864312,0.6937840233660899
0.0465,1.7459437500000001,1.0,2724.516484028953,0.40815217435759255,1.3093781632247459,0.9717337074487004,0.28638263750000004,0.6947868371163345
0.047,1.744775,1.0,2722.8702127567317,0.4114719706589824,1.3088653205704333,0.972136542096363,0.28633355,0.6957978754748837
0.0475,1.74359375,1.0,2721.1538217476027,0.41477312232865576,1.308347475618506,0.9725275744924139,0.28628393750000003,0.6968170735959656
0.048,1.7424,1.0,2719.3811176023496,0.4180557678159163,1.307824503247089,0.9729072506971241,0.2862338,0.697844627553198
0.0485,1.74119375,1.0,2717.557043342422,0.421320012992674,1.3072963589336906,0.9732759968567606,0.2861831375,0.6988805732975014
0.049,1.739975,1.0,2715.684667673904,0.42456595699889166,1.306763015190598,0.9736342192485389,0.28613195,0.6999249123443014
0.0495,1.73874375,1.0,2713.7670565216877,0.4277936989745322,1.3062244445300981,0.9739823050725211,0.2860802375,0.7009776453196201
0.05,1.7375,1.0,2711.8072727664253,0.4310033380595583,1.3056806194644783,0.9743206235167654,0.286028,0.7020387719509337
0.0505,1.73624375,1.0,2709.8083759973915,0.43419497339393304,1.3051315125060254,0.9746495267537589,0.2859752375,0.7031082910579887
0.051000000000000004,1.734975,1.0,2707.7734222833337,0.4373687041176191,1.3045770961670269,0.9749693508731418,0.28592195,0.704186200543564
0.051500000000000004,1.73369375,1.0,2705.705463959132,0.44052462937057935,1.3040173429597695,0.9752804167553261,0.2858681375,0.7052724973841898
0.052000000000000005,1.7324,1.0,2703.6075494295346,0.4436628482927767,1.3034522253965404,0.9755830308902357,0.2858138,0.706367177620814
0.0525,1.73109375,1.0,2701.4827229897437,0.44678346002417396,1.3028817159896269,0.9758774861450711,0.28575893750000003,0.7074702363494229
0.053,1.729775,1.0,2699.3340246625603,0.449886563704734,1.302305787251316,0.9761640624846789,0.28570355000000003,0.7085816677116139
0.0535,1.72844375,1.0,2697.1644900526367,0.4529722584744197,1.3017244116938946,0.9764430276478396,0.2856476375,0.7097014648851185
0.054,1.7271,1.0,2694.977150216833,0.45604064347319384,1.3011375618296503,0.9767146377825207,0.2855912,0.7108296200742779
0.0545,1.7257437500000001,1.0,2692.7750315520693,0.4590918178410193,1.3005452101708697,0.9769791380429115,0.2855342375,0.7119661245004714
0.055,1.724375,1.0,2690.5611556992217,0.462125880717859,1.2999473292298402,0.9772367631508444,0.28547675,0.7131109683924931
0.0555,1.72299375,1.0,2688.3289403568747,0.4651429011094459,1.2993439794366155,0.9774877402744254,0.2854187375,0.7142639731347293
0.056,1.7216,1.0,2686.0890480370235,0.4681430057209021,1.2987350633125052,0.9777322832736451,0.2853602,0.7154252613127343
0.0565,1.72019375,1.0,2683.846015355905,0.4711262970699595,1.2981205393707411,0.9779705980985429,0.28530113749999997,0.7165948469556709
0.057,1.718775,1.0,2681.600650764876,0.47409286526752475,1.297500400244291,0.9782028830570505,0.28524155,0.7177726781074194
0.0575,1.71734375,1.0,2679.3537613772323,0.4770428004245047,1.2968746385661218,0.9784293283840115,0.2851814375,0.7189587020925846
0.058,1.7159,1.0,2677.106152964116,0.479976192651806,1.296243246969201,0.9786501166324635,0.2851208,0.7201528655138554
0.0585,1.71444375,1.0,2674.858629951353,0.48289313206033546,1.2956062180864953,0.9788654230429413,0.2850596375,0.7213551142493602
0.059000000000000004,1.7129750000000001,1.0,2672.611995417406,0.48579370876099975,1.2949635445509728,0.9790754158921943,0.28499795,0.72256539345002
0.059500000000000004,1.71149375,1.0,2670.367051092917,0.48867801286470575,1.2943152189956006,0.9792802568226259,0.2849357375,0.7237836475368994
0.06,1.71,1.0,2668.1245973610926,0.49154613448236006,1.2936612340533458,0.9794801011536566,0.284873,0.7250098201985525
0.0605,1.7084937500000001,1.0,2665.885433259561,0.49439816372486955,1.2930015823571754,0.9796750981761336,0.2848097375,0.7262438543883653
0.061,1.7069750000000001,1.0,2663.6503564830346,0.49723419070314095,1.2923362565400573,0.9798653914308396,0.28474595,0.7274856923218935
0.0615,1.7054437500000001,1.0,2661.420163387599,0.500054305528081,1.2916652492349585,0.9800511189720672,0.2846816375,0.7287352754742014
0.062,1.7039,1.0,2659.1956489963422,0.5028585983105963,1.2909885530748462,0.9802324136171685,0.2846168,0.7299925445771921
0.0625,1.70234375,1.0,2656.977607005203,0.5056471591615939,1.2903061606926876,0.9804094031829294,0.2845514375,0.7312574396169371
0.063,1.7007750000000001,1.0,2654.7668297912646,0.5084200781919802,1.2896180647214504,0.9805822107095514,0.28448555,0.7325298998310006
0.0635,1.69919375,1.0,2652.564108421727,0.5111774455126623,1.2889242577941016,0.9807509546729832,0.28441913750000003,0.7338098637057638
0.064,1.6976,1.0,2650.370335406187,0.5139193444601922,1.288224731595877,0.9809157486468125,0.2843522,0.7350972707158312
0.0645,1.69599375,1.0,2648.1871186537464,0.516645842755428,1.2875194711967721,0.9810767006110781,0.2842847375,0.7363920716923742
0.065,1.694375,1.0,2646.014509210471,0.5193570639609848,1.2868084760154026,0.981233919309663,0.28421675,0.7376941903243694
0.0655,1.69274375,1.0,2643.852624807746,0.5220530896437634,1.2860917448540365,0.9813875065713824,0.2841482375,0.7390035507856277
0.066,1.6911,1.0,2641.7015830193604,0.5247340013706651,1.2853692765149418,0.9815375605926928,0.2840792,0.7403200765986566
0.0665,1.6894437500000001,1.0,2639.561501263998,0.5273998807085906,1.2846410698003863,0.9816841760915608,0.2840096375,0.7416436906342208
0.067,1.687775,1.0,2637.4324968072106,0.5300508092244409,1.283907123512638,0.9818274444537526,0.28393955,0.7429743151109047
0.0675,1.68609375,1.0,2635.3146867646215,0.5326868684851174,1.2831674364539645,0.9819674538719675,0.2838689375,0.7443118715946747
0.068,1.6844000000000001,1.0,2633.2081881039976,0.5353081400575208,1.282422007426634,0.9821042894782122,0.2837978,0.7456562809984386
0.0685,1.68269375,1.0,2631.1131176477684,0.5379147055085521,1.281670835232914,0.9822380334697884,0.2837261375,0.7470074635816091
0.069,1.680975,1.0,2629.029592075874,0.5405066464051126,1.2809139186750726,0.9823687652292455,0.28365395,0.7483653389496642
0.0695,1.67924375,1.0,2626.957727928189,0.543084044314103,1.2801512565553779,0.9824965614386237,0.28358123749999997,0.7497298260537081
0.07,1.6775,1.0,2624.897641607302,0.5456469808024245,1.2793828476760973,0.9826214961882976,0.283508,0.7511008431900338
0.07050000000000001,1.67574375,1.0,2622.8494493811645,0.5481955374369779,1.278608690839499,0.98274364108071,0.2834342375,0.7524783079996827
0.07100000000000001,1.673975,1.0,2620.8132673855803,0.5507297957846645,1.2778287848478505,0.9828630653292676,0.28335995,0.7538621374680065
0.07150000000000001,1.67219375,1.0,2618.789211627241,0.5532498374123852,1.27704312850342,0.9829798358526571,0.2832851375,0.7552522479242267
0.07200000000000001,1.6704,1.0,2616.777397986536,0.555755743887041,1.2762517206084756,0.9830940173648173,0.2832098,0.7566485550409973
0.0725,1.66859375,1.0,2614.77794222007,0.5582475967755328,1.2754545599652847,0.9832056724608016,0.2831339375,0.7580509738339649
0.073,1.6667750000000001,1.0,2612.790466701892,0.5607254769780456,1.2746516499587226,0.9833148618648345,0.28305755,0.7594594106344111
0.0735,1.66494375,1.0,2610.8154832683163,0.5631894597777035,1.2738429857129014,0.9834216436481686,0.2829806375,0.7608737856372566
0.074,1.6631,1.0,2608.8531363349516,0.5656396217403014,1.2730285657613345,0.9835260742411112,0.2829032,0.7622940123670556
0.0745,1.6612437500000001,1.0,2606.9020286406726,0.5680760400293495,1.2722084029750593,0.9836282089371429,0.2828252375,0.7637199787939022
0.075,1.659375,1.0,2604.9607650648495,0.5704987918083584,1.2713825102251135,0.9837281012811766,0.28274675,0.7651515725252429
0.0755,1.65749375,1.0,2603.0309427788266,0.5729079537937106,1.2705508725505081,0.9838258018998455,0.2826677375,0.7665887288334142
