Time [s],Phi [rad],STIM [ ],Fsee [N],Gamma [ ],Lcerel [ ],q [ ],Lmtc [m],fisomrel [ ]
0.0,1.8,1.0,19.41736804036559,0.0012294530428312443,1.3791804266849428,0.005387538187801325,0.288653,0.5415248852647473
0.0005,1.79999375,1.0,20.07598274246875,0.006831766092321354,1.3791072180038564,0.016669275713803458,0.2886527375,0.5417019045196956
0.001,1.799975,1.0,24.328773473581414,0.012402654595256843,1.378669647497488,0.042242275752026805,0.28865195,0.542759241275919
0.0015,1.79994375,1.0,35.8806370628715,0.01794229481856472,1.377651037361268,0.07949737493155537,0.2886506375,0.5452158609054788
0.002,1.7999,1.0,62.47508079569114,0.023450862040506174,1.3758133545507298,0.12513460287541248,0.2886488,0.5496311305527023
0.0025,1.79984375,1.0,110.83316921875102,0.028928530555601233,1.3732961263137335,0.17583200352934367,0.28864643749999996,0.5556441392830392
0.003,1.7997750000000001,1.0,178.04059891211207,0.03437547368167983,1.3705910525512095,0.22884443241015692,0.28864354999999997,0.5620608155898811
0.0035,1.79969375,1.0,256.57550198795803,0.03979186376309097,1.368013931073538,0.28207960928420844,0.2886401375,0.5681305693105907
0.004,1.7996,1.0,341.32943027236587,0.045177872177054906,1.365637891062893,0.3339938724505331,0.2886362,0.5736891984026786
0.0045000000000000005,1.7994937500000001,1.0,429.67850494659814,0.050533669350776564,1.3634495250724916,0.383533255636498,0.2886317375,0.578776921953381
0.005,1.799375,1.0,520.1037246073179,0.05585942465868621,1.3614231386551914,0.4300584460079144,0.28862675,0.5834608253974182
0.0055,1.79924375,1.0,611.6005099944116,0.06115530687926772,1.3595357749348755,0.4732492244991499,0.2886212375,0.5877998295343703
0.006,1.7991000000000001,1.0,703.264322909363,0.06642148323729066,1.3577721267642884,0.5130157013951688,0.2886152,0.5918338817300957
0.006500000000000001,1.79894375,1.0,794.4409386200999,0.0716581205301864,1.3561185869518426,0.5494196387577235,0.2886086375,0.5955980613119353
0.007,1.798775,1.0,884.5547109708048,0.07686538444447286,1.3545648846931957,0.5826183824627366,0.28860155,0.5991190769850154
0.0075,1.79859375,1.0,973.1319214858654,0.0820434396732708,1.3531024495455881,0.612822656494695,0.2885939375,0.6024191968268667
0.008,1.7984,1.0,1059.802369583646,0.08719245026635322,1.3517236990969004,0.6402677916406038,0.2885858,0.6055179830790596
0.0085,1.79819375,1.0,1144.255423609674,0.09231257881396909,1.3504222227231517,0.6651951935513506,0.2885771375,0.6084319700949167
0.009000000000000001,1.797975,1.0,1226.2719698152684,0.0974039873083132,1.349191953716112,0.6878401923094176,0.28856795,0.6111765926655766
0.0095,1.79774375,1.0,1305.7021419180965,0.10246683758565017,1.3480272599003351,0.7084253072395156,0.2885582375,0.6137660279536499
0.01,1.7975,1.0,1382.4004442385974,0.10750128904696227,1.3469235842118414,0.7271570224880748,0.288548,0.6162118198903359
0.0105,1.79724375,1.0,1456.287975018155,0.11250750095435841,1.3458764257614007,0.7442237966833986,0.2885372375,0.6185251852758875
0.011,1.796975,1.0,1527.3302469032867,0.11748563179942101,1.344881523683776,0.759796081494381,0.28852595000000003,0.6207166282575164
0.0115,1.79669375,1.0,1595.5283054103013,0.12243583999351049,1.3439348657046033,0.7740270341022619,0.2885141375,0.6227959443646572
0.012,1.7964,1.0,1660.870999850136,0.12735828125860932,1.3430331581807822,0.7870538560161535,0.28850180000000003,0.6247712129735921
0.0125,1.79609375,1.0,1723.3833230142397,0.13225311112430815,1.3421731544905007,0.7989988252666579,0.2884889375,0.626650294470727
0.013000000000000001,1.7957750000000001,1.0,1783.1128690579278,0.13712048445448174,1.3413517631565783,0.8099707674755934,0.28847555,0.6284406051973701
0.0135,1.79544375,1.0,1840.1316295881884,0.14196055648761596,1.3405659794078306,0.8200664238160293,0.2884616375,0.6301492782843913
0.014,1.7951000000000001,1.0,1894.4938744137876,0.1467734799027167,1.339813306502261,0.8293719205685591,0.2884472,0.631782259961736
0.0145,1.79474375,1.0,1946.2559349957014,0.15155940616038702,1.3390914802134233,0.8379638610612199,0.2884322375,0.6333449236182066
0.015,1.794375,1.0,1995.494641908995,0.15631848672123014,1.3383982363148714,0.8459103449943642,0.28841675,0.6348425818207413
0.0155,1.79399375,1.0,2042.2935829492515,0.16105087219222416,1.3377314363294084,0.8532720064634063,0.2884007375,0.636280219754065
0.016,1.7936,1.0,2086.7493129747177,0.165756713696621,1.3370889789660798,0.8601028681345029,0.2883842,0.6376626921543553
0.0165,1.7931937500000001,1.0,2128.9376533105233,0.17043615959039593,1.3364691299799734,0.8664512196489494,0.2883671375,0.6389940196764025
0.017,1.792775,1.0,2168.931838398201,0.17508935702719639,1.3358703063662505,0.8723602291937117,0.28834955,0.6402778612928606
0.0175,1.7923437500000001,1.0,2206.815778689411,0.17971645316066973,1.335290925120072,0.8778685046899158,0.2883314375,0.6415178428958109
0.018000000000000002,1.7919,1.0,2242.6768974891957,0.18431759443269208,1.3347294659588502,0.8830106455402017,0.2883128,0.6427174254429302
0.0185,1.79144375,1.0,2276.6061689582334,0.18889292746951156,1.3341844601104758,0.887817707095563,0.2882936375,0.6438799318261156
0.019,1.790975,1.0,2308.687866718797,0.19344259771983752,1.3336545822367174,0.892317631272774,0.28827395,0.6450083538024285
0.0195,1.79049375,1.0,2338.9886381308206,0.19796674775277767,1.3331387462164836,0.8965356227988083,0.2882537375,0.6461051523256036
0.02,1.79,1.0,2367.58068118539,0.20246552013743985,1.3326358659286828,0.9004944028112647,0.288233,0.6471727700825108
0.0205,1.78949375,1.0,2394.541283499902,0.2069390574429318,1.332144855252223,0.9042144870883725,0.2882117375,0.6482136324281882
0.021,1.788975,1.0,2419.94483455469,0.21138750092952985,1.3316647009779867,0.9077144452010646,0.28818995000000003,0.6492299940216284
0.021500000000000002,1.78844375,1.0,2443.8711784930074,0.21581099314783228,1.3311943768552954,0.9110110963347927,0.2881676375,0.6502241222558437
0.022,1.7879,1.0,2466.3898892915495,0.22020967462903465,1.330732990817878,0.9141197263048498,0.2881448,0.6511979871959868
0.0225,1.78734375,1.0,2487.5575937069248,0.22458368296073764,1.3302798043669175,0.9170542531576324,0.28812143749999997,0.652153223301501
0.023,1.786775,1.0,2507.4335628107256,0.2289331557305417,1.3298340790035972,0.9198273420799563,0.28809755,0.653091455127069
0.0235,1.78619375,1.0,2526.079491346686,0.23325823052604747,1.3293950762291005,0.922450535507951,0.28807313749999996,0.6540142976914065
0.024,1.7856,1.0,2543.5592891800447,0.23755904493485547,1.3289620575446104,0.9249343681674687,0.2880482,0.654923356811277
0.0245,1.78499375,1.0,2559.927879380264,0.24183573333614783,1.3285343877467546,0.9272884854795752,0.2880227375,0.6558200129715086
0.025,1.784375,1.0,2575.250710989577,0.2460884356747669,1.3281113490647074,0.9295217043266873,0.28799675,0.656705811909878
0.025500000000000002,1.78374375,1.0,2589.573878110193,0.2503172852399335,1.3276924197482098,0.9316421352757674,0.2879702375,0.6575818815037088
0.026000000000000002,1.7831000000000001,1.0,2602.9414549527173,0.2545224141890625,1.3272771087195459,0.9336572259820496,0.2879432,0.6584492796816791
0.0265,1.78244375,1.0,2615.3986497957253,0.2587039546795687,1.3268649249009994,0.9355738202086795,0.2879156375,0.6593090588949746
0.027,1.781775,1.0,2626.9917067992906,0.262862038868867,1.326455377214854,0.9373982148835771,0.28788755,0.6601622662229191
0.0275,1.7810937500000001,1.0,2637.7678131655857,0.2669967989143723,1.3260479745833935,0.939136211070814,0.2878589375,0.6610099434632232
0.028,1.7804,1.0,2647.7681312749114,0.27110836479756156,1.3256422894267446,0.9407931680046699,0.2878298,0.6618529953345291
0.0285,1.77969375,1.0,2657.0325010038036,0.2751968674414372,1.3252379130303036,0.9423740377981081,0.2878001375,0.6626922829326936
0.029,1.778975,1.0,2665.613165580302,0.27926244113683074,1.3248343285203639,0.9438833849426389,0.28776995,0.6635288871642995
0.029500000000000002,1.7782437500000001,1.0,2673.5393422718757,0.28330521194424796,1.3244312364966855,0.9453254610990656,0.2877392375,0.6643634336263767
0.03,1.7775,1.0,2680.8407006942703,0.2873253059241946,1.324028337559029,0.9467042056898756,0.287708,0.6651965448301403
0.0305,1.77674375,1.0,2687.547323062814,0.2913228491371765,1.3236253323071543,0.9480232727848386,0.2876762375,0.6660288402075382
0.031,1.775975,1.0,2693.6896664307637,0.2952979676436994,1.3232219213408223,0.9492860553545842,0.28764395,0.6668609361120769
0.0315,1.7751937500000001,1.0,2699.298526915345,0.29925078750426914,1.3228178052597928,0.9504957071783364,0.2876111375,0.6676934458139366
0.032,1.7744,1.0,2704.4050059110923,0.30318143477939136,1.3224126846638262,0.95165516265804,0.2875778,0.6685269794893628
0.0325,1.77359375,1.0,2709.0400121897137,0.3070900351370386,1.3220062644053368,0.9527671551526923,0.2875439375,0.6693621354710471
0.033,1.772775,1.0,2713.2294972613095,0.3109767121714277,1.3215982967395665,0.9538342377614317,0.28750955,0.6701994117800054
0.0335,1.7719437500000002,1.0,2716.9961275173605,0.31484158841597576,1.3211885656755051,0.9548587961082808,0.2874746375,0.6710392387733155
0.034,1.7711000000000001,1.0,2720.3620396209662,0.3186847854593557,1.3207768615912818,0.9558430586730915,0.2874392,0.6718820314657131
0.0345,1.7702437500000001,1.0,2723.3495204288265,0.3225064248902404,1.320362974865026,0.9567891085733482,0.2874032375,0.6727282026008632
0.035,1.7693767577146862,1.0,2726.090136727781,0.32630661647905834,1.3199464969525152,0.9576988704943805,0.2873668238240168,0.6735785685198157
0.035500000000000004,1.7685083866563174,1.0,2729.012331322025,0.3300854947660298,1.3195277582450808,0.9585742307674603,0.2873303522395653,0.6744324353025293
0.036000000000000004,1.7676400155979486,1.0,2732.1475063235416,0.3338431858502058,1.3191070987489364,0.959416955220269,0.28729388065511385,0.6752890928827697
0.0365,1.76677164453958,1.0,2735.4810967796348,0.3375798048683846,1.3186846540141275,0.9602286761005894,0.28725740907066233,0.6761482503057904
0.037,1.7659032734812112,1.0,2738.998523652782,0.3412954669573649,1.3182605595907,0.9610109252149449,0.28722093748621086,0.6770096180134391
0.0375,1.7650349024228424,1.0,2742.68518865896,0.34499028725394487,1.3178349510286997,0.9617651412338607,0.2871844659017594,0.6778729078590052
0.038,1.7641665313644737,1.0,2746.526469513377,0.3486643808949229,1.3174079638781728,0.9624926763888637,0.28714799431730786,0.6787378331208946
0.0385,1.763298160306105,1.0,2750.507715584006,0.35231786301709744,1.3169797336891647,0.9631948026179309,0.2871115227328564,0.6796041085151348
0.039,1.7624297892477363,1.0,2754.614243951573,0.35595084875726674,1.3165503960117213,0.9638727172102814,0.2870750511484049,0.6804714502067042
0.0395,1.7615614181893675,1.0,2758.8313358778755,0.35956345325222927,1.3161200863958888,0.9645275479962298,0.2870385795639534,0.6813395758196932
0.04,1.760693047130999,1.0,2763.1442336812142,0.3631557916387834,1.3156889403917127,0.9651603581232125,0.287002107979502,0.6822082044462936
0.0405,1.7598246760726302,1.0,2767.538138018339,0.36672797905372756,1.315257093549239,0.9657721504550116,0.28696563639505046,0.6830770566546123
0.041,1.7589563050142614,1.0,2771.998205575488,0.37028013063385995,1.3148246814185134,0.9663638716275371,0.286929164810599,0.6839458544953174
0.0415,1.7580879339558928,1.0,2776.5117270759984,0.373812360328733,1.3143918199034776,0.966936413920706,0.2868926932261475,0.6848143608985309
0.042,1.757219562897524,1.0,2781.0752350820258,0.37732477804991493,1.313958541323533,0.9674906130566561,0.286856221641696,0.6856825074298449
0.0425,1.7563511918391552,1.0,2785.682536805168,0.3808174940302256,1.3135249024243498,0.9680272616060225,0.2868197500572445,0.6865501771677358
0.043000000000000003,1.7554828207807867,1.0,2790.3270623011413,0.38429061830508787,1.313090963163244,0.9685471099329506,0.28678327847279306,0.6874172474027814
0.043500000000000004,1.7546144497224179,1.0,2795.002220101854,0.38774426090992464,1.3126567834975318,0.9690508686546914,0.28674680688834153,0.6882835960873008
0.044,1.753746078664049,1.0,2799.7080907599748,0.3911785187619132,1.3122223633071874,0.969539204453707,0.28671033530389006,0.6891492214632483
0.0445,1.7528777076056805,1.0,2804.4290252631554,0.39459352091346006,1.3117878435286867,0.9700127651933759,0.2866738637194386,0.6900138412874082
0.045,1.7520093365473117,1.0,2809.16099932622,0.3979893746904536,1.3113532604702307,0.9704721542297091,0.28663739213498707,0.6908773826357038
0.0455,1.751140965488943,1.0,2813.901533779271,0.40136618438661636,1.3109186364858243,0.9709179428317269,0.2866009205505356,0.6917398006562367
0.046,1.7502725944305744,1.0,2818.64814105165,0.404724054295671,1.3104839939294726,0.9713506736034161,0.28656444896608413,0.6926010507449083
0.0465,1.7494042233722056,1.0,2823.3983251572577,0.4080630887113399,1.3100493551551806,0.9717708621974311,0.2865279773816326,0.6934610885454614
0.047,1.7485358523138368,1.0,2828.149581691263,0.41138339192734574,1.3096147425169535,0.9721789989106405,0.28649150579718113,0.6943198699494917
0.0475,1.747667481255468,1.0,2832.899397836975,0.414685068237411,1.3091801783687962,0.9725755501707122,0.28645503421272966,0.6951773510964265
0.048,1.7467991101970994,1.0,2837.6452523844423,0.41796822193525834,1.308745685064714,0.9729609599221277,0.28641856262827814,0.696033488373471
0.0485,1.7459307391387306,1.0,2842.384615760556,0.4212329573146102,1.3083112849587117,0.9733356509193113,0.28638209104382667,0.696888238415523
0.049,1.7450623680803619,1.0,2847.1149500690344,0.42447937866918917,1.3078770004047944,0.973700025933894,0.2863456194593752,0.6977415581050582
0.0495,1.7441939970219933,1.0,2851.833709142322,0.42770759029271777,1.3074428537569673,0.9740544688825562,0.28630914787492373,0.698593404571977
0.05,1.7433256259636245,1.0,2856.538629730684,0.43091769437110133,1.3070088647825224,0.9743993454660677,0.2862726762904722,0.6994437402581214
0.0505,1.7424572549052557,1.0,2861.2316703086694,0.43410976899828657,1.3065750157049012,0.9747349994079535,0.28623620470602074,0.7002926012293993
0.051000000000000004,1.7415888838468871,1.0,2865.9068632559956,0.4372839545338413,1.306141359116805,0.9750617703698619,0.28619973312156927,0.7011398859633784
0.051500000000000004,1.7407205127885184,1.0,2870.563921510719,0.4404403469392088,1.3057078970917717,0.9753799744991066,0.2861632615371178,0.7019855920144347
0.052000000000000005,1.7398521417301496,1.0,2875.2025575017615,0.4435790421758324,1.3052746317033384,0.9756899138606635,0.28612678995266627,0.7028297169591554
0.0525,1.738983770671781,1.0,2879.8224831576003,0.44670013620515525,1.3048415650250427,0.9759918771871778,0.2860903183682148,0.7036722583963095
0.053,1.7381153996134122,1.0,2884.4234099153905,0.44980372498862076,1.304408699130422,0.9762861405827653,0.28605384678376333,0.7045132139468246
0.0535,1.7372470285550434,1.0,2889.005048730113,0.4528899044876722,1.3039760360930137,0.9765729681838275,0.2860173751993118,0.7053525812537591
0.054,1.7363786574966746,1.0,2893.5671100842237,0.45595877066375284,1.3035435779863551,0.9768526127798532,0.28598090361486034,0.7061903579822754
0.0545,1.735510286438306,1.0,2898.109303996253,0.45901041947830595,1.303111326883984,0.9771253163969466,0.28594443203040887,0.7070265418196129
0.055,1.7346419153799373,1.0,2902.6313400311515,0.4620449468927748,1.3026792848594373,0.9773913108466157,0.28590796044595734,0.7078611304750626
0.0555,1.7337735443215685,1.0,2907.1329273092438,0.4650624488686027,1.302247453986253,0.9776508182421629,0.2858714888615059,0.7086941216799358
0.056,1.7329051732632,1.0,2911.613774516232,0.4680630213672329,1.301815836337968,0.9779040514848454,0.2858350172770544,0.7095255131875413
0.0565,1.7320368022048311,1.0,2916.0735899125725,0.4710467603501087,1.3013844339881198,0.9781512147218048,0.2857985456926029,0.7103553027731527
0.057,1.7311684311464623,1.0,2920.512081343872,0.4740137617786734,1.300953249010246,0.9783925037776284,0.2857620741081514,0.7111834882339824
0.0575,1.7303000600880938,1.0,2924.928956250325,0.4769641216143702,1.300522283477884,0.9786281065612591,0.28572560252369994,0.7120100673891528
0.058,1.729431689029725,1.0,2929.3239216768857,0.4798979358186425,1.3000915394645713,0.9788582034498517,0.2856891309392484,0.7128350380796672
0.0585,1.7285633179713562,1.0,2933.6977445215675,0.48281525063230485,1.2996610097481256,0.9790829629395551,0.28565265935479695,0.7136584159334622
0.059000000000000004,1.7276949469129876,1.0,2938.0499297485344,0.4857162186471209,1.299230698186533,0.9793025564341807,0.2856161877703455,0.7144801953533164
0.059500000000000004,1.7268265758546189,1.0,2942.3805919646984,0.48860093341288324,1.2988006032918937,0.9795171433991734,0.285579716185894,0.7153003809706644
0.06,1.72595820479625,1.0,2946.689950944935,0.49146948144945835,1.298370722663398,0.9797268765077708,0.2855432446014425,0.7161189791368674
0.0605,1.7250898337378815,1.0,2950.978227574863,0.49432194927671264,1.2979410539002354,0.9799319025802594,0.285506773016991,0.7169359961760747
0.061,1.7242214626795127,1.0,2955.245643839266,0.4971584234145126,1.2975115946015956,0.9801323628534009,0.28547030143253954,0.7177514383852546
0.0615,1.723353091621144,1.0,2959.492422811049,0.4999789903827246,1.2970823423666684,0.9803283932354675,0.28543382984808807,0.7185653120342271
0.062,1.7224847205627754,1.0,2963.7187886400834,0.502783736701215,1.2966532947946434,0.9805201245477649,0.28539735826363655,0.7193776233656964
0.0625,1.7216163495044066,1.0,2967.9249665424554,0.5055727488898504,1.2962244494847104,0.9807076827534496,0.2853608866791851,0.7201883785952814
0.063,1.7207479784460378,1.0,2972.1111827892914,0.5083461134684971,1.295795804036059,0.9808911891744041,0.2853244150947336,0.7209975839115477
0.0635,1.719879607387669,1.0,2976.2776646962307,0.5111039169570215,1.2953673560478791,0.9810707606968724,0.2852879435102821,0.7218052454760377
0.064,1.7190112363293004,1.0,2980.424640613018,0.5138462458752902,1.2949391031193602,0.9812465099665212,0.2852514719258306,0.7226113694233016
0.0645,1.7181428652709316,1.0,2984.5523399126823,0.5165731867431693,1.2945110428496922,0.9814185455735412,0.28521500034137914,0.7234159618609273
0.065,1.7172744942125628,1.0,2988.6609929814217,0.5192848260805256,1.2940831728380648,0.98158697222837,0.2851785287569276,0.7242190288695691
0.0655,1.7164061231541943,1.0,2992.7508312086884,0.5219812504072253,1.2936554906836677,0.9817518909285704,0.28514205717247615,0.7250205765029795
0.066,1.7155377520958255,1.0,2996.8220869766087,0.5246625462431349,1.2932279939856903,0.9819133991173745,0.2851055855880247,0.7258206107880356
0.0665,1.7146693810374567,1.0,3000.8749936501868,0.5273288001081209,1.2928006803433227,0.9820715908343653,0.28506911400357315,0.7266191377247684
0.067,1.7138010099790881,1.0,3004.9097855679406,0.5299800985220495,1.2923735473557545,0.9822265568587377,0.2850326424191217,0.7274161632863916
0.0675,1.7129326389207193,1.0,3008.92669803164,0.5326165280047873,1.2919465926221754,0.9823783848455542,0.2849961708346702,0.728211693419329
0.068,1.7120642678623506,1.0,3012.9259672969606,0.5352381750762008,1.2915198137417752,0.9825271594553864,0.2849596992502187,0.7290057340432421
0.0685,1.7111958968039818,1.0,3016.90751111902,0.5378450781278499,1.2910932110756108,0.9826729595695944,0.2849232276657672,0.7297982859237561
0.069,1.7103275257456132,1.0,3020.8721171498305,0.5404373763775021,1.2906667774695293,0.982815867401927,0.28488675608131575,0.7305893637610943
0.0695,1.7094591546872444,1.0,3024.820019137871,0.5430151505541154,1.2902405105725214,0.9829559589814109,0.2848502844968643,0.7313789732863587
0.07,1.7085907836288756,1.0,3028.751423657019,0.5455784779927796,1.2898144082758116,0.9830933076252597,0.28481381291241276,0.7321671197568278
0.07050000000000001,1.707722412570507,1.0,3032.6665380975874,0.548127436028584,1.2893884684706247,0.9832279842444211,0.2847773413279613,0.7329538084063336
0.07100000000000001,1.7068540415121383,1.0,3036.5655706585067,0.5506621019966185,1.2889626890481853,0.9833600574388732,0.2847408697435098,0.7337390444452863
