Time [s],Phi [rad],STIM [ ],Fsee [N],Gamma [ ],Lcerel [ ],q [ ],Lmtc [m],fisomrel [ ]
0.0,1.8,1.0,20.148438291755937,0.0015098900292998957,1.3791023682186392,0.005583317996174146,0.288653,0.541713630137179
0.0005,1.79999375,1.0,20.873527788433567,0.007110630048992568,1.3790235125345933,0.017622440928236525,0.2886527375,0.5419042632204687
0.001,1.799975,1.0,25.341977652087603,0.01267995434567578,1.3785730932071198,0.04384477146807912,0.28865195,0.542992388710438
0.0015,1.79994375,1.0,37.43066290083592,0.018218039136691927,1.3775294523259864,0.08159668287051873,0.2886506375,0.5455086499567625
0.002,1.7999,1.0,65.0152538652631,0.023725059650670982,1.3756622600677624,0.12756088614450423,0.2886488,0.5499931963035105
0.0025,1.79984375,1.0,114.44328753754728,0.029201190134582278,1.373134586398357,0.17843359132366557,0.28864643749999996,0.5560286365858642
0.003,1.7997750000000001,1.0,182.3416599334756,0.03464660385570445,1.370438891320801,0.23150319640963776,0.28864354999999997,0.5624203692506882
0.0035,1.79969375,1.0,261.2261115822065,0.040061473111006406,1.3678766739356507,0.2847062000544933,0.2886401375,0.5684526555294737
0.004,1.7996,1.0,346.1562772544778,0.04544596922823175,1.365514257397128,0.33652446628852395,0.2886362,0.5739774478298026
0.0045000000000000005,1.7994937500000001,1.0,434.59788747845516,0.050800262589038,1.3633371452338663,0.3859266616358959,0.2886317375,0.5790373689199757
0.005,1.799375,1.0,525.076311328893,0.05612452258775075,1.3613198410108338,0.43229158902743847,0.28862675,0.5836988918746996
0.0055,1.79924375,1.0,616.552198177617,0.06141891771530633,1.3594408827684608,0.4753131449849114,0.2886212375,0.5880173845492017
0.006,1.7991000000000001,1.0,708.1848428871542,0.06668361542673647,1.3576841675351952,0.5149100135169117,0.2886152,0.5920345545110155
0.006500000000000001,1.79894375,1.0,799.304069842006,0.07191878242438565,1.3560367763757535,0.5511502281394313,0.2886086375,0.5957838452422248
0.007,1.798775,1.0,889.3256848785738,0.07712458414428926,1.354488808697889,0.5841948141317571,0.28860155,0.5992910858034166
0.0075,1.79859375,1.0,977.807067776463,0.08230118559571742,1.3530313648597203,0.6142560561791592,0.2885939375,0.6025792583714382
0.008,1.7984,1.0,1064.3615602287957,0.08744875034920734,1.3516572641849258,0.6415701712881442,0.2885858,0.6056669915369046
0.0085,1.79819375,1.0,1148.6886149665756,0.09256744114263088,1.3503600467875758,0.6663784488671183,0.2885771375,0.6085709107621419
0.009000000000000001,1.797975,1.0,1230.5819267041195,0.09765742043611296,1.3491335573525587,0.6889156512963103,0.28856795,0.611306629879935
0.0095,1.79774375,1.0,1309.8635757656243,0.10271884893178218,1.3479726133576957,0.7094037785991593,0.2885582375,0.613887309799157
0.01,1.7975,1.0,1386.4099771386698,0.10775188661693189,1.3468724101769747,0.7280482964268458,0.288548,0.6163250352615326
0.0105,1.79724375,1.0,1460.1549744138417,0.11275669282855494,1.3458283363088743,0.7450367015832813,0.2885372375,0.6186312557584059
0.011,1.796975,1.0,1531.06985100626,0.11773342656096,1.344836110606114,0.7605385580376909,0.28852595000000003,0.6208165077233672
0.0115,1.79669375,1.0,1599.1192110810007,0.1226822444954414,1.3438921984236258,0.7747064055913822,0.2885141375,0.622889527625528
0.012,1.7964,1.0,1664.312165289068,0.12760330325647118,1.3429930807198027,0.7876765586888579,0.28850180000000003,0.6248588857727644
0.0125,1.79609375,1.0,1726.6813608923676,0.1324967584322968,1.3421354455399588,0.7995705603764494,0.2884889375,0.6267325794170087
0.013000000000000001,1.7957750000000001,1.0,1786.292284876935,0.13736276619728777,1.341316023380557,0.8104965345951904,0.28847555,0.628518406197969
0.0135,1.79544375,1.0,1843.1772607759904,0.1422014793635936,1.3405322770214338,0.8205508397555138,0.2884616375,0.6302224754674663
0.014,1.7951000000000001,1.0,1897.3930785167436,0.14701305065149453,1.3397816871107824,0.8298190780746757,0.2884472,0.6318507815821122
0.0145,1.79474375,1.0,1949.017250335123,0.1517976325361599,1.3390617670119311,0.8383773200481835,0.2884322375,0.6334091777766164
0.015,1.794375,1.0,1998.134015220992,0.15655537671914616,1.33837018718582,0.8462932497256729,0.28841675,0.6349031135964067
0.0155,1.79399375,1.0,2044.8333697948979,0.1612864348301634,1.3377047560359276,0.8536271405531954,0.2884007375,0.6363376841540644
0.016,1.7936,1.0,2089.178934384843,0.1659909552710237,1.337063728785618,0.8604328209852566,0.2883842,0.6377169730138246
0.0165,1.7931937500000001,1.0,2131.2477419620186,0.17066908644353926,1.3364453606582551,0.8667582991117522,0.2883671375,0.6390450232510735
0.017,1.792775,1.0,2171.129109460559,0.1753209767495222,1.3358479068772036,0.8726464523251187,0.28834955,0.6403258400707947
0.0175,1.7923437500000001,1.0,2208.9042690892106,0.17994677292682618,1.3352698177509326,0.8781356857845019,0.2883314375,0.6415629761009454
0.018000000000000002,1.7919,1.0,2244.6788704815867,0.18454662368691413,1.3347093951280566,0.8832603656108037,0.2883128,0.6427602704496507
0.0185,1.79144375,1.0,2278.522154187608,0.18912067328646226,1.3341653947845433,0.8880514418418624,0.2882936375,0.643920564185237
0.019,1.790975,1.0,2310.5054854638674,0.19366906550502172,1.3336366215843751,0.8925367390451112,0.28827395,0.6450465712301163
0.0195,1.79049375,1.0,2340.706601861143,0.1981919441221435,1.3331218803915348,0.8967413018688175,0.2882537375,0.6461409847079337
0.02,1.79,1.0,2369.209075985242,0.20268945291737864,1.332619976070005,0.9006877098039376,0.288233,0.6472064780586393
0.0205,1.78949375,1.0,2396.0842328895737,0.2071617332975014,1.3321298840060745,0.9043963898814243,0.2882117375,0.6482453448664272
0.021,1.788975,1.0,2421.422569501164,0.2116089298294701,1.3316504378459042,0.9078857889013218,0.28818995000000003,0.649260162871875
0.021500000000000002,1.78844375,1.0,2445.283038513843,0.2160311814789483,1.3311808163100243,0.9111726879646491,0.2881676375,0.6502527643757205
0.022,1.7879,1.0,2467.7276649024075,0.22042862717263234,1.3307202005126746,0.9142723126341418,0.2881448,0.6512249648369143
0.0225,1.78734375,1.0,2488.821517838006,0.22480140583721872,1.330267771568096,0.9171984982110738,0.28812143749999997,0.6521785684421046
0.023,1.786775,1.0,2508.632452121115,0.22914965639940374,1.3298227105905287,0.9199638359365244,0.28809755,0.6531153685545802
0.0235,1.78619375,1.0,2527.2203665219217,0.23347351521500706,1.3293842978619266,0.9225798191419831,0.28807313749999996,0.6540369398023139
0.024,1.7856,1.0,2544.6535479806685,0.23777312285707786,1.3289517551117758,0.9250569302391911,0.2880482,0.6549449706915891
0.0245,1.78499375,1.0,2560.9834942454545,0.2420486145578017,1.32852448092736,0.9274047793695375,0.2880227375,0.6558407698705635
0.025,1.784375,1.0,2576.2581698836248,0.24630012400113674,1.3281019223039157,0.9296321703238593,0.28799675,0.6567255375652912
0.025500000000000002,1.78374375,1.0,2590.5269814747357,0.2505277848710413,1.3276835262366788,0.9317471722816268,0.2879702375,0.6576004675800249
0.026000000000000002,1.7831000000000001,1.0,2603.840653968281,0.2547317308514737,1.327268739720886,0.9337571910734719,0.2879432,0.6584667474537722
0.0265,1.78244375,1.0,2616.251113821814,0.2589120956263921,1.3268570097517733,0.9356690326610796,0.2879156375,0.6593255585973505
0.027,1.781775,1.0,2627.800837748399,0.2630690097317245,1.3264478809762295,0.9374889734481291,0.28788755,0.6601778731062804
0.0275,1.7810937500000001,1.0,2638.5404843875585,0.26720260838256416,1.3260408307382383,0.9392227877401035,0.2878589375,0.6610247981234676
0.028,1.7804,1.0,2648.5160955951583,0.27131302409330704,1.3256353870665862,0.9408758083062464,0.2878298,0.6618673300063602
0.0285,1.77969375,1.0,2657.760937638043,0.2754003846345247,1.3252312025908708,0.9424529760600786,0.2878001375,0.6627062017260713
0.029,1.778975,1.0,2666.3088673377074,0.27946481777678883,1.324827929940689,0.9439588591459664,0.28776995,0.6635421426353533
0.029500000000000002,1.7782437500000001,1.0,2674.194280232119,0.2835064512906711,1.3244252217456383,0.9453976858648715,0.2877392375,0.664375878492645
0.03,1.7775,1.0,2681.4520614134394,0.2875254129467431,1.3240227306353158,0.9467733742991143,0.287708,0.6652081314784233
0.0305,1.77674375,1.0,2688.117539040935,0.2915218305155766,1.3236201092393187,0.9480895590030182,0.2876762375,0.666039620203863
0.031,1.775975,1.0,2694.2264405292763,0.2954958317677433,1.3232170101872447,0.949349615081907,0.28764395,0.666871059711794
0.0315,1.7751937500000001,1.0,2699.807028138527,0.2994475392457226,1.3228131576092153,0.9505566871846742,0.2876111375,0.667703014267755
0.032,1.7744,1.0,2704.895304629252,0.30337708473906744,1.3224082076071975,0.9517136959155241,0.2875778,0.6685361851642675
0.0325,1.77359375,1.0,2709.514445076312,0.3072845907654673,1.3220019359250816,0.9528233730072828,0.2875439375,0.6693710244276136
0.033,1.772775,1.0,2713.6868285375604,0.3111701790625641,1.3215941275012852,0.9538882659964167,0.28750955,0.670207962872089
0.0335,1.7719437500000002,1.0,2717.4350229354222,0.3150339713679996,1.3211845672742262,0.9549107520678937,0.2874746375,0.6710474290333803
0.034,1.7711000000000001,1.0,2720.7817659794655,0.31887608941941564,1.3207730401823217,0.955893051470819,0.2874392,0.6718898491460161
0.0345,1.7702437500000001,1.0,2723.749947114832,0.322696654954454,1.3203593311639898,0.9568372397267931,0.2874032375,0.6727356471178606
0.035,1.7693750000000001,1.0,2726.3625904957444,0.32649578971075643,1.3199432251576484,0.9577452587523155,0.28736675,0.6735852445016656
0.035500000000000004,1.76849375,1.0,2728.6370845969504,0.330273610166464,1.3195245594151717,0.9586189312382267,0.2873297375,0.6744389538601416
0.036000000000000004,1.7676,1.0,2730.5935580235223,0.33403023615632305,1.3191031471541619,0.9594599637122265,0.2872922,0.6752971348096598
0.0365,1.76669375,1.0,2732.263423871229,0.3377657992171775,1.3186786998701152,0.9602699491689337,0.2872541375,0.676160351559608
0.037,1.765775,1.0,2733.659565913538,0.3414804139594856,1.3182510981507911,0.9610503960016066,0.28721555,0.6770288218297689
0.0375,1.76484375,1.0,2734.79492396906,0.34517419499370555,1.3178202225839495,0.9618027212094077,0.2871764375,0.6779027618516862
0.038,1.7639,1.0,2735.682487465108,0.34884725693029556,1.3173859537573498,0.9625282569421906,0.28713679999999997,0.6787823863441882
0.0385,1.76294375,1.0,2736.3352893179267,0.35249971437971384,1.3169481722587517,0.9632282565076664,0.28709663750000003,0.6796679084879995
0.039,1.761975,1.0,2736.766400128291,0.3561316819524187,1.3165067586759147,0.9639038998904801,0.28705595,0.6805595398994461
0.0395,1.7609937500000001,1.0,2736.988922694165,0.35974327425886815,1.3160615935965987,0.9645562988276872,0.2870147375,0.6814574906032478
0.04,1.76,1.0,2737.0159868388632,0.3633346059095206,1.3156125576085629,0.9651865014806441,0.286973,0.6823619690044056
0.0405,1.7589937500000001,1.0,2736.8607445554526,0.36690579151483416,1.3151595312995672,0.965795496739354,0.2869307375,0.6832731818591745
0.041,1.757975,1.0,2736.536365467603,0.3704569456852671,1.314702395257371,0.966384218191742,0.28688795,0.684191334245132
0.0415,1.75694375,1.0,2736.0546965517833,0.37398818065837164,1.3142410421994069,0.9669535484129798,0.2868446375,0.6851166052213986
0.042,1.7559,1.0,2735.422916705267,0.37749960123926,1.3137754073200063,0.9675043240153983,0.28680079999999997,0.6860490872486101
0.0425,1.75484375,1.0,2734.659209002916,0.3809913344103015,1.3133053259699572,0.9680373317403439,0.2867564375,0.6869890711698305
0.043000000000000003,1.753775,1.0,2733.7702428972825,0.3844634871834621,1.3128307380759672,0.9685533214528305,0.28671155,0.6879366368458089
0.043500000000000004,1.75269375,1.0,2732.7626924747633,0.38791616657070804,1.3123515835647441,0.9690530033002162,0.28666613750000003,0.6888918630248619
0.044,1.7516,1.0,2731.6432349780735,0.3913494795840053,1.3118678023629957,0.9695370502077756,0.2866202,0.6898548273254956
0.0445,1.75049375,1.0,2730.418549410581,0.39476353323532,1.3113793343974296,0.9700061001936394,0.2865737375,0.6908256062187939
0.045,1.7493750000000001,1.0,2729.0953152193665,0.39815843453661826,1.3108861195947532,0.9704607585178219,0.28652675,0.6918042750105766
0.0455,1.74824375,1.0,2727.68021105866,0.40153429049986605,1.3103880978816742,0.970901599678734,0.2864792375,0.6927909078233299
0.046,1.7471,1.0,2726.1799136335876,0.40489120813702956,1.3098852091849007,0.9713291692693756,0.2864312,0.6937855775779029
0.0465,1.7459437500000001,1.0,2724.6010966236267,0.4082292944600748,1.30937739343114,0.9717439857043265,0.28638263750000004,0.6947883559749799
0.047,1.744775,1.0,2722.950429685923,0.41154865648096783,1.3088645905470997,0.9721465418276712,0.28633355,0.6957993134763152
0.0475,1.74359375,1.0,2721.234577539395,0.41484940121167485,1.3083467404594875,0.9725373064111215,0.28628393750000003,0.6968185192857445
0.048,1.7424,1.0,2719.4562118417307,0.41813161385385833,1.3078238194047849,0.9729167253655295,0.2862338,0.6978459700479923
0.0485,1.74119375,1.0,2717.62654903443,0.4213954270187608,1.3072957257705302,0.9732852237511276,0.2861831375,0.6988818141682497
0.049,1.739975,1.0,2715.7491385960757,0.42464094225678023,1.3067624276890535,0.9736432073925729,0.28613195,0.699926061729331
0.0495,1.73874375,1.0,2713.827027454389,0.4278682586826732,1.3062238978421512,0.9739910630740559,0.2860802375,0.7009787129794636
0.05,1.7375,1.0,2711.86325948137,0.4310774754111965,1.3056801089116201,0.9743291595911097,0.286028,0.702039767269707
0.0505,1.73624375,1.0,2709.860875250789,0.43426869155710685,1.3051310335792572,0.9746578487455351,0.2859752375,0.7031092230448157
0.051000000000000004,1.734975,1.0,2707.822911813109,0.437442006235161,1.3045766445268587,0.9749774662767252,0.28592195,0.7041870778340547
0.051500000000000004,1.73369375,1.0,2705.7524024861364,0.44059751856011575,1.3040169144362217,0.975288332733986,0.2858681375,0.7052733282419613
0.052000000000000005,1.7324,1.0,2703.652376662579,0.4437353276467277,1.3034518159891428,0.9755907542940736,0.2858138,0.706367969939067
0.0525,1.73109375,1.0,2701.5258596343097,0.44685553260975364,1.3028813218674187,0.9758850235278389,0.28575893750000003,0.7074709976525674
0.053,1.729775,1.0,2699.3758724327877,0.44995823256395034,1.3023054047528457,0.9761714201195592,0.28570355000000003,0.7085824051569456
0.0535,1.72844375,1.0,2697.2054316861904,0.45304352662407454,1.3017240373272212,0.9764502115422573,0.2856476375,0.709702185264546
0.054,1.7271,1.0,2695.0175494934783,0.45611151390488297,1.3011371922723416,0.9767216536920579,0.2855912,0.7108303298161058
0.0545,1.7257437500000001,1.0,2692.8152333141634,0.4591622935211323,1.3005448422700034,0.9769859914843835,0.2855342375,0.7119668296712333
0.055,1.724375,1.0,2690.5993447070764,0.46219594781260903,1.2999469796045993,0.9772434589758994,0.28547675,0.7131116372005042
0.0555,1.72299375,1.0,2688.371483016436,0.4652125688407906,1.2993435897916288,0.977494280908891,0.2854187375,0.7142647169982815
0.056,1.7216,1.0,2686.1378604184297,0.4682122881933398,1.2987346160575117,0.9777386738302251,0.2853602,0.7154261134214639
0.0565,1.72019375,1.0,2683.8994480494307,0.47119519596416143,1.298120049576712,0.9779768442174048,0.28530113749999997,0.7165957781899834
0.057,1.718775,1.0,2681.657215460791,0.4741613822471602,1.2974998815236936,0.9782089900749091,0.28524155,0.7177736622875903
0.0575,1.71734375,1.0,2679.412130609061,0.47711093713624086,1.2968741030729205,0.9784353013481055,0.2851814375,0.7189597159587021
0.058,1.7159,1.0,2677.1651598487447,0.48004395072530825,1.2962427053988568,0.9786559603137324,0.2851208,0.7201538887052492
0.0585,1.71444375,1.0,2674.917267926199,0.4829605131082671,1.2956056796759667,0.97887114194845,0.2850596375,0.7213561292835132
0.059000000000000004,1.7129750000000001,1.0,2672.6694179753886,0.4858607143790221,1.294963017078714,0.9790810142768573,0.28499795,0.7225663857009638
0.059500000000000004,1.71149375,1.0,2670.422571515498,0.48874464463147815,1.294314708781563,0.979285738700268,0.2849357375,0.7237846052130861
0.06,1.71,1.0,2668.1776884499486,0.49161239395953993,1.2936607459589775,0.979485470307454,0.284873,0.7250107343202069
0.0605,1.7084937500000001,1.0,2665.9357270677215,0.4944640524571122,1.2930011197854216,0.9796803581684739,0.2848097375,0.7262447187643144
0.061,1.7069750000000001,1.0,2663.697644045764,0.49729971021809977,1.2923358214353593,0.9798705456126311,0.28474595,0.7274865035258729
0.0615,1.7054437500000001,1.0,2661.4643944533764,0.5001194573364074,1.2916648420832548,0.9800561704915344,0.2846816375,0.7287360328206315
0.062,1.7039,1.0,2659.2369317588846,0.5029233839059398,1.2909881729035722,0.980237365428163,0.2846168,0.7299932500964311
0.0625,1.70234375,1.0,2657.016207836704,0.5057115800206018,1.290305805070775,0.9804142580527829,0.2845514375,0.7312580980300039
0.063,1.7007750000000001,1.0,2654.803172977494,0.5084841357742981,1.2896177297593279,0.9805869712265,0.28448555,0.7325305185237657
0.0635,1.69919375,1.0,2652.5987758996193,0.5112411412609335,1.2889239381436945,0.980755623253185,0.28441913750000003,0.7338104527026102
0.064,1.6976,1.0,2650.4039637614924,0.5139826865744127,1.288224421398339,0.9809203280804565,0.2843522,0.7350978409106912
0.0645,1.69599375,1.0,2648.2180106840397,0.5167088183684956,1.2875191861223652,0.9810811931560982,0.2842847375,0.7363925944245304
0.065,1.694375,1.0,2646.042824058655,0.5194196658966848,1.286808214616149,0.981238326706711,0.28421675,0.7376946684588552
0.0655,1.69274375,1.0,2643.8790695874263,0.5221153272542317,1.2860915006191922,0.9813918314028801,0.2841482375,0.7390039964077129
0.066,1.6911,1.0,2641.7267739157937,0.5247958830747165,1.2853690437658007,0.9815418053211443,0.2840792,0.7403205001919404
0.0665,1.6894437500000001,1.0,2639.5859636882337,0.5274614139917192,1.2846408436902805,0.9816883430658851,0.2840096375,0.7416441010946597
0.067,1.687775,1.0,2637.4566655485073,0.5301120006388198,1.2839069000269379,0.9818315359152602,0.28393955,0.7429747197611426
0.0675,1.68609375,1.0,2635.338906141035,0.5327477236495985,1.2831672124100788,0.9819714719600016,0.2838689375,0.7443122761986777
0.068,1.6844000000000001,1.0,2633.232712111538,0.5353686636576355,1.2824217804740092,0.9821082362354769,0.2837978,0.7456566897764367
0.0685,1.68269375,1.0,2631.1381101075485,0.5379749012965106,1.2816706038530354,0.9822419108473829,0.2837261375,0.7470078792253392
0.069,1.680975,1.0,2629.055126779633,0.5405665171998042,1.280913682181463,0.9823725750914214,0.28365395,0.7483657626379208
0.0695,1.67924375,1.0,2626.9837887818508,0.5431435920010962,1.2801510150935986,0.9825003055672832,0.28358123749999997,0.7497302574681961
0.07,1.6775,1.0,2624.924122772914,0.5457062063339667,1.279382602223748,0.9826251762872482,0.283508,0.7511012805315275
0.07050000000000001,1.67574375,1.0,2622.876155416683,0.5482544408319958,1.278608443206217,0.9827472587796908,0.2834342375,0.7524787480044903
0.07100000000000001,1.673975,1.0,2620.8399133830817,0.5507883761287637,1.277828537675312,0.9828666221877606,0.28335995,0.7538625754247377
0.07150000000000001,1.67219375,1.0,2618.8154233489786,0.5533080928578503,1.277042885265339,0.9829833333634951,0.2832851375,0.7552526776908679
0.07200000000000001,1.6704,1.0,2616.8027119991093,0.5558136716528359,1.276251485610604,0.9830974569576041,0.2832098,0.7566489690622904
0.0725,1.66859375,1.0,2614.801806026516,0.5583051931473004,1.275454338345413,0.983209055505151,0.2831339375,0.7580513631590902
0.073,1.6667750000000001,1.0,2612.812732133954,0.5607827379748241,1.2746514431040723,0.9833181895073462,0.28305755,0.7594597729618959
0.0735,1.66494375,1.0,2610.8355170341792,0.563246386768987,1.2738427995208876,0.9834249175096493,0.2829806375,0.760874110811744
0.074,1.6631,1.0,2608.8701874510093,0.5656962201633691,1.2730284072301652,0.9835292961763745,0.2829032,0.7622942884099461
0.0745,1.6612437500000001,1.0,2606.9164558830867,0.5681323011324237,1.2722082687888914,0.9836313794935748,0.2828252375,0.7637202117441158
0.075,1.659375,1.0,2604.973846145332,0.5705546829592486,1.271382388514106,0.9837312192789531,0.28274675,0.7651517831772284
0.0755,1.65749375,1.0,2603.0432482706883,0.5729635009889374,1.2705507580134097,0.98382886971577,0.2826677375,0.7665889264616372
