Time [s],Phi [rad],STIM [ ],Fsee [N],Gamma [ ],Lcerel [ ],q [ ],Lmtc [m],fisomrel [ ]
0.0,1.8,1.0,17.9837569419824,0.00013043952036765846,1.3793378870311754,0.005004443637007295,0.288653,0.5411440288989897
0.0005,1.79999375,1.0,18.33278603052455,0.005738917166637752,1.3792961673917519,0.013278258855266147,0.2886527375,0.541244953450026
0.001,1.799975,1.0,21.7639014793822,0.011315935687657342,1.378923464323124,0.0362389364156642,0.28865195,0.5421460720196496
0.0015,1.79994375,1.0,31.406705807611505,0.016861671545189257,1.378017530112476,0.0714627900136507,0.2886506375,0.5443327389274979
0.002,1.7999,1.0,54.302363763487584,0.0223763002092006,1.3763215792163546,0.11573649932650275,0.2886488,0.5484122098727965
0.0025,1.79984375,1.0,98.32292774633461,0.027859996166182874,1.3738773285556571,0.16568219062265033,0.28864643749999996,0.5542593851788432
0.003,1.7997750000000001,1.0,162.52081948444823,0.033312932925796915,1.3711559934603936,0.21842236184499345,0.28864354999999997,0.560724580734784
0.0035,1.79969375,1.0,239.44674881810008,0.03873528302134975,1.3685305166929966,0.2717483469719473,0.2886401375,0.5669172776339061
0.004,1.7996,1.0,323.34157011539054,0.04412721802030891,1.3661065083260822,0.3240150283532794,0.2886362,0.5725957415857281
0.0045000000000000005,1.7994937500000001,1.0,411.2082640934348,0.04948890852956929,1.3638773167896086,0.3740778188227549,0.2886317375,0.5777847523150347
0.005,1.799375,1.0,501.39287778898546,0.05482052418716406,1.361816322415962,0.4212234592992952,0.28862675,0.5825540460248361
0.0055,1.79924375,1.0,592.7866147835701,0.060122233703219306,1.3598998670659563,0.46507726069444755,0.2886212375,0.5869645589474074
0.006,1.7991000000000001,1.0,684.5155907447803,0.06539420481884078,1.3581101323607998,0.5055102966818061,0.2886152,0.5910622866726098
0.006500000000000001,1.79894375,1.0,775.8664195170271,0.07063660433469915,1.3564333873098853,0.542559942919655,0.2886086375,0.594882781922198
0.007,1.798775,1.0,866.2494243396405,0.07584959816722409,1.3548586943475296,0.5763685944632121,0.28860155,0.5984544229782097
0.0075,1.79859375,1.0,955.1709773648447,0.08103335115399318,1.3533771431958386,0.6071391413390318,0.2885939375,0.6018003656465173
0.008,1.7984,1.0,1042.24815374096,0.08618802743592892,1.3519808369543154,0.6351037628251109,0.2885858,0.6049409770948331
0.0085,1.79819375,1.0,1127.165142514195,0.09131379017955825,1.3506630501127663,0.6605037317788922,0.2885771375,0.6078935755280981
0.009000000000000001,1.797975,1.0,1209.6729869151047,0.09641080124886332,1.3494178206408722,0.6835763222466029,0.28856795,0.6106734267174211
0.0095,1.79774375,1.0,1289.6009946380582,0.10147922187318643,1.3482395194517987,0.7045469523906078,0.2885582375,0.6132947611351415
0.01,1.7975,1.0,1366.8409441086567,0.10651921336202565,1.3471228777964301,0.7236251344862894,0.288548,0.6157707516273108
0.0105,1.79724375,1.0,1441.2828720722714,0.11153093429306798,1.3460636343544234,0.7410030222872379,0.2885372375,0.6181121204636733
0.011,1.796975,1.0,1512.8748377028671,0.11651454305657041,1.3450575925439727,0.7568545982589407,0.28852595000000003,0.6203292660323907
0.0115,1.79669375,1.0,1581.603864683305,0.12147019745110096,1.3441007722569414,0.7713363442515273,0.2885141375,0.622431946850053
0.012,1.7964,1.0,1647.4963936013678,0.12639805528515888,1.3431893209142778,0.7845882852757664,0.28850180000000003,0.6244294962066227
0.0125,1.79609375,1.0,1710.562322623506,0.13129827183036036,1.342320090532714,0.7967355581088956,0.2884889375,0.6263295778624826
0.013000000000000001,1.7957750000000001,1.0,1770.8276779227858,0.1361710015831589,1.3414901611721877,0.8078895895629258,0.28847555,0.6281392532608205
0.0135,1.79544375,1.0,1828.3494991969774,0.14101639896215915,1.3406966216471305,0.8181494101873886,0.2884616375,0.6298654719331377
0.014,1.7951000000000001,1.0,1883.200212776233,0.1458346174545172,1.3399367090823138,0.8276030498967054,0.2884472,0.6315147762062703
0.0145,1.79474375,1.0,1935.4537400839397,0.15062581035785036,1.3392079205040082,0.8363288139557876,0.2884322375,0.633093069730059
0.015,1.794375,1.0,1985.170087188006,0.15539012821050904,1.3385081359552096,0.8443964353538336,0.28841675,0.634605363176433
0.0155,1.79399375,1.0,2032.4276070595306,0.16012772155084368,1.3378352354789131,0.8518679476422238,0.2884007375,0.6360566124646279
0.016,1.7936,1.0,2077.3102126132953,0.16483873997893206,1.3371872158988256,0.858798630142619,0.2883842,0.6374514714107105
0.0165,1.7931937500000001,1.0,2119.916250864424,0.1695233340796855,1.3365620781360783,0.8652377745911208,0.2883671375,0.638794539415575
0.017,1.792775,1.0,2160.3321235815297,0.17418165255085657,1.33595808313842,0.8712294659951507,0.28834955,0.6400898162434903
0.0175,1.7923437500000001,1.0,2198.625049156447,0.17881384134594744,1.3353738014408412,0.8768132063947751,0.2883314375,0.6413406036579058
0.018000000000000002,1.7919,1.0,2234.8716266083698,0.18342004641846027,1.334807803578333,0.8820243674929409,0.2883128,0.6425501743082027
0.0185,1.79144375,1.0,2269.1570545403647,0.18800041372189719,1.3342586600858861,0.8868946729871832,0.2882936375,0.6437217734616967
0.019,1.790975,1.0,2301.567582122369,0.192555088355399,1.3337250089406263,0.8914526372657725,0.28827395,0.6448584770649838
0.0195,1.79049375,1.0,2332.191304308091,0.19708421553120015,1.3332055387306345,0.8957239294739808,0.2882537375,0.6459632300995779
0.02,1.79,1.0,2361.108991122428,0.20158793920736512,1.3326990706878643,0.8997317139697639,0.288233,0.6470386746282891
0.0205,1.78949375,1.0,2388.3843867727815,0.20606640043408714,1.3322046437331163,0.9034969480582932,0.2882117375,0.648086972838499
0.021,1.788975,1.0,2414.085658995688,0.21051974026155937,1.3317212967871914,0.907038578809477,0.28818995000000003,0.6491102718680615
0.021500000000000002,1.78844375,1.0,2438.2850324272213,0.21494809973997503,1.33124806877089,0.9103737634504421,0.2881676375,0.6501107045138893
0.022,1.7879,1.0,2461.0538791002036,0.21935161905255482,1.3307840422878348,0.9135180715839712,0.2881448,0.6510902977286989
0.0225,1.78734375,1.0,2482.462380741503,0.22373043821315647,1.3303283427949193,0.9164856548348798,0.28812143749999997,0.6520509755942676
0.023,1.786775,1.0,2502.58363713585,0.2280846977616915,1.329880095961136,0.9192893881801141,0.28809755,0.6529946501552029
0.0235,1.78619375,1.0,2521.46985093491,0.23241453366445347,1.329438650405073,0.9219410417990401,0.28807313749999996,0.6539227538880232
0.024,1.7856,1.0,2539.1753258241793,0.2367200818877359,1.3290033547453188,0.9244513548279215,0.2880482,0.6548367109895596
0.0245,1.78499375,1.0,2555.75629147401,0.24100147839783237,1.328573557600461,0.9268301398740639,0.2880227375,0.6557379376459713
0.025,1.784375,1.0,2571.270737897323,0.2452588591610364,1.328148607589088,0.9290863756697569,0.28799675,0.6566278422746898
0.025500000000000002,1.78374375,1.0,2585.769907823023,0.24949235816768206,1.3277279313219552,0.9312283014705114,0.2879702375,0.65750766272778
0.026000000000000002,1.7831000000000001,1.0,2599.310701175687,0.2537021116076165,1.3273109154756724,0.9332634713307295,0.2879432,0.6583787136813688
0.0265,1.78244375,1.0,2611.946684723989,0.25788825414292155,1.3268969896759655,0.9351988314937861,0.2879156375,0.6592422134591573
0.027,1.781775,1.0,2623.716507803765,0.26205091624540255,1.3264857322784216,0.93704079303904,0.28788755,0.6600990644726493
0.0275,1.7810937500000001,1.0,2634.6597039026947,0.2661902283868649,1.3260767216386273,0.9387952605610139,0.2878589375,0.6609501645580521
0.028,1.7804,1.0,2644.8166149118524,0.270306321039114,1.32566953611217,0.9404676788783984,0.2878298,0.6617964070423598
0.0285,1.77969375,1.0,2654.2283193192216,0.2743993246739553,1.3252637540546361,0.942063074870098,0.2878001375,0.6626386807981033
0.029,1.778975,1.0,2662.936564344596,0.2784693697631941,1.3248589538216133,0.943586094999663,0.28776995,0.6634778702867568
0.029500000000000002,1.7782437500000001,1.0,2670.97699527212,0.28251658359657994,1.3244547753946618,0.9450410462987583,0.2877392375,0.6643147280727026
0.03,1.7775,1.0,2678.392533924835,0.28654109829642493,1.32405079664393,0.9464319121729954,0.287708,0.6651501313598032
0.0305,1.77674375,1.0,2685.2137200179413,0.290543040349719,1.3236467134347956,0.9477624003961658,0.2876762375,0.6659847094478806
0.031,1.775975,1.0,2691.4683782073,0.2945225347121741,1.323242249969001,0.9490359562224427,0.28764395,0.6668190300860262
0.0315,1.7751937500000001,1.0,2697.1846642479445,0.29847970633950205,1.3228371304482898,0.9502557813598089,0.2876111375,0.667653658175746
0.032,1.7744,1.0,2702.3910336429467,0.3024146801874147,1.3224310790744045,0.9514248541964143,0.2875778,0.6684891557618466
0.0325,1.77359375,1.0,2707.1162119791743,0.30632758121162396,1.3220238200490881,0.9525459481127172,0.2875439375,0.669326082018471
0.033,1.772775,1.0,2711.3883784482823,0.31021853369350144,1.321615084765156,0.9536216487303357,0.28750955,0.6701649784805535
0.0335,1.7719437500000002,1.0,2715.2299299725905,0.31408765591682203,1.3212046592583928,0.9546543728915923,0.2874746375,0.6710062719091192
0.034,1.7711000000000001,1.0,2718.6782335396383,0.3179350817025068,1.3207921948095371,0.9556463664636742,0.2874392,0.6718506624658163
0.0345,1.7702437500000001,1.0,2721.7507517246504,0.32176092976935516,1.3203775256049417,0.9565997446989882,0.2874032375,0.672698472854767
0.035,1.7693750000000001,1.0,2724.4650695617474,0.32556531883616663,1.319960485830958,0.9575164862360032,0.28736675,0.6735500239375554
0.035500000000000004,1.76849375,1.0,2726.838882200712,0.32934836762174075,1.3195409096739383,0.9583984435041922,0.2873297375,0.6744056347090306
0.036000000000000004,1.7676,1.0,2728.889983173338,0.33311019484487703,1.3191186313202345,0.9592473522221556,0.2872922,0.6752656222713656
0.0365,1.76669375,1.0,2730.6362532692347,0.3368509192243748,1.3186934849561989,0.9600648400773233,0.2872541375,0.6761303018063554
0.037,1.765775,1.0,2732.0956500210914,0.34057065947903387,1.3182653047681832,0.9608524346661563,0.28721555,0.6769999865459678
0.0375,1.76484375,1.0,2733.286197800246,0.3442695343276535,1.3178339249425395,0.9616115707653987,0.2871764375,0.6778749877411359
0.038,1.7639,1.0,2734.2259785206625,0.3479476624890333,1.3173991796656201,0.9623435969975175,0.28713679999999997,0.6787556146287991
0.0385,1.76294375,1.0,2734.9206339216807,0.3516051464293746,1.3169610165316754,0.9630497893716672,0.28709663750000003,0.6796419451505324
0.039,1.761975,1.0,2735.40340265765,0.35524212523824755,1.3165191328906019,0.9637313330706206,0.28705595,0.6805345615885892
0.0395,1.7609937500000001,1.0,2735.68421378662,0.358858710199608,1.3160734380834835,0.9643893584862454,0.2870147375,0.6814336152362446
0.04,1.76,1.0,2735.7729831892652,0.36245501254919726,1.3156238417996369,0.9650249312177959,0.286973,0.6823392553814982
0.0405,1.7589937500000001,1.0,2735.6796483316252,0.3660311435227566,1.315170253728378,0.9656390564481587,0.2869307375,0.6832516299897635
0.041,1.757975,1.0,2735.414164863934,0.3695872143560273,1.3147125835590232,0.966232683000326,0.28688795,0.6841708856811379
0.0415,1.75694375,1.0,2734.986503400281,0.37312333628475064,1.3142507409808888,0.9668067070807297,0.2868446375,0.6850971677071503
0.042,1.7559,1.0,2734.406646479533,0.37663962054466793,1.313784635683291,0.967361975736607,0.28680079999999997,0.686030619926991
0.0425,1.75484375,1.0,2733.6845857068492,0.38013617837152036,1.3133141773555461,0.9678992900519553,0.2867564375,0.6869713847832187
0.043000000000000003,1.753775,1.0,2732.8303190756437,0.3836131210010492,1.3128392756869702,0.9684194081043144,0.28671155,0.687919603276951
0.043500000000000004,1.75269375,1.0,2731.8538484711285,0.38707055966899584,1.31235984036688,0.9689230477025078,0.28666613750000003,0.6888754149425297
0.044,1.7516,1.0,2730.7651773539997,0.39050860561110146,1.3118757810845914,0.9694108889236136,0.2866202,0.6898389578216712
0.0445,1.75049375,1.0,2729.5731328043057,0.3939273694585205,1.3113870182170466,0.9698835772073021,0.2865737375,0.6908103472126808
0.045,1.7493750000000001,1.0,2728.282745030256,0.3973269578077135,1.310893506648214,0.9703417268200559,0.28652675,0.6917896285841103
0.0455,1.74824375,1.0,2726.9009826449715,0.400707477246619,1.310395183641894,0.9707859193952784,0.2864792375,0.6927768812879942
0.046,1.7471,1.0,2725.4341940172394,0.4040690343895444,1.3098919920845367,0.9712167076562629,0.2864312,0.6937721723274154
0.0465,1.7459437500000001,1.0,2723.872817726362,0.40741173503859096,1.3093840196025277,0.9716346272484937,0.28638263750000004,0.6947752819342563
0.047,1.744775,1.0,2722.2368005053286,0.41073568574818947,1.3088710853887693,0.9720401679379816,0.28633355,0.6957865198047308
0.0475,1.74359375,1.0,2720.571088378617,0.4140409935362023,1.3083527808455218,0.9724337793315341,0.28628393750000003,0.6968066407679644
0.048,1.7424010602854363,1.0,2718.8952719285885,0.4173277615114639,1.3078294066455654,0.9728159388821682,0.2862338445319883,0.697835001289028
0.0485,1.7412062087935605,1.0,2717.636303826747,0.4205960927828088,1.3073012634616792,0.9731871010297,0.28618366076932955,0.6988709613356365
0.049,1.7400113573016849,1.0,2716.8680501277745,0.4238460904590715,1.3067686519666437,0.973547698530063,0.28613347700667074,0.6999138844724753
0.0495,1.738816505809809,1.0,2716.557302550856,0.42707785764908646,1.3062318728332383,0.9738981436963545,0.286083293244012,0.7009631379497685
0.05,1.7376216543179335,1.0,2716.6720979074885,0.4302914971160532,1.3056912165639736,0.9742388288361451,0.2860331094813532,0.702018112613641
0.0505,1.7364268028260579,1.0,2717.1795517158034,0.4334871100423672,1.3051469829880826,0.9745701285313604,0.28598292571869444,0.7030781848637462
0.051000000000000004,1.735231951334182,1.0,2718.037078578867,0.43666480012434183,1.3045995610066037,0.9748924063055514,0.28593274195603563,0.7041425619725266
0.051500000000000004,1.7340370998423063,1.0,2719.2209436105672,0.43982466640095674,1.3040491682762672,0.9752059975810914,0.2858825581933769,0.7052107884901473
0.052000000000000005,1.7328422483504307,1.0,2720.7074527846485,0.4429668079111916,1.3034960224538035,0.9755112227239685,0.2858323744307181,0.7062824118454095
0.0525,1.731647396858555,1.0,2722.472939124699,0.446091323694026,1.302940341195943,0.9758083878566969,0.2857821906680593,0.7073569823854771
0.053,1.7304525453666793,1.0,2724.493749942601,0.44919831278843964,1.302382342159416,0.9760977856206495,0.2857320069054005,0.7084340534125824
0.0535,1.7292576938748037,1.0,2726.746235128793,0.4522878742334122,1.3018222430009534,0.9763796958913595,0.28568182314274176,0.7095131812177087
0.054,1.7280628423829278,1.0,2729.2189038048627,0.45536010092714974,1.3012601507751926,0.9766543790809464,0.28563163938008296,0.7105941376113144
0.0545,1.7268679908910523,1.0,2731.8772872899267,0.4584150996116004,1.300696381359934,0.976922098449285,0.2855814556174242,0.7116762953987283
0.055,1.7256731393991764,1.0,2734.7089168612647,0.4614529649917479,1.3001310504304602,0.9771830929390858,0.2855312718547654,0.7127594150749637
0.0555,1.7244782879073008,1.0,2737.702201926209,0.46447379128648947,1.2995642656074105,0.9774375909427511,0.28548108809210665,0.7138432741425155
0.056,1.723283436415425,1.0,2740.845540734394,0.46747767271472207,1.298996134511424,0.9776858113544804,0.28543090432944784,0.7149276516174312
0.0565,1.7220885849235494,1.0,2744.1273170380878,0.470464703495343,1.2984267647631396,0.9779279640460078,0.2853807205667891,0.7160123280389215
0.057,1.7208937334316736,1.0,2747.5358970072075,0.47343497784724925,1.2978562639831963,0.9781642503148038,0.2853305368041303,0.7170970854782286
0.0575,1.719698881939798,1.0,2751.059626402982,0.476388589989338,1.2972847397922334,0.9783948633065467,0.2852803530414715,0.7181817075467606
0.058,1.7185040304479222,1.0,2754.6868280072804,0.47932563414050633,1.2967122998108895,0.9786199884135353,0.28523016927881273,0.7192659794034848
0.0585,1.7173091789560466,1.0,2758.405799308809,0.4822462045196515,1.296139051659804,0.9788398036505905,0.285179985516154,0.7203496877615816
0.059000000000000004,1.7161143274641708,1.0,2762.2115062833773,0.4851503890125234,1.2955650424584082,0.9790544761400705,0.28512980175349517,0.7214327349380082
0.059500000000000004,1.7149194759722952,1.0,2766.089962840296,0.48803828767349744,1.294990400063463,0.9792641718951318,0.28507961799083636,0.722514872035708
0.06,1.7137246244804194,1.0,2770.0355355789097,0.4909099902233156,1.2944151766356464,0.979469045541324,0.2850294342281776,0.7235959941537026
0.0605,1.7125297729885438,1.0,2774.043157776602,0.49376558571534274,1.2938394190992397,0.9796692454279579,0.28497925046551886,0.7246760069624405
0.061,1.711334921496668,1.0,2778.1077496814914,0.4966051632029435,1.2932631743785246,0.9798649142513922,0.28492906670286006,0.7257548168157879
0.0615,1.7101400700047924,1.0,2782.2242179814302,0.4994288117394827,1.2926864893977819,0.9800561893149204,0.28487888294020125,0.7268323307525578
0.062,1.7089452185129166,1.0,2786.3874553212263,0.5022366203783253,1.2921094110812936,0.9802432027748177,0.2848286991775425,0.7279084564978948
0.0625,1.707750367021041,1.0,2790.5923398689465,0.5050286781728358,1.2915319863533408,0.9804260818733841,0.28477851541488375,0.7289831024645266
0.063,1.7065555155291652,1.0,2794.8337349311714,0.5078050741763792,1.290954262138205,0.9806049491597639,0.28472833165222494,0.7300561777538668
0.0635,1.7053606640372896,1.0,2799.1064886172735,0.5105658974423203,1.2903762853601677,0.9807799226992676,0.28467814788956614,0.731127592156985
0.064,1.7041658125454138,1.0,2803.4118885954517,0.5133112196100051,1.2897980450482067,0.9809511120888178,0.2846279641269074,0.7321973631576453
0.0645,1.7029709610535382,1.0,2807.738685823536,0.5160411516141473,1.2892196426239424,0.9811186314271246,0.28457778036424863,0.7332653007668337
0.065,1.7017761095616624,1.0,2812.084271938559,0.518755778866044,1.2886411018202524,0.9812825850594631,0.2845275966015898,0.7343313595025214
0.0655,1.7005812580697868,1.0,2816.446897686208,0.5214551842559227,1.2880624386104826,0.9814430730767407,0.284477412838931,0.735395508487825
0.066,1.699386406577911,1.0,2820.824808388754,0.5241394506740114,1.287483668967979,0.9816001920526624,0.28442722907627227,0.7364577170813441
0.0665,1.6981915550860354,1.0,2825.216243904366,0.5268086610105374,1.2869048088660875,0.9817540351929928,0.28437704531361346,0.7375179548772761
0.067,1.6969967035941596,1.0,2829.619438592778,0.5294628981557287,1.2863258742781534,0.9819046924774669,0.2843268615509547,0.7385761917055201
0.0675,1.695801852102284,1.0,2834.032621285379,0.5321022449998127,1.285746881177523,0.982052250794761,0.2842766777882959,0.7396323976317556
0.068,1.6946070006104081,1.0,2838.4540152623995,0.5347267844330174,1.285167845537542,0.9821967940709087,0.28422649402563716,0.7406865429575148
0.0685,1.6934121491185326,1.0,2842.881838234349,0.5373365993455702,1.2845887833315557,0.9823384033915256,0.28417631026297835,0.7417385982202324
0.069,1.6922172976266567,1.0,2847.3143023302764,0.539931772627699,1.2840097105329107,0.9824771571181794,0.2841261265003196,0.742788534193279
0.0695,1.6910224461347811,1.0,2851.749614090861,0.5425123871696312,1.2834306431149523,0.9826131309992274,0.2840759427376608,0.743836321885984
0.07,1.6898275946429053,1.0,2856.185974467755,0.5450785258615949,1.2828515970510264,0.982746398275416,0.28402575897500204,0.7448819325436347
0.07050000000000001,1.6886327431510297,1.0,2860.62157882798,0.5476302715938174,1.2822725883144788,0.9828770297805293,0.28397557521234323,0.7459253376474643
0.07100000000000001,1.687437891659154,1.0,2865.055929278421,0.5501676938790261,1.2816936212358256,0.9830050927003703,0.28392539144968443,0.7469665298311454
0.07150000000000001,1.6862430401672783,1.0,2869.4889541878993,0.5526908666383572,1.2811146963534117,0.9831306521467369,0.2838752076870257,0.748005508590973
0.07200000000000001,1.6850481886754025,1.0,2873.91686513356,0.5551999030785949,1.2805358471284582,0.9832537749344338,0.2838250239243669,0.7490422145278007
0.0725,1.683853337183527,1.0,2878.339291312066,0.5576948784781959,1.279957076668343,0.9833745221597481,0.2837748401617081,0.7500766429314908
