Time [s],Phi [rad],STIM [ ],Fsee [N],Gamma [ ],Lcerel [ ],q [ ],Lmtc [m],fisomrel [ ]
0.0,1.8,1.0,20.641454206141294,0.001672000079488492,1.379050524640857,0.005714534567876671,0.288653,0.5418389661016932
0.0005,1.79999375,1.0,21.402642208984645,0.0072718307899387324,1.3789688597039695,0.018189452606960674,0.2886527375,0.5420363628018912
0.001,1.799975,1.0,25.997291065849307,0.01284025087771849,1.3785116695826025,0.04478382615360476,0.28865195,0.5431406759878532
0.0015,1.79994375,1.0,38.40513226767911,0.018377436532171273,1.3774543000030737,0.08281892870012549,0.2886506375,0.5456895771976711
0.002,1.7999,1.0,66.57100467809663,0.023883562952866276,1.3755711755146245,0.12896830406427412,0.2886488,0.5502113906969488
0.0025,1.79984375,1.0,116.60823881947763,0.02935880435850624,1.3730389329019923,0.17993938130272255,0.28864643749999996,0.5562562325871905
0.003,1.7997750000000001,1.0,184.88968588594415,0.03480333398842696,1.3703495938898846,0.23303984493246002,0.28864354999999997,0.562631308372441
0.0035,1.79969375,1.0,263.9648617093871,0.04021732411177349,1.367796414216372,0.2862226345855828,0.2886401375,0.5686409365101366
0.004,1.7996,1.0,348.99038170680853,0.04560094602868215,1.3654420667540246,0.33798430822764347,0.2886362,0.5741457137963873
0.0045000000000000005,1.7994937500000001,1.0,437.4791409932948,0.05095437009088232,1.3632716202356796,0.38730657404540014,0.2886317375,0.5791891898320924
0.005,1.799375,1.0,527.97563629722,0.0562777656724301,1.361259837759295,0.433578671405409,0.28862675,0.5838371480297444
0.0055,1.79924375,1.0,619.4453131653514,0.061571301222816996,1.359385616572788,0.4765022297333724,0.2886212375,0.588144064415169
0.006,1.7991000000000001,1.0,711.0552008717872,0.06683514418594722,1.357632998086935,0.5160011804410733,0.2886152,0.5921512712989487
0.006500000000000001,1.79894375,1.0,802.1362782641123,0.07206946122585739,1.3559892458768987,0.5521469815590138,0.2886086375,0.5958917628188678
0.007,1.798775,1.0,892.106977223503,0.07727441775228455,1.3544445534840757,0.5851026636015996,0.28860155,0.5993911304383746
0.0075,1.79859375,1.0,980.5275974054567,0.08245017876153933,1.3529900779397932,0.615081536156267,0.2885939375,0.6026722094262077
0.008,1.7984,1.0,1067.0133764772283,0.08759690778090268,1.351618688294449,0.6423201946090299,0.2885858,0.6057535014097295
0.0085,1.79819375,1.0,1151.2658821754587,0.09271476752965735,1.350323955508788,0.6670598846025326,0.2885771375,0.6086515503720559
0.009000000000000001,1.797975,1.0,1233.0801515779392,0.09780392043574561,1.3490997552752653,0.689535077076774,0.28856795,0.611381890518973
0.0095,1.79774375,1.0,1312.2798083132395,0.10286452718051212,1.3479409240366715,0.7099673366377253,0.2885582375,0.6139576319531479
0.01,1.7975,1.0,1388.7423813058097,0.10789674772749597,1.3468426755285912,0.728561629809747,0.288548,0.6163908113270677
0.0105,1.79724375,1.0,1462.4027796856014,0.11290074138338564,1.3458004121858738,0.7455049353755334,0.2885372375,0.6186928409823974
0.011,1.796975,1.0,1533.2328839477566,0.11787666711890142,1.3448098684386844,0.7609663120704019,0.28852595000000003,0.6208742175615343
0.0115,1.79669375,1.0,1601.1979062989558,0.12282468158568652,1.343867521176598,0.7750978205158483,0.2885141375,0.6229436475760903
0.012,1.7964,1.0,1666.3075552790465,0.12774494138669718,1.3429698604286993,0.7880353318976657,0.28850180000000003,0.6249096774155567
0.0125,1.79609375,1.0,1728.5946909618847,0.13263760207560255,1.34211358550187,0.7998999871763075,0.2884889375,0.6267802761959653
0.013000000000000001,1.7957750000000001,1.0,1788.125768429891,0.13750281982463342,1.3412954276720666,0.8107995444304065,0.28847555,0.628563236767032
0.0135,1.79544375,1.0,1844.93305381151,0.1423407474098004,1.3405128603957248,0.8208300389308354,0.2884616375,0.630264642554597
0.014,1.7951000000000001,1.0,1899.0731743635968,0.14715153751752014,1.3397633746514637,0.8300767856327759,0.2884472,0.6318904631551312
0.0145,1.79474375,1.0,1950.6238111708974,0.15193534262384484,1.3390444892596343,0.8386155989681017,0.2884322375,0.6334465379549545
0.015,1.794375,1.0,1999.66871944393,0.15669231432646186,1.3383538861053368,0.8465139385669984,0.28841675,0.6349382900427831
0.0155,1.79399375,1.0,2046.2992058936654,0.16142260431718058,1.33768936506496,0.8538318735179894,0.2884007375,0.6363708313840057
0.016,1.7936,1.0,2090.5787487464654,0.16612636096120642,1.3370491876851693,0.8606230565900713,0.2883842,0.6377482304871414
0.0165,1.7931937500000001,1.0,2132.584174381217,0.17080373262374465,1.3364316155126308,0.86693534098193,0.2883671375,0.639074515572581
0.017,1.792775,1.0,2172.4045349397725,0.17545486767000068,1.3358349100940095,0.872811467477675,0.28834955,0.6403536771752187
0.0175,1.7923437500000001,1.0,2210.121406969048,0.18007991281917127,1.3352575213250526,0.8782897187507943,0.2883314375,0.6415892678411412
0.018000000000000002,1.7919,1.0,2245.8395293441754,0.18467901675625562,1.334697763011873,0.8834043561409237,0.2883128,0.6427851002386737
0.0185,1.79144375,1.0,2279.628532057254,0.18925232374292736,1.334154389240398,0.8881862333480902,0.2882936375,0.6439440183398488
0.019,1.790975,1.0,2311.559871015825,0.19379997752137088,1.3336262059965835,0.8926630903429602,0.28827395,0.6450687330112411
0.0195,1.79049375,1.0,2341.711354557641,0.19832212183377035,1.3331120192663863,0.8968598968051018,0.2882537375,0.6461619343758631
0.02,1.79,1.0,2370.166607670724,0.20281890042231007,1.3326106350357623,0.9007991656947716,0.288233,0.6472262929244482
0.0205,1.78949375,1.0,2396.9960076703924,0.2072904546638972,1.3321210393163192,0.9045012670388461,0.2882117375,0.6482640792201784
0.021,1.788975,1.0,2422.2913083172048,0.2117369291508876,1.3316420547899739,0.9079845921906292,0.28818995000000003,0.6492778937968239
0.021500000000000002,1.78844375,1.0,2446.1114536932755,0.2161584628593542,1.3311728614218226,0.9112658753830175,0.2881676375,0.6502695658727116
0.022,1.7879,1.0,2468.517956711858,0.22055519465592405,1.3307126462605139,0.9143603012470765,0.2881448,0.6512408979699242
0.0225,1.78734375,1.0,2489.575354408664,0.22492726340722438,1.3302605963546967,0.9172816684689897,0.28812143749999997,0.652193681426786
0.023,1.786775,1.0,2509.350951691749,0.22927480797988226,1.32981589875302,0.9200425354832356,0.28809755,0.6531296968422757
0.0235,1.78619375,1.0,2527.9054004617833,0.2335979649494961,1.3293778272033718,0.9226543639964649,0.28807313749999996,0.6540505323558219
0.024,1.7856,1.0,2545.305588865434,0.237896874392805,1.3289456172082648,0.9251276113062675,0.2880482,0.6549578473197506
0.0245,1.78499375,1.0,2561.604115774222,0.24217167186009714,1.3285186574215098,0.9274718611805204,0.2880227375,0.6558529710649512
0.025,1.784375,1.0,2576.848922786476,0.24642249100628505,1.3280963955050868,0.9296958952879039,0.28799675,0.6567371022212042
0.025500000000000002,1.78374375,1.0,2591.0893887010952,0.25064946548628125,1.3276782791209765,0.9318077628457964,0.2879702375,0.65761143301121
0.026000000000000002,1.7831000000000001,1.0,2604.3762062372584,0.2548527289549983,1.3272637559311589,0.9338148516453808,0.2879432,0.6584771494063486
0.0265,1.78244375,1.0,2616.76126551758,0.2590324150673486,1.3268522735976143,0.9357239513227573,0.2879156375,0.6593354312629793
0.027,1.781775,1.0,2628.2869517612794,0.26318865419362636,1.3264433779009057,0.9375413234875248,0.28788755,0.6601872481653268
0.0275,1.7810937500000001,1.0,2639.0043717153944,0.26732158186963323,1.3260365423023817,0.9392727284809819,0.2878589375,0.6610337151897554
0.028,1.7804,1.0,2648.958208282058,0.27143133028876854,1.3256313076230677,0.9409234885555665,0.2878298,0.6618758019633006
0.0285,1.77969375,1.0,2658.181840481939,0.27551802722349994,1.3252273256061664,0.942498533208151,0.2878001375,0.6627142432368005
0.029,1.778975,1.0,2666.7092373533633,0.2795818004462952,1.3248242479948804,0.9440024201817335,0.28776995,0.6635497701357157
0.029500000000000002,1.7782437500000001,1.0,2674.5749060363373,0.2836227777296222,1.324421726532412,0.9454393682888437,0.2877392375,0.6643831101840842
0.03,1.7775,1.0,2681.813842545119,0.2876410868459486,1.3240194129619638,0.9468132869453885,0.287708,0.6652149873207409
0.0305,1.77674375,1.0,2688.4614852301925,0.29163685556774227,1.3236169590267384,0.9481278027804034,0.2876762375,0.6660461219078009
0.031,1.775975,1.0,2694.5536709293024,0.29561021166747087,1.3232140164699382,0.9493862836429965,0.28764395,0.6668772307314111
0.0315,1.7751937500000001,1.0,2700.1187680396592,0.29956127752384537,1.3228103085539513,0.9505918674769696,0.2876111375,0.6677088797554297
0.032,1.7744,1.0,2705.1925917416047,0.3034901851487941,1.3224054931918754,0.9517474691803202,0.2875778,0.6685417664531366
0.0325,1.77359375,1.0,2709.7979543022025,0.30739705680520923,1.3219993495144382,0.9528558152797277,0.2875439375,0.6693763358172151
0.033,1.772775,1.0,2713.9572342537153,0.3112820142361406,1.3215916625260282,0.9539194482122527,0.28750955,0.6702130184749527
0.0335,1.7719437500000002,1.0,2717.6929983727646,0.3151451791846381,1.3211822172310341,0.9549407404671644,0.2874746375,0.6710522427760103
0.034,1.7711000000000001,1.0,2721.027982640105,0.31898667339375153,1.3207707986338444,0.955921907965059,0.2874392,0.6718944347697884
0.0345,1.7702437500000001,1.0,2723.9850742253434,0.3228066186065309,1.3203571917388477,0.9568650222333873,0.2874032375,0.6727400181798444
0.035,1.7693750000000001,1.0,2726.5872944963853,0.326605136566026,1.3199411815504327,0.9577720214993081,0.28736675,0.6735894143753605
0.035500000000000004,1.76849375,1.0,2728.8509698970684,0.33038234294357666,1.3195226150093329,0.958644725856139,0.2873297375,0.6744429161275436
0.036000000000000004,1.7676,1.0,2730.797730687228,0.33413835905568345,1.3191012917081415,0.9594848375659515,0.2872922,0.6753009108105726
0.0365,1.76669375,1.0,2732.4585704736683,0.3378733157485648,1.3186769269901433,0.9602939469379544,0.2872541375,0.676163954732522
0.037,1.765775,1.0,2733.8462782581905,0.3415873275887555,1.3182494023267781,0.9610735597232459,0.28721555,0.6770322637712007
0.0375,1.76484375,1.0,2734.9736987120223,0.3452805091427904,1.3178185991894862,0.9618250904694403,0.2871764375,0.6779060523253595
0.038,1.7639,1.0,2735.8537258000592,0.34895297497720434,1.3173843990497078,0.9625498690496892,0.28713679999999997,0.6787855332903566
0.0385,1.76294375,1.0,2736.4992967175504,0.3526048396585322,1.316946683378883,0.9632491466555495,0.28709663750000003,0.6796709180329277
0.039,1.761975,1.0,2736.923386137152,0.3562362177533087,1.3165053336484522,0.963924101303079,0.28705595,0.6805624163650572
0.0395,1.7609937500000001,1.0,2737.1390007688196,0.3598472238280687,1.3160602313298555,0.9645758428965086,0.2870147375,0.6814602365169586
0.04,1.76,1.0,2737.1591742298688,0.3634379724493471,1.315611257894533,0.9652054178893977,0.286973,0.6823645851091538
0.0405,1.7589937500000001,1.0,2736.996962227417,0.3670085781836787,1.315158294813925,0.9658138135791966,0.2869307375,0.6832756671236577
0.041,1.757975,1.0,2736.6654380520467,0.3705591555975983,1.3147012235594717,0.9664019620676045,0.28688795,0.6841936858742711
0.0415,1.75694375,1.0,2736.17730389837,0.3740898185166826,1.314239929093163,0.9669707440861008,0.2868446375,0.6851188359806246
0.042,1.7559,1.0,2735.5387123120545,0.3776006681963514,1.3137743559329542,0.9675209950860875,0.28680079999999997,0.6860511911953436
0.0425,1.75484375,1.0,2734.768652670137,0.38109183389290363,1.313304332117162,0.9680535003205358,0.2867564375,0.686991057004525
0.043000000000000003,1.753775,1.0,2733.8737860821425,0.3845634225684836,1.3128297976518049,0.9685690084766915,0.28671155,0.6879385130775856
0.043500000000000004,1.75269375,1.0,2732.8607782050035,0.38801554118523535,1.312350692542901,0.9690682285988327,0.28666613750000003,0.6888936379718438
0.044,1.7516,1.0,2731.7362977731236,0.39144829670530296,1.3118669567964691,0.9695518325783907,0.2866202,0.6898565091151443
0.0445,1.75049375,1.0,2730.507015209691,0.3948617960908308,1.3113785304185275,0.9700204574638829,0.2865737375,0.6908272027882595
0.045,1.7493750000000001,1.0,2729.179601316611,0.39825614630396283,1.3108853534150944,0.9704747076053424,0.28652675,0.6918057941070532
0.0455,1.74824375,1.0,2727.760726044862,0.4016314543068433,1.3103873657921885,0.9709151566466028,0.2864792375,0.6927923570044202
0.046,1.7471,1.0,2726.2570573446583,0.4049878270616164,1.309884507555828,0.9713423493776013,0.2864312,0.693786964211996
0.0465,1.7459437500000001,1.0,2724.675260095176,0.40832537153042614,1.3093767187120313,0.9717568034577886,0.28638263750000004,0.6947896872416348
0.047,1.744775,1.0,2723.021995113956,0.4116441946754168,1.308863939266817,0.9721590110207529,0.28633355,0.6958005963666579
0.0475,1.74359375,1.0,2721.3039182469925,0.41494440345873246,1.3083461092262034,0.9725494401692958,0.28628393750000003,0.696819760602877
0.048,1.7424,1.0,2719.5230380936255,0.418226082419144,1.3078232108624754,0.9729285365264663,0.2862338,0.6978471647140179
0.0485,1.74119375,1.0,2717.6910196222857,0.421489364571983,1.3072951384819658,0.9732967243134526,0.2861831375,0.6988829651318542
0.049,1.739975,1.0,2715.8115856346826,0.42473435237106355,1.3067618586371188,0.9736544087921871,0.28613195,0.6999271750175393
0.0495,1.73874375,1.0,2713.8876862993206,0.427961144808571,1.3062233448894225,0.9740019762577274,0.2860802375,0.7009797928722379
0.05,1.7375,1.0,2711.9222688481564,0.4311698408766906,1.3056795708003646,0.9743397950444148,0.286028,0.702040816311559
0.0505,1.73624375,1.0,2709.9182773430452,0.43436053956760756,1.305130509931433,0.9746682165189914,0.2859752375,0.7031102420567081
0.051000000000000004,1.734975,1.0,2707.8786524583093,0.43753333987350723,1.304576135844115,0.9749875760102532,0.28592195,0.7041880659255969
0.051500000000000004,1.73369375,1.0,2705.806331277821,0.4406883407865749,1.304016422099899,0.9752981936798165,0.2858681375,0.705274282823903
0.052000000000000005,1.7324,1.0,2703.7042471086966,0.44382564129899565,1.3034513422602725,0.9756003753382191,0.2858138,0.7063688867360937
0.0525,1.73109375,1.0,2701.5753293097014,0.4469453404029549,1.3028808698867231,0.9758944132102271,0.28575893750000003,0.7074718707163964
0.053,1.729775,1.0,2699.4225031355136,0.45004753709063794,1.3023049785407388,0.976180586652928,0.28570355000000003,0.7085832268797305
0.0535,1.72844375,1.0,2697.2486895962916,0.45313233035422995,1.3017236417838072,0.9764591628298976,0.2856476375,0.7097029463925919
0.054,1.7271,1.0,2695.056805333029,0.45619981918591623,1.3011368331774162,0.9767303973444832,0.2855912,0.7108310194638935
0.0545,1.7257437500000001,1.0,2692.8497625079845,0.45925010257788207,1.3005445262830535,0.976994534835003,0.2855342375,0.711967435335762
0.055,1.724375,1.0,2690.6303684719524,0.46228327813826225,1.2999466955798986,0.9772518094565921,0.28547675,0.7131121805188125
0.0555,1.72299375,1.0,2688.3991025360338,0.46529940427783034,1.2993433368281981,0.9775024430578942,0.2854187375,0.714265199925255
0.056,1.7216,1.0,2686.1622926486257,0.4682986324233153,1.298734392192948,0.9777466537884115,0.2853602,0.7154265399270088
0.0565,1.72019375,1.0,2683.920915531726,0.4712810525729917,1.298119852795105,0.9779846478608442,0.28530113749999997,0.7165961523259723
0.057,1.718775,1.0,2681.675946308807,0.47424675472513395,1.2974997097556267,0.9782166230280169,0.28524155,0.7177739881866004
0.0575,1.71734375,1.0,2679.4283584955706,0.4771958288780167,1.2968739541954701,0.9784427689960346,0.2851814375,0.7189599978327357
0.058,1.7159,1.0,2677.179123993109,0.4801283650299145,1.2962425772355928,0.9786632678140503,0.2851208,0.7201541308444319
0.0585,1.71444375,1.0,2674.929213082185,0.48304445317910183,1.2956055699969518,0.978878294242155,0.2850596375,0.7213563360547744
0.059000000000000004,1.7129750000000001,1.0,2672.6795944193345,0.4859441833238532,1.2949629236005042,0.979088016098768,0.28499795,0.7225665615466936
0.059500000000000004,1.71149375,1.0,2670.431235034873,0.4888276454624432,1.2943146291672079,0.979292594588834,0.2849357375,0.7237847546497733
0.06,1.71,1.0,2668.1851003325255,0.49169492959314637,1.2936606778180195,0.9794921846140174,0.284873,0.7250108619370579
0.0605,1.7084937500000001,1.0,2665.942154091156,0.49454612571423723,1.2930010606738966,0.9796869350660214,0.2848097375,0.726244829221848
0.061,1.7069750000000001,1.0,2663.7033584675028,0.49738132382399036,1.2923357688557964,0.979876989104064,0.28474595,0.7274866015544974
0.0615,1.7054437500000001,1.0,2661.469674001309,0.5002006139206803,1.291664793484676,0.9800624844174898,0.2846816375,0.7287361232192004
0.062,1.7039,1.0,2659.2420596223305,0.5030040860025814,1.290988125681493,0.9802435534744118,0.2846168,0.7299933377307769
0.0625,1.70234375,1.0,2657.0214726581835,0.5057918300679685,1.2903057565672045,0.9804203237572299,0.2845514375,0.731258187831451
0.063,1.7007750000000001,1.0,2654.8088688448815,0.508563936115116,1.2896176772627674,0.980592917985812,0.28448555,0.7325306154876259
0.0635,1.69919375,1.0,2652.6052023388934,0.5113204941422983,1.2889238788891395,0.9807614543290677,0.28441913750000003,0.7338105618866513
0.064,1.6976,1.0,2650.411425730267,0.5140615941477902,1.2882243525672779,0.9809260466056009,0.2843522,0.7350979674335891
0.0645,1.69599375,1.0,2648.227464743696,0.5167872809445512,1.287519098879793,0.9810868017170276,0.2842847375,0.7363927543984432
0.065,1.694375,1.0,2646.0536689629394,0.5194976812734117,1.2868081144976748,0.9812438283300654,0.28421675,0.7376948515889306
0.0655,1.69274375,1.0,2643.890508279948,0.5221929002263046,1.2860913949757602,0.9813972295900244,0.2841482375,0.7390041891607895
0.066,1.6911,1.0,2641.7380988136383,0.5248730181633698,1.2853689391307337,0.9815471033960869,0.2840792,0.7403206906230855
0.0665,1.6894437500000001,1.0,2639.5965565291986,0.5275381154447478,1.28464074577928,0.9816935441825109,0.2840096375,0.7416442788335948
0.067,1.687775,1.0,2637.4659972400773,0.5301882724305784,1.2839068137380834,0.9818366430641852,0.28393955,0.7429748759983714
0.0675,1.68609375,1.0,2635.346536610939,0.5328235694810018,1.283167141823829,0.9819764879750681,0.2838689375,0.7443124036713121
0.068,1.6844000000000001,1.0,2633.238290159841,0.5354440869561583,1.2824217288532012,0.9821131637999102,0.2837978,0.7456567827537275
0.0685,1.68269375,1.0,2631.1413732608007,0.5380499052161878,1.2816705736428848,0.9822467524996294,0.2837261375,0.7470079334939037
0.069,1.680975,1.0,2629.0559011462924,0.5406411046212304,1.2809136750095644,0.9823773332306835,0.28365395,0.7483657754866735
0.0695,1.67924375,1.0,2626.9819889098753,0.5432177655314263,1.2801510317699245,0.9825049824587694,0.28358123749999997,0.7497302276729807
0.07,1.6775,1.0,2624.9197515087885,0.5457799683069157,1.2793826427406498,0.9826297740671526,0.283508,0.7511012083394465
0.07050000000000001,1.67574375,1.0,2622.869303766509,0.5483277933078385,1.2786085067384252,0.9827517794599174,0.2834342375,0.7524786351179366
0.07100000000000001,1.673975,1.0,2620.830760375375,0.550861320894335,1.277828622579935,0.9828710676604053,0.28335995,0.7538624249851278
0.07150000000000001,1.67219375,1.0,2618.8042358994358,0.5533806314265454,1.2770429890818638,0.9829877054050989,0.2832851375,0.7552524942620737
0.07200000000000001,1.6704,1.0,2616.7898447770376,0.5558858052646095,1.2762516050608965,0.983101757233188,0.2832098,0.7566487586137706
0.0725,1.66859375,1.0,2614.787701323511,0.5583769227686676,1.2754544693337178,0.9832132855720469,0.2831339375,0.7580511330487243
0.073,1.6667750000000001,1.0,2612.7979197343034,0.5608540642988599,1.274651580717012,0.9833223508188306,0.28305755,0.7594595319185161
0.0735,1.66494375,1.0,2610.8206140873367,0.5633173102153264,1.273842938027464,0.9834290114183941,0.2829806375,0.7608738689173675
0.074,1.6631,1.0,2608.8558983459516,0.5657667408782073,1.2730285400817585,0.9835333239377198,0.2829032,0.7622940570817079
0.0745,1.6612437500000001,1.0,2606.903886362064,0.5682024366476427,1.2722083856965798,0.9836353431370326,0.2828252375,0.7637200087897387
0.075,1.659375,1.0,2604.964626213377,0.5706244772054718,1.2713824742995878,0.9837351220265902,0.28274675,0.7651516347035509
0.0755,1.65749375,1.0,2603.0376224901174,0.5730329344146851,1.2705508103770353,0.9838327117314002,0.2826677375,0.7665888361107445
