Time [s],Phi [rad],STIM [ ],Fsee [N],Gamma [ ],Lcerel [ ],q [ ],Lmtc [m],fisomrel [ ]
0.0,1.8,1.0,17.96898916650931,3.642803633538012e-05,1.379339541091833,0.005000350079633533,0.288653,0.541140027309431
0.0005,1.79999375,1.0,18.2870847204452,0.005645433012662915,1.3793012393153947,0.013014044857529435,0.2886527375,0.5412326844827988
0.001,1.799975,1.0,21.64832866752438,0.011222975905865141,1.3789352445157506,0.03574641795164484,0.28865195,0.5421176035197333
0.0015,1.79994375,1.0,31.14095765967409,0.01676923319423802,1.3780400968125541,0.07079030930188206,0.2886506375,0.5442783329143963
0.002,1.7999,1.0,53.73744309109809,0.022284380364383342,1.3763580797679824,0.11494115679895196,0.2886488,0.5483246039328986
0.0025,1.79984375,1.0,97.37998054085419,0.02776859191895715,1.3739225966668687,0.1648176039581061,0.28864643749999996,0.5541514403759766
0.003,1.7997750000000001,1.0,161.29824646046774,0.03322204138414185,1.3712016209684785,0.21753083694406436,0.28864354999999997,0.5606165707601212
0.0035,1.79969375,1.0,238.0678011091989,0.03864490130943089,1.368572896338698,0.2708619179113446,0.2886401375,0.5668176660857888
0.004,1.7996,1.0,321.875942160254,0.04403734327836007,1.3661452584702747,0.32315692806873814,0.2886362,0.5725052605221166
0.0045000000000000005,1.7994937500000001,1.0,409.69155589406444,0.04939953791370676,1.3639128684194588,0.3732633988054881,0.2886317375,0.577702245531638
0.005,1.799375,1.0,499.8459874875794,0.054731654868666386,1.3618491541009643,0.42046160545446354,0.28862675,0.5824782834069407
0.0055,1.79924375,1.0,591.2268257027213,0.06003386287311314,1.3599303102469507,0.4643719626499666,0.2886212375,0.5868946803747891
0.006,1.7991000000000001,1.0,682.9551312032017,0.06530632967976449,1.3581384721060061,0.5048621652675644,0.2886152,0.5909975599412483
0.006500000000000001,1.79894375,1.0,774.3135482839309,0.07054922206210634,1.3564598751663834,0.5419673792403735,0.2886086375,0.594822568228209
0.007,1.798775,1.0,864.7218222423678,0.07576270613332611,1.354883352909004,0.5758285344099993,0.28860155,0.598398615523161
0.0075,1.79859375,1.0,953.6647147574955,0.08094694650870286,1.3534002968120982,0.6066480046088653,0.2885939375,0.601748183077554
0.008,1.7984,1.0,1040.772136310871,0.0861021074300785,1.3520025563200768,0.634657521272327,0.2885858,0.6048922204851122
0.0085,1.79819375,1.0,1125.7252846994213,0.09122835204307947,1.350683422971374,0.660098351419889,0.2885771375,0.6078480129243635
0.009000000000000001,1.797975,1.0,1208.271679918192,0.09632584216153524,1.3494369593439874,0.6832079318016798,0.28856795,0.6106307762896317
0.0095,1.79774375,1.0,1288.254264058517,0.10139473971450572,1.3482573331400542,0.7042118149230381,0.2885582375,0.6132551974304122
0.01,1.7975,1.0,1365.5420528984466,0.10643520508298059,1.3471395657998069,0.7233199590596074,0.288548,0.6157338069398008
0.0105,1.79724375,1.0,1440.0261990841252,0.11144739704734298,1.3460793571491028,0.7407247963790341,0.2885372375,0.6180774188624483
0.011,1.796975,1.0,1511.661691491646,0.116431474387976,1.3450724070137998,0.756600556375975,0.28852595000000003,0.620296664278388
0.0115,1.79669375,1.0,1580.4421586212675,0.1213875948901755,1.3441146466676233,0.7711039666101038,0.2885141375,0.622401498561278
0.012,1.7964,1.0,1646.3821899614595,0.12631591617362598,1.3432023589798756,0.7843753817963397,0.28850180000000003,0.624400959153854
0.0125,1.79609375,1.0,1709.4848977231024,0.1312165932115754,1.3423324634850078,0.7965402061851174,0.2884889375,0.6263025651922379
0.013000000000000001,1.7957750000000001,1.0,1769.7893815904245,0.13608978097581242,1.3415018800013112,0.8077100155079716,0.28847555,0.6281137307256698
0.0135,1.79544375,1.0,1827.3480211450028,0.14093563347134933,1.3407077455884386,0.8179840559406674,0.2884616375,0.6298413013266702
0.014,1.7951000000000001,1.0,1882.2488841553616,0.14575430568719286,1.3399471208519738,0.8274504684202105,0.2884472,0.6314922035218544
0.0145,1.79474375,1.0,1934.547706524803,0.15054594927502288,1.339217701680587,0.8361877876823581,0.2884322375,0.6330719096509574
0.015,1.794375,1.0,1984.3054289310253,0.15531071500355967,1.338517352758269,0.8442658767905352,0.28841675,0.6345854651834619
0.0155,1.79399375,1.0,2031.601455962318,0.16004875364152363,1.3378439387690098,0.8517468841459281,0.2884007375,0.63603786044975
0.016,1.7936,1.0,2076.524686123764,0.16476021527723267,1.3371954012741392,0.8586861781610411,0.2883842,0.6374338691312891
0.0165,1.7931937500000001,1.0,2119.1678008763797,0.1694452501003633,1.336569798346711,0.8651331626707534,0.2883671375,0.6387779682425199
0.017,1.792775,1.0,2159.6100390903707,0.1741040062489042,1.3359654613554974,0.8711320247942642,0.28834955,0.6400740075771294
0.0175,1.7923437500000001,1.0,2197.9245210614627,0.17873663008208956,1.3353808967602006,0.8767223192731748,0.2883314375,0.6413254275775628
0.018000000000000002,1.7919,1.0,2234.1940007804633,0.18334326795915368,1.334814611020523,0.8819394647298775,0.2883128,0.6425356385432904
0.0185,1.79144375,1.0,2268.507430318707,0.18792406589259456,1.3342651367055784,0.8868152332160724,0.2882936375,0.6437079667831663
0.019,1.790975,1.0,2300.9468524835743,0.19247916875333237,1.3337311537339462,0.8913782021612202,0.28827395,0.6448453986843404
0.0195,1.79049375,1.0,2331.6057747546706,0.19700872300651082,1.3332112968594172,0.8956540742961353,0.2882537375,0.64595099376679
0.02,1.79,1.0,2360.5478676366833,0.2015128702519733,1.3327045548920013,0.8996660931663539,0.288233,0.64702703811899
0.0205,1.78949375,1.0,2387.841773631311,0.20599175208956322,1.332209916641709,0.9034352384818101,0.2882117375,0.6480758012911633
0.021,1.788975,1.0,2413.5606979792415,0.210445510119124,1.3317263709185503,0.9069804773976481,0.28818995000000003,0.6490995371084451
0.021500000000000002,1.78844375,1.0,2437.7820220726335,0.21487428594049904,1.3312529065325354,0.9103189851948128,0.2881676375,0.6501004844188374
0.022,1.7879,1.0,2460.5701564527385,0.21927821853657495,1.3307886729658063,0.9134663707841761,0.2881448,0.6510805288186252
0.0225,1.78734375,1.0,2482.01069450038,0.22365745093498168,1.3303326480873754,0.9164367805024007,0.28812143749999997,0.6520419056364228
0.023,1.786775,1.0,2502.15861528986,0.22801212026602868,1.329884130768191,0.9192431433160108,0.28809755,0.6529861615666934
0.0235,1.78619375,1.0,2521.067206213039,0.2323423629506387,1.3294424584304811,0.9218972450017701,0.28807313749999996,0.6539147531354614
0.024,1.7856,1.0,2538.791882824632,0.23664831540973452,1.329006968496474,0.9244098386973374,0.2880482,0.6548291284463015
0.0245,1.78499375,1.0,2555.3900102245643,0.24093011406423892,1.3285769983883977,0.9267907496014076,0.2880227375,0.6557307274555833
0.025,1.784375,1.0,2570.9207341734095,0.24518789533507462,1.3281518855284802,0.9290489677897268,0.28799675,0.6566209822197171
0.025500000000000002,1.78374375,1.0,2585.4347592482573,0.2494217918724251,1.3277310613187272,0.931192744538584,0.2879702375,0.6575011206852701
0.026000000000000002,1.7831000000000001,1.0,2598.9968303499186,0.25363194283993146,1.3273138391052148,0.9332296340969769,0.2879432,0.6583726107468288
0.0265,1.78244375,1.0,2611.647304198679,0.2578184793264859,1.32689977157405,0.9351666112088373,0.2879156375,0.6592364137271489
0.027,1.781775,1.0,2623.4272445663937,0.2619815323162074,1.326488414126284,0.9370100918292446,0.28788755,0.6600934803613012
0.0275,1.7810937500000001,1.0,2634.378627604016,0.26612123279321515,1.3260793221629674,0.9387659849888352,0.2878589375,0.66094475656167
0.028,1.7804,1.0,2644.5442616713494,0.270237711741628,1.3256720510851512,0.9404397395507931,0.2878298,0.6617911834884906
0.0285,1.77969375,1.0,2653.9677115498075,0.27433110014556494,1.325266156293886,0.9420363860887474,0.2878001375,0.6626336976077847
0.029,1.778975,1.0,2662.678924815141,0.2784015243842667,1.324861324812965,0.9435605911809762,0.28776995,0.6634729580381544
0.029500000000000002,1.7782437500000001,1.0,2670.725592222386,0.28244911833167535,1.3244570855068198,0.9450166539700815,0.2877392375,0.6643099479095032
0.03,1.7775,1.0,2678.152365906841,0.28647401319776683,1.324053000459136,0.9464085607268397,0.287708,0.6651455768285435
0.0305,1.77674375,1.0,2684.9859958651223,0.2904763336024358,1.3236488004050178,0.9477400281885134,0.2876762375,0.6659804017742124
0.031,1.775975,1.0,2691.253591927694,0.29445620416557694,1.3232442160795685,0.9490145067088556,0.28764395,0.6668149769486773
0.0315,1.7751937500000001,1.0,2696.982591546963,0.29841374950708477,1.322838978217892,0.9502352026714549,0.2876111375,0.6676498537730469
0.032,1.7744,1.0,2702.200729193705,0.302349094246854,1.322432817555092,0.9514050987559447,0.2875778,0.6684855808784593
0.0325,1.77359375,1.0,2706.9360073608723,0.3062623630047793,1.3220254648262717,0.9525269722858831,0.2875439375,0.66932270409255
0.033,1.772775,1.0,2711.216669174557,0.3101536804007552,1.3216166507665352,0.9536034118604733,0.28750955,0.67016176642129
0.0335,1.7719437500000002,1.0,2715.071172613153,0.31402317105467636,1.3212061061109863,0.9546368324489889,0.2874746375,0.6710033080262048
0.034,1.7711000000000001,1.0,2718.5200476353352,0.31787095422799233,1.3207936355394463,0.9556294959752576,0.2874392,0.6718477149151305
0.0345,1.7702437500000001,1.0,2721.592539592664,0.3216971577851947,1.3203789657601408,0.9565835100826252,0.2874032375,0.6726955302884647
0.035,1.7693750000000001,1.0,2724.3093906394397,0.325501902594308,1.3199619022207123,0.9575008530315203,0.28736675,0.6735471336967581
0.035500000000000004,1.76849375,1.0,2726.6878929889554,0.3292853068106526,1.3195422827973406,0.9583833796535762,0.2873297375,0.67440283643069
0.036000000000000004,1.7676,1.0,2728.7454357205324,0.33304748858954875,1.3191199453662048,0.9592328278972637,0.2872922,0.6752629479256074
0.0365,1.76669375,1.0,2730.49949396637,0.3367885660863167,1.3186947278034846,0.9600508275217456,0.2872541375,0.6761277757342565
0.037,1.765775,1.0,2731.9676186813167,0.3405086574562769,1.3182664679853595,0.9608389080499442,0.28721555,0.6769976254978448
0.0375,1.76484375,1.0,2733.1674269952005,0.3442078808547495,1.317835003788009,0.9615985060515008,0.2871764375,0.6778728009154218
0.038,1.7639,1.0,2734.1165931478877,0.3478863544370549,1.3174001730876128,0.9623309718188773,0.28713679999999997,0.6787536037115862
0.0385,1.76294375,1.0,2734.8262569836356,0.35154418880367355,1.3169618735392175,0.9630375796120401,0.28709663750000003,0.6796402127631032
0.039,1.761975,1.0,2735.3149024677323,0.35518150559908324,1.316519936461874,0.9637195249550508,0.28705595,0.6805329394839643
0.0395,1.7609937500000001,1.0,2735.6020960862293,0.3587984278255847,1.3160741836638,0.9643779333879255,0.2870147375,0.6814321123126992
0.04,1.76,1.0,2735.697542252151,0.36239506655513193,1.3156245267473474,0.9650138717018639,0.286973,0.6823378766438553
0.0405,1.7589937500000001,1.0,2735.6109669198363,0.36597153285967904,1.3151708773148685,0.9656283461929449,0.2869307375,0.6832503765707147
0.041,1.757975,1.0,2735.3521142591744,0.3695279378111801,1.3147131469687154,0.9662223067246322,0.28688795,0.6841697548630348
0.0415,1.75694375,1.0,2734.9307435031337,0.3730643924815891,1.3142512473112404,0.9667966504766262,0.2868446375,0.6850961529442908
0.042,1.7559,1.0,2734.356625968899,0.3765810079428602,1.3137850899447954,0.9673522254072803,0.28680079999999997,0.6860297108684206
0.0425,1.75484375,1.0,2733.6395422516034,0.38007789526694735,1.3133145864717328,0.9678898334541871,0.2867564375,0.6869705672960684
0.043000000000000003,1.753775,1.0,2732.789279591869,0.3835551655258046,1.3128396484944045,0.968410233495207,0.28671155,0.6879188594703363
0.043500000000000004,1.75269375,1.0,2731.815629416506,0.387012929791386,1.3123601876151627,0.9689141440901095,0.28666613750000003,0.6888747231920292
0.044,1.7516,1.0,2730.728385051963,0.39045129913564564,1.3118761154363596,0.969402246021125,0.2866202,0.6898382927944084
0.0445,1.75049375,1.0,2729.536826933825,0.3938703842384035,1.3113873482203664,0.9698751849534434,0.2865737375,0.6908096918631642
0.045,1.7493750000000001,1.0,2728.248629324403,0.39727029216359505,1.3108938168172275,0.9703335738980319,0.28652675,0.6917890135995415
0.0455,1.74824375,1.0,2726.8698715755327,0.4006511295189687,1.3103954665652966,0.9707779956619919,0.2864792375,0.6927763212235709
0.046,1.7471,1.0,2725.4049115697585,0.40401300278991537,1.309892258450094,0.9712090048006861,0.2864312,0.6937716458950897
0.0465,1.7459437500000001,1.0,2723.858106841788,0.40735601846182595,1.3093841534571393,0.9716271281675031,0.28638263750000004,0.6947750178240092
0.047,1.744778358512736,1.0,2722.4117803212193,0.4106802794691734,1.3088710095412501,0.9720328586227647,0.2863336910575349,0.6957866692122736
0.0475,1.7436125216354792,1.0,2721.4457419308005,0.41398589740719843,1.3083532956922825,0.9724267097489874,0.28628472590869014,0.6968056283026396
0.048,1.7424466847582223,1.0,2720.9490695228783,0.417272975076025,1.3078313101618724,0.9728091568863801,0.28623576075984536,0.6978312642985496
0.0485,1.7412808478809652,1.0,2720.890104987701,0.42054161495791514,1.3073053399948067,0.9731806516609242,0.2861867956110005,0.6988629719728198
0.049,1.7401150110037082,1.0,2721.2373024439685,0.42379191953513085,1.3067756722358732,0.9735416241689214,0.28613783046215574,0.6999001496308295
0.0495,1.7389491741264513,1.0,2721.959203792788,0.42702399128993423,1.3062425939298599,0.9738924842078486,0.28608886531331096,0.7009421991808386
0.05,1.7377833372491942,1.0,2723.024416099204,0.43023793270458727,1.3057063921215535,0.9742336224262521,0.2860399001644661,0.7019885261990528
0.0505,1.7366175003719373,1.0,2724.401590800114,0.433433846261352,1.3051673538557422,0.9745654113986697,0.28599093501562134,0.7030385399894267
0.051000000000000004,1.7354516634946804,1.0,2726.065279177802,0.4366118321375902,1.304625712747126,0.9748882028767839,0.28594196986677656,0.7040917574403875
0.051500000000000004,1.7342858266174233,1.0,2727.987569360123,0.4397719931745675,1.304081724955988,0.975202334420068,0.2858930047179318,0.7051476548080067
0.052000000000000005,1.7331199897401663,1.0,2730.144513229361,0.442914430629457,1.303535610615344,0.9755081259515153,0.285844039569087,0.706205781531793
0.0525,1.7319541528629094,1.0,2732.52024443341,0.44603924221717967,1.302987516383913,0.9758058781540098,0.2857950744202422,0.7072658320009821
0.053,1.7307883159856525,1.0,2735.0988959511114,0.4491465256526564,1.302437588920415,0.9760958784858249,0.28574610927139743,0.7083275025765501
0.0535,1.7296224791083954,1.0,2737.864593893054,0.45223637865080807,1.3018859748835685,0.9763784018796086,0.2856971441225526,0.7093904916090481
0.054,1.7284566422311385,1.0,2740.8014517789634,0.4553088989265556,1.3013328209320931,0.976653711398736,0.2856481789737078,0.7104544994550609
0.0545,1.7272908053538816,1.0,2743.8935652918403,0.45836418419481995,1.3007782737247082,0.9769220588539644,0.28559921382486303,0.7115192284922975
0.055,1.7261249684766244,1.0,2747.125140916916,0.46140233205542164,1.3002224787114038,0.9771836852997681,0.2855502486760182,0.7125843854476425
0.0555,1.7249591315993675,1.0,2750.4913017567137,0.4644234317103438,1.2996654822529148,0.9774388150116474,0.2855012835271734,0.7136498684506634
0.056,1.7237932947221106,1.0,2753.96655143547,0.4674275917243485,1.2991075172742108,0.9776876756722003,0.28545231837832863,0.7147152203764595
0.0565,1.7226274578448535,1.0,2757.5438943525705,0.47041490446007683,1.2985486488711142,0.9779304743422442,0.28540335322948385,0.7157803069427047
0.057,1.7214616209675966,1.0,2761.2163219237173,0.47338546228016964,1.297988942139447,0.9781674096296287,0.28535438808063907,0.7168449947787414
0.0575,1.7202957840903397,1.0,2764.976811324115,0.4763393575472679,1.2974284621750314,0.9783986721043705,0.2853054229317943,0.7179091514291962
0.058,1.7191299472130825,1.0,2768.818324325345,0.47927668262401263,1.2968672740736897,0.978624444690207,0.28525645778294945,0.718972645357324
0.0585,1.7179641103358256,1.0,2772.73380622682,0.48219752987304476,1.2963054429312442,0.9788449030340789,0.28520749263410466,0.7200353459480842
0.059000000000000004,1.7167982734585687,1.0,2776.716184880092,0.4851019916570053,1.2957430338435167,0.9790602158549514,0.2851585274852599,0.7210971235109456
0.059500000000000004,1.7156324365813116,1.0,2780.7583698081135,0.4879901603385351,1.29518011190633,0.9792705452732872,0.2851095623364151,0.7221578492824188
0.06,1.7144665997040547,1.0,2784.8532514179433,0.49086212828027515,1.294616742215506,0.9794760471223805,0.28506059718757026,0.7232173954283232
0.0605,1.7133007628267978,1.0,2788.9937003078758,0.4937179878448665,1.2940529898668667,0.9796768712426898,0.2850116320387255,0.7242756350457794
0.061,1.7121349259495409,1.0,2793.1806032690615,0.49655781602176574,1.2934888477440287,0.9798731567088247,0.2849626668898807,0.725332577327431
0.0615,1.7109690890722837,1.0,2797.4005297229046,0.49938172384137036,1.2929244373110937,0.9800650467751448,0.2849137017410359,0.7263879911542701
0.062,1.7098032521950268,1.0,2801.650563404452,0.5021897983821141,1.292359785339143,0.9802526725169495,0.28486473659219114,0.7274418237131702
0.0625,1.70863741531777,1.0,2805.928243994846,0.5049821257116394,1.2917949144342713,0.9804361598454944,0.28481577144334635,0.7284940303262
0.063,1.7074715784405128,1.0,2810.2311038258836,0.507758791897589,1.291229847202572,0.980615630030069,0.2847668062945015,0.7295445666401994
0.0635,1.7063057415632559,1.0,2814.5566677759166,0.5105198830076056,1.2906646062501395,0.980791199904344,0.28471784114565674,0.7305933886270772
0.064,1.705139904685999,1.0,2818.9024531768855,0.5132654851093317,1.2900992141830672,0.9809629820620788,0.28466887599681195,0.7316404525840783
0.0645,1.7039740678087418,1.0,2823.2659697329414,0.51599568427041,1.2895336936074495,0.9811310850428169,0.2846199108479672,0.7326857151340165
0.065,1.702808230931485,1.0,2827.6447194506095,0.5187105665584831,1.2889680671293804,0.9812956135081454,0.28457094569912234,0.7337291332254781
0.0655,1.701642394054228,1.0,2832.03619658001,0.5214102180411936,1.288402357354954,0.9814566684090682,0.28452198055027755,0.7347706641329894
0.066,1.7004765571769709,1.0,2836.437887567141,0.5240947247861842,1.2878365868902637,0.9816143471449963,0.28447301540143277,0.7358102654571546
0.0665,1.699310720299714,1.0,2840.847271018131,0.5267641728610974,1.287270778341404,0.9817687437148368,0.284424050252588,0.7368478951247577
0.067,1.698144883422457,1.0,2845.2618176742176,0.5294186483335761,1.2867049543144686,0.9819199488606232,0.2843750851037432,0.7378835113888345
0.0675,1.6969790465452,1.0,2849.681057526646,0.5320582231333104,1.2861391190266107,0.9820680483957352,0.2843261199548984,0.7389171063860813
0.068,1.695813209667943,1.0,2854.1035552922076,0.5346829834825416,1.2855732852622346,0.9822131265529385,0.2842771548060536,0.7399486567108877
0.0685,1.6946473727906861,1.0,2858.5250692422346,0.5372930351743418,1.2850074906933073,0.9823552671349538,0.2842281896572088,0.7409780939053072
0.069,1.693481535913429,1.0,2862.9449954125685,0.5398884569284446,1.2844417405892594,0.9824945478807805,0.284179224508364,0.7420054088346699
0.0695,1.692315699036172,1.0,2867.3627280174974,0.5424693274645835,1.2838760402195206,0.9826310439394744,0.28413025935951924,0.7430305924403224
0.07,1.6911498621589152,1.0,2871.777659454753,0.5450357255024926,1.2833103948535214,0.9827648279744164,0.2840812942106744,0.7440536357396104
0.07050000000000001,1.689984025281658,1.0,2876.189180312338,0.5475877297619051,1.2827448097606915,0.9828959702627061,0.2840323290618296,0.7450745298258622
0.07100000000000001,1.6888181884044011,1.0,2880.5966793745156,0.5501254189625548,1.2821792902104616,0.9830245387899379,0.28398336391298484,0.7460932658683677
0.07150000000000001,1.6876523515271442,1.0,2884.9995436297017,0.5526488718241757,1.2816138414722613,0.9831505993406019,0.28393439876414006,0.74710983511236
0.07200000000000001,1.686486514649887,1.0,2889.3971582781255,0.555158167066501,1.281048468815521,0.9832742155843427,0.2838854336152953,0.7481242288789896
0.0725,1.6853206777726302,1.0,2893.7889067404767,0.5576533834092646,1.280483177509671,0.9833954491582895,0.2838364684664505,0.749136438565301
