Time [s],Phi [rad],STIM [ ],Fsee [N],Gamma [ ],Lcerel [ ],q [ ],Lmtc [m],fisomrel [ ]
0.0,1.8,1.0,17.96665440204358,1.8293688836197368e-05,1.379339802658704,0.005000088768490604,0.288653,0.5411393945116565
0.0005,1.79999375,1.0,18.27882920687459,0.005627400384506683,1.37930215618644,0.012963556690180771,0.2886527375,0.5412304665571348
0.001,1.799975,1.0,21.626659129801876,0.011205044426494894,1.3789374567624664,0.03565181265048866,0.28865195,0.5421122572142664
0.0015,1.79994375,1.0,31.090550238659667,0.01675140229628191,1.3780443881407254,0.07066088511718759,0.2886506375,0.5442679865921702
0.002,1.7999,1.0,53.62963017433349,0.022266649483681022,1.3763650675229693,0.11478792266699125,0.2886488,0.5483078314682104
0.0025,1.79984375,1.0,97.19920472427626,0.027750960494465123,1.3739313001795093,0.1646509209016893,0.28864643749999996,0.5541306847769826
0.003,1.7997750000000001,1.0,161.06323754239145,0.0332045088580026,1.371210411500791,0.21735888785238244,0.28864354999999997,0.5605957601830784
0.0035,1.79969375,1.0,237.8023992094904,0.038627467126911494,1.3685810670932619,0.27069089971232296,0.2886401375,0.5667984597589043
0.004,1.7996,1.0,321.5936852904304,0.04402000688782582,1.3661527312620498,0.32299133811965103,0.2886362,0.572487810552746
0.0045000000000000005,1.7994937500000001,1.0,409.39936005431514,0.04938229876658444,1.3639197250438027,0.37310621196632837,0.2886317375,0.5776863320281986
0.005,1.799375,1.0,499.5479237880042,0.05471451241934059,1.3618554861332233,0.4203145462330239,0.28862675,0.5824636707757929
0.0055,1.79924375,1.0,590.9261589919153,0.060016816579679125,1.35993618312367,0.46423580940119163,0.2886212375,0.5868811992294767
0.006,1.7991000000000001,1.0,682.6541251124405,0.06528937900265923,1.3581439424474682,0.5047370421657527,0.2886152,0.5909850653322213
0.006500000000000001,1.79894375,1.0,774.0186520084711,0.07053236651745512,1.3564649083131244,0.541852928495369,0.2886086375,0.5948111260883795
0.007,1.798775,1.0,864.4243348915194,0.07574594502545867,1.3548881574845868,0.5757242956054183,0.28860155,0.5983877413175864
0.0075,1.79859375,1.0,953.3807194329471,0.08093027946926973,1.3534046643134428,0.6065531193496384,0.2885939375,0.6017383394180575
0.008,1.7984,1.0,1040.4947521134875,0.08608553390244593,1.3520066397039103,0.6345713008484215,0.2885858,0.6048830535853362
0.0085,1.79819375,1.0,1125.4540301766642,0.09121187143668386,1.3506872624682629,0.6600200312894923,0.2885771375,0.6078394258371037
0.009000000000000001,1.797975,1.0,1208.0136653947784,0.09630945420415785,1.3494404844519232,0.6831367139401158,0.28856795,0.610622920363537
0.0095,1.79774375,1.0,1287.980574784798,0.10137844290833242,1.34826095446444,0.7041472077141934,0.2885582375,0.6132471543224404
0.01,1.7975,1.0,1365.2832023647068,0.1064190000024216,1.3471428924297009,0.7232610946270683,0.288548,0.6157264420776184
0.0105,1.79724375,1.0,1439.7934218751648,0.11143128348341058,1.3460822702812762,0.7406710225418244,0.2885372375,0.6180709891484619
0.011,1.796975,1.0,1511.444495613662,0.11641545134828456,1.345075059952737,0.7565514144421157,0.28852595000000003,0.6202908258884405
0.0115,1.79669375,1.0,1580.2256202850722,0.12137166159402876,1.3441172333776534,0.771059064178667,0.2885141375,0.6223958217235639
0.012,1.7964,1.0,1646.1577422432204,0.12630007161373824,1.3432049859313193,0.7843343283012021,0.28850180000000003,0.6243952092853409
0.0125,1.79609375,1.0,1709.2715907483016,0.13120083762141546,1.3423349135259877,0.7965025196274166,0.2884889375,0.6262972161388858
0.013000000000000001,1.7957750000000001,1.0,1769.5918616597226,0.13607411404593808,1.341504109717711,0.8076753370300932,0.28847555,0.6281088745086532
0.0135,1.79544375,1.0,1827.1672119352354,0.14092005504177235,1.3407097542558604,0.8179520838309414,0.2884616375,0.629836936718467
0.014,1.7951000000000001,1.0,1882.0656553100157,0.14573881388726054,1.3399491264932935,0.8274210128758768,0.2884472,0.6314878552182615
0.0145,1.79474375,1.0,1934.366021833406,0.1505305441262616,1.3392196633516638,0.8361605905427004,0.2884322375,0.6330676658022446
0.015,1.794375,1.0,1984.1286240068607,0.1552953963462026,1.3385192376532087,0.8442407109036445,0.28841675,0.6345813958504158
0.0155,1.79399375,1.0,2031.4315635350968,0.16003352107696336,1.3378457287615506,0.851723551786237,0.2884007375,0.6360340036912525
0.016,1.7936,1.0,2076.3580485270777,0.16474506787865287,1.337197137877093,0.858664521308587,0.2883842,0.6374301345902318
0.0165,1.7931937500000001,1.0,2119.0069177670853,0.16943018743630783,1.3365714580230357,0.8651130211438508,0.2883671375,0.6387744057533417
0.017,1.792775,1.0,2159.463821194942,0.17408902839647067,1.335966955551565,0.8711132370478797,0.28834955,0.6400708060504234
0.0175,1.7923437500000001,1.0,2197.796057744886,0.17872173673701428,1.335382198027353,0.8767047576774901,0.2883314375,0.6413226442804253
0.018000000000000002,1.7919,1.0,2234.0803345207005,0.18332845843581158,1.3348157530150717,0.8819230312169994,0.2883128,0.6425332000412962
0.0185,1.79144375,1.0,2268.401983171593,0.18790933947073535,1.334266188079393,0.8867998489671607,0.2882936375,0.6437057254683416
0.019,1.790975,1.0,2300.8472910924297,0.19246452495320762,1.333732139399861,0.8913637854411353,0.28827395,0.6448433008022698
0.0195,1.79049375,1.0,2331.5044922665393,0.19699416013353635,1.3332122929501395,0.8956405628914296,0.2882537375,0.6459488769990765
0.02,1.79,1.0,2360.4541259591683,0.20149838895057498,1.332705471150477,0.8996533936692895,0.288233,0.6470250939621781
0.0205,1.78949375,1.0,2387.760025240569,0.20597735247708202,1.332210711093474,0.903423277089054,0.2882117375,0.6480741180955624
0.021,1.788975,1.0,2413.4904589661014,0.21043119178581587,1.3317270498717295,0.9069691976016353,0.28818995000000003,0.6490981007123695
0.021500000000000002,1.78844375,1.0,2437.7177640275004,0.21486004794953498,1.331253524577844,0.9103083457485183,0.2881676375,0.6500991787460322
0.022,1.7879,1.0,2460.5133148406658,0.21926406114181304,1.330789217140569,0.913456321090838,0.2881448,0.6510793808148261
0.0225,1.78734375,1.0,2481.9476334219257,0.22364337146826838,1.3303332491914972,0.9164273014750232,0.28812143749999997,0.6520406392812125
0.023,1.786775,1.0,2502.0932178031603,0.22799811940286094,1.3298847516284416,0.9192341870241079,0.28809755,0.6529848553668414
0.0235,1.78619375,1.0,2521.00242399515,0.23232844093629892,1.3294430711387888,0.9218887691756409,0.28807313749999996,0.6539134658119992
0.024,1.7856,1.0,2538.7297162436794,0.2366344720592905,1.3290075544099258,0.9244018061581584,0.2880482,0.654827899047193
0.0245,1.78499375,1.0,2555.331491246325,0.24091634876254386,1.328577548129239,0.9267831277526916,0.2880227375,0.6557295754635766
0.025,1.784375,1.0,2570.865911832649,0.24517420703676718,1.3281523989841155,0.9290417281632702,0.28799675,0.6566199076561539
0.025500000000000002,1.78374375,1.0,2585.365028630527,0.24940818082536167,1.327731712567664,0.9311858910904348,0.2879702375,0.6574997594944709
0.026000000000000002,1.7831000000000001,1.0,2598.9152709249347,0.25361840646331407,1.327314598840095,0.9332231356907816,0.2879432,0.6583710248282773
0.0265,1.78244375,1.0,2611.591568582495,0.2578050185425435,1.326900289497099,0.935160389624298,0.2879156375,0.6592353339499775
0.027,1.781775,1.0,2623.4113255831403,0.26196814754883024,1.3264885617203341,0.937004109241133,0.28788755,0.6600931730414145
0.0275,1.7810937500000001,1.0,2634.3926211089056,0.2661079239679544,1.326079192691459,0.9387602399084024,0.2878589375,0.6609450258089489
0.028,1.780403387711724,1.0,2644.7198488271138,0.27022447828569623,1.3256719595921316,0.9404342631942736,0.2878299422838924,0.6617913735185619
0.0285,1.7797125905804667,1.0,2654.8383933119076,0.2743179409878359,1.3252666396040105,0.9420312391268547,0.2878009288043796,0.6626326950277894
0.029,1.7790217934492094,1.0,2664.7925130846183,0.27838844256015366,1.324863009908754,0.9435558440952725,0.2877719153248668,0.6634694668144925
0.029500000000000002,1.7783309963179523,1.0,2674.5944346708525,0.28243611232566684,1.3244609487743881,0.9450124183217307,0.287742901845354,0.6643019538278823
0.03,1.777640199186695,1.0,2684.2243073644754,0.2864610786984463,1.3240606295362207,0.9464050209735577,0.2877138883658412,0.6651298098998353
0.0305,1.776949402055438,1.0,2693.6808728716137,0.29046346823286034,1.3236620543417308,0.9477373920461519,0.2876848748863284,0.6659530439390642
0.031,1.7762586049241806,1.0,2702.96459184749,0.2944434071028389,1.323265209806872,0.9490130007336945,0.2876558614068156,0.6667716968383898
0.0315,1.7755678077929233,1.0,2712.075955046634,0.29840102148231173,1.3228700825475976,0.9502350703909892,0.28762684792730275,0.6675858092975366
0.032,1.7748770106616663,1.0,2721.0183755039548,0.3023364218971076,1.322476632845428,0.9514065910157605,0.28759783444778997,0.6683954759842953
0.0325,1.774186213530409,1.0,2729.7895535264192,0.3062497579166026,1.3220848733393484,0.9525303644284138,0.2875688209682772,0.6692006835649742
0.033,1.7734954163991519,1.0,2738.392376557433,0.3101411510452615,1.3216947696862493,0.9536089876586057,0.2875398074887644,0.6700015151674459
0.0335,1.7728046192678946,1.0,2746.8301104757725,0.3140107208499807,1.3213062844972303,0.954644882439296,0.28751079400925156,0.6707980597658958
0.034,1.7721138221366373,1.0,2755.106064225137,0.3178585868976564,1.3209193803833914,0.955640309985145,0.2874817805297388,0.6715904059130744
0.0345,1.7714230250053802,1.0,2763.2235884877296,0.3216848687551848,1.3205340199558326,0.9565973835339178,0.28745276705022593,0.6723786417441131
0.035,1.7707322278741229,1.0,2771.186074389752,0.32548968598946226,1.3201501658256534,0.957518079768341,0.28742375357071315,0.6731628549802509
0.035500000000000004,1.7700414307428658,1.0,2778.996952236507,0.329273158167385,1.3197677806039538,0.9584042492300512,0.28739474009120036,0.673943132932467
0.036000000000000004,1.7693506336116085,1.0,2786.6596902798187,0.33303540485584926,1.3193868269018334,0.9592576258250594,0.2873657266116876,0.6747195625050328
0.0365,1.7686598364803512,1.0,2794.1777935151895,0.33677654562175124,1.3190072673303923,0.9600798355093744,0.28733671313217474,0.6754922301989656
0.037,1.767969039349094,1.0,2801.5548025115727,0.34049670003198734,1.3186290645007301,0.960872404233924,0.28730769965266195,0.6762612221154004
0.0375,1.7672782422178368,1.0,2808.794292270086,0.3441959876534538,1.318252181023947,0.9616367652195039,0.2872786861731491,0.6770266239588678
0.038,1.7665874450865797,1.0,2815.8987576775735,0.3478745191714433,1.3178765894753992,0.9623742647398923,0.2872496726936363,0.6777885008402058
0.0385,1.7658966479553224,1.0,2822.86899910315,0.35153238479475307,1.317502277815044,0.9630861665911477,0.28722065921412354,0.6785468864230185
0.039,1.7652058508240651,1.0,2829.7161085860594,0.35516975563328107,1.3171291422841216,0.9637736680772271,0.28719164573461076,0.6793019997262033
0.0395,1.764515053692808,1.0,2836.4429704571608,0.35878674099693153,1.3167571528977677,0.9644378915596461,0.2871626322550979,0.6800539097197074
0.04,1.7638242565615507,1.0,2843.0524938995486,0.36238345019560864,1.3163862796711179,0.9650798951712702,0.28713361877558513,0.6808026850633584
0.0405,1.7631334594302936,1.0,2849.5476121958495,0.36595999253921646,1.3160164926193079,0.9657006771749432,0.28710460529607235,0.6815483941090272
0.041,1.7624426622990363,1.0,2855.931281996557,0.36951647733765935,1.3156477617574736,0.9663011799821927,0.2870755918165595,0.6822911049027335
0.0415,1.761751865167779,1.0,2862.206482608032,0.37305301390084133,1.3152800571007506,0.9668822938618098,0.2870465783370467,0.6830308851866947
0.042,1.761061068036522,1.0,2868.3762152999375,0.3765697115386667,1.3149133486642743,0.9674448603652049,0.28701756485753394,0.6837678024013176
0.0425,1.7603702709052647,1.0,2874.443502633041,0.38006667956103957,1.314547606463181,0.96798967549287,0.2869885513780211,0.6845019236871297
0.043000000000000003,1.7596794737740076,1.0,2880.4113878072885,0.3835440272778642,1.3141828005126057,0.9685174926239634,0.2869595378985083,0.6852333158866588
0.043500000000000004,1.7589886766427503,1.0,2886.282934028868,0.38700186399904474,1.3138189008276846,0.9690290252289595,0.2869305244189955,0.6859620455462496
0.044,1.758297879511493,1.0,2892.0612238979897,0.39044029903448524,1.3134558774235532,0.9695249493834549,0.2869015109394827,0.6866881789178265
0.0445,1.7576070823802359,1.0,2897.749358816487,0.39385944169409015,1.3130937003153471,0.9700059060995392,0.2868724974599699,0.6874117819605983
0.045,1.7569162852489786,1.0,2903.3504584150605,0.39725940128776344,1.312732339518202,0.9704725034896577,0.2868434839804571,0.6881329203427042
0.0455,1.7562254881177215,1.0,2908.867660000479,0.4006402871254094,1.312371765047254,0.9709253187765208,0.28681447050094433,0.6888516594428036
0.046,1.7555346909864642,1.0,2914.304118023234,0.4040022085169322,1.3120119469176381,0.9713649001614135,0.2867854570214315,0.6895680643516102
0.0465,1.754843893855207,1.0,2919.6630035645044,0.407345274772236,1.3116528551444906,0.9717917685621528,0.2867564435419187,0.6902821998733647
0.047,1.7541530967239498,1.0,2924.9472464256237,0.4106695929181701,1.311294462003249,0.9722064190943056,0.28672743006240586,0.6909941260398846
0.0475,1.7534622995926925,1.0,2930.154904678607,0.41397522937988285,1.3109367826378038,0.972609320568381,0.2866984165828931,0.6917038176111325
0.048,1.7527715024614354,1.0,2935.294465837768,0.417262345149451,1.3105797407513557,0.9730009248039057,0.2866694031033803,0.6924114305957292
0.0485,1.7520807053301781,1.0,2940.367563556059,0.4205310389506215,1.3102233203633942,0.9733816583003092,0.2866403896238675,0.6931170009652772
0.049,1.7513899081989208,1.0,2945.3758403994434,0.4237814095071413,1.3098675054934084,0.9737519274001117,0.28661137614435467,0.6938205645385604
0.0495,1.7506991110676637,1.0,2950.3209476298953,0.42701355554275744,1.3095122801608876,0.9741121194254702,0.2865823626648419,0.6945221569821691
0.05,1.7500083139364064,1.0,2955.204544993008,0.4302275757812168,1.3091576283853215,0.9744626037406837,0.28655334918532904,0.6952218138111081
0.0505,1.7493175168051494,1.0,2960.0283005128294,0.4334235689462664,1.308803534186199,0.9748037327461068,0.28652433570581626,0.695919570389391
0.051000000000000004,1.748626719673892,1.0,2964.7938902905553,0.4366016337616531,1.3084499815830097,0.9751358428084763,0.2864953222263035,0.6966154619306153
0.051500000000000004,1.7479359225426347,1.0,2969.502998310485,0.439761868951124,1.308096954595243,0.9754592551322456,0.2864663087467907,0.6973095234985229
0.052000000000000005,1.7472451254113777,1.0,2974.157316250586,0.442904373238426,1.3077444372423883,0.9757742765761612,0.28643729526727785,0.6980017900075437
0.0525,1.7465543282801204,1.0,2978.758543299467,0.44602924534730604,1.3073924135439345,0.9760812004189706,0.28640828178776506,0.6986922962233251
0.053,1.7458635311488633,1.0,2983.3083859781264,0.44913658400151113,1.3070408675193714,0.9763803070778438,0.2863792683082522,0.6993810767632391
0.0535,1.745172734017606,1.0,2987.808557968319,0.45222648792478826,1.3066897831881883,0.9766718647828168,0.28635025482873944,0.7000681660968816
0.054,1.7444819368863487,1.0,2992.26077994594,0.4552990558408843,1.3063391445698742,0.9769561302102973,0.28632124134922665,0.7007535985465488
0.0545,1.7437911397550916,1.0,2996.6667794202694,0.4583543864735463,1.3059889356839187,0.9772333490784514,0.28629222786971387,0.7014374082876997
0.055,1.7431003426238343,1.0,3001.028290578778,0.4613925785465212,1.3056391405498113,0.9775037567070634,0.286263214390201,0.7021196293494028
0.0555,1.7424095454925772,1.0,3005.347054138252,0.46441373078355597,1.305289743187041,0.9777675785442685,0.28623420091068824,0.7028002956147659
0.056,1.74171874836132,1.0,3009.6248172001297,0.4674179419083975,1.3049407276150975,0.9780250306623829,0.2862051874311754,0.7034794408213486
0.0565,1.7410279512300626,1.0,3013.8595836840987,0.4704052541441459,1.3045921102867513,0.9782763169832098,0.2861761739516626,0.7041570355582385
0.057,1.7403371540988055,1.0,3018.0565985070484,0.4733758305424732,1.3042438450249196,0.9785216403965328,0.28614716047214983,0.7048331720805252
0.0575,1.7396463569675482,1.0,3022.216948766974,0.4763297643073172,1.3038959217048605,0.9787611913431082,0.28611814699263705,0.7055078723569941
0.058,1.7389555598362911,1.0,3026.341434259031,0.4792671439534966,1.3035483327166388,0.9789951523597162,0.2860891335131242,0.7061811533958824
0.0585,1.7382647627050338,1.0,3030.430857937085,0.4821880579958298,1.303201070450321,0.9792236987300416,0.2860601200336114,0.7068530321357764
0.059000000000000004,1.7375739655737765,1.0,3034.4860258577714,0.4850925949491354,1.3028541272959722,0.9794469988301883,0.2860311065540986,0.7075235254457752
0.059500000000000004,1.7368831684425194,1.0,3038.5077471261498,0.48798084332823183,1.302507495643658,0.9796652144551093,0.2860020930745858,0.708192650125645
0.06,1.7361923713112621,1.0,3042.496833842366,0.4908528916479376,1.3021611678834442,0.9798785011271517,0.285973079595073,0.7088604229059728
0.0605,1.735501574180005,1.0,3046.454101049841,0.4937088284230713,1.3018151364053963,0.9800870083878234,0.2859440661155602,0.7095268604483165
0.061,1.7348107770487478,1.0,3050.380366684464,0.4965487421684514,1.30146939359958,0.9802908800738206,0.2859150526360474,0.7101919793453492
0.0615,1.7341199799174905,1.0,3054.2764515257318,0.49937272139889644,1.3011239318560608,0.9804902545782744,0.2858860391565346,0.7108557961210027
0.062,1.7334291827862334,1.0,3058.143179147989,0.5021808546292249,1.3007787435649045,0.9806852650981197,0.2858570256770218,0.711518327230604
0.0625,1.732738385654976,1.0,3061.981375874033,0.5049732303742552,1.3004338211161766,0.9808760398684184,0.285828012197509,0.7121795890610116
0.063,1.732047588523719,1.0,3065.791870729893,0.507749937148806,1.3000891568999426,0.9810627023844207,0.2857989987179962,0.7128395979307449
0.0635,1.7313567913924617,1.0,3069.57549539996,0.5105110634676958,1.2997447433062683,0.9812453716120897,0.2857699852384834,0.7134983700901126
0.064,1.7306659942612044,1.0,3073.333084184473,0.513256697845743,1.2994005727252191,0.9814241621877732,0.28574097175897056,0.7141559217213354
0.0645,1.7299751971299473,1.0,3077.06547395802,0.5159869287977663,1.299056637546861,0.9815991846076559,0.2857119582794578,0.7148122689386651
0.065,1.72928439999869,1.0,3080.773504128717,0.5187018448385841,1.2987129301612592,0.9817705454075839,0.285682944799945,0.7154674277885035
0.0655,1.728593602867433,1.0,3084.458016599419,0.5214015344830147,1.2983694429584796,0.9819383473338226,0.28565393132043215,0.7161214142495109
0.066,1.7279028057361756,1.0,3088.1198557300972,0.524086086245877,1.2980261683285876,0.9821026895052606,0.28562491784091937,0.7167742442327181
0.0665,1.7272120086049183,1.0,3091.7586610505386,0.5267555522475983,1.2976831089722,0.9822636656522907,0.2855959043614066,0.7174259140071597
0.067,1.7265212114736612,1.0,3095.37568773411,0.5294100453033469,1.2973402537958063,0.9824213695974836,0.2855668908818938,0.7180764460224665
0.0675,1.725830414342404,1.0,3098.972025662411,0.5320496679023776,1.2969975931443014,0.9825758912958684,0.28553787740238096,0.7187258599059057
0.068,1.7251396172111468,1.0,3102.548054995195,0.5346744990107462,1.2966551234380528,0.9827273163912411,0.2855088639228682,0.7193741637052095
0.0685,1.7244488200798895,1.0,3106.1041571054598,0.5372846175945077,1.2963128410974287,0.98287572762532,0.28547985044335533,0.7200213654361287
0.069,1.7237580229486322,1.0,3109.6407145653475,0.5398801026197181,1.2959707425427973,0.9830212049562043,0.28545083696384255,0.7206674730824782
0.0695,1.7230672258173751,1.0,3113.1581111307446,0.5424610330524325,1.295628824194526,0.9831638256712123,0.28542182348432976,0.7213124945961801
0.07,1.7223764286861178,1.0,3116.656731727159,0.5450274878587066,1.295287082472983,0.9833036644944055,0.285392810004817,0.7219564378973016
0.07050000000000001,1.7216856315548608,1.0,3120.1369624353792,0.5475795460045958,1.2949455137985362,0.9834407936890815,0.28536379652530414,0.7225993108740991
