Time [s],Phi [rad],STIM [ ],Fsee [N],Gamma [ ],Lcerel [ ],q [ ],Lmtc [m],fisomrel [ ]
0.0,1.8,1.0,17.967327462349026,1.0006871078162232e-05,1.37933972725309,0.005000026688264548,0.288653,0.5411395769373446
0.0005,1.79999375,1.0,18.276646040472308,0.005619160049239566,1.3793023986871409,0.012940533249160481,0.2886527375,0.54122987994318
0.001,1.799975,1.0,21.618261112496505,0.011196850312993854,1.3789383144154304,0.035608613007438034,0.28865195,0.5421101845280372
0.0015,1.79994375,1.0,31.069033770340422,0.016743254145274757,1.3780462209586397,0.07060175518239109,0.2886506375,0.5442635676622811
0.002,1.7999,1.0,53.581941602565976,0.022258547037365833,1.3763681606365727,0.1147178959303773,0.2886488,0.54830040707603
0.0025,1.79984375,1.0,97.11814441758905,0.02774290349646202,1.3739352054834466,0.1645747384310041,0.28864643749999996,0.5541213714925146
0.003,1.7997750000000001,1.0,160.9572549661575,0.03319649705338885,1.3712143778879096,0.2172802938745316,0.28864354999999997,0.5605863700551412
0.0035,1.79969375,1.0,237.6823647730189,0.038619500262192324,1.3685847640122564,0.27061272845066314,0.2886401375,0.5667897695727975
0.004,1.7996,1.0,321.4658022153405,0.044012084710921565,1.3661561180645665,0.32291564620390756,0.2886362,0.5724799017981099
0.0045000000000000005,1.7994937500000001,1.0,409.2668108823578,0.049374421026813144,1.3639228362297888,0.3730343599200336,0.2886317375,0.5776791111940891
0.005,1.799375,1.0,499.4125862669939,0.054706678867380634,1.3618583618521374,0.4202473229294825,0.28862675,0.5824570343038509
0.0055,1.79924375,1.0,590.7895296556059,0.06000902696788742,1.359938852377255,0.4641735711840116,0.2886212375,0.5868750719047977
0.006,1.7991000000000001,1.0,682.5172496049909,0.06528163308448484,1.3581464303567026,0.5046798460735403,0.2886152,0.590979382725611
0.006500000000000001,1.79894375,1.0,773.8805119125087,0.0705246640498298,1.35646726635111,0.541800654310405,0.2886086375,0.5948057653704301
0.007,1.798775,1.0,864.2850325733934,0.07573828575668366,1.3548904075737456,0.5756766861776179,0.28860155,0.5983826486356529
0.0075,1.79859375,1.0,953.2425446806906,0.08092266316764395,1.3534067895076665,0.6065098301686199,0.2885939375,0.6017335495213136
0.008,1.7984,1.0,1040.3444256467478,0.08607795992935194,1.352008852893242,0.634532098200274,0.2885858,0.6048780850917856
0.0085,1.79819375,1.0,1125.3146293766513,0.09120434012130885,1.350689235809596,0.6599843597516143,0.2885771375,0.6078350123956681
0.009000000000000001,1.797975,1.0,1207.8996872707648,0.0963019656626764,1.3494420417910804,0.6831041337004494,0.28856795,0.6106194497094414
0.0095,1.79774375,1.0,1287.8909686334368,0.1013709971086946,1.3482621401733947,0.704117430091891,0.2885582375,0.6132445207967052
0.01,1.7975,1.0,1365.16588118622,0.1064115950146034,1.347144400292239,0.7232341842472956,0.288548,0.6157231037810642
0.0105,1.79724375,1.0,1439.6594663861395,0.11142391929806988,1.3460839467980443,0.7406466140343907,0.2885372375,0.6180672888032157
0.011,1.796975,1.0,1511.3223709166753,0.11640812870899178,1.3450765517285062,0.756529085416523,0.28852595000000003,0.6202875428799861
0.0115,1.79669375,1.0,1580.1204373745436,0.12136438042818337,1.3441184899289997,0.7710385748801465,0.2885141375,0.6223930640592632
0.012,1.7964,1.0,1646.055213146171,0.1262928310460438,1.343206185998472,0.7843155640657267,0.28850180000000003,0.6243925825649943
0.0125,1.79609375,1.0,1709.1726867093337,0.13119363758869784,1.3423360495882946,0.7964853011844906,0.2884889375,0.6262947358172217
0.013000000000000001,1.7957750000000001,1.0,1769.5062300821712,0.1360669548443536,1.341505076413932,0.8076594661813175,0.28847555,0.6281067690800843
0.0135,1.79544375,1.0,1827.0917480992314,0.14091293620791562,1.3407105926371805,0.8179374400871026,0.2884616375,0.6298351150026188
0.014,1.7951000000000001,1.0,1881.9927618251263,0.14573173507428838,1.339949924419836,0.8274075069233181,0.2884472,0.6314861252772568
0.0145,1.79474375,1.0,1934.280545773666,0.15052350394492237,1.3392205862786442,0.8361481686983309,0.2884322375,0.6330656691478729
0.015,1.794375,1.0,1984.0514269121843,0.15528839578168316,1.3385200606680128,0.8442291950631562,0.28841675,0.6345796190220822
0.0155,1.79399375,1.0,2031.3725292176894,0.16002656053520126,1.3378463507667018,0.8517128235968722,0.2884007375,0.6360326635000724
0.016,1.7936,1.0,2076.3142360784113,0.16473814741828832,1.3371975944772672,0.8586545183678007,0.2883842,0.6374291526745679
0.0165,1.7931937500000001,1.0,2118.961195977693,0.1694233056437561,1.336571929702265,0.8651037299951152,0.2883671375,0.6387733932923905
0.017,1.792775,1.0,2159.3981755345926,0.1740821833939456,1.335967626398954,0.8711046460354996,0.28834955,0.6400693686602452
0.0175,1.7923437500000001,1.0,2197.725154503166,0.17871492965094432,1.3353829162569164,0.8766967647849303,0.2883314375,0.6413211080453004
0.018000000000000002,1.7919,1.0,2234.0174560393557,0.18332169021870315,1.3348163847619214,0.8819155496560274,0.2883128,0.6425318510681026
0.0185,1.79144375,1.0,2268.348721306039,0.18790260999856162,1.3342667191426958,0.8867928311904905,0.2882936375,0.643704593346869
0.019,1.790975,1.0,2300.8000974768233,0.1924578338918593,1.3337326066279656,0.8913572014858158,0.28827395,0.6448423063561977
0.0195,1.79049375,1.0,2331.4538166525426,0.1969875060233723,1.333212791341642,0.8956343989702955,0.2882537375,0.6459478178772682
0.02,1.79,1.0,2360.3952945644546,0.20149177079129177,1.3327060461949667,0.8996476260503016,0.288233,0.6470238738052063
0.0205,1.78949375,1.0,2387.704378631484,0.20597077154823928,1.3322112518892304,0.9034178504441973,0.2882117375,0.648072972315658
0.021,1.788975,1.0,2413.4432732097475,0.21042464855478402,1.3317275059901676,0.9069640745664872,0.28818995000000003,0.6490971357447172
0.021500000000000002,1.78844375,1.0,2437.67810146281,0.2148535420714951,1.3312539060635125,0.91030350480795,0.2881676375,0.650098372824189
0.022,1.7879,1.0,2460.4785803794157,0.21925759235894166,1.3307895496749993,0.91345174604549,0.2881448,0.6510786792914898
0.0225,1.78734375,1.0,2481.9130952507617,0.22363693882538516,1.330333578415825,0.9164229811461666,0.28812143749999997,0.652039945698329
0.023,1.786775,1.0,2502.0487517364986,0.22799172058223052,1.3298851737779418,0.9192301202463655,0.28809755,0.6529839672241617
0.0235,1.78619375,1.0,2520.9589895409094,0.2323220777071374,1.3294434819449854,0.9218849194999116,0.28807313749999996,0.6539126026912121
0.024,1.7856,1.0,2538.693450398428,0.2366281453506978,1.3290078962149954,0.9243981483022928,0.2880482,0.6548271818500728
0.0245,1.78499375,1.0,2555.3036279182747,0.2409100586635037,1.3285778098860113,0.9267796464178506,0.2880227375,0.6557290269467866
0.025,1.784375,1.0,2570.8427135929333,0.24516795279614717,1.3281526162560728,0.9290384169783691,0.28799675,0.656619452947368
0.025500000000000002,1.78374375,1.0,2585.365450967816,0.2494019628992202,1.3277317086232194,0.9311827090476704,0.2879702375,0.6574997677388559
0.026000000000000002,1.7831000000000001,1.0,2598.922285316452,0.2536122227731217,1.3273145334998095,0.933220099102435,0.2879432,0.6583711612238586
0.0265,1.78244375,1.0,2611.563440734744,0.257798866531499,1.3269005508771394,0.935157549806004,0.2879156375,0.6592347890185675
0.027,1.781775,1.0,2623.3461121527143,0.261962029282744,1.3264891663562326,0.9370014578208191,0.28788755,0.6600919140689168
0.0275,1.7810937500000001,1.0,2634.3070958965013,0.2661018406985993,1.326079983998106,0.9387577425083278,0.2878589375,0.660943380216183
0.028,1.7804,1.0,2644.4839685009156,0.2702184304508078,1.3256726078637766,0.9404318620980993,0.2878298,0.6617900270637972
0.0285,1.77969375,1.0,2653.91501955922,0.2743119282111123,1.3252666420142611,0.9420288556616039,0.2878001375,0.6626326900279544
0.029,1.778975,1.0,2662.6391880484525,0.27838246365125546,1.3248616905105768,0.9435533807593046,0.28776995,0.6634722003782214
0.029500000000000002,1.7782437500000001,1.0,2670.696002130462,0.28243016644298014,1.3244573574137404,0.945009747254151,0.2877392375,0.6643093852681516
0.03,1.7775,1.0,2678.1190748659274,0.2864551635119852,1.324053305950165,0.9464019546752014,0.287708,0.665144945480768
0.0305,1.77674375,1.0,2684.9491703997646,0.290457585636762,1.3236491378990505,0.9477337053377476,0.2876762375,0.6659797051568923
0.031,1.775975,1.0,2691.2169374903237,0.29443755918389375,1.3232445516147806,0.9490084472631191,0.28764395,0.6668142852403043
0.0315,1.7751937500000001,1.0,2696.9485507934432,0.2983952083736913,1.3228392894961891,0.9502293895136483,0.2876111375,0.6676492128749867
0.032,1.7744,1.0,2702.1704748419793,0.30233065742646575,1.3224330939421107,0.9513995172289095,0.2875778,0.6684850125348151
0.0325,1.77359375,1.0,2706.9094364001066,0.306244030562528,1.32202570735138,0.952521609993482,0.2875439375,0.6693222060103425
0.033,1.772775,1.0,2711.1923982879175,0.31013545200218917,1.3216168721228312,0.9535982584866382,0.28750955,0.6701613123913471
0.0335,1.7719437500000002,1.0,2715.04645105642,0.3140050458670439,1.3212063314174092,0.954631879653175,0.2874746375,0.6710028464839588
0.034,1.7711000000000001,1.0,2718.492993065527,0.31785292728382025,1.3207938819519953,0.955624733986465,0.2874392,0.6718472107849787
0.0345,1.7702437500000001,1.0,2721.567597506576,0.32167923224315625,1.3203791928039132,0.9565789255636469,0.2874032375,0.6726950663849267
0.035,1.7693750000000001,1.0,2724.2870967828358,0.325484078606422,1.3199621050568144,0.9574964365372535,0.28736675,0.6735467197946813
0.035500000000000004,1.76849375,1.0,2726.668430629367,0.32926758423498753,1.3195424597943513,0.9583791225963755,0.2873297375,0.6744024757288757
0.036000000000000004,1.7676,1.0,2728.7286349536103,0.3330298669902229,1.3191200981001754,0.9592287224858568,0.2872922,0.6752626370807859
0.0365,1.76669375,1.0,2730.4848312368463,0.3367710447334982,1.3186948610579388,0.9600468667051494,0.2872541375,0.676127504895603
0.037,1.765775,1.0,2731.9542164945055,0.34049123532618353,1.3182665897512933,0.960835085465933,0.28721555,0.6769973783420982
0.0375,1.76484375,1.0,2733.154053797358,0.344190556629649,1.317835125263891,0.9615948159792292,0.2871764375,0.6778725546826747
0.038,1.7639,1.0,2734.1016633518075,0.3478691265052645,1.3174003086793835,0.9623274091352974,0.28713679999999997,0.6787533292418114
0.0385,1.76294375,1.0,2734.8144141409393,0.35152706281440027,1.3169619810814228,0.9630341356330295,0.28709663750000003,0.6796399953728947
0.039,1.761975,1.0,2735.3020618718006,0.3551644736343222,1.3165200530540484,0.963716196137089,0.28705595,0.6805327041283877
0.0395,1.7609937500000001,1.0,2735.5830540587704,0.3587814823376388,1.3160743565557835,0.9643747174435989,0.2870147375,0.6814317638005338
0.04,1.76,1.0,2735.67528940135,0.3623782112655331,1.3156247287885185,0.9650107619557693,0.286973,0.6823374699527236
0.0405,1.7589937500000001,1.0,2735.5878985174168,0.3659547706643867,1.315171086764039,0.9656253366364335,0.2869307375,0.6832499555738988
0.041,1.757975,1.0,2735.3300297482283,0.3695112707805812,1.3147133474941295,0.9662193919789533,0.28688795,0.6841693523885182
0.0415,1.75694375,1.0,2734.9108462336453,0.3730478218604982,1.3142514279905757,0.966793825758474,0.2868446375,0.6850957908350894
0.042,1.7559,1.0,2734.33952314082,0.37656453415051916,1.3137852452651626,0.9673494864965841,0.28680079999999997,0.6860294000442658
0.0425,1.75484375,1.0,2733.6252450449165,0.38006151789702575,1.3133147163296754,0.9678871766639978,0.2867564375,0.6869703078165019
0.043000000000000003,1.753775,1.0,2732.777203462431,0.3835388833463996,1.312839758195899,0.9684076556435408,0.28671155,0.6879186405992712
0.043500000000000004,1.75269375,1.0,2731.8045945380613,0.3869967407450221,1.312360287875619,0.9689116424736208,0.28666613750000003,0.6888745234638405
0.044,1.7516,1.0,2730.716616883192,0.3904352003392749,1.3118762223806202,0.969399818390489,0.2866202,0.6898380800816134
0.0445,1.75049375,1.0,2729.5224695679544,0.3938543723755398,1.311387478722688,0.9698728291859051,0.2865737375,0.690809432700024
0.045,1.7493750000000001,1.0,2728.2313502655343,0.39725436710019807,1.3108939739136072,0.9703312873953012,0.28652675,0.6917887021180018
0.0455,1.74824375,1.0,2726.847909081222,0.40063528012789207,1.3103956662927239,0.9707757753889812,0.2864792375,0.6927759258504337
0.046,1.7471,1.0,2725.3816948981357,0.4039972341028389,1.3098924696397996,0.9712068466205136,0.2864312,0.6937712285093939
0.0465,1.7459437500000001,1.0,2723.839190777625,0.40734033894186494,1.30938432557529,0.9716250271546543,0.28638263750000004,0.6947746782153157
0.047,1.744775,1.0,2722.224906243673,0.4106646969662737,1.3088711936473651,0.9720308173233791,0.28633355,0.6957863065524613
0.0475,1.74359375,1.0,2720.543348545565,0.41397041049736844,1.3083530334041955,0.9724246929751733,0.28628393750000003,0.69680614410214
0.048,1.7424,1.0,2718.7990220857528,0.4172575818564526,1.3078298043939518,0.9728071068985671,0.2862338,0.6978342204297876
0.0485,1.74119375,1.0,2716.996427885452,0.42052631336482954,1.3073014661648041,0.9731784901501229,0.2861831375,0.6988705640719444
0.049,1.739975,1.0,2715.1400630853323,0.4237767073438026,1.306767978264923,0.9735392532941098,0.28613195,0.699915202523124
0.0495,1.73874375,1.0,2713.2344204832784,0.42700886611467526,1.3062293002424792,0.9738897875604916,0.2860802375,0.7009681622225814
0.05,1.7375,1.0,2711.2839881080376,0.43022289199875074,1.3056853916456428,0.9742304659273101,0.286028,0.7020294685409758
0.0505,1.73624375,1.0,2709.293248829149,0.4334188873173325,1.3051362120225845,0.9745616441330321,0.2859752375,0.7030991457669273
0.051000000000000004,1.734975,1.0,2707.2666800035395,0.43659695439172397,1.3045817209214743,0.9748836616239827,0.28592195,0.704177217093473
0.051500000000000004,1.73369375,1.0,2705.2087531577567,0.4397571955432284,1.304021877890483,0.9751968424415651,0.2858681375,0.7052637046044139
0.052000000000000005,1.7324,1.0,2703.1236666482114,0.44289971242389414,1.3034566449170588,0.9755014961376247,0.2858138,0.7063586245398026
0.0525,1.73109375,1.0,2701.013133096607,0.4460246024402455,1.3028860066475976,0.975797919452559,0.28575893750000003,0.7074619482687229
0.053,1.729775,1.0,2698.880618499381,0.4491319671116148,1.3023099316804791,0.9760863954534739,0.28570355000000003,0.7085736773193368
0.0535,1.72844375,1.0,2696.7281653676637,0.4522219029674268,1.3017284015847026,0.9763671951072861,0.2856476375,0.7096937872357795
0.054,1.7271,1.0,2694.557813252331,0.4552945065371065,1.3011413979292668,0.9766405776333705,0.2855912,0.7108222527206857
0.0545,1.7257437500000001,1.0,2692.3715986702473,0.4583498743500787,1.3005489022831702,0.9769067911097304,0.2855342375,0.7119590476287673
0.055,1.724375,1.0,2690.171555037352,0.4613881029357682,1.2999508962154125,0.9771660730429581,0.28547675,0.7131041449603662
0.0555,1.72299375,1.0,2687.9597126106805,0.46440928882359994,1.2993473612949917,0.977418650904429,0.2854187375,0.7142575168549927
0.056,1.7216,1.0,2685.738098436223,0.4674135285429988,1.2987382790909074,0.9776647426350009,0.2853602,0.7154191345848313
0.0565,1.72019375,1.0,2683.5137955767045,0.4704009175002558,1.298123584792921,0.9779045543270144,0.28530113749999997,0.7165890567290119
0.057,1.718775,1.0,2681.2806455022155,0.47337154968209605,1.297503334921941,0.978138290420089,0.28524155,0.7177671100456743
0.0575,1.71734375,1.0,2679.043139438431,0.47632551884993446,1.2968774883837113,0.9783661414390803,0.2851814375,0.7189533064125617
0.058,1.7159,1.0,2676.8041933285153,0.47926291856846587,1.2962460184745521,0.9785882909821799,0.2851208,0.720147629266503
0.0585,1.71444375,1.0,2674.5674139621924,0.4821838419403863,1.2956088921024755,0.9788049148732034,0.2850596375,0.7213500730546778
0.059000000000000004,1.7129752114452697,1.0,2672.336399711434,0.4850883811332424,1.2949661716888872,0.9790161871259235,0.28499795888070134,0.7225604514005164
0.059500000000000004,1.71150251060419,1.0,2670.4994521347603,0.48797662810445364,1.2943179586851403,0.9792222770065225,0.28493610544537595,0.7237785050874108
0.06,1.7100298097631104,1.0,2669.220483709947,0.4908486744524599,1.293664622450288,0.9794233616714495,0.2848742520100506,0.7250034742382967
0.0605,1.7085571089220306,1.0,2668.4553876027376,0.49370461080863676,1.2930065647746334,0.9796196131205003,0.2848123985747253,0.726234544001813
0.061,1.7070844080809509,1.0,2668.168862215766,0.49654452598542814,1.2923441081716809,0.979811192429569,0.2847505451393999,0.7274710536266089
0.0615,1.705611707239871,1.0,2668.314333472856,0.4993685117034356,1.2916776800979715,0.9799982603609732,0.28468869170407457,0.7287121522087545
0.062,1.7041390063987913,1.0,2668.8481189761787,0.5021766595413585,1.2910076824194752,0.9801809703214241,0.28462683826874924,0.7299570432807586
0.0625,1.7026663055577118,1.0,2669.7448351352446,0.5049690567333892,1.290334349501485,0.9803594610082997,0.2845649848334239,0.7312052471286657
0.063,1.701193604716632,1.0,2670.9791588057387,0.5077457905137199,1.2896579157092936,0.9805338660132797,0.2845031313980986,0.7324562878410326
0.0635,1.6997209038755523,1.0,2672.5258105674898,0.510506948116543,1.2889786154081941,0.9807043140546188,0.2844412779627732,0.733709693357025
0.064,1.6982482030344725,1.0,2674.359539221069,0.5132526167760506,1.2882966829634794,0.9808709291972649,0.28437942452744785,0.7349649955110173
0.0645,1.696775502193393,1.0,2676.4551075009385,0.5159828837264352,1.2876123527404424,0.9810338310615349,0.2843175710921225,0.7362217300736842
0.065,1.6953028013523133,1.0,2678.787279007617,0.5186978362018888,1.286925859104376,0.9811931350210219,0.28425571765679714,0.7374794367895912
0.0655,1.6938301005112335,1.0,2681.3403022201583,0.5213975575841178,1.2862373493349952,0.9813489478082715,0.2841938642214718,0.7387378183854462
0.066,1.6923573996701538,1.0,2684.08633886348,0.5240821383482855,1.2855470814813954,0.9815013783533935,0.28413201078614647,0.7399963783719941
0.0665,1.6908846988290742,1.0,2687.0102237368174,0.5267516628700657,1.284855197172137,0.9816505257292829,0.2840701573508211,0.7412548362373182
0.067,1.6894119979879945,1.0,2690.0998535673757,0.5294062140875594,1.2841618098616259,0.9817964841372293,0.28400830391549575,0.7425129649750166
0.0675,1.6879392971469147,1.0,2693.3431124208923,0.5320458749388679,1.2834670330042688,0.9819393445574064,0.2839464504801704,0.7437705395400408
0.068,1.686466596305835,1.0,2696.7278680641225,0.5346707283620925,1.2827709800544718,0.9820791948844596,0.28388459704484503,0.7450273368591631
0.0685,1.6849938954647552,1.0,2700.2419686120625,0.5372808572953343,1.2820737644666411,0.9822161200565094,0.2838227436095197,0.7462831358406182
0.069,1.6835211946236757,1.0,2703.8732394604904,0.5398763446766944,1.281375499695183,0.982350202177928,0.28376089017419437,0.7475377173829276
0.0695,1.682048493782596,1.0,2707.609480504232,0.5424572734442742,1.2806762991945035,0.9824815206362385,0.28369903673886904,0.7487908643829002
0.07,1.6805757929415162,1.0,2711.444324202329,0.5450237208914659,1.2799762229716192,0.9826101493798594,0.2836371833035437,0.7500424571764865
0.07050000000000001,1.6791030921004364,1.0,2715.3640646705926,0.5475757739298287,1.2792753977886728,0.9827361636122794,0.2835753298682183,0.7512922582588603
0.07100000000000001,1.6776303912593566,1.0,2719.3576601926143,0.5501135168822375,1.278573925818707,0.9828596348242029,0.283513476432893,0.7525400760649028
0.07150000000000001,1.6761576904182771,1.0,2723.420109399985,0.5526370278120954,1.277871853997212,0.9829806293209266,0.28345162299756765,0.7537858187377299
0.07200000000000001,1.6746849895771974,1.0,2727.546398053824,0.5551463847828054,1.2771692292596784,0.9830992112866682,0.28338976956224227,0.7550293952538134
0.0725,1.6732122887361176,1.0,2731.731498445334,0.5576416658577704,1.2764660985415963,0.983215442867677,0.28332791612691693,0.7562707154247078
0.073,1.671739587895038,1.0,2735.970368844223,0.5601229491003937,1.2757625087784563,0.983329384251576,0.2832660626915916,0.7575096898986347
0.0735,1.6702668870539583,1.0,2740.257952997104,0.5625903125740781,1.2750585069057485,0.9834410937431314,0.2832042092562662,0.758746230161927
