Time [s],Phi [rad],STIM [ ],Fsee [N],Gamma [ ],Lcerel [ ],q [ ],Lmtc [m],fisomrel [ ]
0.0,1.8,1.0,18.017132349080526,0.00023008441640551372,1.3793341513278425,0.005013763896386371,0.288653,0.5411530664425557
0.0005,1.79999375,1.0,18.398206674780653,0.005838003133622445,1.379288918008972,0.013562800171700761,0.2886527375,0.5412624893991815
0.001,1.799975,1.0,21.90332901030595,0.011414465860722648,1.3789092941994154,0.036764655781732596,0.28865195,0.5421803149531277
0.0015,1.79994375,1.0,31.707459010438587,0.016959649041918812,1.377992105727863,0.07217819669518263,0.2886506375,0.544394030635893
0.002,1.7999,1.0,54.92328390177946,0.022473728129571935,1.376281678787688,0.11658104938897064,0.2886488,0.5485079662267833
0.0025,1.79984375,1.0,99.34382833055714,0.02795687759301533,1.373828562182358,0.16659926403494496,0.28864643749999996,0.5543756571960168
0.003,1.7997750000000001,1.0,163.83445128843113,0.033409270924406605,1.371107158415154,0.2193673468441473,0.28864354999999997,0.5608401689191003
0.0035,1.79969375,1.0,240.9228964429172,0.03883108063991236,1.368485284785559,0.27268746123368315,0.2886401375,0.5670235806648769
0.004,1.7996,1.0,324.907324876532,0.044222478289952155,1.3660652078040592,0.3249237948310711,0.2886362,0.572692167204627
0.0045000000000000005,1.7994937500000001,1.0,412.8264901723606,0.04958363446456225,1.3638394578002153,0.37494009231469994,0.2886317375,0.5778726050626446
0.005,1.799375,1.0,503.0415659974892,0.05491471878526276,1.361781385846694,0.42202992250821403,0.28862675,0.5826346583381553
0.0055,1.79924375,1.0,594.4481082589604,0.06021589994307782,1.3598674828917232,0.46582374995543996,0.2886212375,0.5870388863430336
0.006,1.7991000000000001,1.0,686.1772710984477,0.06548734566568319,1.3580799898194549,0.5061962103678357,0.2886152,0.5911311252898568
0.006500000000000001,1.79894375,1.0,777.515786650135,0.07072922272908203,1.3564052825026949,0.5431870477007986,0.2886086375,0.5949466664673925
0.007,1.798775,1.0,867.8759846554846,0.07594169705292024,1.3548324622906622,0.5769400677681814,0.28860155,0.5985137873238067
0.0075,1.79859375,1.0,956.7670523543799,0.0811249334088601,1.35335262893515,0.6076589041588709,0.2885939375,0.6018556110478895
0.008,1.7984,1.0,1043.8127981459363,0.08627909607695912,1.3519578302420492,0.6355760032778677,0.2885858,0.6049926203166738
0.0085,1.79819375,1.0,1128.6916431785733,0.09140434787983928,1.3506414655310965,0.6609327279666519,0.2885771375,0.6079418451856022
0.009000000000000001,1.797975,1.0,1211.1576597028231,0.09650085090537473,1.3493975554387132,0.6839661831398005,0.28856795,0.6107185849918729
0.0095,1.79774375,1.0,1291.0533583631752,0.10156876690692108,1.348220318937297,0.7049014493787156,0.2885582375,0.6133374026760433
0.01,1.7975,1.0,1368.2393204562507,0.1066082558046463,1.3471049204805676,0.7239479616588286,0.288548,0.6158105043947029
0.0105,1.79724375,1.0,1442.6253934856334,0.11161947694218977,1.3460468450428695,0.7412974120661457,0.2885372375,0.6181491742215441
0.011,1.796975,1.0,1514.1766882057989,0.11660258916695934,1.345041701457373,0.7571233730118863,0.28852595000000003,0.6203642355082943
0.0115,1.79669375,1.0,1582.876751298376,0.12155775041293727,1.3440855758510633,0.7715820657492715,0.2885141375,0.6224652949338081
0.012,1.7964,1.0,1648.7145599791895,0.12648511682894992,1.3431750713530188,0.7848134375055398,0.28850180000000003,0.62446068367937
0.0125,1.79609375,1.0,1711.7155203175773,0.1313848442039023,1.342306851735966,0.7969422737253359,0.2884889375,0.6263584797659802
0.013000000000000001,1.7957750000000001,1.0,1771.9345975927638,0.1362570882861732,1.3414776716023615,0.8080796353499375,0.28847555,0.628166453434406
0.0135,1.79544375,1.0,1829.4264885306936,0.14110200368582582,1.3406846623617217,0.818324373215353,0.2884616375,0.6298914567330347
0.014,1.7951000000000001,1.0,1884.2355336081964,0.14591974261906707,1.3399253810519205,0.8277644570535584,0.2884472,0.6315393345558248
0.0145,1.79474375,1.0,1936.4299113198115,0.15071045730210383,1.3391973847108316,0.8364780413774305,0.2884322375,0.6331158616241458
0.015,1.794375,1.0,1986.0934209788504,0.15547429946787533,1.3384982959176568,0.8445346201181456,0.28841675,0.6346266060613599
0.0155,1.79399375,1.0,2033.3147600024467,0.1602114205965019,1.3378258915193921,0.8519960693101752,0.2884007375,0.6360767443211988
0.016,1.7936,1.0,2078.1799439659076,0.16492197128988462,1.3371781548937143,0.8589175589665525,0.2883842,0.6374709561941021
0.0165,1.7931937500000001,1.0,2120.755010188335,0.16960609929859716,1.3365534280100402,0.8653483873233403,0.2883671375,0.6388131061692943
0.017,1.792775,1.0,2161.1181627496962,0.1742639523732131,1.3359500528377863,0.8713325685800685,0.28834955,0.6401070216782161
0.0175,1.7923437500000001,1.0,2199.3587495819015,0.17889567826430613,1.3353663713463697,0.8769094574324673,0.2883314375,0.6413564954399518
0.018000000000000002,1.7919,1.0,2235.560253737775,0.1835014231637801,1.3348008866740684,0.8821143390397007,0.2883128,0.642564943502097
0.0185,1.79144375,1.0,2269.8221537501377,0.18808133503557206,1.3342520301441443,0.8869788440922097,0.2882936375,0.6437359067108357
0.019,1.790975,1.0,2302.2155905516784,0.19263555774032642,1.3337185949901604,0.8915314767576827,0.28827395,0.6448721280541878
0.0195,1.79049375,1.0,2332.8111133954817,0.1971642343371044,1.3331994442825807,0.8957979002637292,0.2882537375,0.6459761808985311
0.02,1.79,1.0,2361.6850599247,0.20166750788496723,1.3326934410918692,0.8998012427349826,0.288233,0.6470506194338361
0.0205,1.78949375,1.0,2388.91906812725,0.2061455214429762,1.3321994484884898,0.9035623817633323,0.2882117375,0.6480979796681863
0.021,1.788975,1.0,2414.5827559950676,0.21059841579949262,1.3317164924904248,0.907100228314704,0.28818995000000003,0.649120435618144
0.021500000000000002,1.78844375,1.0,2438.765533575266,0.2150263350731435,1.331243447960194,0.9104318776763356,0.2881676375,0.6501204661461807
0.022,1.7879,1.0,2461.5265798193477,0.21942941795565846,1.3307795175624324,0.9135729002458052,0.2881448,0.6510998429884072
0.0225,1.78734375,1.0,2482.9242858346165,0.2238078025423916,1.3303239405055047,0.9165374465120298,0.28812143749999997,0.6520602497733283
0.023,1.786775,1.0,2503.019773541593,0.22816162692869696,1.3298759559977755,0.9193383898100544,0.28809755,0.653003359867837
0.0235,1.78619375,1.0,2521.876665965434,0.2324910292099286,1.329434803247609,0.921987459265413,0.28807313749999996,0.6539308367640596
0.024,1.7856,1.0,2539.5545091469507,0.2367961461842026,1.3289997814077232,0.924495367554272,0.2880482,0.6548442086532855
0.0245,1.78499375,1.0,2556.1154866571233,0.24107711530939507,1.32857018361735,0.9268719028644901,0.2880227375,0.6557450077731534
0.025,1.784375,1.0,2571.6228538256164,0.245334073868554,1.3281453100930833,0.929126023132989,0.28799675,0.6566347431885018
0.025500000000000002,1.78374375,1.0,2586.1203849185395,0.24956715466741186,1.3277246583870692,0.9312659677434896,0.2879702375,0.6575145034600727
0.026000000000000002,1.7831000000000001,1.0,2599.6531284188977,0.2537764905117012,1.327307726051454,0.9332992962587636,0.2879432,0.6583853713872012
0.0265,1.78244375,1.0,2612.2672999067504,0.2579622142071544,1.3268940106383844,0.9352329536867439,0.2879156375,0.6592484241350505
0.027,1.781775,1.0,2624.0101805368786,0.26212445855950406,1.326483009700006,0.9370733286852312,0.28788755,0.6601047333457455
0.0275,1.7810937500000001,1.0,2634.9288350548104,0.2662633558356519,1.326074231761053,0.9388263069741954,0.2878589375,0.6609553424153033
0.028,1.7804,1.0,2645.0643073493943,0.27037903565333976,1.3256672489751944,0.9404973245639602,0.2878298,0.6618011573499003
0.0285,1.77969375,1.0,2654.4669071339404,0.27447163323620954,1.3252615548950855,0.9420913912684477,0.2878001375,0.6626432426888753
0.029,1.778975,1.0,2663.16909050446,0.2785412758091646,1.324856814040713,0.9436131589386677,0.28776995,0.6634823034799666
0.029500000000000002,1.7782437500000001,1.0,2671.2038516657476,0.28258809059710804,1.3244526909320644,0.9450669322347386,0.2877392375,0.6643190412848925
0.03,1.7775,1.0,2678.6046750996247,0.2866122048249432,1.3240488500891265,0.9464566989820279,0.287708,0.665154154196157
0.0305,1.77674375,1.0,2685.405490228658,0.29061374571757337,1.3236449560318866,0.9477861575125502,0.2876762375,0.6659883368466779
0.031,1.775975,1.0,2691.6406285751027,0.2945928404999017,1.3232406732803315,0.9490587413237878,0.28764395,0.6668222804122386
0.0315,1.7751937500000001,1.0,2697.341294665369,0.2985496141360879,1.3228356982543306,0.9502776446155686,0.2876111375,0.6676566069280575
0.032,1.7744,1.0,2702.533536008919,0.30248418973172986,1.322429777318272,0.9514458444368263,0.2875778,0.6684918325844691
0.0325,1.77359375,1.0,2707.258930746764,0.30639670209067515,1.322022517454435,0.9525660997497026,0.2875439375,0.6693287571821047
0.033,1.772775,1.0,2711.537867518356,0.3102872718591622,1.3216137214540669,0.953641001039297,0.28750955,0.670167774784649
0.0335,1.7719437500000002,1.0,2715.3909192225333,0.31415601968342927,1.3212031921084144,0.9546729650451025,0.2874746375,0.671009277357669
0.034,1.7711000000000001,1.0,2718.838825481932,0.3180030662097147,1.3207907322087242,0.9556642484826948,0.2874392,0.6718536547480567
0.0345,1.7702437500000001,1.0,2721.9024759704994,0.3218285320842568,1.3203761445462436,0.9566169605274369,0.2874032375,0.6727012946609834
0.035,1.7693750000000001,1.0,2724.60289460234,0.32563253795329405,1.319959231912219,0.9575330741849132,0.28736675,0.673552582634384
0.035500000000000004,1.76849375,1.0,2726.9612245836793,0.3294152044630646,1.3195397970978977,0.9584144366590045,0.2873297375,0.6744079020109515
0.036000000000000004,1.7676,1.0,2728.9987143264966,0.33317665225980697,1.3191176428945266,0.9592627788163954,0.2872922,0.6752676339076575
0.0365,1.76669375,1.0,2730.7367042250876,0.33691700198975927,1.318692572093352,0.9600797238355978,0.2872541375,0.6761321571827923
0.037,1.765775,1.0,2732.182443950986,0.34063636577195455,1.318264516225272,0.9608668060692344,0.28721555,0.6770015870914975
0.0375,1.76484375,1.0,2733.3665621740743,0.34433487125357254,1.3178331949722288,0.9616254492151163,0.2871764375,0.6778764673907691
0.038,1.7639,1.0,2734.3074063749204,0.34801263639441077,1.317398440162633,0.962357000292055,0.28713679999999997,0.6787571115507891
0.0385,1.76294375,1.0,2735.0166188068865,0.3516697747360988,1.3169601449380335,0.963062731296665,0.28709663750000003,0.6796437070180511
0.039,1.761975,1.0,2735.505878314747,0.3553063998202662,1.3165182024399789,0.9637438396122104,0.28705595,0.6805364398091982
0.0395,1.7609937500000001,1.0,2735.7868954754404,0.3589226251885426,1.3160725058100176,0.964401453186609,0.2870147375,0.681435494486532
0.04,1.76,1.0,2735.8714079904744,0.36251856438255764,1.3156229481896986,0.9650366352977479,0.286973,0.6823410541327897
0.0405,1.7589937500000001,1.0,2735.7711763328866,0.366094330943941,1.3151694227205704,0.9656503889430382,0.2869307375,0.683253300325199
0.041,1.757975,1.0,2735.4979796461535,0.36965003841432215,1.3147118225441818,0.9662436608864826,0.28688795,0.6841724131087992
0.0415,1.75694375,1.0,2735.063611897329,0.37318580033533083,1.3142500408020816,0.9668173453932891,0.2868446375,0.6850985709690371
0.042,1.7559,1.0,2734.479878282688,0.37670173024859654,1.3137839706358183,0.9673722876791353,0.28680079999999997,0.686031950803635
0.0425,1.75484375,1.0,2733.748386410452,0.3801979336291452,1.31331359787867,0.9679092934388371,0.2867564375,0.6869725426796015
0.043000000000000003,1.753775,1.0,2732.8885326476016,0.38367453015178205,1.3128387468729268,0.9684291142403705,0.28671155,0.6879206583385742
0.043500000000000004,1.75269375,1.0,2731.911594932304,0.3871316307612661,1.312359315702323,0.9689324662817842,0.28666613750000003,0.6888764601210986
0.044,1.7516,1.0,2730.823846631236,0.3905693421836956,1.3118752479294453,0.9694200310795027,0.2866202,0.689840018268326
0.0445,1.75049375,1.0,2729.6315631896323,0.393987771145169,1.311386487116881,0.9698924547139004,0.2865737375,0.6908114019164813
0.045,1.7493750000000001,1.0,2728.3410209041517,0.3973870243717843,1.3108929768272166,0.9703503500159745,0.28652675,0.6917906790800759
0.0455,1.74824375,1.0,2726.9584957667657,0.40076720858963993,1.310394660623039,0.9707942985984915,0.2864792375,0.6927779166349122
0.046,1.7471,1.0,2725.490262379459,0.40412843052483405,1.3098914820669352,0.9712248527440703,0.2864312,0.6937731803008877
0.0465,1.7459437500000001,1.0,2723.9425929392905,0.40747079690346494,1.309383384721492,0.9716425371615564,0.28638263750000004,0.694776534624596
0.047,1.744775,1.0,2722.321756294204,0.41079441445163084,1.308870312149296,0.9720478506210485,0.28633355,0.6957880429617235
0.0475,1.74359375,1.0,2720.634017069525,0.41409938989543,1.3083522079129344,0.9724412674770314,0.28628393750000003,0.6968077674592427
0.048,1.7424,1.0,2718.8821158504607,0.4173858201866969,1.3078290476238894,0.9728232401154824,0.2862338,0.6978357061191621
0.0485,1.74119375,1.0,2717.0741931796288,0.42065382050069,1.3073007576881304,0.9731941980629706,0.2861831375,0.6988719525647353
0.049,1.739975,1.0,2715.2155471442247,0.42390349608456424,1.306767290336133,0.9735545509593376,0.28613195,0.6999165484050598
0.0495,1.73874375,1.0,2713.309749365528,0.42713494690684767,1.30622861348685,0.9739046895899083,0.2860802375,0.7009695034500047
0.05,1.7375,1.0,2711.3603678491604,0.43034827293606837,1.3056846950592336,0.9742449865241123,0.286028,0.7020308265514776
0.0505,1.73624375,1.0,2709.3709666864183,0.4335435741407545,1.3051355029722365,0.9745757971251291,0.2859752375,0.7031005255927305
0.051000000000000004,1.734975,1.0,2707.345105778881,0.43672095048943416,1.304581005144811,0.9748974604948523,0.28592195,0.704178607477604
0.051500000000000004,1.73369375,1.0,2705.2863405854464,0.4398805019506354,1.3040211694959094,0.9752103003588487,0.2858681375,0.7052650781197052
0.052000000000000005,1.7324,1.0,2703.198221892116,0.44302232849288636,1.3034559639444845,0.9755146258956269,0.2858138,0.706359942431517
0.0525,1.73109375,1.0,2701.0842956052606,0.4461465300847151,1.3028853564094884,0.9758107325141631,0.28575893750000003,0.7074632043134477
0.053,1.729775,1.0,2698.948102566715,0.44925320669464985,1.3023093148098739,0.9760989025833473,0.28570355000000003,0.708574866642808
0.0535,1.72844375,1.0,2696.793178392679,0.45234245829121855,1.3017278070645932,0.9763794061167,0.2856476375,0.7096949312627283
0.054,1.7271,1.0,2694.6163884992643,0.4554143568308413,1.3011408620642657,0.9766525023470936,0.2855912,0.7108232818724199
0.0545,1.7257437500000001,1.0,2692.4240888361714,0.4584690273578893,1.3005484218912364,0.9769184393911806,0.2855342375,0.7119599684269367
0.055,1.724375,1.0,2690.2212842779827,0.4615065798941355,1.2999504409053901,0.9771774540055437,0.28547675,0.7131050159459887
0.0555,1.72299375,1.0,2688.0092236466494,0.46452710604871633,1.2993469077963253,0.9774297732012313,0.2854187375,0.7142583826300328
0.056,1.7216,1.0,2685.7891537947626,0.4675306974307679,1.2987378112536396,0.9776756144948767,0.2853602,0.7154200259164056
0.0565,1.72019375,1.0,2683.5623195835115,0.47051744564942666,1.2981231399669309,0.9779151863813829,0.28530113749999997,0.7165899024753117
0.057,1.718775,1.0,2681.3299638638646,0.4734874423138287,1.2975028826257968,0.9781486887793458,0.28524155,0.7177679682058079
0.0575,1.71734375,1.0,2679.093327459781,0.47644077903311044,1.2968770279198356,0.9783763134509975,0.2851814375,0.7189541782317767
0.058,1.7159,1.0,2676.8536491553537,0.47937754741640815,1.296245564538645,0.9785982443983164,0.2851208,0.7201484868978938
0.0585,1.71444375,1.0,2674.61216568415,0.48229783907285795,1.2956084811718231,0.9788146582368407,0.2850596375,0.7213508477655863
0.059000000000000004,1.7129750000000001,1.0,2672.370111721216,0.4852017456115963,1.2949657665089676,0.979025724548599,0.28499795,0.7225612136089836
0.059500000000000004,1.71149375,1.0,2670.128719878442,0.48808935864175934,1.294317409239676,0.9792316062154897,0.2849357375,0.7237795364108579
0.06,1.71,1.0,2667.8892207023437,0.4909607697724834,1.293663398053547,0.9794324597343237,0.284873,0.7250057673585587
0.0605,1.7084937500000001,1.0,2665.6528426749665,0.4938160706129048,1.293003721640178,0.9796284355146883,0.2848097375,0.7262398568399397
0.061,1.7069750000000001,1.0,2663.4208122174036,0.49665535277215966,1.2923383686891667,0.9798196781606759,0.28474595,0.7274817544392755
0.0615,1.7054437500000001,1.0,2661.194353696148,0.4994787078593845,1.2916673278901116,0.9800063267374859,0.2846816375,0.72873140893317
0.062,1.7039,1.0,2658.974689432867,0.5022862274837153,1.29099058793261,0.9801885150238052,0.2846168,0.7299887682864603
0.0625,1.70234375,1.0,2656.763039715743,0.5050780032542885,1.29030813750626,0.9803663717508395,0.2845514375,0.7312537796481073
0.063,1.7007750000000001,1.0,2654.55611805253,0.5078540909152076,1.289620006821214,0.9805400202835332,0.28448555,0.7325263126558672
0.0635,1.69919375,1.0,2652.358031436456,0.5106146151068295,1.2889261579636822,0.9807095810640901,0.28441913750000003,0.7338063623863055
0.064,1.6976,1.0,2650.1703275619966,0.51335967134757,1.2882265765659227,0.9808751691117807,0.2843522,0.7350938793402051
0.0645,1.69599375,1.0,2647.993094806155,0.516089342184946,1.2875212617041354,0.9810368949709437,0.2842847375,0.7363887884823409
0.065,1.694375,1.0,2645.8264214327296,0.5188037101664743,1.2868102124545198,0.9811948651790715,0.28421675,0.7376910141319937
0.0655,1.69274375,1.0,2643.6703955941307,0.5215028578396715,1.2860934278932756,0.9813491824394098,0.2841482375,0.739000479962612
0.066,1.6911,1.0,2641.525105333477,0.5241868677520548,1.2853709070966028,0.9814999457849167,0.2840792,0.7403171090014735
0.0665,1.6894437500000001,1.0,2639.3906385864825,0.5268558224511406,1.2846426491407008,0.9816472507340716,0.2840096375,0.7416408236293492
0.067,1.687775,1.0,2637.2670831827522,0.529509804484446,1.2839086531017692,0.9817911894389905,0.28393955,0.7429715455801635
0.0675,1.68609375,1.0,2635.1545268485133,0.5321488963994875,1.2831689180560077,0.9819318508262856,0.2838689375,0.7443091959406568
0.068,1.6844000000000001,1.0,2633.0530572078515,0.5347731807437821,1.2824234430796162,0.9820693207310653,0.2837978,0.7456536951500472
0.0685,1.68269375,1.0,2630.962761785028,0.5373827400648465,1.2816722272487941,0.9822036820244577,0.2837261375,0.7470049629996929
0.069,1.680975,1.0,2628.8837280062066,0.5399776569101976,1.2809152696397414,0.9823350147350132,0.28365395,0.7483629186327531
0.0695,1.67924375,1.0,2626.8160432015825,0.5425580138273522,1.2801525693286573,0.9824633961643163,0.28358123749999997,0.7497274805438516
0.07,1.6775,1.0,2624.7597946073397,0.545123893363827,1.279384125391742,0.9825889009971266,0.283508,0.7510985665787354
0.07050000000000001,1.67574375,1.0,2622.7150693675603,0.547675378067139,1.2786099369051946,0.982711601406333,0.2834342375,0.7524760939339397
0.07100000000000001,1.673975,1.0,2620.681954536316,0.5502125504848047,1.2778300029452154,0.98283156715301,0.28335995,0.7538599791564464
0.07150000000000001,1.67219375,1.0,2618.6605370796497,0.552735493164341,1.2770443225880037,0.9829488656818265,0.2832851375,0.7552501381433487
0.07200000000000001,1.6704,1.0,2616.650903877927,0.5552442886532648,1.2762528949097591,0.9830635622120565,0.2832098,0.7566464861415102
0.0725,1.66859375,1.0,2614.655368440858,0.5577389718498912,1.2754556983069654,0.9831757160774963,0.2831339375,0.7580489740759633
0.073,1.6667750000000001,1.0,2612.672165137387,0.5602196732340168,1.2746527490417232,0.9832853919819751,0.28305755,0.7594574854713783
0.0735,1.66494375,1.0,2610.7006410965673,0.5626864787833699,1.2738440530594766,0.9833926494779532,0.2829806375,0.7608719215687455
0.074,1.6631,1.0,2608.740640314725,0.5651394621538924,1.2730296116956288,0.9834975452925846,0.2829032,0.7622921911267033
0.0745,1.6612437500000001,1.0,2606.7920070713726,0.5675786970015265,1.2722094262855834,0.9836001343437298,0.2828252375,0.7637182022999793
0.075,1.659375,1.0,2604.854585926486,0.570004256982214,1.2713834981647438,0.983700469807832,0.28274675,0.7651498626398804
0.0755,1.65749375,1.0,2602.9282217171485,0.5724162157518969,1.2705518286685133,0.9837986031848173,0.2826677375,0.7665870790947813
