Time [s],Phi [rad],STIM [ ],Fsee [N],Gamma [ ],Lcerel [ ],q [ ],Lmtc [m],fisomrel [ ]
0.0,1.8,1.0,17.966766839949454,1.033461259113252e-05,1.3793397900617417,0.0050000284578280395,0.288653,0.5411394249869699
0.0005,1.79999375,1.0,18.276247642938674,0.0056194859523821614,1.3793024429417118,0.012941444284109978,0.2886527375,0.541229772890464
0.001,1.799975,1.0,21.61813749808321,0.011197174388077318,1.3789383270408766,0.03561032453544293,0.28865195,0.5421101540161405
0.0015,1.79994375,1.0,31.069432077226857,0.016743576402553587,1.3780461870242593,0.07060409937766425,0.2886506375,0.5442636494783761
0.002,1.7999,1.0,53.58336589058074,0.02225886748703566,1.376368068236335,0.11472067266125187,0.2886488,0.5483006288649537
0.0025,1.79984375,1.0,97.12089677537654,0.02774322214866288,1.3739350728542918,0.16457775876054373,0.28864643749999996,0.5541216877852535
0.003,1.7997750000000001,1.0,160.96102749253154,0.03319681391820273,1.3712142366790845,0.2172834088990046,0.28864354999999997,0.5605867043583057
0.0035,1.79969375,1.0,237.6867371687636,0.03861981534964477,1.3685846293312467,0.27061582589142136,0.2886401375,0.5667900861630979
0.004,1.7996,1.0,321.47052693264106,0.044012398030982336,1.3661559929251226,0.3229186447727921,0.2886362,0.5724801940211021
0.0045000000000000005,1.7994937500000001,1.0,409.2717566656183,0.049374732589397036,1.3639227201336215,0.37303720590566414,0.2886317375,0.5776793806458732
0.005,1.799375,1.0,499.41767606803876,0.05470698868235187,1.361858253694464,0.4202499851951451,0.28862675,0.5824572839068655
0.0055,1.79924375,1.0,590.7946965445977,0.06000933504503001,1.359938751428919,0.46417603576806743,0.2886212375,0.5868753036345373
0.006,1.7991000000000001,1.0,682.5224533855741,0.06528193943355362,1.3581463357659433,0.5046821107400754,0.2886152,0.5909795987800643
0.006500000000000001,1.79894375,1.0,773.8853508238428,0.07052496868112597,1.356467183747808,0.541802728678079,0.2886086375,0.5948059531597785
0.007,1.798775,1.0,864.2900775235706,0.07573858867823156,1.3548903260817167,0.5756785739534612,0.28860155,0.5983828330791225
0.0075,1.79859375,1.0,953.247295527319,0.08092296438827719,1.353406716434801,0.6065115491022736,0.2885939375,0.6017337142180237
0.008,1.7984,1.0,1040.3637790257512,0.08607825984756239,1.3520085679531317,0.6345335324741138,0.2885858,0.6048787247690863
0.0085,1.79819375,1.0,1125.322547722718,0.09120463819166676,1.3506891237151462,0.6599857519025313,0.2885771375,0.6078352630991802
0.009000000000000001,1.797975,1.0,1207.8848458643356,0.09630226155220457,1.3494422445819212,0.6831055692553729,0.28856795,0.6106189977727958
0.0095,1.79774375,1.0,1287.8757460052416,0.1013712913826588,1.3482623416101664,0.7041187411163574,0.2885582375,0.6132440733935068
0.01,1.7975,1.0,1365.1585214122492,0.10641188787392246,1.3471444948853974,0.7232353286791366,0.288548,0.6157228943582981
0.0105,1.79724375,1.0,1439.6535570167896,0.11142421063507836,1.3460840207584137,0.7406476496975131,0.2885372375,0.6180671255602356
0.011,1.796975,1.0,1511.3094617846793,0.11640841821624102,1.345076709419464,0.7565300719793725,0.28852595000000003,0.6202871958425855
0.0115,1.79669375,1.0,1580.109626579383,0.12136466834668447,1.3441186190808594,0.7710394672436444,0.2885141375,0.6223927806182474
0.012,1.7964,1.0,1646.0530217311248,0.12629311773638754,1.343206211648625,0.7843163392917978,0.28850180000000003,0.6243925264215537
0.0125,1.79609375,1.0,1709.1710608118394,0.1311939226833148,1.3423360682644585,0.7964860098844022,0.2884889375,0.6262946950421939
0.013000000000000001,1.7957750000000001,1.0,1769.4934393408369,0.1360672377782144,1.3415052208108191,0.8076601673603233,0.28847555,0.6281064545885002
0.0135,1.79544375,1.0,1827.0676629759625,0.14091321673748278,1.340710860219556,0.8179381339151289,0.2884616375,0.6298345335728639
0.014,1.7951000000000001,1.0,1881.9790942669529,0.14573201451993853,1.339950074033109,0.8274081075989932,0.2884472,0.6314858009084303
0.0145,1.79474375,1.0,1934.2892828349977,0.15052378321864424,1.339220491939368,0.8361486408335389,0.2884322375,0.6330658732411134
0.015,1.794375,1.0,1984.0575698117593,0.15528867343222919,1.3385199951766547,0.8442296405347222,0.28841675,0.634579760413258
0.0155,1.79399375,1.0,2031.3616890496078,0.1600268357593228,1.3378464649832904,0.8517132936318436,0.2884007375,0.6360324174052753
0.016,1.7936,1.0,2076.2926584149636,0.1647384204719472,1.3371978193549616,0.858654990137049,0.2883842,0.63742866907608
0.0165,1.7931937500000001,1.0,2118.9402488931464,0.16942357703255195,1.3365721458001594,0.8651041680589004,0.2883671375,0.6387729294371054
0.017,1.792775,1.0,2159.396284336824,0.17408245477723056,1.3359676457256695,0.8711050001522486,0.28834955,0.6400693272498439
0.0175,1.7923437500000001,1.0,2197.7287673648257,0.17871519976243522,1.3353828796593807,0.8766970796731033,0.2883314375,0.6413211863245578
0.018000000000000002,1.7919,1.0,2234.01513028637,0.18332195804461818,1.3348164081291818,0.8819158589149726,0.2883128,0.6425318011717895
0.0185,1.79144375,1.0,2268.34144808863,0.1879028756802316,1.3342667916629614,0.8867931328572265,0.2882936375,0.6437044387479286
0.019,1.790975,1.0,2300.788374469629,0.19245809718455265,1.3337327226892892,0.8913574947016124,0.28827395,0.6448420593316135
0.0195,1.79049375,1.0,2331.452430332201,0.19698776903383453,1.3332128049760925,0.8956346507857793,0.2882537375,0.6459477889029481
0.02,1.79,1.0,2360.4046004805086,0.20149203381558606,1.3327059552342841,0.8996478391522422,0.288233,0.6470240668100846
0.0205,1.78949375,1.0,2387.710761669718,0.20597103282497875,1.3322111898560203,0.9034180566150063,0.2882117375,0.6480731037450487
0.021,1.788975,1.0,2413.441282488709,0.21042490735718417,1.3317275252334575,0.9069642854622673,0.28818995000000003,0.6490970950334369
0.021500000000000002,1.78844375,1.0,2437.6706474387147,0.21485379870737376,1.3312539777587529,0.9103037143724317,0.2881676375,0.6500982213616189
0.022,1.7879,1.0,2460.4687647087644,0.2192578465570693,1.3307896436468962,0.9134519480612554,0.2881448,0.651078481045789
0.0225,1.78734375,1.0,2481.9111082550744,0.2236371924936338,1.3303335973563102,0.9164231579469514,0.28812143749999997,0.6520399057960432
0.023,1.786775,1.0,2502.060772948192,0.22799197528065604,1.3298850596512528,0.9192302631340028,0.28809755,0.6529842073306422
0.0235,1.78619375,1.0,2520.97138930574,0.23232233112357206,1.3294433646667558,0.9218850537120525,0.28807313749999996,0.6539128490977262
0.024,1.7856,1.0,2538.698721174847,0.23662839622781795,1.3290078465378519,0.9243982867152734,0.2880482,0.6548272860858588
0.0245,1.78499375,1.0,2555.300486285856,0.24091030679882972,1.328577839399573,0.9267797908682435,0.2880227375,0.6557289651004732
0.025,1.784375,1.0,2570.8361866360983,0.24516819904204348,1.3281526773869516,0.929038559442147,0.28799675,0.6566193250120385
0.025500000000000002,1.78374375,1.0,2585.3546535170085,0.24940220583981607,1.3277318094667625,0.9311828503616787,0.2879702375,0.6574995569631431
0.026000000000000002,1.7831000000000001,1.0,2598.920341321799,0.2536124659194543,1.3273145516084515,0.933220221056589,0.2879432,0.6583711234226989
0.0265,1.78244375,1.0,2611.5774679425913,0.25779911171259134,1.3269004205281296,0.9351576438329849,0.2879156375,0.6592350607733801
0.027,1.781775,1.0,2623.3653514082675,0.2619622738664521,1.3264889879758675,0.9370015398350231,0.28788755,0.6600922854926463
0.0275,1.7810937500000001,1.0,2634.324204615162,0.2661020830282614,1.3260798257017357,0.9387578227890612,0.2878589375,0.6609437094079263
0.028,1.7804,1.0,2644.4950581373428,0.27021866984524406,1.3256725054558054,0.9404319458114223,0.2878298,0.6617902397644719
0.0285,1.77969375,1.0,2653.9196871034924,0.2743121649646249,1.325266598988147,0.9420289433315618,0.2878001375,0.6626327792815179
0.029,1.778975,1.0,2662.6405421390245,0.2783826990336288,1.3248616780488314,0.9435534686934677,0.28776995,0.6634722261967393
0.029500000000000002,1.7782437500000001,1.0,2670.6914932341633,0.2824303973508465,1.324457398846664,0.9450098375471929,0.2877392375,0.6643092995333446
0.03,1.7775,1.0,2678.12056719386,0.28645539548487986,1.3240532922559658,0.9464020346497589,0.287708,0.6651449737821098
0.0305,1.77674375,1.0,2684.956098429807,0.29045781892675837,1.3236490744056153,0.9477337762700077,0.2876762375,0.6659798362129736
0.031,1.775975,1.0,2691.225302087144,0.29443779231562545,1.323244475044948,0.9490085137878495,0.28764395,0.6668144430896558
0.0315,1.7751937500000001,1.0,2696.955721691761,0.2983954402906243,1.3228392239232993,0.950229454527952,0.2876111375,0.6676493478845721
0.032,1.7744,1.0,2702.1751984209586,0.30233088749089837,1.3224330507900046,0.9513995820340447,0.2875778,0.6684851012699309
0.0325,1.77359375,1.0,2706.911841993324,0.30624425855559095,1.3220256853943997,0.9525216744240274,0.2875439375,0.6693222511041681
0.033,1.772775,1.0,2711.1940031779045,0.3101356781238454,1.3216168574858198,0.9535983210281532,0.28750955,0.6701613424137305
0.0335,1.7719437500000002,1.0,2715.0476181011336,0.3140052683661182,1.3212063207812166,0.9546319395557246,0.2874746375,0.6710028682723029
0.034,1.7711000000000001,1.0,2718.494145837071,0.31785314798068953,1.3207938714525471,0.9556247914510027,0.2874392,0.6718472322655825
0.0345,1.7702437500000001,1.0,2721.5691142160904,0.3216794518600558,1.320379178997522,0.9565789805243284,0.2874032375,0.6726950945946227
0.035,1.7693750000000001,1.0,2724.289126558061,0.32548429767411685,1.3199620865892847,0.9574964891024101,0.28736675,0.6735467574790532
0.035500000000000004,1.76849375,1.0,2726.6708929715473,0.3292678030927723,1.3195424374009779,0.958379173037479,0.2873297375,0.6744025213642926
0.036000000000000004,1.7676,1.0,2728.7312193422936,0.333030085785922,1.3191200746057445,0.9592287712272678,0.2872922,0.6752626848967604
0.0365,1.76669375,1.0,2730.486996867593,0.33677126342346564,1.3186948413767277,0.9600469143145987,0.2872541375,0.6761275448975204
0.037,1.765775,1.0,2731.955192135535,0.340491453675303,1.3182665808870702,0.9608351326456894,0.28721555,0.676997396334356
0.0375,1.76484375,1.0,2733.1528377496206,0.34419077421133376,1.317835136309915,0.9615948635579085,0.2871764375,0.6778725322922761
0.038,1.7639,1.0,2734.0970234988363,0.34786934270145775,1.3174003508184053,0.9623274580602693,0.28713679999999997,0.6787532439424528
0.0385,1.76294375,1.0,2734.8048880730357,0.35152727681557466,1.3169620675856837,0.9630341869633848,0.28709663750000003,0.6796398205095935
0.039,1.761975,1.0,2735.293611322994,0.3551646942235842,1.3165201297848934,0.9637162465097537,0.28705595,0.6805325492377368
0.0395,1.7609937500000001,1.0,2735.5712411512595,0.35878170134508974,1.3160744638113149,0.9643747689903447,0.2870147375,0.6814315475969063
0.04,1.76,1.0,2735.660099150978,0.36237842696154,1.3156248667064196,0.9650108143443401,0.286973,0.6823371923359529
0.0405,1.7589937500000001,1.0,2735.5701543948003,0.3659549827009079,1.3151712478721016,0.9656253891392266,0.2869307375,0.6832496317434384
0.041,1.757975,1.0,2735.310542494436,0.36951147902142983,1.3147135244373493,0.9662194439527433,0.28688795,0.6841689972456056
0.0415,1.75694375,1.0,2734.8904136963856,0.373048026381342,1.3142516135311524,0.9667938766375187,0.2868446375,0.6850954189829951
0.042,1.7559,1.0,2734.3189301278135,0.3765647352388808,1.3137854322825,0.9673495357863386,0.28680079999999997,0.6860290257885351
0.0425,1.75484375,1.0,2733.6052631943935,0.3800617160522824,1.3133148978203812,0.9678872239353805,0.2867564375,0.6869699451651916
0.043000000000000003,1.753775,1.0,2732.7585911298197,0.3835390792797832,1.3128399272737852,0.9684077005276959,0.28671155,0.6879183032631786
0.043500000000000004,1.75269375,1.0,2731.7880966989374,0.38699693537961943,1.3123604377717015,0.9689116846571356,0.28666613750000003,0.6888742248567314
0.044,1.7516,1.0,2730.702965051691,0.3904353948100274,1.311876346443119,0.9693998576110229,0.2866202,0.6898378333204455
0.0445,1.75049375,1.0,2729.5123817303856,0.3938545680292435,1.311387570417027,0.9698728652281903,0.2865737375,0.6908092506051691
0.045,1.7493750000000001,1.0,2728.2184276322814,0.39725454847598585,1.3108940914029064,0.970331322580599,0.28652675,0.6917884691669685
0.0455,1.74824375,1.0,2726.8355365867897,0.4006354624910054,1.3103957788088265,0.9707758096117897,0.2864792375,0.6927757031175448
0.046,1.7471,1.0,2725.3722779495997,0.4039974228734267,1.3098925553010252,0.9712068790280828,0.2864312,0.6937710592123758
0.0465,1.7459437500000001,1.0,2723.8330511790814,0.4073405321825725,1.309384381439912,0.9716250573102377,0.28638263750000004,0.69477456798802
0.047,1.744775,1.0,2722.222254171396,0.4106648929777653,1.3088712177858963,0.9720308449195187,0.28633355,0.6957862590033719
0.0475,1.74359375,1.0,2720.5442826705676,0.41397060781832795,1.3083530248993878,0.9724247178253896,0.28628393750000003,0.6968061608271605
0.048,1.7424,1.0,2718.803529712029,0.4172577792635829,1.3078297633407958,0.9728071289296928,0.2862338,0.6978343010253496
0.0485,1.74119375,1.0,2717.0043851020296,0.4205265098728529,1.3073013936705302,0.9731785093952274,0.2861831375,0.6988707061484369
0.049,1.739975,1.0,2715.1512349300183,0.4237769022054606,1.3067678764490005,0.9735392698859657,0.28613195,0.6999154017186568
0.0495,1.73874375,1.0,2713.2484611168347,0.42700905882072865,1.306229172236616,0.9738898017255444,0.2860802375,0.7009684122170823
0.05,1.7375,1.0,2711.3004409966597,0.4302230822779797,1.3056852415937863,0.9742304779801062,0.286028,0.7020297610706266
0.0505,1.73624375,1.0,2709.311546933452,0.4334190751365363,1.305136045080921,0.9745616544710745,0.2859752375,0.7030994706389481
0.051000000000000004,1.734975,1.0,2707.2861459722717,0.4365971399557213,1.3045815432584298,0.9748836707229771,0.28592195,0.704177562201254
0.051500000000000004,1.73369375,1.0,2705.228599524759,0.43975737929485714,1.304021696686722,0.975196850851029,0.2858681375,0.7052640559430066
0.052000000000000005,1.7324,1.0,2703.142545351774,0.44289988988183726,1.3034564724818967,0.9755015041852082,0.2858138,0.7063589582552421
0.0525,1.73109375,1.0,2701.0298124884116,0.4460247571387812,1.3028858542410697,0.9757979261347031,0.28575893750000003,0.7074622426679129
0.053,1.729775,1.0,2698.89670605826,0.44913211114011015,1.3023097846237024,0.9760864011725691,0.28570355000000003,0.7085739608442942
0.0535,1.72844375,1.0,2696.744952258455,0.4522220459322897,1.3017282480740977,0.9763672001497241,0.2856476375,0.7096940826343615
0.054,1.7271,1.0,2694.5762747962335,0.45529465556178533,1.3011412290365592,0.9766405821828432,0.2855912,0.7108225770865773
0.0545,1.7257437500000001,1.0,2692.392394829978,0.45835003407506275,1.3005487119553893,0.9769067952593972,0.2855342375,0.7119594124424631
0.055,1.724375,1.0,2690.1950309158947,0.46138827551858735,1.299950681274892,0.9771660768065765,0.28547675,0.7131045561311484
0.0555,1.72299375,1.0,2687.985898960154,0.46440947393882487,1.29934712143937,0.9774186542265466,0.2854187375,0.7142579747639131
0.056,1.7216,1.0,2685.766712175834,0.4674137233822408,1.2987380168931264,0.9776647454002789,0.2853602,0.7154196341287058
0.0565,1.72019375,1.0,2683.5391810458923,0.4704011178953007,1.2981233520804647,0.977904559162054,0.28530113749999997,0.7165894991846533
0.057,1.718775,1.0,2681.3050132912986,0.47337175152447014,1.2975031114456876,0.9781382957465647,0.28524155,0.7177675340565521
0.0575,1.71734375,1.0,2679.065913843818,0.47632571831621473,1.2968772794330987,0.9783661472104105,0.2851814375,0.7189537020293426
0.058,1.7159,1.0,2676.823584825499,0.479263112317,1.2962458404870012,0.9785882978296454,0.2851208,0.7201479655425709
0.0585,1.71444375,1.0,2674.57972553254,0.48218402757329154,1.295608779051698,0.978804924474919,0.2850596375,0.7213502861848357
0.059000000000000004,1.7129750000000001,1.0,2672.336032424501,0.48508855813155494,1.2949660795714921,0.9790161969656404,0.28499795,0.7225606246882148
0.059500000000000004,1.71149375,1.0,2670.09419911978,0.4879767980382557,1.2943177264906869,0.9792222784044953,0.2849357375,0.7237789409226825
0.06,1.71,1.0,2667.8463268095807,0.4908488408210553,1.2936637924206584,0.9794233302355652,0.284873,0.7250050287663152
0.0605,1.7084937500000001,1.0,2665.587939146587,0.4937047751443708,1.293004318615714,0.9796195055550105,0.2848097375,0.7262387413027459
0.061,1.7069750000000001,1.0,2663.3713361414952,0.4965446917172481,1.292338823954674,0.9798109238787241,0.28474595,0.7274809056403001
0.0615,1.7054462757353148,1.0,2661.280910535985,0.4993686790526286,1.2916676717491429,0.9799977445089514,0.2846817435808832,0.7287307693126093
0.062,1.7039167220163862,1.0,2659.7255532503973,0.5021768256634539,1.2909912253107247,0.9801801207704831,0.2846175023246882,0.7299875854341933
0.0625,1.7023871682974576,1.0,2658.7060205482435,0.5049692200626652,1.2903098479510238,0.9803582002907307,0.2845532610684932,0.7312506128273388
0.063,1.700857614578529,1.0,2658.182560046402,0.5077459507632042,1.2896239029816445,0.9805321252647586,0.28448901981229824,0.732519116140558
0.0635,1.6993280608596004,1.0,2658.1155813169307,0.5105071062780121,1.288933753714191,0.9807020327061815,0.2844247785561032,0.7337923659586328
0.064,1.6977985071406718,1.0,2658.472855717323,0.5132527729330434,1.2882396968226166,0.9808680511463782,0.28436053729990823,0.735069761401805
0.0645,1.6962689534217434,1.0,2659.206790204816,0.5159830403986675,1.2875421713757635,0.9810303119170591,0.2842962960437132,0.7363504454097929
0.065,1.6947393997028148,1.0,2660.291077684918,0.5186979939111712,1.2868414210208179,0.9811889316482267,0.28423205478751823,0.7376339259781821
0.0655,1.6932098459838862,1.0,2661.700550465494,0.5213977184538787,1.2861376793885877,0.9813440223479049,0.2841678135313232,0.7389197335271487
0.066,1.6916802922649576,1.0,2663.410076705354,0.5240822990101145,1.2854311801098812,0.9814956921127038,0.2841035722751282,0.7402074024906906
0.0665,1.690150738546029,1.0,2665.3945455240405,0.5267518205632027,1.2847221568155063,0.9816440452986104,0.2840393310189332,0.7414964713594587
0.067,1.6886211848271007,1.0,2667.628853323014,0.5294063680964676,1.284010843136271,0.9817891826832095,0.2839750897627382,0.7427864827201037
0.0675,1.687091631108172,1.0,2670.0924882023987,0.5320460249844414,1.283297430456731,0.9819311994810535,0.28391084850654325,0.7440770596193037
0.068,1.6855620773892435,1.0,2672.761727727443,0.5346708768186692,1.2825821395853199,0.9820701892424631,0.2838466072503482,0.7453677754699707
0.0685,1.6840325236703149,1.0,2675.6201583564884,0.537281006243034,1.28186512402215,0.9822062390095327,0.28378236599415324,0.746658328635134
0.069,1.6825029699513863,1.0,2678.6539378570683,0.539876494851993,1.2811465135392266,0.9823394317433658,0.2837181247379582,0.7479484627702089
0.0695,1.6809734162324577,1.0,2681.8492098260103,0.5424574242400032,1.2804264379085544,0.982469847662498,0.28365388348176324,0.7492379238581623
0.07,1.6794438625135293,1.0,2685.192099286573,0.5450238760015219,1.2797050269021382,0.9825975643555761,0.2835896422255682,0.7505264602221753
0.07050000000000001,1.6779143087946007,1.0,2688.668708660075,0.5475759317310063,1.2789824102919831,0.9827226568887054,0.28352540096937323,0.7518138225372308
0.07100000000000001,1.676384755075672,1.0,2692.270258554173,0.5501136689687528,1.2782586707668129,0.9828451955012324,0.2834611597131782,0.7530998473950461
0.07150000000000001,1.6748552013567435,1.0,2695.9814091544467,0.5526371716457388,1.2775339508760835,0.9829652512894874,0.2833969184569832,0.754384266935943
0.07200000000000001,1.6733256476378149,1.0,2699.7872406814763,0.5551465240109307,1.2768083890025288,0.9830828929272432,0.28333267720078825,0.7556668232711247
0.0725,1.6717960939188865,1.0,2703.681478881448,0.557641803340299,1.2760820442280982,0.983198182949884,0.2832684359445932,0.7569474006850587
0.073,1.670266540199958,1.0,2707.657835148264,0.5601230869098146,1.2753549756347409,0.9833111819251119,0.28320419468839825,0.758225884544615
0.0735,1.6687369864810293,1.0,2711.7100055361634,0.5625904519954481,1.274627242304406,0.983421948529216,0.2831399534322032,0.759502161301904
0.074,1.6672074327621007,1.0,2715.8316698508197,0.5650439758731702,1.2738989033190429,0.9835305396199282,0.28307571217600824,0.7607761184968929
