Time [s],Phi [rad],STIM [ ],Fsee [N],Gamma [ ],Lcerel [ ],q [ ],Lmtc [m],fisomrel [ ]
0.0,1.8,1.0,17.966261047175507,2.1046446240462105e-05,1.3793398467284634,0.005000117363606771,0.288653,0.5411392878954906
0.0005,1.79999375,1.0,18.279401669595302,0.005630137701119977,1.3793020926010995,0.012971212239102504,0.2886527375,0.5412306203712595
0.001,1.799975,1.0,21.629306602125833,0.011207766388926088,1.3789371864221618,0.03566617007823785,0.28865195,0.5421129105435454
0.0015,1.79994375,1.0,31.097559929293162,0.016754108990657407,1.3780437911775414,0.07068053361214853,0.2886506375,0.5442694258677025
0.002,1.7999,1.0,53.64533551010641,0.0222693409956387,1.3763640491651306,0.11481118973628436,0.2886488,0.5483102758164133
0.0025,1.79984375,1.0,97.22599788461622,0.027753636909170647,1.3739300097031888,0.16467623143917035,0.28864643749999996,0.5541337622556541
0.003,1.7997750000000001,1.0,161.09831653088182,0.03320717026013743,1.3712090989606849,0.21738499815423087,0.28864354999999997,0.5605988675025397
0.0035,1.79969375,1.0,237.84215718563806,0.0386301136006828,1.368579842800224,0.27071686850360166,0.2886401375,0.5668013376318946
0.004,1.7996,1.0,321.63606231981504,0.044022638516970754,1.3661516091148629,0.32301648247975473,0.2886362,0.5724904309394027
0.0045000000000000005,1.7994937500000001,1.0,409.4432978998038,0.049384915634375866,1.3639186938485532,0.37313008019182703,0.2886317375,0.5776887253429943
0.005,1.799375,1.0,499.5927982194444,0.05471711460860081,1.361854532704997,0.4203368764561657,0.28862675,0.5824658710486235
0.0055,1.79924375,1.0,590.9714696811762,0.06001940417266844,1.3599352979813328,0.464256483423312,0.2886212375,0.5868832310812792
0.006,1.7991000000000001,1.0,682.6995249062663,0.06529195208127908,1.3581431172959963,0.5047560411295523,0.2886152,0.5909869500430682
0.006500000000000001,1.79894375,1.0,774.0638276478076,0.07053492516325732,1.3564641372150197,0.5418702995070269,0.2886086375,0.5948128790802029
0.007,1.798775,1.0,864.4690079778745,0.07574848931939177,1.3548874359382392,0.5757401256383048,0.28860155,0.5983893744042799
0.0075,1.79859375,1.0,953.4243564125261,0.08093280948849037,1.353403993187683,0.60656751950624,0.2885939375,0.6017398520376283
0.008,1.7984,1.0,1040.5382316494747,0.08608804973702747,1.3520059996039582,0.6345843784881812,0.2885858,0.6048844905702111
0.0085,1.79819375,1.0,1125.4962731028836,0.09121437315132129,1.350686664506495,0.660031912800496,0.2885771375,0.6078407631929497
0.009000000000000001,1.797975,1.0,1208.058023290984,0.09631194194970776,1.3494398783880344,0.683147486636837,0.28856795,0.6106242710209049
0.0095,1.79774375,1.0,1288.0359487497583,0.10138091716060414,1.3482602217518138,0.7041569191188634,0.2885582375,0.6132487817135761
0.01,1.7975,1.0,1365.3272230612042,0.10642146003372206,1.3471423266733815,0.7232700001553907,0.288548,0.6157276946166814
0.0105,1.79724375,1.0,1439.820624101903,0.11143372920624621,1.3460819298419748,0.7406792360635601,0.2885372375,0.618071740551194
0.011,1.796975,1.0,1511.4655549311503,0.11641788321848295,1.34507480271537,0.7565589433510593,0.28852595000000003,0.6202913919991979
0.0115,1.79669375,1.0,1580.250204287574,0.12137407992625136,1.3441169396947052,0.771065925604977,0.2885141375,0.6223964662472914
0.012,1.7964,1.0,1646.193216435146,0.1263024769638778,1.3432045707270357,0.7843405540813231,0.28850180000000003,0.6243961180869617
0.0125,1.79609375,1.0,1709.3015345084832,0.13120322944366053,1.3423345695831466,0.7965082531922323,0.2884889375,0.6262979670545976
0.013000000000000001,1.7957750000000001,1.0,1769.612381642152,0.13607649220258494,1.3415038780707818,0.8076806448462606,0.28847555,0.628109379026201
0.0135,1.79544375,1.0,1827.181614126347,0.1409224194039122,1.340709594253664,0.8179569930460345,0.2884616375,0.6298372843861724
0.014,1.7951000000000001,1.0,1882.0887789284263,0.1457411656192113,1.339948873374464,0.8274255039661853,0.2884472,0.6314884039905377
0.0145,1.79474375,1.0,1934.393619801096,0.15053288277993118,1.3392193653672124,0.8361647196886853,0.2884322375,0.6330683104587553
0.015,1.794375,1.0,1984.1578988250187,0.1552977217252661,1.3385189255522727,0.8442445225530444,0.28841675,0.6345820696522158
0.0155,1.79399375,1.0,2031.4618886107387,0.16003583329441037,1.3378454092500078,0.8517270780731361,0.2884007375,0.6360346921195623
0.016,1.7936,1.0,2076.3892340483476,0.16474736737831908,1.3371968128738967,0.858667789833628,0.2883842,0.6374308335066527
0.0165,1.7931937500000001,1.0,2119.039830418026,0.169432474543668,1.3365711184897402,0.8651160529882231,0.2883671375,0.6387751345617515
0.017,1.792775,1.0,2159.489031742278,0.17409130231860617,1.335966697922167,0.8711160805968456,0.28834955,0.640071358058914
0.0175,1.7923437500000001,1.0,2197.8108486722567,0.17872399725747665,1.3353820482009486,0.8767074369139648,0.2883314375,0.641322964746609
0.018000000000000002,1.7919,1.0,2234.0889598798253,0.1833307059146225,1.3348156663558561,0.8819255489974512,0.2883128,0.6425333850850894
0.0185,1.79144375,1.0,2268.4091058479494,0.18791157404047634,1.3342661170610983,0.886802206832599,0.2882936375,0.6437058768651024
0.019,1.790975,1.0,2300.8620408377355,0.19246674781212825,1.3337319933748306,0.8913659749226158,0.28827395,0.644843611600963
0.0195,1.79049375,1.0,2331.528572605934,0.19699637176327478,1.3332120561234024,0.8956425940345785,0.2882537375,0.6459493802742811
0.02,1.79,1.0,2360.4750279505733,0.20150058788614067,1.3327052668467454,0.8996553067626729,0.288233,0.6470255274631248
0.0205,1.78949375,1.0,2387.7727855332178,0.20597953817295062,1.3322105870847913,0.9034250920479561,0.2882117375,0.6480743808315634
0.021,1.788975,1.0,2413.4978551365116,0.2104333646159294,1.3317269783774717,0.9069709164427631,0.28818995000000003,0.6490982519660473
0.021500000000000002,1.78844375,1.0,2437.7218684570903,0.21486220766035316,1.3312534851004667,0.9103099713629,0.2881676375,0.6500992621453918
0.022,1.7879,1.0,2460.524220417562,0.2192662096650605,1.3307891127352365,0.9134578418092705,0.2881448,0.6510796010709025
0.0225,1.78734375,1.0,2481.97073184906,0.2236455101887738,1.3303330290142346,0.9164287155420453,0.28812143749999997,0.6520411031322733
0.023,1.786775,1.0,2502.116725182973,0.2280002462263552,1.3298845284568865,0.919235522493727,0.28809755,0.6529853248876838
0.0235,1.78619375,1.0,2521.019928320684,0.2323305547726669,1.3294429055826176,0.9218900424515168,0.28807313749999996,0.6539138136520488
0.024,1.7856,1.0,2538.740273239261,0.236636572822571,1.3290074549108533,0.9244030232518486,0.2880482,0.6548281078223306
0.0245,1.78499375,1.0,2555.3397056318126,0.24091843737092966,1.3285774709610187,0.9267842854053289,0.2880227375,0.6557297371711126
0.025,1.784375,1.0,2570.8704696025293,0.24517628213619577,1.3281523562966995,0.9290428318339659,0.28799675,0.6566199969927424
0.025500000000000002,1.78374375,1.0,2585.397890454111,0.24941024654765692,1.3277314056536473,0.9311868961937793,0.2879702375,0.65750040098305
0.026000000000000002,1.7831000000000001,1.0,2598.966811516048,0.2536204634194621,1.3273141187325184,0.9332240633992563,0.2879432,0.6583720270355704
0.0265,1.78244375,1.0,2611.619181909949,0.2578070642638186,1.326900032899644,0.9351613068069499,0.2879156375,0.6592358689101137
0.027,1.781775,1.0,2623.3979728708096,0.26197018059293375,1.3264886855213558,0.9370050407429517,0.28788755,0.6600929152631927
0.0275,1.7810937500000001,1.0,2634.3470893809204,0.2661099439190147,1.3260796139639848,0.9387611727662336,0.2878589375,0.6609441497356463
0.028,1.7804,1.0,2644.5112865494334,0.27022648575426883,1.3256723555938625,0.9404351504109856,0.2878298,0.6617905510266096
0.0285,1.77969375,1.0,2653.9355522123014,0.27431993733542215,1.3252664527415072,0.9420320036566193,0.2878001375,0.6626330826561124
0.029,1.778975,1.0,2662.6600824219054,0.2783904283280585,1.32486149821924,0.9435563883104343,0.28776995,0.6634725987715268
0.029500000000000002,1.7782437500000001,1.0,2670.7207596340263,0.2824380880702782,1.3244571299139538,0.9450126187144053,0.2877392375,0.6643098560204073
0.03,1.7775,1.0,2678.1491018642078,0.286463043498522,1.3240530304111264,0.9464046966501006,0.287708,0.6651455149278239
0.0305,1.77674375,1.0,2684.977060329217,0.29046542154923066,1.3236488822962358,0.9477363332021163,0.2876762375,0.665980232743614
0.031,1.775975,1.0,2691.2369789442173,0.294445349158845,1.3232443681547592,0.9490109735337197,0.28764395,0.6668146634446126
0.0315,1.7751951096984766,1.0,2697.0383117707192,0.29840294524078803,1.3228390827579912,0.9502318057592495,0.28761119460733603,0.667649638533096
0.032,1.7744134400039497,1.0,2702.8288139663214,0.3023383472954256,1.3224331497487416,0.9514018662585884,0.2875783644801659,0.6684848977777602
0.0325,1.773631770309423,1.0,2708.681513412173,0.3062516800599133,1.3220267058764839,0.9525239790238857,0.2875455343529958,0.6693201553008309
0.033,1.7728501006148962,1.0,2714.586906688169,0.3101430644733712,1.3216198394154297,0.9536007685818743,0.28751270422582564,0.6701552260663048
0.0335,1.7720684309203696,1.0,2720.5354495840243,0.314012621474919,1.3212126386397909,0.9546346828328571,0.2874798740986555,0.6709899259504564
0.034,1.771286761225843,1.0,2726.5175563583493,0.3178604720036765,1.3208051918237786,0.9556280070445629,0.2874470439714854,0.6718240717439687
0.0345,1.770505091531316,1.0,2732.5235991705945,0.3216867369987636,1.3203975872416045,0.9565828765810886,0.28741421384431526,0.6726574811535664
0.035,1.7697234218367894,1.0,2738.543907686281,0.3254915373993002,1.3199899131674804,0.9575012884944855,0.28738138371714517,0.6734899728031517
0.035500000000000004,1.7689417521422628,1.0,2744.568768854117,0.329274994144406,1.3195822578756176,0.9583851120924296,0.287348553589975,0.674321366234446
0.036000000000000004,1.768160082447736,1.0,2750.588426856904,0.3330372281732009,1.3191747096402275,0.959236098583023,0.2873157234628049,0.6751514819071316
0.0365,1.7673784127532093,1.0,2756.593083234377,0.3367783604248048,1.318767356735522,0.9600558898868048,0.2872828933356348,0.6759801411984963
0.037,1.7665967430586826,1.0,2762.5785746644315,0.3404985071804506,1.31836023613938,0.9608460205590379,0.2872500632084647,0.6768072705525452
0.0375,1.7658150733641558,1.0,2768.5388433178455,0.34419778971999837,1.317953401770965,0.961607934527792,0.28721723308129454,0.677632762443467
0.038,1.7650334036696291,1.0,2774.471023687479,0.3478763231935598,1.3175468785408746,0.9623429847855999,0.2871844029541244,0.6784565686509791
0.0385,1.7642517339751023,1.0,2780.3722790626275,0.35153422269766627,1.317140690999398,0.9630524439332868,0.2871515728269543,0.6792786419401289
0.039,1.7634700642805756,1.0,2786.2397618689974,0.35517160332884895,1.316734863696824,0.9637375098785153,0.28711874269978416,0.6800989353282985
0.0395,1.762688394586049,1.0,2792.0706138585733,0.35878858018363924,1.3163294211834415,0.9643993110297351,0.28708591257261407,0.6809174020846583
0.04,1.7619067248915221,1.0,2797.861966311753,0.3623852683585684,1.3159243880095401,0.9650389110755612,0.2870530824454439,0.681733995729584
0.0405,1.7611250551969955,1.0,2803.6138534900656,0.3659617705236246,1.3155197625975377,0.9656573088440283,0.2870202523182738,0.6825487226096731
0.041,1.7603433855024688,1.0,2809.3221441582155,0.3695182110789525,1.31511558070725,0.9662554543423391,0.2869874221911037,0.6833615140163666
0.0415,1.759561715807942,1.0,2814.983242184734,0.37305471379348576,1.3147118731748846,0.9668342442807516,0.2869545920639336,0.6841723114883781
0.042,1.7587800461134153,1.0,2820.5971595025308,0.37657138661212797,1.3143086384635025,0.9673945207667308,0.28692176193676344,0.6849811217704695
0.0425,1.7579983764188887,1.0,2826.1639102195672,0.3800683374797827,1.3139058750361647,0.9679370803085693,0.2868889318095933,0.6857879515873079
0.043000000000000003,1.7572167067243618,1.0,2831.683510602467,0.38354567434135334,1.3135035813559326,0.9684626767492195,0.2868561016824232,0.6865928076435082
0.043500000000000004,1.7564350370298352,1.0,2837.1559790603187,0.3870035051417435,1.3131017558858673,0.9689720239828522,0.28682327155525306,0.6873956966236823
0.044,1.7556533673353085,1.0,2842.581336129162,0.3904419378258565,1.31270039708903,0.9694657984722487,0.28679044142808297,0.6881966251924838
0.0445,1.7548716976407817,1.0,2847.959604455589,0.39386108033859607,1.312299503428482,0.9699446415834748,0.2867576113009128,0.6889955999946544
0.045,1.754090027946255,1.0,2853.2908087811707,0.39726104062486567,1.3118990733672844,0.9704091617527777,0.2867247811737427,0.6897926276550681
0.0455,1.7533083582517281,1.0,2858.574975926466,0.4006419266295687,1.3114991053684983,0.9708599364992845,0.2866919510465726,0.6905877147787793
0.046,1.7525266885572015,1.0,2863.81213477545,0.40400384629760877,1.3110995978951852,0.9712975142958795,0.2866591209194025,0.6913808679510653
0.0465,1.7517450188626749,1.0,2869.0023162594607,0.40734690757388936,1.3107005494104058,0.9717224163095214,0.28662629079223234,0.6921720937374745
0.047,1.750963349168148,1.0,2874.145553341899,0.41067121840331394,1.3103019583772217,0.9721351380212784,0.2865934606650622,0.6929613986838679
0.0475,1.7501816794736214,1.0,2879.242191553149,0.41397686524916577,1.3099038205102884,0.9725361477792527,0.2865606305378921,0.6937487947484915
0.048,1.7494000097790947,1.0,2884.2931972062916,0.41726396176417146,1.3095061260624015,0.9729258944457109,0.28652780041072196,0.6945343046232297
0.0485,1.7486183400845678,1.0,2889.2991220140075,0.42053263863733864,1.3091088689950727,0.9733048077355961,0.28649497028355186,0.6953179435860555
0.049,1.7478366703900412,1.0,2894.260704692404,0.4237829943597069,1.3087120416513625,0.9736732929126968,0.2864621401563817,0.6960997300365034
0.0495,1.7470550006955143,1.0,2899.1786881760827,0.42701512742231573,1.308315636374332,0.9740317362704763,0.28642931002921157,0.6968796822930188
0.05,1.7462733310009877,1.0,2904.053819545703,0.43022913631620474,1.307919645507042,0.9743805061919879,0.2863964799020415,0.6976578185931681
0.0505,1.745491661306461,1.0,2908.8868499568093,0.4334251195324135,1.3075240613925532,0.9747199541413583,0.2863636497748714,0.698434157093843
0.051000000000000004,1.7447099916119342,1.0,2913.678534570197,0.4366031755619816,1.3071288763739266,0.9750504155918281,0.28633081964770124,0.6992087158714583
0.051500000000000004,1.7439283219174075,1.0,2918.4296324838465,0.43976340289594845,1.3067340827942227,0.9753722108949421,0.2862979895205311,0.6999815129221523
0.052000000000000005,1.743146652222881,1.0,2923.1409066653828,0.4429059000253537,1.3063396729965027,0.9756856460951014,0.286265159393361,0.7007525661619765
0.0525,1.742364982528354,1.0,2927.813123886371,0.4460307654412369,1.305945639323827,0.9759910136933736,0.28623232926619085,0.7015218934270882
0.053,1.7415833128338274,1.0,2932.447054658155,0.4491380976346376,1.3055519741192565,0.9762885933641224,0.28619949913902076,0.7022895124739325
0.0535,1.7408016431393007,1.0,2937.043473167973,0.4522279950965954,1.3051586697258524,0.9765786526277641,0.2861666690118506,0.7030554409794265
0.054,1.7400199734447739,1.0,2941.6031572178035,0.4553005563181498,1.304765718486675,0.976861447482685,0.28613383888468047,0.7038196965411376
0.0545,1.7392383037502472,1.0,2946.1268881634205,0.45835587979034037,1.3043731127447853,0.9771372229991279,0.2861010087575104,0.7045822966774561
0.055,1.7384566340557206,1.0,2950.615450854785,0.4613940640042067,1.3039808448432444,0.9774062138776365,0.2860681786303403,0.7053432588277659
0.0555,1.7376749643611937,1.0,2955.0696335785838,0.4644152074507883,1.3035889071251126,0.9776686449744552,0.28603534850317014,0.7061026003526142
0.056,1.736893294666667,1.0,2959.49022800129,0.46741940862112474,1.303197291933451,0.9779247317960952,0.286002518376,0.7068603385338703
0.0565,1.7361116249721402,1.0,2963.876536465812,0.470406708633922,1.3028060046314303,0.9781746765226774,0.2859696882488299,0.7076164654309638
0.057,1.7353299552776136,1.0,2968.230678819652,0.47337724852435414,1.302415026013935,0.9784186807017664,0.28593685812165975,0.7083710205388742
0.0575,1.734548285583087,1.0,2972.554233756801,0.4763311545766126,1.302024341651427,0.978656936585503,0.28590402799448966,0.7091240339605297
0.058,1.73376661588856,1.0,2976.847727952083,0.4792685143684541,1.3016339463180735,0.9788896258201698,0.2858711978673195,0.7098755179482958
0.0585,1.7329849461940334,1.0,2981.111690375387,0.482189415477635,1.3012438347880422,0.9791169228390292,0.28583836774014937,0.7106254847008762
0.059000000000000004,1.7322032764995068,1.0,2985.3466522584463,0.485093945481912,1.3008540018355004,0.9793389952057744,0.2858055376129793,0.7113739463634079
0.059500000000000004,1.73142160680498,1.0,2989.5531470620895,0.4879821919590415,1.3004644422346154,0.97955600393902,0.2857727074858092,0.7121209150275556
0.06,1.7306399371104533,1.0,2993.73171044423,0.49085424248678017,1.3000751507595554,0.9797681038190172,0.28573987735863904,0.7128664027316012
0.0605,1.7298582674159266,1.0,2997.8828802289436,0.49371018464288463,1.299686122184487,0.979975443677702,0.2857070472314689,0.7136104214605379
0.061,1.7290765977213998,1.0,3002.007196375295,0.4965501060051113,1.2992973512835786,0.980178166673099,0.2856742171042988,0.7143529831461548
0.0615,1.7282949280268731,1.0,3006.1052009470354,0.49937409415121686,1.298908832830997,0.9803764105490439,0.28564138697712865,0.7150940996671271
0.062,1.7275132583323463,1.0,3010.1774380837483,0.5021822366589578,1.29852056160091,0.9805703078811083,0.28560855684995856,0.7158337828490988
0.0625,1.7267315886378196,1.0,3014.224453970963,0.5049746211060906,1.2981325323674848,0.9807599863095655,0.2855757267227884,0.7165720444647661
0.063,1.725949918943293,1.0,3018.2467968126466,0.507751335070372,1.2977447399048894,0.980945568760168,0.28554289659561827,0.7173088962339598
0.0635,1.725168249248766,1.0,3022.2450168030505,0.5105124661295584,1.2973571789872906,0.9811271736534612,0.2855100664684482,0.7180443498237258
0.064,1.7243865795542395,1.0,3026.2196660995123,0.5132581018614064,1.2969698443888567,0.981304915103312,0.2854772363412781,0.7187784168484002
0.0645,1.7236049098597128,1.0,3030.171298796138,0.5159883298436725,1.2965827308837543,0.9814789031052772,0.28544440621410794,0.7195111088696893
0.065,1.722823240165186,1.0,3034.1004708979153,0.5187032376541134,1.2961958332461516,0.9816492437154087,0.2854115760869378,0.7202424373967409
0.0655,1.7220415704706593,1.0,3038.0077402952297,0.5214029128704857,1.295809146250216,0.981816039220043,0.2853787459597677,0.7209724138862192
0.066,1.7212599007761327,1.0,3041.8936667390826,0.5240874430705457,1.2954226646701146,0.9819793882970903,0.28534591583259755,0.7217010497423757
0.0665,1.7204782310816058,1.0,3045.7588118174067,0.5267569158320501,1.2950363832800154,0.9821393861693114,0.28531308570542746,0.722428356317117
0.067,1.7196965613870792,1.0,3049.6037389310472,0.5294114187327555,1.2946502968540854,0.9822961247500293,0.2852802555782573,0.7231543449100745
0.0675,1.7189148916925525,1.0,3053.4290132713218,0.5320510393504184,1.2942644001664922,0.9824496927817026,0.2852474254510872,0.7238790267686688
0.068,1.7181332219980257,1.0,3057.2341452038886,0.5346758121833938,1.2938786970660736,0.9826001730045781,0.2852145953239171,0.724602396080188
0.0685,1.717351552303499,1.0,3061.020211358006,0.5372858610331415,1.2934931779504928,0.9827476504088224,0.285181765196747,0.7253244722465573
0.069,1.7165698826089721,1.0,3064.7880792761757,0.5398812945455288,1.293107835036707,0.9828922062146159,0.28514893506957684,0.726045271173771
0.0695,1.7157882129144455,1.0,3068.5380212620353,0.5424621896791871,1.2927226656654818,0.9830339171861897,0.2851161049424067,0.7267647991253017
0.07,1.7150065432199189,1.0,3072.270310579782,0.5450286233927484,1.2923376671775832,0.9831728575459857,0.2850832748152366,0.72748306233791
0.07050000000000001,1.714224873525392,1.0,3075.9852214442312,0.5475806726448439,1.2919528369137774,0.9833090990761382,0.28505044468806645,0.7282000670216751
0.07100000000000001,1.7134432038308653,1.0,3079.6830290109583,0.5501184143941054,1.29156817221483,0.9834427112152457,0.28501761456089636,0.7289158193600231
