Time [s],Phi [rad],STIM [ ],Fsee [N],Gamma [ ],Lcerel [ ],q [ ],Lmtc [m],fisomrel [ ]
0.0,1.8,1.0,17.966882659426552,1.2333034407313675e-05,1.3793397770859666,0.005000040471319275,0.288653,0.5411394563787284
0.0005,1.79999375,1.0,18.277026036138007,0.005621473164633058,1.3793023564771252,0.012946993327739808,0.2886527375,0.5412299820500633
0.001,1.799975,1.0,21.62039900500792,0.011199150453638635,1.3789380960659674,0.035620738357160724,0.28865195,0.5421107122126902
0.0015,1.79994375,1.0,31.074854162456294,0.016745541383950402,1.378045725102826,0.07061835416333494,0.2886506375,0.5442647631743577
0.002,1.7999,1.0,53.595102461452036,0.022260821446438813,1.3763673068767337,0.11473755514468614,0.2886488,0.548302456359549
0.0025,1.79984375,1.0,97.14067704524115,0.027745165147899962,1.373934119748437,0.1645961262405448,0.28864643749999996,0.5541239607396735
0.003,1.7997750000000001,1.0,160.98680157145384,0.033198746018750155,1.371213271977971,0.21730235872294412,0.28864354999999997,0.560588988225156
0.0035,1.79969375,1.0,237.71587812848665,0.03862173661263455,1.368583731746542,0.2706346745547225,0.2886401375,0.5667921960835245
0.004,1.7996,1.0,321.50153941098165,0.04401430851720514,1.3661551715476319,0.3229368961798966,0.2886362,0.5724821120820289
0.0045000000000000005,1.7994937500000001,1.0,409.3038757041359,0.04937663235930632,1.3639219661958422,0.37305453182127163,0.2886317375,0.5776811304851796
0.005,1.799375,1.0,499.45045013170466,0.05470887779607127,1.3618575572626672,0.42026619527779,0.28862675,0.5824588911093608
0.0055,1.79924375,1.0,590.827769004976,0.06001121356228554,1.3599381052846287,0.4641910439621405,0.2886212375,0.5868767868753558
0.006,1.7991000000000001,1.0,682.555571516471,0.06528380741380085,1.3581457337756946,0.5046959032463639,0.2886152,0.5909809737827465
0.006500000000000001,1.79894375,1.0,773.9209810324736,0.07052682618455543,1.3564665755253782,0.5418153102509179,0.2886086375,0.5948073358839601
0.007,1.798775,1.0,864.3249670847857,0.07574043575887705,1.3548897625105845,0.5756900426019745,0.28860155,0.5983841086262148
0.0075,1.79859375,1.0,953.2811037419654,0.08092480111433903,1.353406196435244,0.6065219844658053,0.2885939375,0.6017348862282327
0.008,1.7984,1.0,1040.3895207666048,0.08608008613990568,1.3520081889611746,0.6345430783989584,0.2885858,0.6048795755876085
0.0085,1.79819375,1.0,1125.358963869916,0.09120645442314057,1.3506886082024685,0.6599943317515057,0.2885771375,0.6078364160619119
0.009000000000000001,1.797975,1.0,1207.9257413969979,0.09630406765126381,1.3494416857942635,0.6831133246976973,0.28856795,0.6106202430780078
0.0095,1.79774375,1.0,1287.9108434715934,0.10137308719560187,1.3482618771770245,0.7041258269854778,0.2885582375,0.6132451049270891
0.01,1.7975,1.0,1365.193384291216,0.10641367367181136,1.3471440468046219,0.7232417748660518,0.288548,0.6157238863779034
0.0105,1.79724375,1.0,1439.68389459255,0.11142598627468228,1.3460836410615875,0.7406535475327923,0.2885372375,0.6180679636146501
0.011,1.796975,1.0,1511.3422645792186,0.11641018390866087,1.345076308719628,0.7565354367401582,0.28852595000000003,0.6202880776799617
0.0115,1.79669375,1.0,1580.1473248705436,0.12136642439441364,1.344118168717715,0.7710443413605939,0.2885141375,0.6223937689998922
0.012,1.7964,1.0,1646.0892293580503,0.12629486397581755,1.343205787846489,0.7843208057716895,0.28850180000000003,0.6243934540455065
0.0125,1.79609375,1.0,1709.1938036862034,0.13119565850393453,1.342335807025153,0.7964901665018369,0.2884889375,0.6262952653968024
0.013000000000000001,1.7957750000000001,1.0,1769.5167854352785,0.13606896387592413,1.3415049572531215,0.8076639816628226,0.28847555,0.6281070286082389
0.0135,1.79544375,1.0,1827.1095411807735,0.14091493445860098,1.340710394959648,0.817941565364267,0.2884616375,0.6298355445358441
0.014,1.7951000000000001,1.0,1882.0171845284,0.1457337226117011,1.33994965707566,0.8274112830419297,0.2884472,0.631486704892032
0.0145,1.79474375,1.0,1934.3088620096105,0.15052548069496052,1.3392202805320845,0.8361516399854964,0.2884322375,0.6330663305986413
0.015,1.794375,1.0,1984.0661278476584,0.15529036034465157,1.3385199039369484,0.8442324523651895,0.28841675,0.6345799573932374
0.0155,1.79399375,1.0,2031.3804922550853,0.16002851358009249,1.3378462668649709,0.8517158638218005,0.2884007375,0.6360328442774327
0.016,1.7936,1.0,2076.328498060023,0.16474009021172992,1.3371974458426514,0.8586573201244742,0.2883842,0.637429472312475
0.0165,1.7931937500000001,1.0,2118.9798739380685,0.16942523823948508,1.3365717370143981,0.8651063209128195,0.2883671375,0.6387738068976749
0.017,1.792775,1.0,2159.416755554917,0.1740841056632792,1.33596743652462,0.8711070582823545,0.28834955,0.640069775494501
0.0175,1.7923437500000001,1.0,2197.7310920894147,0.1787168403121886,1.3353828561104213,0.8766990483941904,0.2883314375,0.64132123669393
0.018000000000000002,1.7919,1.0,2234.007078908813,0.18332358851812094,1.3348164890229206,0.8819177248638577,0.2883128,0.6425316284386623
0.0185,1.79144375,1.0,2268.3443526397805,0.1879044982338981,1.3342667627020612,0.8867948510389841,0.2882936375,0.6437045004868747
0.019,1.790975,1.0,2300.8081524279582,0.19245971278714932,1.3337325268816798,0.8913590634244652,0.28827395,0.644842476087911
0.0195,1.79049375,1.0,2331.47008980493,0.19698937550550386,1.333212631295613,0.8956361258796438,0.2882537375,0.6459481579880546
0.02,1.79,1.0,2360.407624330649,0.2014936297165909,1.3327059256776976,0.8996492558329933,0.288233,0.6470241295247015
0.0205,1.78949375,1.0,2387.701083489465,0.20597261831948285,1.3322112839129212,0.9034194154180845,0.2882117375,0.6480729044672464
0.021,1.788975,1.0,2413.424940466804,0.2104264829711683,1.3317276832037905,0.9069655784414933,0.28818995000000003,0.6490967608298648
0.021500000000000002,1.78844375,1.0,2437.662442634697,0.2148553670216029,1.3312540566753663,0.9103049180018592,0.2881676375,0.6500980546432181
0.022,1.7879,1.0,2460.4715457746915,0.21925940883108905,1.3307896170218967,0.9134530641562062,0.2881448,0.6510785372146267
0.0225,1.78734375,1.0,2481.913250324386,0.22363874675992912,1.330333576937629,0.916424213758535,0.28812143749999997,0.6520399488124731
0.023,1.786775,1.0,2502.051349344373,0.22799351916842556,1.3298851491168115,0.9192312817131918,0.28809755,0.6529840191077136
0.0235,1.78619375,1.0,2520.9521902285696,0.2323238644168807,1.3294435462536915,0.9218860344805516,0.28807313749999996,0.6539124675758667
0.024,1.7856,1.0,2538.673697794276,0.23662991834401415,1.329008082384032,0.924399225226382,0.2880482,0.6548267912180549
0.0245,1.78499375,1.0,2555.2828555601986,0.24091182076234968,1.3285780050289338,0.926780669625202,0.2880227375,0.6557286180204274
0.025,1.784375,1.0,2570.831587895361,0.2451697068787757,1.3281527204583825,0.9290393743149074,0.28799675,0.6566192348716922
0.025500000000000002,1.78374375,1.0,2585.3653537211007,0.24940370968045522,1.3277317095314611,0.9311836029563787,0.2879702375,0.6574997658405166
0.026000000000000002,1.7831000000000001,1.0,2598.9309156080803,0.25361396215455123,1.3273144531072525,0.933220937063102,0.2879432,0.6583713290404981
0.0265,1.78244375,1.0,2611.5762285969176,0.2578005972882267,1.3269004320448394,0.9351583415216685,0.2879156375,0.6592350367630655
0.027,1.781775,1.0,2623.3503349947705,0.2619637480686446,1.3264891272033046,0.9370022230199785,0.28788755,0.6600919955931901
0.0275,1.7810937500000001,1.0,2634.2984451070965,0.2661035460108361,1.3260800640386945,0.9387584883502604,0.2878589375,0.6609432137644162
0.028,1.7804,1.0,2644.461417267324,0.2702201221667705,1.3256728161152767,0.9404325912834961,0.2878298,0.661789594526611
0.0285,1.77969375,1.0,2653.893455825918,0.2743136113837254,1.3252668407924395,0.9420295516058748,0.2878001375,0.6626322776814599
0.029,1.778975,1.0,2662.6259964824553,0.27838414077785023,1.3248618119132112,0.943554036822468,0.28776995,0.663471948853525
0.029500000000000002,1.7782437500000001,1.0,2670.691006360802,0.28243183746529443,1.3244574033206185,0.9450103658639386,0.2877392375,0.6643092902756427
0.03,1.7775,1.0,2678.1209375217186,0.2864568285622074,1.3240532888576892,0.946402539580632,0.287708,0.6651449808052137
0.0305,1.77674375,1.0,2684.948682834495,0.2904592411847386,1.3236491423674512,0.9477342682067813,0.2876762375,0.6659796959337159
0.031,1.775975,1.0,2691.2075342069566,0.2944392024490374,1.3232446376929314,0.9490089961288042,0.28764395,0.6668141077894307
0.0315,1.7751937500000001,1.0,2696.9311431735223,0.2983968394712532,1.3228394486771577,0.9502299242515518,0.2876111375,0.6676488851333828
0.032,1.7744,1.0,2702.1467329864035,0.30233227502207977,1.3224333108356514,0.9514000364314671,0.2875778,0.6684845665292098
0.0325,1.77359375,1.0,2706.8891148328466,0.30624563911313557,1.3220258928362667,0.9525221052452407,0.2875439375,0.6693218250733587
0.033,1.772775,1.0,2711.1820336475175,0.31013705460001045,1.3216169666511348,0.953598724925651,0.28750955,0.6701611185016672
0.0335,1.7719437500000002,1.0,2715.047083610793,0.31400664270243034,1.3212063256524456,0.9546323176413217,0.2874746375,0.671002858293543
0.034,1.7711000000000001,1.0,2718.5060299211204,0.3178545246401211,1.3207937632123892,0.9556251451055995,0.2874392,0.6718474537118418
0.0345,1.7702437500000001,1.0,2721.5807912629098,0.3216808216328086,1.3203790727031555,0.95657932109955,0.2874032375,0.6726953117789102
0.035,1.7693750000000001,1.0,2724.293423219891,0.3254856549002187,1.3199620474969345,0.9574968228776258,0.28736675,0.6735468372499027
0.035500000000000004,1.76849375,1.0,2726.6661026364295,0.32926914566207727,1.3195424809659162,0.9583795015673856,0.2873297375,0.6744024325833772
0.036000000000000004,1.7676,1.0,2728.715729599829,0.333031409730484,1.3191202154216821,0.9592290954654112,0.2872922,0.6752623983074593
0.0365,1.76669375,1.0,2730.462846947642,0.33677256794568494,1.3186950608511818,0.9600472325340068,0.2872541375,0.6761270988171605
0.037,1.765775,1.0,2731.9346585741473,0.3404927492745023,1.3182667674458484,0.9608354364330061,0.28721555,0.676997017664446
0.0375,1.76484375,1.0,2733.1438935606916,0.34419206799675106,1.3178352175549328,0.9615951479918481,0.2871764375,0.6778723676078078
0.038,1.7639,1.0,2734.103331679363,0.34787063839224597,1.3174002935276854,0.9623277214963801,0.28713679999999997,0.6787533599124336
0.0385,1.76294375,1.0,2734.825797315428,0.3515285747408019,1.3169618777133572,0.9630344308342903,0.28709663750000003,0.6796402043253279
0.039,1.761975,1.0,2735.3241536967535,0.3551659913222338,1.3165198524611985,0.9637164751397987,0.28705595,0.6805331090495572
0.0395,1.7609937500000001,1.0,2735.611297430581,0.35878300241635647,1.31607410012046,0.9643749839833671,0.2870147375,0.6814322807176064
0.04,1.76,1.0,2735.700153346308,0.3623797223029848,1.315624503040393,0.9650110221475873,0.286973,0.682337924363855
0.0405,1.7589937500000001,1.0,2735.6036696460114,0.36595626526193364,1.3151709435702474,0.9656255940262963,0.2869307375,0.6832502433961731
0.041,1.757975,1.0,2735.3348133614027,0.3695127455730179,1.3147133040592742,0.9662196476803001,0.28688795,0.6841694395666289
0.0415,1.75694375,1.0,2734.9065661176114,0.3730492775160523,1.314251466856724,0.9667940785798285,0.2868446375,0.685095712941318
0.042,1.7559,1.0,2734.327762016729,0.3765659682026922,1.3137853520748042,0.9673497350327461,0.28680079999999997,0.6860291862987602
0.0425,1.75484375,1.0,2733.609347417391,0.38006293377809497,1.3133148607242378,0.9678874192226513,0.2867564375,0.6869700192900239
0.043000000000000003,1.753775,1.0,2732.763241997127,0.3835402911906484,1.3128398850243888,0.9684078896394595,0.28671155,0.687918387557166
0.043500000000000004,1.75269375,1.0,2731.796332769374,0.38699814734593635,1.3123603629403484,0.9689118665527031,0.28666613750000003,0.6888743739278502
0.044,1.7516,1.0,2730.715510255497,0.39043660914954254,1.3118762324372077,0.9694000323769185,0.2866202,0.6898380600789948
0.0445,1.75049375,1.0,2729.527667016912,0.39385578350705086,1.311387431480058,0.9698730340321355,0.2865737375,0.6908095265186613
0.045,1.7493750000000001,1.0,2728.2396962713706,0.39725577732404505,1.3108938980339897,0.9703314851347564,0.28652675,0.6917888525677016
0.0455,1.74824375,1.0,2726.8584905950415,0.4006366975061089,1.3103955700640941,0.9707759680325542,0.2864792375,0.6927761163411544
0.046,1.7471,1.0,2725.3909407100036,0.40399865095882626,1.3098923855354623,0.9712070356962823,0.2864312,0.6937713947294019
0.0465,1.7459437500000001,1.0,2723.843934356837,0.40734174458778083,1.3093842824131852,0.971625213479288,0.28638263750000004,0.6947747633790768
0.047,1.744775,1.0,2722.2243552526334,0.4106660852985565,1.3088711986623538,0.9720310007555112,0.28633355,0.6957862966737269
0.0475,1.74359375,1.0,2720.5390821344968,0.41397177999673707,1.3083530722480592,0.9724248724453455,0.28628393750000003,0.6968060677142321
0.048,1.7424,1.0,2718.78615343081,0.41725891580711477,1.3078299215952696,0.972807283618266,0.2862338,0.6978339903400835
0.0485,1.74119375,1.0,2716.976974673753,0.42052761588250953,1.3073016433938645,0.9731786635293316,0.2861831375,0.6988702167328769
0.049,1.739975,1.0,2715.1206149268887,0.4237779941867261,1.3067681555085064,0.9735394212934221,0.28613195,0.6999148557586379
0.0495,1.73874375,1.0,2713.219913991565,0.4270101494080546,1.3062294324958328,0.9738899487581234,0.2860802375,0.7009679039326537
0.05,1.7375,1.0,2711.2777089258957,0.43022418023478515,1.3056854489124807,0.9742306195032745,0.286028,0.7020293568978799
0.0505,1.73624375,1.0,2709.2968338201736,0.4334201853552079,1.3051361793150882,0.9745617898537418,0.2859752375,0.7030992094164233
0.051000000000000004,1.734975,1.0,2707.2801195875495,0.43659826345761293,1.3045815982602922,0.9748837998273063,0.28592195,0.7041774553609885
0.051500000000000004,1.73369375,1.0,2705.2303937682154,0.4397585132302904,1.3040216803047306,0.975196974022362,0.2858681375,0.705264087706276
0.052000000000000005,1.7324,1.0,2703.1504803486605,0.44290103336153047,1.3034564000050406,0.9755016224497399,0.2858138,0.706359098520347
0.0525,1.73109375,1.0,2701.0431995948843,0.44602592253962325,1.3028857319178597,0.9757980413126357,0.28575893750000003,0.7074624789559388
0.053,1.729775,1.0,2698.9113678997733,0.44913327945285886,1.3023096505998253,0.976086513738298,0.28570355000000003,0.7085742192417461
0.0535,1.72844375,1.0,2696.7577976453467,0.4522232027895275,1.301728130607575,0.9763673104648525,0.2856476375,0.7096943086736549
0.054,1.7271,1.0,2694.5852970792303,0.4552957912379192,1.3011411464977463,0.9766406904863684,0.2855912,0.7108227356059404
0.0545,1.7257437500000001,1.0,2692.396670204889,0.45835114348632416,1.3005486728269766,0.9769069016590453,0.2855342375,0.7119594874424202
0.055,1.724375,1.0,2690.194716687069,0.46138935822303245,1.2999506841519033,0.9771661812711642,0.28547675,0.7131045506275675
0.0555,1.72299375,1.0,2687.982231771065,0.46441053413633426,1.2993471550291638,0.9774187565792568,0.2854187375,0.7142579106375824
0.056,1.7216,1.0,2685.7609184935563,0.46741476727537423,1.2987380699825664,0.977664845651278,0.2853602,0.7154195329817963
0.0565,1.72019375,1.0,2683.5330664753074,0.4704021494986343,1.2981234081335624,0.9779046567993949,0.28530113749999997,0.7165893926110631
0.057,1.718775,1.0,2681.299866283881,0.473372774754844,1.2975031586486516,0.9781383905276737,0.28524155,0.7177674444964134
0.0575,1.71734375,1.0,2679.062250011318,0.4763267369924714,1.296877313047969,0.9783662392856961,0.2851814375,0.7189536383846246
0.058,1.7159,1.0,2676.794202133892,0.4792641285301948,1.2962461101803722,0.9785884015164591,0.2851208,0.7201474560044605
0.0585,1.71444375,1.0,2674.563758694602,0.4821850453257978,1.295608925666956,0.9788050198763873,0.2850596375,0.7213500097768752
0.059000000000000004,1.7129750000000001,1.0,2672.3557051344405,0.48508957887278986,1.294965898851902,0.9790162730834612,0.28499795,0.7225609646507958
0.059500000000000004,1.71149375,1.0,2670.1432905402867,0.4879778200798743,1.2943172753336982,0.9792223385803365,0.2849357375,0.7237797877555743
0.06,1.7100048182427694,1.0,2668.1364886290153,0.4908498598557544,1.293663300710834,0.9794233868925241,0.2848732023661963,0.7250059496671502
0.0605,1.7085157934907955,1.0,2666.6810298183705,0.4937057891091336,1.293004220581798,0.9796195819584705,0.2848106633266134,0.7262389244937917
0.061,1.7070267687388219,1.0,2665.7543271776963,0.49654569874871507,1.2923402805450785,0.979811081441558,0.2847481242870305,0.7274781899579872
0.0615,1.705537743986848,1.0,2665.3289876229715,0.4993696779830017,1.2916717300382243,0.9799980370950908,0.2846855852474476,0.7287232203332563
0.062,1.704048719234874,1.0,2665.34349648696,0.5021778183707312,1.2909991337889575,0.98018061167449,0.2846230462078647,0.7299729085908049
0.0625,1.7025596944829002,1.0,2665.7637096361304,0.5049702081991655,1.290322805874857,0.9803589486624562,0.2845605071682818,0.7312266211382337
0.063,1.7010706697309264,1.0,2666.5609614900145,0.5077469348132695,1.2896430107938255,0.9805331836428625,0.2844979681286989,0.7324838211042344
0.0635,1.6995816449789525,1.0,2667.7066534490973,0.5105080855580081,1.2889600130437655,0.9807034472551385,0.284435429089116,0.7337439759622031
0.064,1.6980926202269786,1.0,2669.1722343372494,0.5132537477783461,1.2882740771225796,0.9808698654183711,0.2843728900495331,0.7350065575864957
0.0645,1.6966035954750047,1.0,2670.9291823967483,0.5159840088192486,1.2875854675281702,0.9810325595437257,0.28431035100995017,0.7362710423042214
0.065,1.695114570723031,1.0,2672.957817023073,0.5186989526997127,1.2868943676691722,0.9811916424529178,0.2842478119703673,0.7375370593102866
0.0655,1.6936255459710572,1.0,2675.225477088938,0.5213986696895802,1.2862010802526407,0.9813472293346448,0.2841852729307844,0.7388040231575942
0.066,1.6921365212190833,1.0,2677.7101134718464,0.5240832461290489,1.2855058104059427,0.9814994263033772,0.28412273389120146,0.7400715313279524
0.0665,1.6906474964671094,1.0,2680.397475477836,0.5267527652536818,1.2848086916018955,0.9816483320927255,0.2840601948516186,0.7413393150128074
0.067,1.6891584717151356,1.0,2683.2733070997256,0.5294073102990419,1.2841098573133158,0.9817940420349172,0.2839976558120357,0.7426071077085693
0.0675,1.6876694469631617,1.0,2686.3233417434267,0.5320469645006922,1.2834094410130212,0.9819366482053626,0.28393511677245276,0.743874645231782
0.068,1.6861804222111878,1.0,2689.533297348678,0.5346718110941957,1.2827075761738287,0.982076239560138,0.2838725777328699,0.7451416657331595
0.0685,1.684691397459214,1.0,2692.888871904548,0.5372819333151155,1.2820043962685554,0.9822129020667777,0.28381003869328697,0.7464079097104833
0.069,1.6832023727072403,1.0,2696.37573936089,0.5398774143990145,1.2813000347700185,0.9823467188287459,0.2837474996537041,0.7476731200203647
0.0695,1.6817133479552664,1.0,2699.980143726461,0.5424583370851354,1.2805946196877,0.9824777699171496,0.2836849606141212,0.7489370516655453
0.07,1.6802243232032925,1.0,2703.6962485024433,0.5450247789012229,1.2798882064347108,0.98260612908227,0.28362242157453826,0.7501995915139054
0.07050000000000001,1.6787352984513186,1.0,2707.504947399318,0.5475768297574958,1.279180971440849,0.9827318740083318,0.2835598825349554,0.7514604119430606
0.07100000000000001,1.6772462736993448,1.0,2711.4000938064423,0.5501145682582083,1.2784729724959207,0.9828550737556273,0.2834973434953725,0.7527193992005299
0.07150000000000001,1.6757572489473709,1.0,2715.375526985631,0.5526380730076143,1.2777642673897316,0.9829757951605611,0.28343480445578956,0.7539764405658345
0.07200000000000001,1.674268224195397,1.0,2719.425071129044,0.5551474226099679,1.2770549139120877,0.9830941029235475,0.28337226541620664,0.7552314243532069
0.0725,1.6727791994434233,1.0,2723.5425344917417,0.557642695669523,1.2763449698527949,0.9832100596928891,0.28330972637662377,0.7564842399140876
0.073,1.6712901746914495,1.0,2727.7217085975635,0.5601239707905339,1.2756344930016585,0.9833237261448489,0.2832471873370409,0.757734777639409
0.0735,1.6698011499394756,1.0,2731.9563675195445,0.5625913265772545,1.2749235411484852,0.9834351610601103,0.283184648297458,0.758982928961662
