Time [s],Phi [rad],STIM [ ],Fsee [N],Gamma [ ],Lcerel [ ],q [ ],Lmtc [m],fisomrel [ ]
0.0,1.8,1.0,17.967188742350103,1.0014493190820405e-05,1.379339742794326,0.005000026728776747,0.288653,0.5411395393390774
0.0005,1.79999375,1.0,18.276522715299077,0.005619167628598255,1.3793024123862268,0.012940554689839321,0.2886527375,0.5412298468048111
0.001,1.799975,1.0,21.6181510267794,0.011196857849838291,1.378938325659112,0.035608653637358316,0.28865195,0.5421101573554492
0.0015,1.79994375,1.0,31.068936618995664,0.016743261639843507,1.3780462292356341,0.0706018111136887,0.2886506375,0.5442635477063724
0.002,1.7999,1.0,53.581866254989876,0.022258554489895926,1.3763681655247573,0.11471796225753852,0.2886488,0.5483003953428855
0.0025,1.79984375,1.0,97.11810188386589,0.027742910907189344,1.3739352075330538,0.16457481042881167,0.28864643749999996,0.5541213666046303
0.003,1.7997750000000001,1.0,160.95724419977932,0.03319650442254783,1.3712143782909065,0.2172803678934027,0.28864354999999997,0.5605863691010706
0.0035,1.79969375,1.0,237.68237828580413,0.03861950759001612,1.3685847635960262,0.270612801840948,0.2886401375,0.5667897705512164
0.004,1.7996,1.0,321.46583375687317,0.04401209199764203,1.3661561172291505,0.3229157170919332,0.2886362,0.572479903748956
0.0045000000000000005,1.7994937500000001,1.0,409.26685614530436,0.04937442827266096,1.3639228351672938,0.3730344270836306,0.2886317375,0.5776791136600723
0.005,1.799375,1.0,499.41264281199585,0.05470668607258607,1.3618583606505599,0.42024738566257197,0.28862675,0.5824570370768156
0.0055,1.79924375,1.0,590.7895940929593,0.060009034132675616,1.3599388511183046,0.4641736291954165,0.2886212375,0.5868750747947544
0.006,1.7991000000000001,1.0,682.5173212721339,0.06528164020908354,1.3581464290539838,0.5046798993175658,0.2886152,0.5909793857011474
0.006500000000000001,1.79894375,1.0,773.8807699283209,0.07052467113420781,1.3564672619466092,0.5418007009654354,0.2886086375,0.5948057753835699
0.007,1.798775,1.0,864.284938287775,0.0757382928014233,1.354890409096761,0.5756767322308168,0.28860155,0.5983826451885637
0.0075,1.79859375,1.0,953.2418919466022,0.08092267017329698,1.3534067995473966,0.6065098773747375,0.2885939375,0.6017335268930684
0.008,1.7984,1.0,1040.3543864422547,0.0860779672395839,1.3520087062399584,0.6345320494660279,0.2885858,0.6048784143216539
0.0085,1.79819375,1.0,1125.3185591191184,0.09120434729616214,1.3506891801789496,0.6599843625407421,0.2885771375,0.6078351368157406
0.009000000000000001,1.797975,1.0,1207.8812969569833,0.0963019722964511,1.349442293073865,0.6831043041787278,0.28856795,0.6106188897043336
0.0095,1.79774375,1.0,1287.8704516233483,0.10137100359056468,1.3482624116695168,0.7041176031736979,0.2885582375,0.6132439177874108
0.01,1.7975,1.0,1365.1629502045296,0.10641160190297037,1.347144437963313,0.7232342295723305,0.288548,0.6157230203798963
0.0105,1.79724375,1.0,1439.6582901408387,0.11142392621771888,1.3460839615196603,0.7406466450993789,0.2885372375,0.618067256310135
0.011,1.796975,1.0,1511.3045322758046,0.1164081349212575,1.3450767696358497,0.7565292092698673,0.28852595000000003,0.6202870633217052
0.0115,1.79669375,1.0,1580.1093253280612,0.1213643868756302,1.344118622679784,0.7710386544838117,0.2885141375,0.6223927727199248
0.012,1.7964,1.0,1646.0656210780355,0.12629283841163128,1.3432060641755723,0.7843155300585591,0.28850180000000003,0.6243928492127326
0.0125,1.79609375,1.0,1709.1801175641392,0.13119364476966472,1.3423359642325592,0.7964852828033477,0.2884889375,0.6262949221714412
0.013000000000000001,1.7957750000000001,1.0,1769.495906367406,0.1360669611901344,1.3415051929600896,0.8076595277785498,0.28847555,0.6281065152464667
0.0135,1.79544375,1.0,1827.0691339638204,0.14091294195814386,1.3407108438770345,0.817937549739511,0.2884616375,0.6298345690835427
0.014,1.7951000000000001,1.0,1881.9822664266605,0.14573174151336227,1.3399500393087016,0.8274075622868629,0.2884472,0.6314858761926411
0.0145,1.79474375,1.0,1934.287134573953,0.15052351134309336,1.3392205151354075,0.8361481566543025,0.2884322375,0.6330658230588928
0.015,1.794375,1.0,1984.050702867518,0.15528840264134097,1.338520068387284,0.8442292092762879,0.28841675,0.6345796023567238
0.0155,1.79399375,1.0,2031.3563976960593,0.16002656638438426,1.3378465207353367,0.8517128888833444,0.2884007375,0.6360322972800628
0.016,1.7936,1.0,2076.2935665802243,0.16473815279474452,1.3371978098902382,0.858654594606152,0.2883842,0.6374286894299324
0.0165,1.7931937500000001,1.0,2118.9537778408608,0.16942331196105148,1.336572006230394,0.865103762017271,0.2883671375,0.6387732290243864
0.017,1.792775,1.0,2159.4050852056416,0.1740821908942184,1.335967555787031,0.8711046349175529,0.28834955,0.6400695199569141
0.0175,1.7923437500000001,1.0,2197.7263061100507,0.17871493660515847,1.3353829045913754,0.8766967698572007,0.2883314375,0.6413211329969782
0.018000000000000002,1.7919,1.0,2234.00611826992,0.18332169610478502,1.334816498674654,0.8819155873827987,0.2883128,0.6425316078292265
0.0185,1.79144375,1.0,2268.3226538515305,0.18790261440716377,1.334266979058292,0.886792904247715,0.2882936375,0.6437040392577915
0.019,1.790975,1.0,2300.7808823607097,0.19245783931415653,1.3337327968635926,0.8913572552053863,0.28827395,0.6448419014591966
0.0195,1.79049375,1.0,2331.446449931687,0.19698751335958448,1.3332128637933334,0.8956344236589304,0.2882537375,0.645947663911497
0.02,1.79,1.0,2360.3890399179068,0.2014917788956306,1.3327061073311142,0.899647647758228,0.288233,0.6470237440834731
0.0205,1.78949375,1.0,2387.6834832402587,0.20597077827447785,1.3322114549605342,0.9034179026117677,0.2882117375,0.6480725420695312
0.021,1.788975,1.0,2413.4093235700566,0.21042465384830913,1.3317278341651928,0.9069641514807756,0.28818995000000003,0.6490964414543059
0.021500000000000002,1.78844375,1.0,2437.633792098641,0.2148535456194568,1.3312543322470711,0.9103035988660142,0.2881676375,0.6500974724730454
0.022,1.7879,1.0,2460.4430789851526,0.21925759698008754,1.3307898895541777,0.9134518199417542,0.2881448,0.6510779622727518
0.0225,1.78734375,1.0,2481.8944454228645,0.22363694585064003,1.330333756190436,0.9164230217134225,0.28812143749999997,0.652039571177033
0.023,1.786775,1.0,2502.044272664947,0.22799172956323305,1.329885216301313,0.9192301343682555,0.28809755,0.6529838777609563
0.0235,1.78619375,1.0,2520.951367805249,0.23232208544998534,1.329443554032275,0.9218849379275774,0.28807313749999996,0.6539124512327279
0.024,1.7856,1.0,2538.6767593413224,0.2366281508430157,1.3290080535287887,0.9243981804462442,0.2880482,0.6548268517640233
0.0245,1.78499375,1.0,2555.2776266006726,0.24091006188901706,1.3285780541517653,0.9267796918333476,0.2880227375,0.6557285150823966
0.025,1.784375,1.0,2570.8123438648336,0.24516795495608718,1.3281529006968198,0.929038467481356,0.28799675,0.6566188576666554
0.025500000000000002,1.78374375,1.0,2585.345183061598,0.24940196709856471,1.3277318979169126,0.9311827431265698,0.2879702375,0.6574993720911301
0.026000000000000002,1.7831000000000001,1.0,2598.917700664442,0.25361223032380026,1.3273145762066358,0.9332201098052111,0.2879432,0.6583710720748418
0.0265,1.78244375,1.0,2611.5725788298228,0.25779887663914425,1.3269004659605819,0.9351575409786166,0.2879156375,0.6592349660547017
0.027,1.781775,1.0,2623.353530738881,0.2619620380519473,1.3264890975733425,0.9370014510590371,0.28788755,0.6600920572887259
0.0275,1.7810937500000001,1.0,2634.305210827775,0.26610184656955993,1.32608000143951,0.9387577476768515,0.2878589375,0.6609433439451823
0.028,1.7804,1.0,2644.473129908159,0.27021843419933267,1.325672707953676,0.9404318784259923,0.2878298,0.6617898191776773
0.0285,1.77969375,1.0,2653.8964792050288,0.2743119287728975,1.3252668129223655,0.9420288804942916,0.2878001375,0.6626323354953026
0.029,1.778975,1.0,2662.6251147890907,0.27838246555830737,1.3248618200274895,0.9435533996797302,0.28776995,0.663471932042178
0.029500000000000002,1.7782437500000001,1.0,2670.6900002248954,0.28243017135951143,1.3244574125661577,0.9450097566170905,0.2877392375,0.6643092711443691
0.03,1.7775,1.0,2678.1218663906047,0.28645517261084735,1.3240532803340186,0.9464019544549863,0.287708,0.6651449984207971
0.0305,1.77674375,1.0,2684.9518734095386,0.2904575957466531,1.3236491131267207,0.9477337055323427,0.2876762375,0.6659797562891809
0.031,1.775975,1.0,2691.211570998319,0.2944375672012662,1.3232446007399123,0.9490084561642372,0.28764395,0.6668141839684141
0.0315,1.7751937500000001,1.0,2696.9328609481604,0.2983952134090245,1.3228394329692421,0.9502294090241036,0.2876111375,0.667648917474803
0.032,1.7744,1.0,2702.1473063862145,0.3023306601658141,1.3224333055973505,0.9513995439182553,0.2875778,0.6684845773009107
0.0325,1.77359375,1.0,2706.878090443182,0.3062440247209688,1.3220259934615561,0.9525216424682782,0.2875439375,0.6693216184154904
0.033,1.772775,1.0,2711.1666120513273,0.3101354462126114,1.3216171073005671,0.9535982843487611,0.28750955,0.6701608300115289
0.0335,1.7719437500000002,1.0,2715.032333040907,0.31400504436586724,1.3212064600861244,0.9546318939751757,0.2874746375,0.6710025829047863
0.034,1.7711000000000001,1.0,2718.4948773451592,0.3178529389058617,1.3207938647899697,0.9556247351497804,0.2874392,0.6718472458964114
0.0345,1.7702437500000001,1.0,2721.574015281889,0.3216792495577201,1.320379134383844,0.9565789235968984,0.2874032375,0.6726951857508253
0.035,1.7693750000000001,1.0,2724.2896486105988,0.3254840960465677,1.3199620818394886,0.9574964383799348,0.28736675,0.6735467671713661
0.035500000000000004,1.76849375,1.0,2726.661796365238,0.3292675980975299,1.319542520128645,0.9583791323115809,0.2873297375,0.6744023527737069
0.036000000000000004,1.7676,1.0,2728.7105814621723,0.3330298754357321,1.3191202622230545,0.9592287414564576,0.2872922,0.6752623030570439
0.0365,1.76669375,1.0,2730.456218084131,0.33677104778629946,1.3186951210944582,0.9600468938147021,0.2872541375,0.6761269763730505
0.037,1.765775,1.0,2731.9189998394368,0.3404912348743575,1.3182669097145976,0.960835117265506,0.28721555,0.6769967288926027
0.0375,1.76484375,1.0,2733.1183294367083,0.3441905546328205,1.3178354497687519,0.9615948473110079,0.2871764375,0.6778718969078291
0.038,1.7639,1.0,2734.0678998071144,0.3478691196185339,1.3174006153198197,0.9623274371745458,0.28713679999999997,0.6787527085286985
0.0385,1.76294375,1.0,2734.7865667326455,0.3515270578017883,1.316962233958426,0.9630341584925337,0.28709663750000003,0.6796394841966966
0.039,1.761975,1.0,2735.2856483115734,0.3551644817818835,1.3165202020890154,0.96371621155736,0.28705595,0.6805324032829363
0.0395,1.7609937500000001,1.0,2735.5764942101414,0.35878150415811944,1.3160744161160325,0.9643747270344157,0.2870147375,0.681431643740144
0.04,1.76,1.0,2735.670481199322,0.362378237529796,1.3156247724439216,0.9650107707420145,0.286973,0.6823373820781974
0.0405,1.7589937500000001,1.0,2735.57900893067,0.3659547944962129,1.3151711674771274,0.9656253480543058,0.2869307375,0.6832497933389813
0.041,1.757975,1.0,2735.3134959495997,0.36951128765667,1.314713497620094,0.9662194079605773,0.28688795,0.6841690510705583
0.0415,1.75694375,1.0,2734.8853759465665,0.37304782961046723,1.3142516592772664,0.9667938468110754,0.2868446375,0.6850953273006533
0.042,1.7559,1.0,2734.306094246693,0.3765645329569044,1.3137855488530885,0.9673495117765593,0.28680079999999997,0.6860287925094579
0.0425,1.75484375,1.0,2733.587104536849,0.38006151029528135,1.3133150627520054,0.9678872040461778,0.2867564375,0.6869696156017441
0.043000000000000003,1.753775,1.0,2732.7360611498766,0.3835388661942796,1.3128401319410776,0.9684076833216108,0.28671155,0.6879178949205649
0.043500000000000004,1.75269375,1.0,2731.7571969085607,0.3869967023952727,1.312360718522264,0.968911671030307,0.28666613750000003,0.6888736655747925
0.044,1.7516,1.0,2730.6716573403855,0.39043515808817697,1.3118766309565102,0.9693998442430845,0.2866202,0.6898372674209718
0.0445,1.75049375,1.0,2729.4847859819124,0.39385433750409254,1.3113878212520178,0.9698728506704911,0.2865737375,0.6908087524742392
0.045,1.7493750000000001,1.0,2728.201927646655,0.39725434487411937,1.3108942414169895,0.9703313046898908,0.28652675,0.6917881717275339
0.0455,1.74824375,1.0,2726.8284274688303,0.40063528442935736,1.3103958434596272,0.9707757893817356,0.2864792375,0.6927755751370746
0.046,1.7471,1.0,2725.369629997619,0.4039972604009066,1.3098925793881337,0.9712068584224377,0.2864312,0.6937710116076825
0.0465,1.7459437500000001,1.0,2723.83087834285,0.407340377019867,1.3093844012107108,0.9716250378452204,0.28638263750000004,0.6947745289779654
0.047,1.744775,1.0,2722.217513371259,0.41066473851733853,1.3088712609355608,0.9720308276793319,0.28633355,0.6957861740053466
0.0475,1.74359375,1.0,2720.5348729547013,0.41397044912442116,1.308353110570886,0.9724247034770915,0.28628393750000003,0.6968059923509531
0.048,1.7424,1.0,2718.788291268245,0.41725761307221493,1.3078299021248887,0.9728071177374302,0.2862338,0.6978340285643541
0.0485,1.74119375,1.0,2716.983098140481,0.4205263345918198,1.3073015876057712,0.9731785012338373,0.2861831375,0.6988703260681521
0.049,1.739975,1.0,2715.124618453981,0.4237767179143357,1.3067681190217355,0.9735392642539583,0.28613195,0.6999149271424309
0.0495,1.73874375,1.0,2713.2181715974393,0.4270088672708627,1.306229448380984,0.9738897977574799,0.2860802375,0.7009678729090506
0.05,1.7375,1.0,2711.26907096856,0.43022288689250066,1.305685527691719,0.9742304744583808,0.286028,0.7020292033158014
0.0505,1.73624375,1.0,2709.2826235281996,0.43341888101034964,1.3051363089621428,0.97456164983713,0.2859752375,0.7030989571204073
0.051000000000000004,1.734975,1.0,2707.256867237452,0.43659693611083816,1.3045818104813947,0.9748836654445522,0.28592195,0.7041770431246039
0.051500000000000004,1.73369375,1.0,2705.1985783150017,0.43975716631398665,1.304021970790352,0.9751968452489145,0.2858681375,0.7052635244794336
0.052000000000000005,1.7324,1.0,2703.1151395800907,0.44289968234513183,1.3034567228021794,0.9755014978846819,0.2858138,0.7063584738079123
0.0525,1.73109375,1.0,2701.008388741165,0.44602457968715753,1.3028860499988293,0.9757979197930204,0.28575893750000003,0.7074618645284014
0.053,1.729775,1.0,2698.8801610267,0.4491319538229477,1.3023099358622547,0.9760863943391948,0.28570355000000003,0.7085736692568859
0.0535,1.72844375,1.0,2696.7322891078156,0.45222190023538616,1.3017283638744084,0.9763671924989682,0.2856476375,0.709693859801252
0.054,1.7271,1.0,2694.566603026626,0.45529451440735685,1.3011413175172426,0.9766405735033131,0.2855912,0.7108224071555462
0.0545,1.7257437500000001,1.0,2692.384930130564,0.4583498918217436,1.3005487802727103,0.9769067854442944,0.2855342375,0.711959281494216
0.055,1.724375,1.0,2690.1890950126963,0.4613881279614304,1.2999507356227642,0.9771660658447725,0.28547675,0.7131044521663349
0.0555,1.72299375,1.0,2687.980919458734,0.46440931830930104,1.2993471670493568,0.9774186421943662,0.2854187375,0.7142578876898101
0.056,1.7216,1.0,2685.7622223990566,0.46741355834823944,1.2987380580344412,0.9776647324539418,0.2853602,0.7154195557455703
0.0565,1.72019375,1.0,2683.534819867758,0.4704009435611295,1.2981233920599695,0.9779045455307156,0.28530113749999997,0.7165894231717401
0.057,1.718775,1.0,2681.300524967221,0.473371569430855,1.297503152607895,0.9781382817259089,0.28524155,0.7177674559577918
0.0575,1.71734375,1.0,2679.06114783858,0.4763255314403,1.29687732316017,0.9783661331567511,0.2851814375,0.7189536192386862
0.058,1.7159,1.0,2676.818495638688,0.4792629250723483,1.2962458871987474,0.978588284154495,0.2851208,0.7201478772889892
0.0585,1.71444375,1.0,2674.574451838192,0.4821838443844684,1.2956088274772715,0.9788049114771946,0.2850596375,0.7213501948900279
0.059000000000000004,1.7129750000000001,1.0,2672.333449426302,0.48508835618261126,1.294966103299761,0.9790161812413419,0.28499795,0.7225605800515138
0.059500000000000004,1.71149375,1.0,2670.0951486652225,0.48797659147211675,1.294317717764193,0.9792222607710106,0.2849357375,0.7237789573025412
0.06,1.71,1.0,2667.860158423799,0.4908486374267982,1.2936636652522375,0.9794233067004036,0.284873,0.7250052669343807
0.0605,1.7084937500000001,1.0,2665.6290865501423,0.4937045812204689,1.2930039401455655,0.979619469579207,0.2848097375,0.7262394485305289
0.061,1.7069750000000001,1.0,2663.4025398743065,0.49654451002694217,1.2923385368258475,0.9798108941538606,0.28474595,0.7274814409646766
0.0615,1.7054437500000001,1.0,2661.181124212187,0.4993685110200312,1.291667449674754,0.9799977196337417,0.2846816375,0.7287311823986762
0.062,1.7039,1.0,2658.9654443702457,0.5021766713735494,1.290990673073956,0.9801800799431811,0.2846168,0.729988610280504
0.0625,1.70234375,1.0,2656.75610415016,0.5049690782613099,1.2903082014051237,0.9803581039601591,0.2845514375,0.7312536613422262
0.063,1.7007750000000001,1.0,2654.553706355111,0.5077458188571261,1.289620029049928,0.9805319157424873,0.28448555,0.7325262715979556
0.0635,1.69919375,1.0,2652.3588527964457,0.5105069803348113,1.2889261503900393,0.9807016347422162,0.28441913750000003,0.7338063763418124
0.064,1.6976,1.0,2650.172144300234,0.5132526498681788,1.2882265598071285,0.9808673760089621,0.2843522,0.7350939101458793
0.0645,1.69599375,1.0,2647.994180716139,0.5159829146310416,1.287521251682866,0.981029250382808,0.2842847375,0.736388806858157
0.065,1.694375,1.0,2645.8255609255343,0.5186978617972134,1.2868102203989222,0.981187364677379,0.28421675,0.7376909996005154
0.0655,1.69274375,1.0,2643.6668828508696,0.5213975785405073,1.2860934603369683,0.9813418218536641,0.2841482375,0.7390004207666441
0.066,1.6911,1.0,2641.5187434659624,0.5240821520347365,1.2853709658786745,0.9814927211851137,0.2840792,0.7403170020200013
0.0665,1.6894437500000001,1.0,2639.381738806896,0.5267516694537145,1.2846427314057116,0.9816401584145069,0.2840096375,0.74164067429176
0.067,1.687775,1.0,2637.252334561613,0.5294061887252158,1.2839087894854315,0.9817842257856378,0.28393955,0.7429712986381279
0.0675,1.68609375,1.0,2635.1302360474897,0.5320457987114741,1.2831691427684766,0.9819250129643812,0.2838689375,0.7443087901268053
0.068,1.6844000000000001,1.0,2633.021578093267,0.5346706260289298,1.2824237344070473,0.9820626061279736,0.2837978,0.7456531704195715
0.0685,1.68269375,1.0,2630.9262091879873,0.5372807487219032,1.2816725656639265,0.9821970880256795,0.2837261375,0.7470043550774905
0.069,1.680975,1.0,2628.843978126859,0.5398762448347147,1.2809156378018982,0.9823285385732456,0.28365395,0.7483622590508697
0.0695,1.67924375,1.0,2626.774734007952,0.5424571924116847,1.2801529520837458,0.9824570349678818,0.28358123749999997,0.7497267966797272
0.07,1.6775,1.0,2624.718326229317,0.5450236694971332,1.279384509772253,0.9825826517978064,0.283508,0.7510978816942535
0.07050000000000001,1.67574375,1.0,2622.674604485557,0.5475757541353808,1.278610312130203,0.9827054611466554,0.2834342375,0.7524754272152769
0.07100000000000001,1.673975,1.0,2620.6434187647246,0.5501135243707479,1.2778303604203798,0.9828255326930194,0.28335995,0.7538593457547254
0.07150000000000001,1.67219375,1.0,2618.6246193454485,0.5526370582475546,1.2770446559055668,0.9829429338053773,0.2832851375,0.7552495492160909
0.07200000000000001,1.6704,1.0,2616.6180567938386,0.5551464338101213,1.2762531998485473,0.9830577296326563,0.2832098,0.7566459488948933
0.0725,1.66859375,1.0,2614.623581960391,0.5576417291027683,1.2754559935121055,0.9831699831906578,0.2831339375,0.758048455479142
0.073,1.6667750000000001,1.0,2612.6410459771596,0.5601230221698161,1.2746530381590242,0.9832797554445586,0.28305755,0.759456979049801
0.0735,1.66494375,1.0,2610.670300254763,0.5625903910555848,1.2738443350520872,0.9833871053876887,0.2829806375,0.7608714290812507
0.074,1.6631,1.0,2608.711196479335,0.5650439138043949,1.2730298854540782,0.9834920901167793,0.2829032,0.7622917144417504
0.0745,1.6612437500000001,1.0,2606.7635866099595,0.5674836684605665,1.2722096906277809,0.9835947649038599,0.2828252375,0.7637177433939025
0.075,1.659375,1.0,2604.8273228758194,0.5699097330684202,1.2713837518359785,0.9836951832649728,0.28274675,0.765149423595115
0.0755,1.65749375,1.0,2602.9022577731857,0.5723221856722762,1.2705520703414548,0.9837933970258672,0.2826677375,0.7665866620980628
