Time [s],Phi [rad],STIM [ ],Fsee [N],Gamma [ ],Lcerel [ ],q [ ],Lmtc [m],fisomrel [ ]
0.0,1.8,1.0,18.04027948899414,0.0002758734832407105,1.3793315625042375,0.005019758747842455,0.288653,0.5411593293625439
0.0005,1.79999375,1.0,18.43567469025124,0.005883535360006696,1.3792847719127164,0.013695097242752453,0.2886527375,0.5412725184793328
0.001,1.799975,1.0,21.97471334944066,0.011459742687322767,1.3789020568116608,0.03700749125740916,0.28865195,0.5421978040302711
0.0015,1.79994375,1.0,31.853724648684707,0.017004671901332126,1.37797978464195,0.07250782389902548,0.2886506375,0.5444237321493149
0.002,1.7999,1.0,55.21775165600977,0.022518498446314514,1.3762628350985815,0.1169696445151524,0.2886488,0.5485531853430411
0.0025,1.79984375,1.0,99.82179723326463,0.028001396783704557,1.3738058167006961,0.1670208865727453,0.28864643749999996,0.55442988329313
0.003,1.7997750000000001,1.0,164.44555054294614,0.03345354039762692,1.3710845071687543,0.21980157783656956,0.28864354999999997,0.5608937772299833
0.0035,1.79969375,1.0,241.6074156985708,0.03887510179637425,1.3684643568757846,0.2731188363099704,0.2886401375,0.5670727605615895
0.004,1.7996,1.0,325.6321123814802,0.04426625252252468,1.3660461235000523,0.32534111681381145,0.2886362,0.5727367202505883
0.0045000000000000005,1.7994937500000001,1.0,413.5747120062444,0.04962716315835861,1.3638219779652698,0.3753359850622668,0.2886317375,0.5779131643795878
0.005,1.799375,1.0,503.8031141180108,0.05495800331761831,1.3617652675733058,0.4224001397032561,0.28862675,0.582671846867393
0.0055,1.79924375,1.0,595.2151907511814,0.0602589416833209,1.3598525469559601,0.46616639925688264,0.2886212375,0.5870731646980502
0.006,1.7991000000000001,1.0,686.9441690065509,0.06553014597594141,1.3580660907581081,0.5065110313886705,0.2886152,0.5911628655905812
0.006500000000000001,1.79894375,1.0,778.2769995148344,0.07077178295946429,1.3563923216781477,0.5434748602587822,0.2886086375,0.5949761257935577
0.007,1.798775,1.0,868.6280926773397,0.0759840185614401,1.3548203411161706,0.577202324132931,0.28860155,0.5985412166141721
0.0075,1.79859375,1.0,957.5059078957825,0.08116701752068099,1.3533412877096307,0.6078974170154493,0.2885939375,0.6018811683663903
0.008,1.7984,1.0,1044.5360464442374,0.08632094412331409,1.3519472013430616,0.6357927156788904,0.2885858,0.6050164778915386
0.0085,1.79819375,1.0,1129.3975627000602,0.09144596121631622,1.3506314888285074,0.6611295933917152,0.2885771375,0.6079641551081133
0.009000000000000001,1.797975,1.0,1211.846283134477,0.09654223080174912,1.3493881602152074,0.6841450752072284,0.28856795,0.6107395200938539
0.0095,1.79774375,1.0,1291.719911445768,0.10160991465210745,1.3482115105991372,0.7050641654476104,0.2885582375,0.6133569639230452
0.01,1.7975,1.0,1368.8823526883987,0.10664917282622664,1.3470966660319263,0.7240961357741156,0.288548,0.6158287768798514
0.0105,1.79724375,1.0,1443.2449336779848,0.11166016449448476,1.3460390998282188,0.7414325232023362,0.2885372375,0.6181662671877425
0.011,1.796975,1.0,1514.76376025457,0.11664304820038233,1.3450345375755322,0.7572468093344111,0.28852595000000003,0.6203799996174704
0.0115,1.79669375,1.0,1583.4389311886935,0.12159798259864046,1.3440788661900678,0.7716949813392574,0.2885141375,0.6224800186267776
0.012,1.7964,1.0,1649.2571336878314,0.1265251236289301,1.3431687262648553,0.7849168787901996,0.28850180000000003,0.6244745705158062
0.0125,1.79609375,1.0,1712.237621565305,0.13142462687535475,1.3423008594407382,0.7970372050726526,0.2884889375,0.6263715613078189
0.013000000000000001,1.7957750000000001,1.0,1772.427528236312,0.13629664745047393,1.34147211103443,0.8081669494236865,0.28847555,0.6281785630921233
0.0135,1.79544375,1.0,1829.8936640937377,0.1411413404531181,1.3406794757672744,0.8184048109198052,0.2884616375,0.6299027257364002
0.014,1.7951000000000001,1.0,1884.6920976287372,0.14595885894664012,1.3399203865157636,0.8278386320882084,0.2884472,0.6315501620885646
0.0145,1.79474375,1.0,1936.8782128800437,0.15074935455532015,1.3391925470924748,0.8365465507747051,0.2884322375,0.6331263265207885
0.015,1.794375,1.0,1986.5283808691438,0.15551297890343826,1.3384936613099856,0.8445980226241872,0.28841675,0.6346366111382677
0.0155,1.79399375,1.0,2033.7224301328608,0.1602498826233889,1.3378215984076074,0.8520548913410393,0.2884007375,0.6360859937797488
0.016,1.7936,1.0,2078.562040291895,0.16496021716926448,1.3371741747504546,0.8589722177939075,0.2883842,0.6374795149277739
0.0165,1.7931937500000001,1.0,2121.1201493611748,0.16964413076488788,1.336549662863686,0.8653992346859198,0.2883671375,0.6388211875839902
0.017,1.792775,1.0,2161.470191948485,0.17430177079122786,1.3359464569252164,0.8713799336351858,0.28834955,0.640114726018475
0.0175,1.7923437500000001,1.0,2199.696528918327,0.1789332846292532,1.335362951112962,0.8769536490808635,0.2883314375,0.6413638106530772
0.018000000000000002,1.7919,1.0,2235.886135637186,0.18353881883753692,1.334797613729869,0.8821556250783947,0.2883128,0.6425719318902599
0.0185,1.79144375,1.0,2270.1318300401035,0.18811852044897404,1.334248943513909,0.8870174816570087,0.2882936375,0.6437424864790676
0.019,1.790975,1.0,2302.513472520412,0.1926725344660907,1.3337156468742766,0.8915676761964508,0.28827395,0.6448784025232244
0.0195,1.79049375,1.0,2333.099643888407,0.19720100376344948,1.3331966075011215,0.89583185587415,0.2882537375,0.6459822090234171
0.02,1.79,1.0,2361.9646477894757,0.20170407121561304,1.3326907090845945,0.8998331344969398,0.288233,0.647056416099457
0.0205,1.78949375,1.0,2389.1880319281427,0.2061818796971439,1.3321968353148455,0.9035923768556363,0.2882117375,0.6481035159655659
0.021,1.788975,1.0,2414.8405119963327,0.21063457010393818,1.3317140015489342,0.9071284757517559,0.28818995000000003,0.6491257052818677
0.021500000000000002,1.78844375,1.0,2439.0110145972553,0.21506228632496152,1.3312410874311518,0.9104585133748615,0.2881676375,0.6501254527979212
0.022,1.7879,1.0,2461.761809566425,0.2194651675760225,1.3307772660882067,0.9135980418357834,0.2881448,0.6511045925995271
0.0225,1.78734375,1.0,2483.150151795936,0.22384335180470522,1.3303217879887042,0.9165612030839941,0.28812143749999997,0.6520647843748265
0.023,1.786775,1.0,2503.236003274652,0.2281969769585938,1.3298739036012497,0.9193608627854923,0.28809755,0.6530076776877343
0.0235,1.78619375,1.0,2522.0818068537696,0.23252618098527236,1.329432863394449,0.9220087431646745,0.28807313749999996,0.6539349123588467
0.024,1.7856,1.0,2539.749808492961,0.23683110136283467,1.3289979410550847,0.9245155444181415,0.2880482,0.6548480700941167
0.0245,1.78499375,1.0,2556.293596793332,0.2411118736074022,1.3285685106856415,0.9268910610458516,0.2880227375,0.6557485133476386
0.025,1.784375,1.0,2571.7882944715748,0.24536863689778046,1.3281437608521183,0.9291442252479332,0.28799675,0.6566379853757265
0.025500000000000002,1.78374375,1.0,2586.2766225127384,0.24960152386806808,1.3277231994317458,0.931283272831861,0.2879702375,0.657517552787692
0.026000000000000002,1.7831000000000001,1.0,2599.8025583859962,0.25381066715236356,1.3273063343017546,0.9333157601215725,0.2879432,0.6583882765495792
0.0265,1.78244375,1.0,2612.4112314340387,0.2579961993847655,1.3268926733393753,0.9352486291856426,0.2879156375,0.6592512121078968
0.027,1.781775,1.0,2624.148823632507,0.2621582531993724,1.3264817244218385,0.9370882660089506,0.28788755,0.660107409497904
0.0275,1.7810937500000001,1.0,2635.062475718786,0.2662969612302829,1.3260729954263746,0.9388405524469002,0.2878589375,0.6609579134364525
0.028,1.7804,1.0,2645.193133686191,0.27041245241995704,1.3256660594637348,0.9405109207938389,0.2878298,0.66180362791251
0.0285,1.77969375,1.0,2654.591136724423,0.2745048620437025,1.3252604098602676,0.942104377620302,0.2878001375,0.6626456179130444
0.029,1.778975,1.0,2663.2899307783673,0.2785743180122141,1.3248557020663314,0.9436255708174951,0.28776995,0.6634846072544354
0.029500000000000002,1.7782437500000001,1.0,2671.3219378114977,0.28262094745401245,1.324451605936382,0.9450788031132499,0.2877392375,0.6643212863689498
0.03,1.7775,1.0,2678.7200658185884,0.2866448774976183,1.3240477913248754,0.9464680605658488,0.287708,0.6651563422750958
0.0305,1.77674375,1.0,2685.517664235604,0.29064623527155237,1.3236439280862673,0.9477970398889731,0.2876762375,0.6659904585870251
0.031,1.775975,1.0,2691.7484817654267,0.29462514790433536,1.3232396860750135,0.9490691730959506,0.28764395,0.6668243155169857
0.0315,1.7751937500000001,1.0,2697.444380652418,0.2985817407970831,1.3228347556815119,0.9502876517733322,0.2876111375,0.6676585475894724
0.032,1.7744,1.0,2702.6307605065144,0.3025161349295337,1.3224288891942158,0.9514554512463135,0.2875778,0.668493658842424
0.0325,1.77359375,1.0,2707.350503488639,0.30642846754876923,1.3220216816878068,0.95257532814117,0.2875439375,0.6693304736063675
0.033,1.772775,1.0,2711.6239888948303,0.3103188591336089,1.3216129360610145,0.9536498714209604,0.28750955,0.67016938570859
0.0335,1.7719437500000002,1.0,2715.471780043015,0.3141874301628722,1.3212024552125687,0.9546814964270814,0.2874746375,0.671010786879521
0.034,1.7711000000000001,1.0,2718.9146067555716,0.3180343011153785,1.3207900420411989,0.9556724585894669,0.2874392,0.6718550667321617
0.0345,1.7702437500000001,1.0,2721.9733487035746,0.3218595924699471,1.320375499445635,0.956624865899988,0.2874032375,0.6727026127390305
0.035,1.7693750000000001,1.0,2724.6690196120367,0.3256634247053975,1.3199586303246065,0.957540690273633,0.28736675,0.6735538102066385
0.035500000000000004,1.76849375,1.0,2727.022752326958,0.329445918300549,1.3195392375768433,0.9584217779082668,0.2873297375,0.6744090422474799
0.036000000000000004,1.7676,1.0,2729.0557847432215,0.33320719373422103,1.3191171241010748,0.9592698587416492,0.2872922,0.675268689749551
0.0365,1.76669375,1.0,2730.7894465942463,0.33694737148523285,1.318692092796031,0.9600865550937085,0.2872541375,0.6761331313433863
0.037,1.765775,1.0,2732.240941429776,0.3406665668872673,1.3182639847692237,0.960873392247421,0.28721555,0.677002665812549
0.0375,1.76484375,1.0,2733.4266937623065,0.3443648991687368,1.3178326487885408,0.961631804447182,0.2871764375,0.6778775745027427
0.038,1.7639,1.0,2734.367579313248,0.3480424939702142,1.3173978936973976,0.9623631373113011,0.28713679999999997,0.6787582177182894
0.0385,1.76294375,1.0,2735.0754109683526,0.35169946442310934,1.3169596110815929,0.9630686618561223,0.28709663750000003,0.6796447861702979
0.039,1.761975,1.0,2735.562038664812,0.35533592365883215,1.3165176925269262,0.9637495745567486,0.28705595,0.6805374691244586
0.0395,1.7609937500000001,1.0,2735.8393444323947,0.35895198480879253,1.3160720296191963,0.9644070025190042,0.2870147375,0.6814364543762815
0.04,1.76,1.0,2735.919237693411,0.3625477610044003,1.3156225139442024,0.9650420082392671,0.286973,0.6823419282255797
0.0405,1.7589937500000001,1.0,2735.813650824385,0.36612336537706536,1.3151690370877434,0.9656555939890342,0.2869307375,0.6832540754502061
0.041,1.757975,1.0,2735.534534977929,0.3696789110581976,1.3147114906356183,0.9662487058574594,0.28688795,0.6841730792790406
0.0415,1.75694375,1.0,2735.0938561649564,0.37321451117920695,1.3142497661736263,0.9668222374818334,0.2868446375,0.6850991213642257
0.042,1.7559,1.0,2734.503591598176,0.37673027887150323,1.3137837552875666,0.9673770334930892,0.28680079999999997,0.6860323817526547
0.0425,1.75484375,1.0,2733.775726295753,0.3802263272664963,1.313313349563238,0.9679138927008083,0.2867564375,0.6869730388567098
0.043000000000000003,1.753775,1.0,2732.9182808525607,0.38370276703756756,1.3128384766414083,0.968433573580482,0.28671155,0.687921197489423
0.043500000000000004,1.75269375,1.0,2731.9419463845793,0.38715970759784085,1.3123590399416516,0.9689367921877299,0.28666613750000003,0.688877009460235
0.044,1.7516,1.0,2730.8535258131833,0.39059725744784923,1.3118749782230275,0.9694242296137223,0.2866202,0.6898405547142415
0.0445,1.75049375,1.0,2729.659394250141,0.3940155249471015,1.311386234149799,0.9698965318119029,0.2865737375,0.6908119042793576
0.045,1.7493750000000001,1.0,2728.3659277067713,0.39741461845510634,1.3108927503862293,0.970354311485882,0.28652675,0.6917911280525693
0.0455,1.74824375,1.0,2726.951226342725,0.4007946442793968,1.3103947267301848,0.9707981692456686,0.2864792375,0.6927777857719832
0.046,1.7471,1.0,2725.490086051944,0.40415571279665186,1.309891483670864,0.9712286104127545,0.2864312,0.6937731771309652
0.0465,1.7459437500000001,1.0,2723.9750313189675,0.4074979294131443,1.3093830895691305,0.9716461695464353,0.28638263750000004,0.6947771169918985
0.047,1.744775,1.0,2722.383612432687,0.4108213986699846,1.3088697491627856,0.9720513645003803,0.28633355,0.6957891519519066
0.0475,1.7435978651556359,1.0,2720.897541666111,0.41412622510828356,1.3083516671896296,0.9724446877026418,0.2862841103365367,0.696808830807959
0.048,1.7424205080788286,1.0,2719.899075986201,0.41741251326915163,1.3078290483874633,0.9728266076467508,0.2862346613393108,0.6978357046201173
0.0485,1.7412431510020214,1.0,2719.376485584647,0.42068036769369954,1.3073020974940877,0.9731975702822384,0.2861852123420849,0.6988693267721118
0.049,1.7400657939252142,1.0,2719.30837243313,0.42392989127991243,1.3067710081245343,0.9735579993490804,0.286135763344859,0.6999092747903601
0.0495,1.738888436848407,1.0,2719.641303267445,0.4271611888720688,1.3062362666886278,0.9739083187070444,0.2860863143476331,0.7009545566473585
0.05,1.7377110797715998,1.0,2720.340377369615,0.4303743627945445,1.3056981916238595,0.9742489208125596,0.2860368653504072,0.7020045141514735
0.0505,1.7365337226947926,1.0,2721.3801504593275,0.4335695134168504,1.3051570158382073,0.9745801740782245,0.28598741635318126,0.7030586597089289
0.051000000000000004,1.7353563656179856,1.0,2722.735225976087,0.4367467411084974,1.3046129722396504,0.9749024300581157,0.2859379673559554,0.7041165087478506
0.051500000000000004,1.7341790085411783,1.0,2724.3802396686283,0.43990614623899654,1.3040662937361673,0.9752160243746989,0.28588851835872947,0.7051775797625983
0.052000000000000005,1.7330016514643711,1.0,2726.289845387513,0.4430478291778586,1.3035172132357364,0.9755212775870296,0.2858390693615036,0.7062413943546317
0.0525,1.731824294387564,1.0,2728.4426564833366,0.4461718883453129,1.3029659276953225,0.9758184935287033,0.2857896203642777,0.7073075467337775
0.053,1.7306469373107567,1.0,2730.81636520004,0.4492784236720028,1.3024126424438274,0.9761079633434901,0.28574017136705177,0.7083756176343808
0.0535,1.7294695802339495,1.0,2733.385650719538,0.4523675372334946,1.3018575900803815,0.9763899673813096,0.28569072236982584,0.7094451381086236
0.054,1.7282922231571423,1.0,2736.1376415523255,0.45543932475898524,1.3013008899506846,0.9766647663263085,0.2856412733726,0.710515860060349
0.0545,1.727114866080335,1.0,2739.0594587213823,0.45849388197767194,1.3007426614004365,0.9769326097225353,0.28559182437537406,0.711587537033745
0.055,1.7259375090035278,1.0,2742.1382115600895,0.4615313046187518,1.3001830237753367,0.9771937365465401,0.2855423753781482,0.7126599242254326
0.0555,1.7247601519267206,1.0,2745.3609938255195,0.4645516884114219,1.2996220964210852,0.9774483757459886,0.2854929263809223,0.713732778495644
0.056,1.7235827948499134,1.0,2748.714880128277,0.4675551290848794,1.2990599986833813,0.9776967467465638,0.28544347738369635,0.7148058583784949
0.0565,1.7224054377731064,1.0,2752.186922677187,0.4705417223683214,1.298496849907925,0.9779390599292679,0.28539402838647043,0.7158789240913447
0.057,1.7212280806962992,1.0,2755.7654046724438,0.4735115626345626,1.2979327580753848,0.9781755163067934,0.28534457938924457,0.7169517591377368
0.0575,1.720050723619492,1.0,2759.445283391757,0.4764647385924065,1.2973677706090643,0.9784063048176749,0.28529513039201865,0.7180242634024073
0.058,1.7188733665426847,1.0,2763.206887215427,0.47940135632297043,1.2968020670132419,0.9786316157601082,0.2852456813947928,0.7190960874255966
0.0585,1.7176960094658775,1.0,2767.0448541867313,0.48232150597856405,1.2962356971560722,0.9788516232645613,0.28519623239756686,0.7201671292425251
0.059000000000000004,1.7165186523890703,1.0,2770.953810125778,0.4852252777114972,1.29566871090571,0.9790664946002525,0.28514678340034094,0.7212372875999864
0.059500000000000004,1.715341295312263,1.0,2774.9283679201208,0.4881127616740796,1.2951011581303091,0.9792763905007331,0.285097334403115,0.7223064619583874
0.06,1.7141639382354559,1.0,2778.9631268709754,0.49098404801862083,1.2945330886980242,0.9794814654715822,0.28504788540588916,0.7233745524936283
0.0605,1.7129865811586487,1.0,2783.0526720940456,0.4938392268974308,1.2939645524770098,0.9796818680813268,0.28499843640866324,0.7244414600988245
0.061,1.7118092240818414,1.0,2787.1915739764136,0.4966783884628192,1.2933955993354203,0.9798777412366271,0.28494898741143737,0.7255070863858724
0.0615,1.7106318670050342,1.0,2791.3743876873996,0.4995016228670957,1.29282627914141,0.9800692224426851,0.28489953841421145,0.7265713336868527
0.062,1.7094545099282272,1.0,2795.5956527457665,0.5023090202625701,1.2922566417631334,0.9802564440497856,0.28485008941698553,0.727634105055279
0.0625,1.70827715285142,1.0,2799.8498926409848,0.505100670801552,1.2916867370687448,0.9804395334867975,0.2848006404197596,0.7286953042671842
0.063,1.7070997957746128,1.0,2804.135052859912,0.5078766550828062,1.2911165840918164,0.9806186111896827,0.28475119142253374,0.7297548930698736
0.0635,1.7059224386978056,1.0,2808.446363001458,0.5106370661991281,1.2905462261485816,0.9807937953504249,0.2847017424253078,0.7308127884911265
0.064,1.7047450816209984,1.0,2812.777029984033,0.5133820030004727,1.2899757245364163,0.9809652011885155,0.28465229342808196,0.7318688749348865
0.0645,1.7035677245441911,1.0,2817.125305203833,0.5161115491196699,1.289405095231992,0.9811329364110953,0.28460284443085604,0.7329231213449032
0.065,1.702390367467384,1.0,2821.489434660629,0.5188257881895497,1.2888343542119802,0.9812971048814706,0.2845533954336301,0.7339754968971568
0.0655,1.7012130103905767,1.0,2825.8676589153347,0.521524803842942,1.2882635174530526,0.9814578067846479,0.2845039464364042,0.7350259709999798
0.066,1.7000356533137695,1.0,2830.258213053296,0.5242086797126767,1.2876926009318803,0.9816151387845925,0.28445449743917833,0.7360745132941642
0.0665,1.6988582962369623,1.0,2834.659326652939,0.5268774994315838,1.287121620625135,0.9817691941736891,0.2844050484419524,0.7371210936530486
0.067,1.697680939160155,1.0,2839.0692237606813,0.5295313466324932,1.286550592509488,0.9819200630148357,0.2843555994447265,0.7381656821825937
0.0675,1.6965035820833478,1.0,2843.4861228710984,0.5321703049482349,1.2859795325616112,0.9820678322765897,0.2843061504475006,0.739208249221436
0.068,1.6953262250065406,1.0,2847.9082369124867,0.5347944580116388,1.2854084567581758,0.9822125859617483,0.2842567014502747,0.7402487653409326
0.0685,1.6941488679297336,1.0,2852.333773239051,0.5374038894555347,1.284837381075853,0.9823544052297282,0.2842072524530488,0.7412872013451826
0.069,1.6929715108529264,1.0,2856.7609336274804,0.5399986829127529,1.284266321491315,0.9824933685130813,0.2841578034558229,0.7423235282710342
0.0695,1.6917941537761192,1.0,2861.1879142800935,0.5425789220161229,1.2836952939812327,0.98262955162847,0.284108354458597,0.7433577173880802
0.07,1.690616796699312,1.0,2865.6129058335655,0.5451446903984749,1.283124314522278,0.9827630278823983,0.2840589054613711,0.7443897401986297
0.07050000000000001,1.6894394396225048,1.0,2870.0377142403295,0.5476960404677427,1.28255336699472,0.9828938647989675,0.2840094564641452,0.7454196262753414
0.07100000000000001,1.6882620825456975,1.0,2874.457832482278,0.550233093485855,1.2819824912454787,0.983022134415548,0.2839600074669193,0.7464473043080151
0.07150000000000001,1.6870847254688903,1.0,2878.872694324131,0.5527559274914507,1.281411692120616,0.98314790225156,0.2839105584696934,0.7474727663833278
0.07200000000000001,1.685907368392083,1.0,2883.2819048393976,0.555264618781137,1.28084097293663,0.9832712315507206,0.28386110947246745,0.7484960073979818
0.0725,1.6847300113152759,1.0,2887.685067995564,0.5577592436515206,1.2802703370100192,0.9833921835405955,0.2838116604752416,0.7495170222968439
