Time [s],Phi [rad],STIM [ ],Fsee [N],Gamma [ ],Lcerel [ ],q [ ],Lmtc [m],fisomrel [ ]
0.0,1.8,1.0,17.967495551051375,1.0048551703858153e-05,1.3793397084216665,0.005000026910167543,0.288653,0.5411396224954242
0.0005,1.79999375,1.0,18.27681262338249,0.005619201496069868,1.3793023801830147,0.012940648624074586,0.2886527375,0.5412299247050376
0.001,1.799975,1.0,21.61844959540708,0.011196891527340257,1.3789382951646636,0.03560882909528229,0.28865195,0.5421102310513338
0.0015,1.79994375,1.0,31.069287110305737,0.01674329512844122,1.3780461993749185,0.0706020506112075,0.2886506375,0.5442636197008273
0.002,1.7999,1.0,53.58232933738392,0.022258587790649157,1.3763681354822765,0.11471824572680375,0.2886488,0.5483004674540648
0.0025,1.79984375,1.0,97.118697378459,0.02774294402115164,1.3739351788375112,0.16457511919764475,0.28864643749999996,0.5541214350374954
0.003,1.7997750000000001,1.0,160.95792235184297,0.03319653735076702,1.3712143529069836,0.2172806870297578,0.28864354999999997,0.5605864291959486
0.0035,1.79969375,1.0,237.6830887763046,0.03861954033353409,1.3685847417110117,0.27061311978847824,0.2886401375,0.5667898219956211
0.004,1.7996,1.0,321.46655229333106,0.04401212455749479,1.3661560981978471,0.3229160253543271,0.2886362,0.572479948190461
0.0045000000000000005,1.7994937500000001,1.0,409.26757273235046,0.04937446064987859,1.3639228183462535,0.37303472000082355,0.2886317375,0.5776791527006371
0.005,1.799375,1.0,499.41335132298155,0.05470671826819115,1.3618583455947524,0.4202476599463478,0.28862675,0.582457071822158
0.0055,1.79924375,1.0,590.7902928990566,0.06000906614769186,1.3599388374653225,0.4641738832974519,0.2886212375,0.5868751061355617
0.006,1.7991000000000001,1.0,682.5180054048333,0.06528167204452208,1.3581464166182682,0.504680132987155,0.2886152,0.590979414105529
0.006500000000000001,1.79894375,1.0,773.881255924465,0.07052470279133206,1.3564672536503348,0.5418009167168724,0.2886086375,0.5948057942442215
0.007,1.798775,1.0,864.2857651074003,0.0757383242808756,1.3548903957409713,0.5756769253325571,0.28860155,0.5983826754171455
0.0075,1.79859375,1.0,953.2432627478327,0.0809227014757435,1.35340677846305,0.6065100476982127,0.2885939375,0.6017335744144412
0.008,1.7984,1.0,1040.3449345501494,0.0860779980138987,1.352008845400615,0.6345322975162465,0.2885858,0.6048781019123914
0.0085,1.79819375,1.0,1125.3150682268529,0.09120437799019743,1.3506892295970925,0.6599845412801628,0.2885771375,0.6078350262901715
0.009000000000000001,1.797975,1.0,1207.90044357033,0.09630200333155085,1.3494420314571454,0.6831042961952645,0.28856795,0.610619472739488
0.0095,1.79774375,1.0,1287.8920616117582,0.10137103457673571,1.3482621257103649,0.7041175753580958,0.2885582375,0.6132445529199555
0.01,1.7975,1.0,1365.1669086661327,0.1064116322645288,1.3471443870863413,0.7232343167068739,0.288548,0.6157231330180115
0.0105,1.79724375,1.0,1439.6599075346103,0.11142395633113825,1.3460839412767331,0.74064673823917,0.2885372375,0.6180673009896771
0.011,1.796975,1.0,1511.322816476735,0.11640816553443448,1.345076546285798,0.7565291987017023,0.28852595000000003,0.6202875548579894
0.0115,1.79669375,1.0,1580.1211885755506,0.12136441705331576,1.3441184809547448,0.7710386767317988,0.2885141375,0.6223930837544609
0.012,1.7964,1.0,1646.0565832141306,0.1262928675048774,1.3432061699620603,0.7843156541562321,0.28850180000000003,0.6243926176657314
0.0125,1.79609375,1.0,1709.1737895577444,0.13119367382643043,1.3423360369202333,0.7964853849158928,0.2884889375,0.6262947634749638
0.013000000000000001,1.7957750000000001,1.0,1769.5069391738805,0.13606699084257842,1.3415050684088885,0.8076595447155737,0.28847555,0.6281067865147971
0.0135,1.79544375,1.0,1827.0921934861046,0.14091297197939653,1.3407105876890109,0.8179375133891761,0.2884616375,0.6298351257544925
0.014,1.7951000000000001,1.0,1881.993346322966,0.14573177066295995,1.339949918021585,0.8274075739388772,0.2884472,0.631486139148972
0.0145,1.79474375,1.0,1934.279332075854,0.15052353935177984,1.339220599383682,0.836148237521597,0.2884322375,0.6330656407964779
0.015,1.794375,1.0,1984.0501900491442,0.15528843104663598,1.3385200738546053,0.8442292590301266,0.28841675,0.6345795905531653
0.0155,1.79399375,1.0,2031.3708439168806,0.1600265955690244,1.3378463685237227,0.8517128844908208,0.2884007375,0.6360326252402198
0.016,1.7936,1.0,2076.3120838818036,0.16473818220478284,1.3371976169069375,0.8586545764968881,0.2883842,0.6374291044396755
0.0165,1.7931937500000001,1.0,2118.958984159445,0.1694233402397489,1.336571952520152,0.865103784394759,0.2883671375,0.6387733443136879
0.017,1.792775,1.0,2159.393981827486,0.17408221785113892,1.3359676692557125,0.8711047028688532,0.28834955,0.6400692768331766
0.0175,1.7923437500000001,1.0,2197.721069383451,0.17871496400003603,1.335382957638364,0.8766968178564927,0.2883314375,0.6413210195336203
0.018000000000000002,1.7919,1.0,2234.0136337934987,0.1833217242999822,1.3348164231647226,0.8819155986732696,0.2883128,0.6425317690662673
0.0185,1.79144375,1.0,2268.3457331463187,0.1879026437790682,1.3342667489372175,0.8867928749581593,0.2882936375,0.6437045298308137
0.019,1.790975,1.0,2300.7989429338177,0.19245786746538499,1.3337326180582783,0.891357238019825,0.28827395,0.6448422820279571
0.0195,1.79049375,1.0,2331.4537370658527,0.1969875393405207,1.3332127921243766,0.8956344306378772,0.2882537375,0.6459478162138935
0.02,1.79,1.0,2360.398782914269,0.2014918043974369,1.332706012098068,0.8996476479555359,0.288233,0.6470239461536996
0.0205,1.78949375,1.0,2387.706830708826,0.20597080493105754,1.33221122805884,0.9034178731448442,0.2882117375,0.648073022804966
0.021,1.788975,1.0,2413.442541696643,0.21042468146875734,1.3317275130613326,0.9069641024119693,0.28818995000000003,0.649097120784896
0.021500000000000002,1.78844375,1.0,2437.674556492209,0.21485357453791099,1.3312539401601848,0.910303536685206,0.2881676375,0.650098300791941
0.022,1.7879,1.0,2460.4751610959656,0.2192576246658932,1.3307895824100364,0.9134517760380129,0.2881448,0.6510786102327606
0.0225,1.78734375,1.0,2481.8838114232467,0.22363697025462334,1.3303338575565575,0.9164230587552211,0.28812143749999997,0.6520393576269259
0.023,1.786775,1.0,2502.0325355144537,0.22799175308518665,1.3298853277315528,0.9192301713659379,0.28809755,0.6529836433273152
0.0235,1.78619375,1.0,2520.970941589628,0.23232211038699488,1.3294433689012948,0.9218849182680613,0.28807313749999996,0.6539128402007826
0.024,1.785602747079623,1.0,2538.8476978453223,0.23662817763970476,1.3290076830685222,0.9243981281160549,0.28804831537734416,0.6548276290876366
0.0245,1.7850110342377952,1.0,2556.1173142386424,0.24091009032297303,1.3285779722359743,0.9267796931586716,0.2880234634379874,0.6557286867388243
0.025,1.7844193213959674,1.0,2572.8390607413276,0.24516798391645644,1.3281539384063898,0.9290386630162613,0.2879986114986306,0.6566166859323193
0.025500000000000002,1.7838276085541398,1.0,2589.038945761935,0.24940199389981177,1.327735283582508,0.931183327934124,0.28797375955927385,0.6574922955838427
0.026000000000000002,1.783235895712312,1.0,2604.739099983332,0.25361225483468525,1.3273217514308207,0.9332212991886047,0.2879489076199171,0.6583560938783803
0.0265,1.7826441828704842,1.0,2619.949374331839,0.2577989002195064,1.3269132043062837,0.9351595864074828,0.28792405568056034,0.6592084083233356
0.027,1.7820524700286564,1.0,2634.684541224118,0.26196206179158493,1.3265094621853546,0.9370046286598513,0.2878992037412036,0.660049652753286
0.0275,1.7814607571868286,1.0,2648.9601033966433,0.2661018709479031,1.3261103417700402,0.9387623547462621,0.2878743518018468,0.6608802455058278
0.028,1.780869044345001,1.0,2662.785250863528,0.27021844954542734,1.3257157211728485,0.9404382361176943,0.28784949986249003,0.6617004750664899
0.0285,1.7802773315031732,1.0,2676.1746811144576,0.27431192585685354,1.32532543047221,0.942037319244822,0.2878246479231333,0.662510727959411
0.029,1.7796856186613454,1.0,2689.162510439541,0.27838245626386765,1.3249391247885305,0.9435642542132578,0.2877997959837765,0.6633117512170403
0.029500000000000002,1.7790939058195177,1.0,2701.7598756122698,0.282430164590904,1.3245566735371317,0.9450233606988644,0.2877749440444197,0.664103844587091
0.03,1.77850219297769,1.0,2713.9781479376934,0.2864551746623967,1.3241779461333354,0.9464186400502373,0.28775009210506297,0.6648873062524627
0.0305,1.7779104801358623,1.0,2725.8289222821754,0.2904576103027801,1.3238028119924632,0.9477538027935584,0.2877252401657062,0.6656624328627982
0.031,1.7773187672940345,1.0,2737.3240064808583,0.29443759533648844,1.3234311405298371,0.9490322934369743,0.28770038822634947,0.6664295195649514
0.0315,1.7767270544522067,1.0,2748.475411123341,0.2983952535879559,1.3230628011607786,0.9502573128688853,0.28767553628699266,0.6671888600323701
0.032,1.7761353416103791,1.0,2759.295339717234,0.3023307088816167,1.3226976633006096,0.9514318386095396,0.2876506843476359,0.6679407464933879
0.0325,1.7755436287685513,1.0,2769.796179230053,0.3062440850419052,1.3223355963646517,0.9525586431448195,0.28762583240827916,0.6686854697584322
0.033,1.7749519159267235,1.0,2779.9904910088962,0.3101355058932555,1.3219764697682266,0.9536403105444212,0.28760098046892235,0.6694233192461425
0.0335,1.7743602030848957,1.0,2789.8910020785233,0.3140050952601019,1.3216201529266562,0.9546792515433327,0.2875761285295656,0.6701545830084001
0.034,1.7737684902430682,1.0,2799.5105968173157,0.31785297696687864,1.3212665152552625,0.9556777172450723,0.28755127659020885,0.6708795477542735
0.0345,1.7731767774012404,1.0,2808.862309011215,0.32167927483801995,1.3209154261693667,0.9566378115872647,0.2875264246508521,0.6715984988728754
0.035,1.7725850645594126,1.0,2817.9593142859994,0.32548411269796007,1.320566755084291,0.957561502694385,0.28750157271149535,0.6723117204551282
0.035500000000000004,1.7719933517175848,1.0,2826.807466620653,0.3292676012297194,1.3202204380135072,0.9584506370803331,0.28747672077213854,0.6730193593062423
0.036000000000000004,1.7714016388757572,1.0,2835.421030231529,0.3330298704150737,1.3198763367010324,0.9593069419200451,0.2874518688327818,0.6737217130699227
0.0365,1.7708099260339294,1.0,2843.8126133396036,0.3367710457175397,1.319534328780296,0.9601320374826241,0.28742701689342504,0.6744190456981047
0.037,1.7702182131921016,1.0,2851.989233385325,0.3404912417292069,1.3191943425907755,0.9609274471096336,0.2874021649540683,0.6751115167667177
0.0375,1.7696265003502738,1.0,2859.9579818919888,0.34419057304216477,1.3188563064719476,0.9616946017081744,0.2873773130147115,0.6757992851500874
0.038,1.769034787508446,1.0,2867.7260213103255,0.3478691542485027,1.3185201487632903,0.962434846388278,0.2873524610753547,0.6764825090300111
0.0385,1.7684430746666184,1.0,2875.3005819770483,0.3515270999403102,1.3181857978042801,0.9631494465535816,0.287327609135998,0.6771613459045082
0.039,1.7678513618247906,1.0,2882.6889591873864,0.3551645247096767,1.317853181934395,0.963839593495804,0.2873027571966412,0.6778359525962385
0.0395,1.7672596489829628,1.0,2889.898510381412,0.3587815431486917,1.3175222294931117,0.9645064095383776,0.2872779052572844,0.6785064852605985
0.04,1.766667936141135,1.0,2896.936652444353,0.3623782698494446,1.3171928688199077,0.9651509527700263,0.28725305331792766,0.6791730993934848
0.0405,1.7660762232993075,1.0,2903.810859120328,0.3659548194040249,1.3168650282542604,0.9657742214050089,0.2872282013785709,0.6798359498387332
0.041,1.7654845104574797,1.0,2910.528658540473,0.3695113064045221,1.3165386361356468,0.966377157803107,0.28720334943921416,0.6804951907952315
0.0415,1.7648927976156519,1.0,2917.0976308645195,0.3730478454430256,1.3162136208035444,0.9669606521792068,0.28717849749985735,0.6811509758236998
0.042,1.764301084773824,1.0,2923.5213768184403,0.376564538778147,1.3158899459853386,0.9675255469301792,0.2871536455605006,0.6818033865605226
0.0425,1.7637093719319965,1.0,2929.8070552092963,0.3800615034373791,1.315567544458038,0.9680726387724266,0.28712879362114385,0.6824525665966973
0.043000000000000003,1.7631176590901687,1.0,2935.9646255864377,0.3835388650351623,1.3152463248386195,0.9686026811400995,0.2871039416817871,0.6830987075119376
0.043500000000000004,1.762525946248341,1.0,2941.9979568956937,0.38699672948134933,1.3149262495373242,0.9691163887264035,0.28707908974243035,0.6837418920674587
0.044,1.7619342334065131,1.0,2947.9109446051884,0.3904352026857928,1.3146072809643927,0.9696144387984446,0.28705423780307354,0.6843822026919377
0.0445,1.7613425205646855,1.0,2953.707509767403,0.39385439055834554,1.314289381530066,0.970097473528144,0.2870293858637168,0.6850197214842111
0.045,1.7607508077228577,1.0,2959.3915981123046,0.3972543990088602,1.3139725136445846,0.9705661021558464,0.28700453392436004,0.6856545302158839
0.0455,1.76015909488103,1.0,2964.967179171926,0.40063533394718953,1.3136566397181892,0.9710209030001584,0.28697968198500323,0.6862867103338458
0.046,1.7595673820392022,1.0,2970.438245436697,0.40399730128318617,1.3133417221611206,0.9714624253263352,0.2869548300456465,0.6869163429627014
0.0465,1.7589756691973744,1.0,2975.8088115422042,0.4073404069267029,1.3130277233836196,0.9718911910844437,0.28692997810628973,0.6875435089071049
0.047,1.7583839563555468,1.0,2981.0829134880355,0.4106647567875924,1.312714605795927,0.9723076965275357,0.286905126166933,0.6881682886540117
0.0475,1.757792243513719,1.0,2986.2646078878533,0.4139704567757073,1.3124023318082831,0.9727124137191822,0.2868802742275762,0.6887907623748322
0.048,1.7572005306718912,1.0,2991.3579712503783,0.41725761280090046,1.3120908638309292,0.9731057919389019,0.2868554222882194,0.6894110099275013
0.0485,1.7566088178300634,1.0,2996.3670992922907,0.42052633077302454,1.3117801642741056,0.9734882589932924,0.28683057034886267,0.6900291108584558
0.049,1.7560171049882358,1.0,3001.2961062818376,0.42377671660193217,1.3114701955480532,0.9738602224400084,0.2868057184095059,0.6906451444045201
0.0495,1.755425392146408,1.0,3006.143536197476,0.4270088444999145,1.3111609684641488,0.9742220702535445,0.2867808664701491,0.6912590934453222
0.05,1.7548336793045802,1.0,3010.918171065426,0.43022285477248756,1.3108524052258481,0.9745741742456433,0.28675601453079236,0.6918711165985495
0.0505,1.7542419664627524,1.0,3015.6230291078473,0.43341885093599336,1.3105444781541122,0.9749168881265301,0.2867311625914356,0.6924812726020093
0.051000000000000004,1.7536502536209249,1.0,3020.26004289154,0.43659692982046466,1.310237169061361,0.9752505493701034,0.28670631065207886,0.6930896011887516
0.051500000000000004,1.753058540779097,1.0,3024.831154039461,0.43975718825593446,1.309930459760015,0.9755754802441735,0.2866814587127221,0.6936961419417913
0.052000000000000005,1.7524668279372693,1.0,3029.3383129851613,0.4428997230724356,1.309624332062494,0.9758919886288804,0.2866566067733653,0.6943009342948163
0.0525,1.7518751150954415,1.0,3033.7834787351026,0.446024631100001,1.3093187677812184,0.9762003687841633,0.28663175483400855,0.6949040175328722
0.053,1.751283402253614,1.0,3038.1686186369357,0.4491320091686636,1.3090137487286084,0.9765009020698694,0.2866069028946518,0.6955054307930244
0.0535,1.750691689411786,1.0,3042.4957081564876,0.4522219541084562,1.3087092567170842,0.9767938576218108,0.286582050955295,0.6961052130650045
0.054,1.7500999765699583,1.0,3046.7667306617773,0.4552945627494118,1.3084052735590659,0.9770794929868144,0.28655719901593824,0.6967034031918296
0.0545,1.7495082637281305,1.0,3050.983677213634,0.4583499319215633,1.3081017810669737,0.977358054719584,0.2865323470765815,0.6973000398704037
0.055,1.748916550886303,1.0,3055.1485463645195,0.4613881584549435,1.3077987610532278,0.9776297789439696,0.28650749513722473,0.6978951616520982
0.0555,1.7483248380444751,1.0,3059.263343964091,0.46440933917958543,1.3074961953302484,0.9778948918810512,0.286482643197868,0.6984888069433091
0.056,1.7477331252026473,1.0,3063.330082972553,0.4674135709255219,1.3071940657104557,0.9781536103462549,0.2864577912585112,0.6990810140059955
0.0565,1.7471414123608195,1.0,3067.3507832812384,0.47040095052278574,1.30689235400627,0.9784061422175615,0.2864329393191544,0.699671820958196
0.057,1.746549699518992,1.0,3071.327471540033,0.47337157480141,1.3065910420301112,0.9786526868767089,0.28640808737979767,0.7002612657745235
0.0575,1.7459579866771642,1.0,3075.2621809926627,0.47632554059142745,1.3062901115944,0.9788934356251544,0.28638323544044086,0.7008493862866392
0.058,1.7453662738353364,1.0,3079.1525980602396,0.4792628929117736,1.3059895817666927,0.9791285697094607,0.2863583835010841,0.7014361474816471
0.0585,1.7447745609935086,1.0,3083.004976029395,0.48218379138018036,1.3056893983058426,0.9793582688785715,0.28633353156172736,0.7020216574088389
0.059000000000000004,1.7441828481516808,1.0,3086.820204055711,0.48508832338950736,1.305389552962914,0.9795827021640262,0.2863086796223706,0.7026059341234423
0.059500000000000004,1.7435911353098532,1.0,3090.5991673055096,0.4879765762402702,1.3050900375500356,0.9798020319870309,0.28628382768301386,0.7031889954965493
0.06,1.7429994224680254,1.0,3094.3427540259627,0.49084863723298455,1.304790843879336,0.9800164144726319,0.28625897574365705,0.7037708593345733
0.0605,1.7424077096261976,1.0,3098.051855486048,0.49370459366816616,1.3044919637629446,0.9802259997424577,0.2862341238043003,0.7043515433794184
0.061,1.7418159967843698,1.0,3101.727365918916,0.49654453284633066,1.30419338901299,0.9804309321916739,0.28620927186494355,0.7049310653086471
0.0615,1.7412242839425423,1.0,3105.370182465325,0.49936854206799375,1.303895111441601,0.9806313507511195,0.28618441992558674,0.7055094427356405
0.062,1.7406325711007145,1.0,3108.981205119795,0.5021767086336711,1.3035971228609067,0.9808273891355208,0.28615956798623,0.7060866932097563
0.0625,1.7400408582588867,1.0,3112.56133667638,0.5049691198438785,1.3032994150830357,0.9810191760786225,0.28613471604687324,0.7066628342164809
0.063,1.7394491454170589,1.0,3116.111482677724,0.5077458629991314,1.3030019799201171,0.9812068355560211,0.2861098641075165,0.7072378831775796
0.0635,1.7388574325752313,1.0,3119.6325513644388,0.5105070253999455,1.3027048091842797,0.9813904869964267,0.28608501216815974,0.70781185745124
0.064,1.7382657197334035,1.0,3123.12545362643,0.5132526943468367,1.3024078946876523,0.9815702454820382,0.28606016022880293,0.7083847743322125
0.0645,1.7376740068915757,1.0,3126.591102955845,0.5159829571403206,1.302111228242364,0.9817462219386666,0.2860353082894462,0.708956651051946
0.065,1.737082294049748,1.0,3130.0304154009173,0.5186979010809127,1.3018148016605433,0.9819185233162037,0.2860104563500894,0.7095275047787211
0.0655,1.7364905812079203,1.0,3133.444309521989,0.5213976134691288,1.3015186067543194,0.9820872527599912,0.2859856044107326,0.7100973526177745
0.066,1.7358988683660925,1.0,3136.833706348715,0.5240821816054847,1.301222635335821,0.9822525097736131,0.28596075247137587,0.7106662116114255
0.0665,1.7353071555242647,1.0,3140.1995293383247,0.5267516927904958,1.300926879217177,0.9824143903735963,0.2859359005320191,0.7112340987391917
0.067,1.734715442682437,1.0,3143.542704336532,0.529406234324678,1.3006313302105164,0.9825729872364796,0.28591104859266236,0.7118010309179065
0.0675,1.7341237298406091,1.0,3146.8631828831353,0.5320458677271923,1.3003359883957626,0.9827283885765901,0.2858861966533056,0.7123670091656262
0.068,1.7335320169987816,1.0,3150.161816914941,0.5346706887771151,1.3000408462368418,0.9828806814211124,0.2858613447139488,0.7129320490735964
0.0685,1.7329403041569538,1.0,3153.440002479594,0.5372808044465235,1.2997458916144373,0.9830299503117135,0.28583649277459205,0.7134961749370727
0.069,1.732348591315126,1.0,3156.6981484947714,0.5398762929715211,1.2994511207799286,0.9831762755276331,0.2858116408352353,0.7140593949733565
0.0695,1.7317568784732982,1.0,3159.9366650215243,0.5424572325882112,1.2991565299846954,0.9833197346661564,0.2857867888958785,0.7146217173709057
0.07,1.7311651656314706,1.0,3163.155963249583,0.5450237015326976,1.2988621154801174,0.9834604027505627,0.28576193695652174,0.7151831502893781
0.07050000000000001,1.7305734527896428,1.0,3166.356455482054,0.5475757780410836,1.2985678735175739,0.9835983523330261,0.285737085017165,0.7157437018596748
