Time [s],Phi [rad],STIM [ ],Fsee [N],Gamma [ ],Lcerel [ ],q [ ],Lmtc [m],fisomrel [ ]
0.0,1.8,1.0,17.966273807192294,1.0319926302817772e-05,1.3793398452988794,0.005000028377326372,0.288653,0.5411392913540249
0.0005,1.79999375,1.0,18.2757952518866,0.005619471348472484,1.3793024931945452,0.012941404505478236,0.2886527375,0.5412296513278124
0.001,1.799975,1.0,21.61770102732625,0.011197159866083883,1.3789383716204169,0.03561025124682407,0.28865195,0.5421100462808255
0.0015,1.79994375,1.0,31.06897549664654,0.016743561962017227,1.378046225923377,0.07060400016187514,0.2886506375,0.5442635556922545
0.002,1.7999,1.0,53.582854856502564,0.02225885312749913,1.3763681013893692,0.11472055545068445,0.2886488,0.548300549287505
0.0025,1.79984375,1.0,97.1203341822027,0.027743207869672083,1.37393509996408,0.16457763065604827,0.28864643749999996,0.5541216231340991
0.003,1.7997750000000001,1.0,160.9604523387531,0.03319679971930574,1.3712142582074658,0.21728327580388945,0.28864354999999997,0.5605866533912021
0.0035,1.79969375,1.0,237.68617771288052,0.03861980123039224,1.3685846465638545,0.27061569267855984,0.2886401375,0.5667900456549697
0.004,1.7996,1.0,321.4699922357912,0.04401238399092758,1.366156007087123,0.3229185151540431,0.2886362,0.5724801609503021
0.0045000000000000005,1.7994937500000001,1.0,409.2712474387453,0.04937471862809614,1.3639227320870626,0.37303708239904304,0.2886317375,0.5776793529027043
0.005,1.799375,1.0,499.41719309045226,0.05470697479936632,1.3618582639576573,0.42024986927042834,0.28862675,0.5824572602217808
0.0055,1.79924375,1.0,590.7942352537381,0.060009321239911526,1.3599387604413928,0.46417592818913955,0.2886212375,0.5868752829461532
0.006,1.7991000000000001,1.0,682.5220166897554,0.06528192570586876,1.358146343703887,0.5046820116333093,0.2886152,0.5909795806490346
0.006500000000000001,1.79894375,1.0,773.8854507555175,0.0705249550308163,1.3564671820419134,0.5418026322748398,0.2886086375,0.594805957037938
0.007,1.798775,1.0,864.2899355217985,0.0757385751032373,1.3548903283754947,0.5756784885010422,0.28860155,0.5983828278875432
0.0075,1.79859375,1.0,953.2468130882551,0.08092295088892726,1.3534067238551972,0.6065114746200566,0.2885939375,0.6017336974934195
0.008,1.7984,1.0,1040.362838804989,0.0860782464314308,1.352008581795956,0.6345334689724278,0.2885858,0.6048786936926014
0.0085,1.79819375,1.0,1125.3258657722465,0.09120462484440031,1.3506890767439725,0.6599856593889059,0.2885771375,0.6078353681519775
0.009000000000000001,1.797975,1.0,1207.8910501877897,0.09630224831727337,1.3494421598067872,0.6831054626126217,0.28856795,0.6106191867014281
0.0095,1.79774375,1.0,1287.8625671619109,0.10137127748984598,1.3482625160030675,0.7041187785244204,0.2885582375,0.6132436860561645
0.01,1.7975,1.0,1365.1671257960975,0.106411874703507,1.3471443842956343,0.7232352219935163,0.288548,0.6157231391964444
0.0105,1.79724375,1.0,1439.6788061294267,0.11142419805913807,1.3460837047471252,0.7406474489678426,0.2885372375,0.6180678230500787
0.011,1.796975,1.0,1511.3322993703214,0.11640840562120829,1.3450764304483571,0.7565298988111293,0.28852595000000003,0.6202878097864164
0.0115,1.79669375,1.0,1580.11838145445,0.12136465545418681,1.344118514490147,0.7710393819208734,0.2885141375,0.6223930101565511
0.012,1.7964,1.0,1646.0578874657358,0.12629310482476877,1.343206154696024,0.7843162798127407,0.28850180000000003,0.6243926510802581
0.0125,1.79609375,1.0,1709.1782369009961,0.13119390992960436,1.342335985835088,0.7964859437356019,0.2884889375,0.6262948750073929
0.013000000000000001,1.7957750000000001,1.0,1769.5023943093868,0.1360672251694877,1.3415051197165784,0.8076600977916395,0.28847555,0.6281066747683848
0.0135,1.79544375,1.0,1827.080564738455,0.14091320468774085,1.340710716882547,0.8179380529161242,0.2884616375,0.6298348450299137
0.014,1.7951000000000001,1.0,1881.9833576367682,0.14573200197408137,1.3399500273636529,0.8274080657453297,0.2884472,0.6314859020900883
0.0145,1.79474375,1.0,1934.290777059101,0.15052377054274693,1.3392204758053579,0.8361486121019757,0.2884322375,0.6330659081453656
0.015,1.794375,1.0,1984.059956173018,0.1552886608526662,1.3385199697349446,0.8442296105935981,0.28841675,0.63457981534009
0.0155,1.79399375,1.0,2031.3662734860707,0.1600268233627679,1.3378464166796946,0.8517132582160802,0.2884007375,0.6360325214817926
0.016,1.7936,1.0,2076.2972189934612,0.1647384081176332,1.3371977718255115,0.8586549569385905,0.2883842,0.6374287712879794
0.0165,1.7931937500000001,1.0,2118.9428764124054,0.16942356462995437,1.3365721186936372,0.8651041427794692,0.2883671375,0.6387729876214163
0.017,1.792775,1.0,2159.3995182295816,0.17408244254096802,1.3359676126775573,0.87110497473127,0.28834955,0.6400693980604046
0.0175,1.7923437500000001,1.0,2197.733674233588,0.17871518777310477,1.3353828299538713,0.8766970511696346,0.2883314375,0.6413212926407292
0.018000000000000002,1.7919,1.0,2234.02124444233,0.18332194624879516,1.3348163466991785,0.8819158288197976,0.2883128,0.6425319323437995
0.0185,1.79144375,1.0,2268.346720737855,0.18790286389046976,1.3342667390900786,0.8867931064884131,0.2882936375,0.6437045508229761
0.019,1.790975,1.0,2300.7947545965285,0.19245808566316921,1.333732659524063,0.8913574671267133,0.28827395,0.6448421937723081
0.0195,1.79049375,1.0,2331.4550695315293,0.19698775702968035,1.33321277901959,0.895634633083203,0.2882537375,0.6459478440626336
0.02,1.79,1.0,2360.407370602117,0.2014920217939961,1.3327059281577633,0.8996478220156803,0.288233,0.6470241242623764
0.0205,1.78949375,1.0,2387.715583646054,0.20597102104085047,1.3322111429939605,0.9034180359463901,0.2882117375,0.6480732030313978
0.021,1.788975,1.0,2413.448073983277,0.21042489585497734,1.3317274595835586,0.9069642617378232,0.28818995000000003,0.6490972339229544
0.021500000000000002,1.78844375,1.0,2437.677278198226,0.21485378732111074,1.331253913981935,0.910303692082933,0.2881676375,0.6500983560958189
0.022,1.7879,1.0,2460.4747285395542,0.21925783563326895,1.3307895865511836,0.913451928362172,0.2881448,0.6510786014964829
0.0225,1.78734375,1.0,2481.910866526368,0.22363718087977194,1.3303335996605228,0.9164231504906004,0.28812143749999997,0.6520399009417139
0.023,1.786775,1.0,2502.0581372143806,0.2279919635348664,1.3298850846742951,0.9192302604005593,0.28809755,0.6529841546856925
0.0235,1.78619375,1.0,2520.9689251373507,0.23232231959251096,1.3294433879730865,0.9218850510073772,0.28807313749999996,0.6539128001301481
0.024,1.7856,1.0,2538.6977238677127,0.2366283850466644,1.329007855937482,0.9243982818671515,0.2880482,0.6548272663629499
0.0245,1.78499375,1.0,2555.300960135419,0.2409102958912854,1.328577834948068,0.9267797839554184,0.2880227375,0.6557289744286998
0.025,1.784375,1.0,2570.836827419549,0.2451681881203327,1.3281526713854295,0.9290385525526784,0.28799675,0.6566193375720866
0.025500000000000002,1.78374375,1.0,2585.356410950727,0.24940219565288407,1.3277317930530737,0.9311828423807398,0.2879702375,0.6574995912698256
0.026000000000000002,1.7831000000000001,1.0,2598.91714732683,0.2536124548812485,1.3273145813610738,0.9332202205372752,0.2879432,0.6583710613151308
0.0265,1.78244375,1.0,2611.5719882113876,0.2577991003536383,1.3269004714489516,0.9351576466448424,0.2879156375,0.6592349546124144
0.027,1.781775,1.0,2623.3596516366847,0.26196226255917443,1.3264890408223002,0.93700154297947,0.28788755,0.6600921754557856
0.0275,1.7810937500000001,1.0,2634.319742517254,0.26610207198697783,1.3260798669867124,0.9387578242934653,0.2878589375,0.6609436235520662
0.028,1.7804,1.0,2644.4926766507547,0.2702186591261694,1.3256725274477807,0.9404319446335243,0.2878298,0.6617901940872912
0.0285,1.77969375,1.0,2653.9196086764728,0.27431215446587004,1.3252665997110984,0.9420289392732331,0.2878001375,0.6626327777818243
0.029,1.778975,1.0,2662.6423639917552,0.27838268849520065,1.3248616612822584,0.9435534623228798,0.28776995,0.663472260934092
0.029500000000000002,1.7782437500000001,1.0,2670.69487869571,0.2824303876990997,1.3244573677371474,0.9450098297453804,0.2877392375,0.66430936390651
0.03,1.7775,1.0,2678.122824599154,0.28645538550335986,1.324053271541117,0.9464020283567471,0.287708,0.6651450165927904
0.0305,1.77674375,1.0,2684.957369243668,0.2904578086351545,1.3236490627589745,0.9477337712517191,0.2876762375,0.6659798602526702
0.031,1.775975,1.0,2691.225863513343,0.2944377817657013,1.3232444699056356,0.949008509678002,0.28764395,0.6668144536843899
0.0315,1.7751937500000001,1.0,2696.955987133919,0.2983954295662179,1.3228392214960165,0.9502294508395915,0.2876111375,0.667649352882162
0.032,1.7744,1.0,2702.1757178222165,0.30233087670792214,1.3224330460450333,0.9513995781699836,0.2875778,0.668485111027173
0.0325,1.77359375,1.0,2706.9133020696067,0.30624424786203164,1.3220256720676018,0.9525216696862917,0.2875439375,0.6693222784738819
0.033,1.772775,1.0,2711.1972275596363,0.3101356676997642,1.3216168280786382,0.9535983146265353,0.28750955,0.6701614027316188
0.0335,1.7719437500000002,1.0,2715.0498417506774,0.31400525653121264,1.3212063005153627,0.9546319339839536,0.2874746375,0.6710029097870999
0.034,1.7711000000000001,1.0,2718.4978190940255,0.3178531390200566,1.3207938379965223,0.9556247853177646,0.2874392,0.6718473007125672
0.0345,1.7702437500000001,1.0,2721.5736716787032,0.32167944432984186,1.3203791375116116,0.9565789740291744,0.2874032375,0.6726951793600633
0.035,1.7693750000000001,1.0,2724.2942313582766,0.3254842904388385,1.3199620401442465,0.9574964822986892,0.28736675,0.6735468522536086
0.035500000000000004,1.76849375,1.0,2726.676437406875,0.32926779532531625,1.319542386978043,0.9583791658393961,0.2873297375,0.6744026241210928
0.036000000000000004,1.7676,1.0,2728.737325354149,0.33303007696754505,1.319120019096617,0.9592287634166483,0.2872922,0.6752627978691799
0.0365,1.76669375,1.0,2730.4940163802253,0.3367712533437948,1.3186947775835844,0.9600469055473476,0.2872541375,0.6761276745565996
0.037,1.765775,1.0,2731.9637072701285,0.3404914424323355,1.3182665035225616,0.9608351224579443,0.28721555,0.6769975533658268
0.0375,1.76484375,1.0,2733.1636609290845,0.34419076221143696,1.3178350379971642,0.9615948513718829,0.2871764375,0.6778727315731543
0.038,1.7639,1.0,2734.1111974565697,0.3478693306593691,1.3174002220910084,0.9623274431897902,0.28713679999999997,0.6787535045171511
0.0385,1.76294375,1.0,2734.823685781408,0.3515272657544018,1.31696189688771,0.9630341686191279,0.28709663750000003,0.6796401655655127
0.039,1.761975,1.0,2735.3094361509166,0.3551646789276632,1.3165199860958112,0.9637162301835681,0.28705595,0.6805328392917969
0.0395,1.7609937500000001,1.0,2735.588509741064,0.3587816915565775,1.3160743070208847,0.9643747528314797,0.2870147375,0.6814318636520011
0.04,1.76,1.0,2735.678194379221,0.3623784209321883,1.3156247024131935,0.9650107985027898,0.286973,0.682337523043951
0.0405,1.7589937500000001,1.0,2735.5878968439183,0.36595497809342564,1.3151710867792332,0.9656253741112718,0.2869307375,0.683249955543358
0.041,1.757975,1.0,2735.327041689737,0.3695114740792196,1.314713374625499,0.9662194300979479,0.28688795,0.6841692979331322
0.0415,1.75694375,1.0,2734.905068230802,0.3730480199285002,1.3142514804584864,0.966793864182992,0.2868446375,0.6850956856812804
0.042,1.7559,1.0,2734.33142768636,0.37656472668019747,1.313785318784691,0.967349524830944,0.28680079999999997,0.6860292529183348
0.0425,1.75484375,1.0,2733.6155804886753,0.3800617053732416,1.313314804110608,0.9678872144538675,0.2867564375,0.686970132414322
0.043000000000000003,1.753775,1.0,2732.7669937520973,0.38353906704656243,1.3128398509427328,0.9684076923747386,0.28671155,0.6879184555552574
0.043500000000000004,1.75269375,1.0,2731.7951389053255,0.38699692273909014,1.3123603737875609,0.9689116775712618,0.28666613750000003,0.6888743523191814
0.044,1.7516,1.0,2730.709489484717,0.39043538348975476,1.3118762871515877,0.9693998512184236,0.2866202,0.6898379512517234
0.0445,1.75049375,1.0,2729.5139030433647,0.39385455211650156,1.3113875565889002,0.9698728618014153,0.2865737375,0.6908092780663091
0.045,1.7493750000000001,1.0,2728.2224968707005,0.3972545467359103,1.3108940544063943,0.9703313194938393,0.28652675,0.6917885425215369
0.0455,1.74824375,1.0,2726.8421821262214,0.40063547446296466,1.3103957183739163,0.9707758067341555,0.2864792375,0.692775822752361
0.046,1.7471,1.0,2725.378119612519,0.4039974398054183,1.30989250216235,0.9712068774036954,0.2864312,0.6937711642332842
0.0465,1.7459437500000001,1.0,2723.8354687153565,0.40734054727102514,1.3093843594425787,0.9716250577280999,0.28638263750000004,0.6947746113912796
0.047,1.744775,1.0,2722.219386641354,0.41066490136753897,1.3088712438854857,0.9720308479174598,0.28633355,0.6957862075913037
0.0475,1.74359375,1.0,2720.5350277043785,0.41397060660271356,1.3083531091619545,0.972424723694221,0.28628393750000003,0.6968059951216703
0.048,1.7424,1.0,2718.787542657593,0.4172577674843028,1.3078299089428687,0.9728071377175139,0.2862338,0.6978340151792896
0.0485,1.74119375,1.0,2716.982078075413,0.4205264885200606,1.3073015968991113,0.9731785209118307,0.2861831375,0.6988703078547708
0.049,1.739975,1.0,2715.123775780928,0.4237768742177406,1.3067681267015663,0.9735392837072958,0.28613195,0.6999149121173845
0.0495,1.73874375,1.0,2713.217869279213,0.4270090290596522,1.3062294511371755,0.9738898171351301,0.2860802375,0.7009678675262253
0.05,1.7375,1.0,2711.2729024925134,0.43022305502562597,1.305685492747732,0.9742304916573246,0.286028,0.7020292714399756
0.0505,1.73624375,1.0,2709.287894801682,0.4334190535370397,1.3051362608698411,0.9745616663071444,0.2859752375,0.7030990507090953
0.051000000000000004,1.734975,1.0,2707.2662729617227,0.4365971249064069,1.3045817246364921,0.9748836809150576,0.28592195,0.7041772098771049
0.051500000000000004,1.73369375,1.0,2705.21145949864,0.4397573694462412,1.3040218531806749,0.9751968598955457,0.2858681375,0.7052637525146307
0.052000000000000005,1.7324,1.0,2703.124802867433,0.4428998872864851,1.303456634538991,0.9755015142679696,0.2858138,0.706358644624583
0.0525,1.73109375,1.0,2701.0072098290834,0.44602477776851757,1.3028860607710655,0.9757979413647567,0.28575893750000003,0.7074618437199822
0.053,1.729775,1.0,2698.8847363241357,0.4491321413153232,1.3023098940392985,0.9760864111343657,0.28570355000000003,0.7085737498914162
0.0535,1.72844375,1.0,2696.7459304187582,0.4522220751139774,1.3017282391291578,0.9763672025627269,0.2856476375,0.7096940998469954
0.054,1.7271,1.0,2694.5793584668286,0.4552946763515555,1.3011412008261105,0.9766405825333285,0.2855912,0.71082263126597
0.0545,1.7257474678001228,1.0,2692.5570650352547,0.45835004221513304,1.300548883915624,0.9769068064564113,0.28553439364760513,0.7119590828350534
0.055,1.724394608599004,1.0,2691.0845518990213,0.4613882698917854,1.2999513931831654,0.9771661188604468,0.28547757356115816,0.71310319428405
0.0555,1.7230417493978856,1.0,2690.14771297232,0.46440945500297215,1.2993490013344762,0.9774187637427999,0.2854207534747112,0.7142543858420018
0.056,1.7216888901967669,1.0,2689.683112224869,0.467413694969118,1.2987422866677576,0.9776649929767877,0.2853639333882642,0.7154114992235949
0.0565,1.7203360309956481,1.0,2689.6579777051334,0.4704010837070148,1.2981315481449316,0.9779050314935438,0.28530711330181724,0.7165739158185789
0.057,1.7189831717945294,1.0,2690.0396794868957,0.4733717151275887,1.2975170844698454,0.9781390949916022,0.2852502932153702,0.7177410218385296
0.0575,1.7176303125934107,1.0,2690.7956758180594,0.4763256831417661,1.2968991943463464,0.9783673904136273,0.28519347312892324,0.7189122078969721
0.058,1.716277453392292,1.0,2691.8934894389135,0.47926308166047316,1.2962781764782816,0.9785901163806225,0.28513665304247626,0.7200868690775009
0.0585,1.7149245941911735,1.0,2693.311325336729,0.4821840011253838,1.2956542322132067,0.9788074578733115,0.2850798329560293,0.7212645885663879
0.059000000000000004,1.7135717349900548,1.0,2695.008341056477,0.4850885395231592,1.2950277374706487,0.9790196028520104,0.2850230128695823,0.7224446241165497
0.059500000000000004,1.712218875788936,1.0,2696.9652151785417,0.48797678738929956,1.294398871339345,0.979226720533573,0.2849661927831353,0.7236266089098207
0.06,1.7108660165878173,1.0,2699.1642405297102,0.4908488346959767,1.2937677982528493,0.9794289727314267,0.2849093726966883,0.7248102063446213
0.0605,1.7095131573866986,1.0,2701.587714684667,0.49370477141536256,1.2931346826447139,0.9796265150381311,0.28485255261024134,0.7259950823685679
0.061,1.70816029818558,1.0,2704.217932219681,0.49654468751962905,1.2924996889484923,0.9798194971167407,0.28479573252379436,0.7271809055007501
0.0615,1.7068074389844614,1.0,2707.0371775658487,0.4993686729809481,1.2918629815977374,0.9800080629764205,0.2847389124373474,0.7283673468522922
0.062,1.7054545797833427,1.0,2710.02771846181,0.5021768177714916,1.2912247250260025,0.9801923512332807,0.28468209235090036,0.7295540801451825
0.0625,1.704101720582224,1.0,2713.175212149354,0.5049692094728427,1.2905850525585723,0.9803724935608273,0.2846252722644534,0.7307408393798847
0.063,1.7027488613811053,1.0,2716.4667518245806,0.5077459361651159,1.2899440842574164,0.9805486161392993,0.2845684521780064,0.7319273852172457
0.0635,1.7013960021799865,1.0,2719.8814020843242,0.510507092473848,1.2893020131077202,0.9807208447456573,0.28451163209155944,0.7331133457009582
0.064,1.7000431429788678,1.0,2723.4112793182862,0.5132527634873806,1.2886589129246744,0.9808892938763064,0.28445481200511247,0.734298571393958
0.0645,1.6986902837777493,1.0,2727.048486273535,0.5159830342940557,1.2880148575234702,0.9810540739110608,0.28439799191866544,0.7354829140489003
0.065,1.6973374245766306,1.0,2730.7851104315823,0.518697989982215,1.2873699207192983,0.9812152912930409,0.28434117183221846,0.7366662266128323
0.0655,1.695984565375512,1.0,2734.613222504695,0.5213977156402004,1.2867241763273496,0.9813730486994706,0.2842843517457715,0.7378483632315145
0.066,1.6946317061743932,1.0,2738.524875054192,0.5240822963563538,1.286077698162815,0.9815274452039049,0.2842275316593245,0.739029179253397
0.0665,1.6932788469732745,1.0,2742.5121012291556,0.5267518172190169,1.2854305600408855,0.9816785764303695,0.28417071157287754,0.7402085312332476
0.067,1.6919259877721557,1.0,2746.566913625681,0.5294063633165316,1.2847828357767521,0.9818265346998737,0.2841138914864305,0.7413862769354318
0.0675,1.690573128571037,1.0,2750.681303267791,0.5320460197372396,1.2841345991856057,0.981971409169722,0.28405707139998354,0.742562275336847
0.068,1.6892202693699185,1.0,2754.851533337896,0.5346708643955188,1.2834858852260893,0.9821132836463728,0.28400025131353657,0.74373645688004
0.0685,1.6878674101687998,1.0,2759.0699650972015,0.5372809854458528,1.2828367640418545,0.9822522414330064,0.2839434312270896,0.7449086891145801
0.069,1.686514550967681,1.0,2763.3279704925044,0.5398764727412698,1.2821873145106366,0.9823883635587964,0.2838866111406426,0.7460788250295761
0.0695,1.6851616917665624,1.0,2767.6226594092786,0.5424574057172584,1.2815375634795467,0.9825217252766465,0.2838297910541956,0.7472468123405619
0.07,1.6838088325654437,1.0,2771.9511331415442,0.5450238638093066,1.2808875377956956,0.9826523993539792,0.2837729709677486,0.7484125992062234
0.07050000000000001,1.682455973364325,1.0,2776.3104842197645,0.5475759264529027,1.2802372643061948,0.9827804561724696,0.28371615088130164,0.7495761342288901
0.07100000000000001,1.6811031141632062,1.0,2780.697796255684,0.5501136730835349,1.279586769858155,0.9829059638231379,0.28365933079485467,0.7507373664549845
0.07150000000000001,1.6797502549620877,1.0,2785.110143802779,0.5526371831366915,1.2789360812986872,0.9830289881970459,0.2836025107084077,0.7518962453754214
0.07200000000000001,1.678397395760969,1.0,2789.544592232561,0.5551465360478609,1.2782852254749029,0.983149593071828,0.28354569062196067,0.7530527209259645
0.0725,1.6770445365598503,1.0,2793.9981976274867,0.5576418112525311,1.2776342292339127,0.9832678401942778,0.2834888705355137,0.7542067434875359
0.073,1.6756916773587316,1.0,2798.4680066886563,0.5601230881861905,1.2769831194228278,0.9833837893591881,0.2834320504490667,0.755358263886478
