Time [s],Phi [rad],STIM [ ],Fsee [N],Gamma [ ],Lcerel [ ],q [ ],Lmtc [m],fisomrel [ ]
0.0,1.8,1.0,18.059081017782997,0.00030967511679687006,1.379329460924849,0.005024874333818382,0.288653,0.5411644135027535
0.0005,1.79999375,1.0,18.465014854466546,0.005917147393131414,1.3792815281602184,0.013793385162749378,0.2886527375,0.5412803647845965
0.001,1.799975,1.0,22.029134204130933,0.011493166183520996,1.378896547180942,0.03718726858577998,0.28865195,0.5422111177753832
0.0015,1.79994375,1.0,31.963737664935397,0.017037907918151303,1.3779705360239078,0.07275152665207839,0.2886506375,0.5444460264598208
0.002,1.7999,1.0,55.43757754983876,0.022551548035338962,1.3762488006526872,0.11725672954412374,0.2886488,0.548586862268541
0.0025,1.79984375,1.0,100.17697935951499,0.02803426099068307,1.3737889496177618,0.16733223226996077,0.28864643749999996,0.5544700929325586
0.003,1.7997750000000001,1.0,164.89854039433732,0.03348622026238233,1.3710677436180234,0.22012214144446476,0.28864354999999997,0.5609334491270053
0.0035,1.79969375,1.0,242.11421482129455,0.038907598352917266,1.3684488815237963,0.273437225478241,0.2886401375,0.5671091253311975
0.004,1.7996,1.0,326.16838561364983,0.04429856679907485,1.3660320166130189,0.325649086327211,0.2886362,0.5727696518310161
0.0045000000000000005,1.7994937500000001,1.0,414.12811227516914,0.04965929617740733,1.3638090596896142,0.3756281074329338,0.2886317375,0.5779431380349449
0.005,1.799375,1.0,504.3661766729732,0.0549899560958566,1.3617533581068035,0.42267329464013587,0.28862675,0.5826993236557741
0.0055,1.79924375,1.0,595.7822927611047,0.060290715231705254,1.3598415110458908,0.46641919839855633,0.2886212375,0.5870984914802617
0.006,1.7991000000000001,1.0,687.5109166705246,0.06556174129987767,1.358055824153241,0.5067432915022778,0.2886152,0.5911863099169112
0.006500000000000001,1.79894375,1.0,778.8394872486576,0.07080320105682264,1.3563827485276225,0.5436871889880363,0.2886086375,0.594997884412938
0.007,1.798775,1.0,869.1834371170489,0.07601526043145125,1.3548113944038647,0.5773957996608976,0.28860155,0.5985614617384732
0.0075,1.79859375,1.0,958.0513799358129,0.08119808414839469,1.353332917674088,0.6080733750738532,0.2885939375,0.6019000296170796
0.008,1.7984,1.0,1045.069694714882,0.08635183648480328,1.3519393611761357,0.6359525927963545,0.2885858,0.6050340754302728
0.0085,1.79819375,1.0,1129.9180583561504,0.09147668030730069,1.3506241347030299,0.6612748316216193,0.2885771375,0.6079806000119629
0.009000000000000001,1.797975,1.0,1212.3520833564987,0.09657277758275702,1.3493812610377347,0.6842770689158544,0.28856795,0.6107548929709257
0.0095,1.79774375,1.0,1292.2106388608843,0.10164029005734268,1.3482050272071406,0.7051842163933892,0.2885582375,0.6133713616953904
0.01,1.7975,1.0,1369.3593861565826,0.1066793778862302,1.34709054372167,0.7242054343947417,0.288548,0.6158423292697559
0.0105,1.79724375,1.0,1443.7066433326413,0.11169020013649472,1.3460333288214517,0.7415321740683107,0.2885372375,0.6181790030125801
0.011,1.796975,1.0,1515.2067214349581,0.11667291531283121,1.3450291331585988,0.7573378199132368,0.28852595000000003,0.6203918918106692
0.0115,1.79669375,1.0,1583.8655708945146,0.1216276821288313,1.3440737750067018,0.7717782229682435,0.2885141375,0.6224911905377474
0.012,1.7964,1.0,1649.672794047942,0.12655465666258273,1.3431638660615006,0.7849931171042568,0.28850180000000003,0.6244852073651929
0.0125,1.79609375,1.0,1712.6405735634007,0.1314539943164853,1.3422962352778385,0.7971071584643447,0.2884889375,0.626381655977738
0.013000000000000001,1.7957750000000001,1.0,1772.8150941617007,0.13632585030950706,1.341467739589792,0.8082312615399646,0.28847555,0.6281880829701466
0.0135,1.79544375,1.0,1830.2609546347808,0.14117037924016668,1.340675398563624,0.8184640620851895,0.2884616375,0.6299115842267728
0.014,1.7951000000000001,1.0,1885.0419101500445,0.14598773480959779,1.3399165601861998,0.8278933073778469,0.2884472,0.6315584569871864
0.0145,1.79474375,1.0,1937.2123582431545,0.1507780685109922,1.339188941696826,0.8365970857676733,0.2884322375,0.6331341257352909
0.015,1.794375,1.0,1986.8475941241088,0.15554153183754169,1.3384902603348086,0.8446448090423603,0.28841675,0.6346439529925814
0.0155,1.79399375,1.0,2034.0279814320795,0.16027827523601992,1.3378183809757174,0.8520982761302475,0.2884007375,0.6360929256216361
0.016,1.7936,1.0,2078.8536942779483,0.1649884504059538,1.3371711369547423,0.8590125159131217,0.2883842,0.6374860472086938
0.0165,1.7931937500000001,1.0,2121.399461591017,0.16967220582404666,1.3365467829438518,0.865436722043762,0.2883671375,0.6388273689098978
0.017,1.792775,1.0,2161.7365100201228,0.17432968862199846,1.3359437367303708,0.8714148633421335,0.28834955,0.6401205540549595
0.0175,1.7923437500000001,1.0,2199.9469012131945,0.17896104593150922,1.3353604161016253,0.8769862539858402,0.2883314375,0.6413692325004616
0.018000000000000002,1.7919,1.0,2236.1226140586255,0.1835664248842789,1.3347952388449402,0.882186100736807,0.2883128,0.6425770027001257
0.0185,1.79144375,1.0,2270.342792890425,0.18814597055369447,1.3342468409087087,0.8870460375298004,0.2882936375,0.6437469685667997
0.019,1.790975,1.0,2302.7097373118977,0.19269983043612035,1.33371370456032,0.8915944463019374,0.28827395,0.6448825363157764
0.0195,1.79049375,1.0,2333.287919102081,0.19722814701614405,1.3331947565066475,0.8958569710276499,0.2882537375,0.6459861423357011
0.02,1.79,1.0,2362.1465288353647,0.2017310626838845,1.3326889319113593,0.8998567244357157,0.288233,0.6470601868102007
0.0205,1.78949375,1.0,2389.3598623074977,0.20620871982946062,1.3321951659381235,0.9036145701683685,0.2882117375,0.6481070527019854
0.021,1.788975,1.0,2415.00684209758,0.2106612608351674,1.3317123942134768,0.9071493723674766,0.28818995000000003,0.6491291056287085
0.021500000000000002,1.78844375,1.0,2439.1534725273664,0.21508882546970287,1.3312397176197217,0.9104782480792264,0.2881676375,0.6501283465280836
0.022,1.7879,1.0,2461.889577757275,0.2194915573161927,1.330776043214877,0.9136166850244102,0.2881448,0.651107172305835
0.0225,1.78734375,1.0,2483.2698585034145,0.22386959380735202,1.3303206472159523,0.9165788235146289,0.28812143749999997,0.6520671875728137
0.023,1.786775,1.0,2503.3516614801483,0.22822307237589604,1.3298728058399576,0.9193775277188092,0.28809755,0.653009987140541
0.0235,1.78619375,1.0,2522.1947617706496,0.23255213045453987,1.3294317953039028,0.9220245184828727,0.28807313749999996,0.6539371563866311
0.024,1.7856,1.0,2539.861156812853,0.23685690547599875,1.3289968918247979,0.9245304907399429,0.2880482,0.6548502715868056
0.0245,1.78499375,1.0,2556.4067724108313,0.24113753295846999,1.3285674476934413,0.926905229936383,0.2880227375,0.6557507408042658
0.025,1.784375,1.0,2571.8943876471644,0.24539415081007393,1.3281427673867314,0.9291576833500427,0.28799675,0.656640064450821
0.025500000000000002,1.78374375,1.0,2586.378193293979,0.24962689441299507,1.3277222509817916,0.9312960645533561,0.2879702375,0.6575195351129706
0.026000000000000002,1.7831000000000001,1.0,2599.9010970738186,0.2538358958962474,1.3273054165613463,0.9333279276284047,0.2879432,0.6583901922500115
0.0265,1.78244375,1.0,2612.5071447831147,0.25802128738884483,1.3268917822081192,0.935260212619483,0.2879156375,0.6592530699132639
0.027,1.781775,1.0,2624.241423208021,0.2621832010198014,1.3264808660048346,0.937099303679319,0.28788755,0.660109196851828
0.0275,1.7810937500000001,1.0,2635.149968188804,0.26632176891813114,1.3260721860342168,0.9388510810012819,0.2878589375,0.6609595966035302
0.028,1.7804,1.0,2645.276761747611,0.27043712217215515,1.325665287303768,0.9405209708104779,0.2878298,0.6618052316497267
0.0285,1.77969375,1.0,2654.6603006933833,0.27452939028392515,1.325259772381629,0.9421139907495939,0.2878001375,0.6626469402750346
0.029,1.778975,1.0,2663.3523678537217,0.27859870777244716,1.3248551275291218,0.9436347644597463,0.28776995,0.6634857975702743
0.029500000000000002,1.7782437500000001,1.0,2671.3830231856155,0.2826452010186777,1.3244510446829392,0.9450875960675619,0.2877392375,0.6643224477173132
0.03,1.7775,1.0,2678.782793349268,0.2866689964035731,1.324047215779774,0.9464764729098595,0.287708,0.6651575317135733
0.0305,1.77674375,1.0,2685.5826303639005,0.2906702203080897,1.323643332756319,0.9478050928686494,0.2876762375,0.6659916873800463
0.031,1.775975,1.0,2691.813872367294,0.29464899911318393,1.3232390875492672,0.9490768890247625,0.28764395,0.6668255493632562
0.0315,1.7751937500000001,1.0,2697.508206479943,0.29860545919981213,1.3228341720953112,0.9502950519221943,0.2876111375,0.6676597491311703
0.032,1.7744,1.0,2702.6976337730816,0.3025397269489307,1.322428278331144,0.9514625497005567,0.2875778,0.6684949149630558
0.0325,1.77359375,1.0,2707.408691346765,0.30645192427644957,1.3220211506258717,0.9525821512706225,0.2875439375,0.6693315642525182
0.033,1.772775,1.0,2711.674392270506,0.31034218071212133,1.3216124764078547,0.9536564330419316,0.28750955,0.6701703285038492
0.0335,1.7719437500000002,1.0,2715.5164268040485,0.3142106178496589,1.3212020483451594,0.9546878085713374,0.2874746375,0.6710116203407968
0.034,1.7711000000000001,1.0,2718.9554314181264,0.3180573563004871,1.3207896702401871,0.955678532619655,0.2874392,0.6718558273826276
0.0345,1.7702437500000001,1.0,2722.012191215767,0.32188251667603046,1.320375145895339,0.956630712560286,0.2874032375,0.6727033351165187
0.035,1.7693750000000001,1.0,2724.7076242849394,0.3256862195877139,1.319958279113016,0.9575463197359543,0.28736675,0.6735545268719303
0.035500000000000004,1.76849375,1.0,2727.0627669050828,0.3294685856469619,1.3195388736956195,0.9584271998144591,0.2873297375,0.674409783792522
0.036000000000000004,1.7676,1.0,2729.098759606967,0.33322973546519935,1.3191167334455507,0.9592750822420896,0.2872922,0.6752694848056167
0.0365,1.76669375,1.0,2730.8268970314098,0.33696978036867603,1.3186917524672543,0.960091595943781,0.2872541375,0.6761338230527751
0.037,1.765775,1.0,2732.274627265069,0.3406888483651482,1.3182636787322752,0.9608782588439293,0.28721555,0.6770032869891554
0.0375,1.76484375,1.0,2733.46465040079,0.34438706336458214,1.3178323040261384,0.9616365000709254,0.2871764375,0.6778782733336618
0.038,1.7639,1.0,2734.408861717647,0.348064538930565,1.3173975187914984,0.9623676702864573,0.28713679999999997,0.6787589766103331
0.0385,1.76294375,1.0,2735.1191991537685,0.3517213886266836,1.3169592134710095,0.9630730400175821,0.28709663750000003,0.679645589910201
0.039,1.761975,1.0,2735.6076380111717,0.355357726016525,1.3165172785073265,0.9637538052795757,0.28705595,0.6805383048670777
0.0395,1.7609937500000001,1.0,2735.8861859271274,0.3589736646636761,1.3160716043431038,0.9644110927458581,0.2870147375,0.681437311632578
0.04,1.76,1.0,2735.9668781113596,0.3625693181317239,1.3156220814209958,0.9650459645059428,0.286973,0.6823427988503773
0.0405,1.7589937500000001,1.0,2735.8617728493978,0.36614479998425536,1.3151686001836569,0.965659422448262,0.2869307375,0.683254953629701
0.041,1.757975,1.0,2735.5829472720106,0.3697002237848574,1.3147110510737419,0.9662524123010918,0.28688795,0.6841739615180505
0.0415,1.75694375,1.0,2735.1424933908993,0.37323570309711707,1.314249324533905,0.9668258273615438,0.2868446375,0.6851000064731645
0.042,1.7559,1.0,2734.552514400407,0.3767513514846212,1.3137833110068011,0.9673805119396869,0.28680079999999997,0.6860332708342127
0.0425,1.75484375,1.0,2733.823002244802,0.38024727855997886,1.313312920180763,0.967917265488188,0.2867564375,0.6869738968361061
0.043000000000000003,1.753775,1.0,2732.9614741948058,0.3837235912714278,1.3128380842774114,0.9684368459761412,0.28671155,0.6879219803113497
0.043500000000000004,1.75269375,1.0,2731.9833241492865,0.387180413276179,1.3123586640029596,0.9689399680016048,0.28666613750000003,0.6888777583618819
0.044,1.7516,1.0,2730.8946087185873,0.390617850530942,1.3118746048889005,0.9694273125701441,0.2866202,0.6898412972748476
0.0445,1.75049375,1.0,2729.7013867201927,0.39403600899242636,1.3113858524667268,0.9698995252878005,0.2865737375,0.6908126622562815
0.045,1.7493750000000001,1.0,2728.409717995849,0.3974349946173415,1.3108923522679314,0.9703572185448999,0.28652675,0.6917919174148994
0.0455,1.74824375,1.0,2727.0256622948436,0.40081491336239694,1.3103940498240076,0.970800973544587,0.2864792375,0.6927791257456999
0.046,1.7471,1.0,2725.555278223831,0.40417587118430215,1.3098908906664481,0.9712313421885235,0.2864312,0.6937743491133785
0.0465,1.7459437500000001,1.0,2724.004622260952,0.4075179740397666,1.309382820326746,0.9716488488310836,0.28638263750000004,0.6947776482355499
0.047,1.744775,1.0,2722.3797478371453,0.4108413278854998,1.3088697843363937,0.9720539919123901,0.28633355,0.6957890826657833
0.0475,1.74359375,1.0,2720.6867044825176,0.41414603867821126,1.3083517282268848,0.9724472454796228,0.28628393750000003,0.6968087107764457
0.048,1.7424,1.0,2718.931537038263,0.4174322123746105,1.307828597529712,0.9728290606052242,0.2862338,0.6978365897413605
0.0485,1.74119375,1.0,2717.120284935472,0.4206999549314069,1.307300337776368,0.9731998667098865,0.2861831375,0.6988727755182724
0.049,1.739975,1.0,2715.2538159759183,0.42394934493735326,1.3067669415743446,0.9735600727226889,0.28613195,0.6999172307306207
0.0495,1.73874375,1.0,2713.3444836682474,0.4271805209479602,1.3062282968256265,0.9739100684164277,0.2860802375,0.7009701218854465
0.05,1.7375,1.0,2711.3956113429567,0.4303935844962334,1.3056843736404156,0.9742502264662636,0.286028,0.7020314531634784
0.0505,1.73624375,1.0,2709.409717878849,0.4335886332669491,1.3051351494337813,0.9745809023784455,0.2859752375,0.7031012135842601
0.051000000000000004,1.734975,1.0,2707.38931934999,0.43676576494488356,1.304580601620793,0.9749024354014005,0.28592195,0.7041793913147825
0.051500000000000004,1.73369375,1.0,2705.3369288585773,0.4399250772148132,1.3040207076165204,0.9752151494101466,0.2858681375,0.705265973661831
0.052000000000000005,1.7324,1.0,2703.255056380007,0.44306666776151427,1.3034554448360327,0.9755193537350831,0.2858138,0.7063609470643033
0.0525,1.73109375,1.0,2701.1462086185893,0.446190634269763,1.3028847906943997,0.9758153439391118,0.28575893750000003,0.7074642970854901
0.053,1.729775,1.0,2699.0128888749396,0.44929707442433586,1.3023087226066903,0.9761034025467282,0.28570355000000003,0.7085760084053291
0.0535,1.72844375,1.0,2696.857596924281,0.45238608591000906,1.3017272179879744,0.9763837997284379,0.2856476375,0.7096960648126192
0.054,1.7271,1.0,2694.682828906876,0.455457766411559,1.3011402542533215,0.9766567939435974,0.2855912,0.7108244491972096
0.0545,1.7257437500000001,1.0,2692.491077228557,0.4585122136137618,1.3005478088178006,0.9769226325445304,0.2855342375,0.7119611435421517
0.055,1.724375,1.0,2690.284830473581,0.46154952520139403,1.2999498590964818,0.9771815523445633,0.28547675,0.7131061289158187
0.0555,1.72299375,1.0,2688.066573328433,0.4645697988592318,1.2993463825044342,0.9774337801524128,0.2854187375,0.7142593854639954
0.056,1.7216,1.0,2685.838786516804,0.4675731322720515,1.298737356456727,0.9776795332751854,0.2853602,0.7154208924019336
0.0565,1.72019375,1.0,2683.603923861002,0.47055962312168587,1.2981227585782178,0.9779190200039669,0.28530113749999997,0.7165906276075054
0.057,1.718775,1.0,2681.363375582885,0.4735293644908361,1.2975025762110133,0.9781524401921108,0.28524155,0.7177685495784765
0.0575,1.7173499641597172,1.0,2679.417392290512,0.4764824489007744,1.2968768611960018,0.9783799891531358,0.2851816984947081,0.7189544938979908
0.058,1.7159249282679054,1.0,2678.033399200808,0.47941896885125873,1.296245995239539,0.9786018728688685,0.285121846987252,0.7201476731649712
0.0585,1.7144998923760937,1.0,2677.1693744788936,0.482339016842047,1.2956103600479802,0.9788182891015896,0.28506199547979594,0.7213473055877024
0.059000000000000004,1.713074856484282,1.0,2676.7834802816114,0.48524268537289716,1.2949703373276809,0.9790294277984236,0.2850021439723398,0.7225526151045732
0.059500000000000004,1.7116498205924702,1.0,2676.8365788359934,0.4881300663721151,1.2943262853585653,0.9792354701433853,0.28494229246488373,0.7237628754688405
0.06,1.7102247847006584,1.0,2677.2895582951696,0.4910012520643441,1.2936785632208303,0.9794365903639461,0.28488244095742765,0.7249773644915458
0.0605,1.7087997488088467,1.0,2678.1109413663744,0.49385633307305443,1.293027460693705,0.9796329521439375,0.2848225894499716,0.7261954951511451
0.061,1.707374712917035,1.0,2679.2733531873064,0.4966953990801389,1.2923732304801097,0.9798247108846759,0.28476273794251544,0.7274167541410226
0.0615,1.7059496770252232,1.0,2680.749463706512,0.4995185397674904,1.2917161252829634,0.980012016120722,0.28470288643505937,0.7286406321744081
0.062,1.7045246411334114,1.0,2682.5119794434368,0.5023258448140747,1.291056397726552,0.9801950117884645,0.2846430349276033,0.7298666241787093
0.0625,1.7030996052415996,1.0,2684.5374548879095,0.5051174028282683,1.2903942652824165,0.9803738345825711,0.2845831834201472,0.7310942942955533
0.063,1.701674569349788,1.0,2686.8010878736545,0.5078933032943387,1.2897299578977415,0.9805486168799616,0.2845233319126911,0.7323231871701943
0.0635,1.7002495334579764,1.0,2689.2854110958397,0.5106536331621555,1.289063638274051,0.9807194826141997,0.284463480405235,0.7335529752160987
0.064,1.6988244975661646,1.0,2691.9729528582316,0.5133984793815883,1.2883954691128705,0.9808865512350279,0.2844036288977789,0.7347833335305081
0.0645,1.6973994616743528,1.0,2694.846230108254,0.5161279289025072,1.2877256131157246,0.981049937907716,0.2843437773903228,0.7360139399144782
0.065,1.695974425782541,1.0,2697.8939452279683,0.5188420647982704,1.287054176270326,0.9812097506001227,0.2842839258828667,0.7372445787173616
0.0655,1.6945493898907293,1.0,2701.0942443539875,0.5215409774301795,1.286381360939304,0.9813660987432716,0.28422407437541064,0.7384748600336483
0.066,1.6931243539989176,1.0,2704.4293706396857,0.5242247552957259,1.285707331720896,0.9815190859644932,0.2841642228679545,0.7397044662019321
0.0665,1.6916993181071058,1.0,2707.8905818252047,0.5268934812521239,1.285032170640033,0.9816688078911261,0.28410437136049843,0.7409332324624718
0.067,1.690274282215294,1.0,2711.4691216135325,0.5295472381565873,1.2843559597216454,0.9818153568510904,0.28404451985304235,0.7421609954425445
0.0675,1.6888492463234823,1.0,2715.1562176870893,0.5321861088663308,1.283678780990664,0.9819588220120626,0.2839846683455862,0.7433875931621521
0.068,1.6874242104316706,1.0,2718.94307987303,0.5348101762385681,1.2830007164720194,0.9820992895138637,0.28392481683813015,0.7446128650392975
0.0685,1.6859991745398588,1.0,2722.8208984572916,0.5374195231305136,1.2823218481906422,0.9822368425944393,0.28386496533067407,0.7458366518948341
0.069,1.684574138648047,1.0,2726.7808426488596,0.5400142323993813,1.2816422581714633,0.9823715617097806,0.283805113823218,0.7470587959568841
0.0695,1.6831491027562353,1.0,2730.814059192094,0.5425943869023854,1.2809620284394134,0.9825035246481149,0.28374526231576186,0.7482791408648286
0.07,1.6817240668644236,1.0,2734.911671129475,0.5451600694967402,1.2802812410194229,0.9826328066386809,0.2836854108083058,0.7494975316728705
0.07050000000000001,1.6802990309726118,1.0,2739.0727258449765,0.5477113522665042,1.2795999058081249,0.9827594764707236,0.2836255593008497,0.7507139434696675
0.07100000000000001,1.6788739950808,1.0,2743.283012433659,0.5502483302059715,1.2789181528999791,0.9828836075885509,0.28356570779339363,0.7519281377004587
0.07150000000000001,1.6774489591889883,1.0,2747.537810155989,0.552771083020485,1.2782360260248415,0.9830052662343628,0.2835058562859375,0.753140031319846
0.07200000000000001,1.6760239232971765,1.0,2751.833842931341,0.5552796881777491,1.2775535557082902,0.9831245158015637,0.2834460047784814,0.7543495654135365
0.0725,1.6745988874053648,1.0,2756.167824979403,0.5577742231454678,1.2768707724759034,0.9832414176682173,0.28338615327102534,0.75555668159629
0.073,1.673173851513553,1.0,2760.5364605983978,0.5602547653913453,1.2761877068532594,0.9833560312752242,0.2833263017635692,0.7567613220125575
0.0735,1.6717488156217413,1.0,2764.936443963829,0.5627213923830863,1.2755043893659366,0.9834684142009827,0.28326645025611313,0.7579634293370613
