Time [s],Phi [rad],STIM [ ],Fsee [N],Gamma [ ],Lcerel [ ],q [ ],Lmtc [m],fisomrel [ ]
0.0,1.8,1.0,17.984694195676003,0.0001315599545593345,1.3793377820772545,0.00500451999710709,0.288653,0.5411442828083844
0.0005,1.79999375,1.0,18.33402749455207,0.005740031316079684,1.3792960297025345,0.013281431227273079,0.2886527375,0.5412452865175195
0.001,1.799975,1.0,21.765939789167607,0.011317043587602011,1.378923256841794,0.036244822238495955,0.28865195,0.542146573419668
0.0015,1.79994375,1.0,31.410541833361073,0.016862773230691398,1.3780172050667663,0.07147081169943077,0.2886506375,0.5443335225558367
0.002,1.7999,1.0,54.30979316190648,0.022377395715117567,1.3763211004575147,0.11574597756766308,0.2886488,0.5484133588981033
0.0025,1.79984375,1.0,98.334848128457,0.02786108552717836,1.3738767576859579,0.1656924893019413,0.28864643749999996,0.5542607463719247
0.003,1.7997750000000001,1.0,162.53600922131193,0.03331401617633843,1.3711554276473181,0.2184329790002622,0.28864354999999997,0.5607259200508177
0.0035,1.79969375,1.0,239.4637293956944,0.038736360195711875,1.3685299955850871,0.27175890196289976,0.2886401375,0.5669185024045142
0.004,1.7996,1.0,323.3595192805175,0.04412828915257436,1.366106034308083,0.3240252450110909,0.2886362,0.5725968483520686
0.0045000000000000005,1.7994937500000001,1.0,411.22676778749513,0.049489973653630996,1.3638768834683312,0.37408751473889956,0.2886317375,0.5777857578997911
0.005,1.799375,1.0,501.4116889707499,0.05482158333672366,1.3618159234734628,0.42123252906394976,0.28862675,0.5825549665849659
0.0055,1.79924375,1.0,592.8055478976657,0.060123286911782634,1.359899497785122,0.46508565685093345,0.2886212375,0.5869654065497991
0.006,1.7991000000000001,1.0,684.534497997554,0.06539525211973687,1.3581097891814577,0.5055180122077538,0.2886152,0.591063070447742
0.006500000000000001,1.79894375,1.0,775.885184047713,0.07063764576108067,1.3564330673990268,0.5425669971902146,0.2886086375,0.5948835091343139
0.007,1.798775,1.0,866.267897775288,0.07585063375199641,1.3548583962823424,0.5763750233919194,0.28860155,0.5984550975380232
0.0075,1.79859375,1.0,955.1890657000554,0.08103438092838552,1.3533768652607616,0.6071449889690962,0.2885939375,0.6018009920232065
0.008,1.7984,1.0,1042.26591463819,0.08618905143629615,1.351980575699164,0.6351090755789655,0.2885858,0.6049415635538427
0.0085,1.79819375,1.0,1127.1825060360372,0.09131480843559195,1.3506628045119824,0.6605085577410278,0.2885771375,0.6078941247824976
0.009000000000000001,1.797975,1.0,1209.6898955609395,0.09641181379302133,1.3494175897744904,0.6835807077859237,0.28856795,0.6106739411868174
0.0095,1.79774375,1.0,1289.617559606438,0.10148022874385554,1.3482393003989452,0.70455093991383,0.2885582375,0.6132952476328226
0.01,1.7975,1.0,1366.857081254434,0.10652021458187144,1.3471226705181345,0.7236287645057458,0.288548,0.6157712104985926
0.0105,1.79724375,1.0,1441.298515077322,0.11153192988964507,1.346063438681032,0.7410063315925558,0.2885372375,0.6181125523222566
0.011,1.796975,1.0,1512.890097360565,0.11651553306844575,1.3450574062368004,0.7568576190617384,0.28852595000000003,0.620329676024017
0.0115,1.79669375,1.0,1581.618356585725,0.1214711819124264,1.3441005992103991,0.7713391082343701,0.2885141375,0.6224323266040952
0.012,1.7964,1.0,1647.5102229785855,0.12639903423665402,1.3431891591148977,0.7845908181114662,0.28850180000000003,0.6244298503380403
0.0125,1.79609375,1.0,1710.575125493272,0.13129924528337042,1.3423199435303084,0.7967378849308994,0.2884889375,0.6263298987927504
0.013000000000000001,1.7957750000000001,1.0,1770.839621886104,0.1361719695668924,1.3414900263855136,0.8078917302593385,0.28847555,0.6281395468087412
0.0135,1.79544375,1.0,1828.3609851975737,0.14101736149545616,1.340696494083779,0.8181513814716419,0.2884616375,0.629865749104023
0.014,1.7951000000000001,1.0,1883.2118181925184,0.14583557462703478,1.3399365820836404,0.8276048661490268,0.2884472,0.6315150515347334
0.0145,1.79474375,1.0,1935.4652609608715,0.15062676216126863,1.3392077961439628,0.8363304909081652,0.2884322375,0.6330933387600631
0.015,1.794375,1.0,1985.181469792403,0.15539107465998753,1.3385080146360095,0.8443979864682392,0.28841675,0.6346056250866937
0.0155,1.79399375,1.0,2032.438956190604,0.1601286626850212,1.3378351159310438,0.851869384390456,0.2884007375,0.6360568700378133
0.016,1.7936,1.0,2077.319755403563,0.16483967583043285,1.337187116470167,0.8587999689611834,0.2883842,0.6374516852249172
0.0165,1.7931952237504711,1.0,2119.98651992922,0.16952426477601454,1.3365620189501783,0.8652390307824985,0.28836719939751976,0.638794666454655
0.017,1.7927887936567122,1.0,2160.911086565446,0.17418257800999118,1.3359583976125282,0.8712307448849794,0.2883501293335819,0.640089142454153
0.0175,1.7923823635629534,1.0,2200.208666095756,0.1788147615451255,1.3353752042782212,0.8768147095938613,0.28833305926964403,0.6413376031739203
0.018000000000000002,1.7919759334691945,1.0,2237.9293722924704,0.18342096139418032,1.3348113907682608,0.8820263784926463,0.28831598920570617,0.6425425147060682
0.0185,1.7915695033754357,1.0,2274.129444470762,0.18800132356991833,1.3342659089036513,0.8868975446838107,0.2882989191417683,0.6437063206148468
0.019,1.7911630732816768,1.0,2308.866114179271,0.19255599323878614,1.3337377569070348,0.8914567758549958,0.2882818490778304,0.6448313444345057
0.0195,1.7907566431879178,1.0,2342.1995527226836,0.19708511570049836,1.3332259545748304,0.8957297788021226,0.2882647790138926,0.6459198443803988
0.02,1.790350213094159,1.0,2374.182398457146,0.2015888341593017,1.3327296409727136,0.8997397452235427,0.28824770894995466,0.6469738074558964
0.0205,1.7899437830004001,1.0,2404.8615883952857,0.20606728998072846,1.3322480495423987,0.9035076275650047,0.2882306388860168,0.6479950050231881
0.021,1.7895373529066414,1.0,2434.287578728384,0.21052062453031084,1.3317804137256,0.9070523673533333,0.28821356882207894,0.6489851947323653
0.021500000000000002,1.7891309228128824,1.0,2462.5141011263595,0.2149489791735811,1.3313259669640314,0.9103911157865928,0.2881964987581411,0.6499461212224158
0.022,1.7887244927191237,1.0,2489.584662650063,0.21935249214000718,1.3308840689912056,0.9135394516230552,0.2881794286942032,0.6508792502800482
0.0225,1.7883180626253647,1.0,2515.5670446990375,0.22373130779494876,1.3304538738576586,0.9165114879821067,0.2881623586302653,0.6517864708305698
0.023,1.787911632531606,1.0,2540.501626752954,0.2280855632079936,1.3300348202302665,0.919320115254859,0.28814528856632743,0.6526690607001775
0.0235,1.787505202437847,1.0,2564.426990053818,0.23241539450734874,1.3296263826427501,0.9219770834636116,0.28812821850238957,0.6535282138579569
0.024,1.787098772344088,1.0,2587.383538827273,0.2367209378212211,1.329228035628831,0.9244931132184102,0.2881111484384517,0.6543651165688174
0.0245,1.7866923422503294,1.0,2609.4133796628325,0.24100232927781776,1.3288392537222304,0.9268780001049802,0.28809407837451384,0.6551809477404547
0.025,1.7862859121565704,1.0,2630.5602070158043,0.24525970500534564,1.3284595114566693,0.9291407072223998,0.2880770083105759,0.6559768792526981
0.025500000000000002,1.7858794820628117,1.0,2650.8629915403685,0.24949319893376015,1.328088340581622,0.9312894558491525,0.2880599382466381,0.6567539565510129
0.026000000000000002,1.7854730519690527,1.0,2670.3642708265384,0.2537029469621824,1.3277252518863163,0.9333317866448081,0.2880428681827002,0.6575132629976101
0.0265,1.785066621875294,1.0,2689.1061353896416,0.2578890848296506,1.3273697715317652,0.9352746298256931,0.28802579811876233,0.6582558440281885
0.027,1.784660191781535,1.0,2707.1167315828025,0.26205174273975795,1.3270215632079403,0.9371243794663539,0.28800872805482447,0.6589824527966681
0.0275,1.784253761687776,1.0,2724.4250597127,0.26619105089609757,1.3266802906048125,0.9388869247051994,0.2879916579908866,0.6596938384258777
0.028,1.7838473315940173,1.0,2741.0609210691873,0.2703071395022626,1.3263456174123534,0.9405676963142751,0.28797458792694874,0.6603907461599168
0.0285,1.7834409015002584,1.0,2757.0548674627676,0.27440013876184616,1.3260172073205343,0.9421717084100644,0.2879575178630108,0.6610739175093105
0.029,1.7830344714064996,1.0,2772.438153270458,0.27847017887844144,1.3256947240193264,0.9437035958652229,0.28794044779907296,0.6617440903889502
0.029500000000000002,1.7826280413127407,1.0,2787.2402226244803,0.2825173886731327,1.3253778533925824,0.9451676504388886,0.2879233777351351,0.6624019531939896
0.03,1.782221611218982,1.0,2801.485039415692,0.2865418946452877,1.3250663357776307,0.9465678547057584,0.28790630767119724,0.6630480782656399
0.0305,1.781815181125223,1.0,2815.2095794269994,0.290543831247199,1.3247597994527476,0.9479078903830236,0.2878892376072594,0.6636832674088367
0.031,1.781408751031464,1.0,2828.432941927939,0.2945233223844194,1.324458037489693,0.949191193335224,0.28787216754332146,0.6643079780240337
0.0315,1.7810023209377053,1.0,2841.17459922106,0.2984804919625016,1.324160842960227,0.9504209567831393,0.28785509747938365,0.6649226654697548
0.032,1.7805958908439463,1.0,2853.4543752111945,0.3024154638869983,1.3238680089361095,0.9516001514505494,0.28783802741544573,0.6655277831242352
0.0325,1.7801894607501876,1.0,2865.29242492653,0.30632836206346226,1.3235793284891002,0.9527315438047791,0.28782095735150787,0.6661237824443336
0.033,1.7797830306564286,1.0,2876.7092149866794,0.31021931039744627,1.3232945946909593,0.9538177125918859,0.28780388728757,0.6667111130217103
0.0335,1.7793766005626699,1.0,2887.72550502159,0.314088432794503,1.3230136006134463,0.9548610638441847,0.28778681722363214,0.6672902226362787
0.034,1.778970170468911,1.0,2898.362330038983,0.3179358531601852,1.3227361393283217,0.9558638445175478,0.2877697471596943,0.6678615573069201
0.0345,1.7785637403751522,1.0,2908.629853156723,0.32176168603039873,1.3224621019151666,0.9568281631981393,0.28775267709575636,0.668425359784607
0.035,1.7781573102813932,1.0,2918.5579199007084,0.3255660655582521,1.322191207907731,0.9577559790535553,0.2877356070318185,0.6689822243206547
0.035500000000000004,1.7777508801876343,1.0,2928.159372711341,0.32934910966288344,1.321923328575586,0.9586491385264692,0.28771853696788063,0.6695324315013242
0.036000000000000004,1.7773444500938755,1.0,2937.446362166509,0.3331109354795679,1.3216583426390256,0.9595093725260454,0.28770146690394277,0.6700762455698828
0.0365,1.7769380200001166,1.0,2946.431183709035,0.3368516601435805,1.3213961288183433,0.9603383044374196,0.2876843968400049,0.6706139297850219
0.037,1.7765315899063578,1.0,2955.1262700294196,0.34057140079019654,1.3211365658338334,0.9611374580193197,0.28766732677606704,0.6711457464427677
0.0375,1.7761251598125989,1.0,2963.544183774812,0.3442702745546911,1.3208795324057896,0.9619082646367897,0.2876502567121292,0.6716719568974548
0.038,1.7757187297188401,1.0,2971.697610584188,0.3479483985723393,1.3206249072545055,0.962652069891753,0.28763318664819126,0.6721928215817593
0.0385,1.7753122996250812,1.0,2979.599352449415,0.35160588997841624,1.3203725691002755,0.9633701397076205,0.2876161165842534,0.6727086000257947
0.039,1.7749058695313225,1.0,2987.2623214028004,0.35524286590819704,1.3201223966633928,0.9640636659183682,0.28759904652031554,0.6732195508752723
0.0395,1.7744994394375635,1.0,2994.6949743855807,0.3588594363967083,1.3198743082276125,0.964733773629003,0.2875819764563777,0.673725851198681
0.04,1.7740930093438045,1.0,3001.9098171341734,0.36245572029104023,1.3196281876466223,0.9653815221930413,0.2875649063924398,0.6742277476458407
0.0405,1.7736865792500458,1.0,3008.9213403520275,0.36603183976085,1.3193839023796747,0.9660079102048968,0.2875478363285019,0.6747255194538597
0.041,1.7732801491562868,1.0,3015.73654262779,0.3695879046141153,1.3191413854948373,0.9666138838442617,0.28753076626456403,0.6752193114299607
0.0415,1.772873719062528,1.0,3022.3624788877046,0.37312402465881384,1.3189005700601772,0.967200336979659,0.28751369620062617,0.675709267905912
0.042,1.7724672889687692,1.0,3028.806257821475,0.37664030970292334,1.3186613891437622,0.9677681146017977,0.2874966261366883,0.676195532745433
0.0425,1.7720608588750104,1.0,3035.075039406797,0.38013686955442155,1.3184237758136594,0.9683180159976305,0.28747955607275044,0.6766782493513149
0.043000000000000003,1.7716544287812515,1.0,3041.1760325336036,0.38361381402128614,1.3181876631379361,0.9688507976871513,0.2874624860088126,0.6771575606722554
0.043500000000000004,1.7712479986874925,1.0,3047.116492727248,0.3870712529114949,1.31795298418466,0.9693671761428923,0.2874454159448747,0.6776336092094049
0.044,1.7708415685937338,1.0,3052.9037199713594,0.3905092960330255,1.3177196720218982,0.9698678303102226,0.2874283458809368,0.6781065370226322
0.0445,1.7704351384999748,1.0,3058.545056629926,0.3939280531938557,1.3174876597177183,0.9703534039448886,0.28741127581699893,0.6785764857364998
0.045,1.770028708406216,1.0,3064.047885468559,0.39732763420196326,1.3172568803401876,0.9708245077827177,0.28739420575306107,0.6790435965459563
0.0455,1.769622278312457,1.0,3069.4171193386314,0.40070814146768147,1.3170272884585608,0.9712817221196787,0.2873771356891232,0.6795079667494022
0.046,1.7692158482186984,1.0,3074.657364501702,0.40406967947298994,1.316798841509095,0.9717255986110057,0.28736006562518535,0.6799696875589774
0.0465,1.7688094181249394,1.0,3079.7799487602542,0.407412373522424,1.3165714396325163,0.9721566601266538,0.2873429955612474,0.680428965589911
0.047,1.7684029880311805,1.0,3084.788584289363,0.41073632545580785,1.3163450484827277,0.9725754053229558,0.28732592549730956,0.6808858746825914
0.0475,1.7679965579374217,1.0,3089.687003265242,0.41404163711296577,1.3161196337136316,0.9729823085668384,0.2873088554333717,0.6813404884590541
0.048,1.7675901278436628,1.0,3094.478957108683,0.41732841033372203,1.3158951609791314,0.9733778213456346,0.28729178536943384,0.6817928803251552
0.0485,1.767183697749904,1.0,3099.1682157548944,0.42059674695790095,1.3156715959331295,0.9737623735824211,0.287274715305496,0.6822431234726754
0.049,1.766777267656145,1.0,3103.7585669486552,0.4238467488253267,1.315448904229529,0.974136374864035,0.28725764524155806,0.682691290881344
0.0495,1.7663708375623863,1.0,3108.253815567092,0.4270785177758236,1.3152270515222326,0.974500215588307,0.28724057517762025,0.6831374553207898
0.05,1.7659644074686274,1.0,3112.6577829664775,0.43029215564921597,1.3150060034651434,0.9748542680365222,0.28722350511368233,0.6835816893524174
0.0505,1.7655579773748686,1.0,3116.974306357565,0.433487764285328,1.314785725712164,0.9751988873766091,0.28720643504974447,0.6840240653312062
0.051000000000000004,1.7651515472811097,1.0,3121.2072382052884,0.43666544552398395,1.3145661839171974,0.9755344126021149,0.2871893649858066,0.6844646554074361
0.051500000000000004,1.7647451171873507,1.0,3125.360445655249,0.4398253012050081,1.3143473437341462,0.9758611674116124,0.28717229492186874,0.6849035315283372
0.052000000000000005,1.764338687093592,1.0,3129.4378099867445,0.44296743316822484,1.3141291708169136,0.976179461032811,0.2871552248579309,0.685340765439663
0.0525,1.763932256999833,1.0,3133.442850564923,0.4460919408816139,1.313911634005188,0.9764895889465061,0.28713815479399296,0.6857764223092887
0.053,1.7635258269060743,1.0,3137.373027674831,0.4491988887176344,1.3136947536120185,0.9767918332426945,0.2871210847300551,0.6862104641463489
0.0535,1.7631193968123153,1.0,3141.2392652481794,0.45228842898662136,1.3134784358458524,0.9770864657258547,0.28710401466611724,0.6866430811850694
0.054,1.7627129667185566,1.0,3145.043301727726,0.45536065448805785,1.3132626649473715,0.9773737451645677,0.2870869446021794,0.6870743072387464
0.0545,1.7623065366247976,1.0,3148.7868820874896,0.4584156580214272,1.3130474251572581,0.9776539192917882,0.2870698745382415,0.6875041760280959
0.055,1.761900106531039,1.0,3152.4717576445637,0.46145353238621245,1.312832700716194,0.9779272253676563,0.28705280447430365,0.6879327211817992
0.0555,1.76149367643728,1.0,3156.099685876403,0.46447437038189693,1.312618475864861,0.9781938907090806,0.2870357344103658,0.688359976237026
0.056,1.761087246343521,1.0,3159.6724302431917,0.4674782648079638,1.3124047348439414,0.9784541331883128,0.28701866434642787,0.6887859746399447
0.0565,1.7606808162497622,1.0,3163.1917600165993,0.4704653084638962,1.312191461894117,0.9787081617025692,0.28700159428249,0.6892107497462183
0.057,1.7602743861560033,1.0,3166.6594501128125,0.47343559414917746,1.3119786412560699,0.9789561766166027,0.28698452421855214,0.6896343348214811
0.0575,1.7598679560622446,1.0,3170.077280932126,0.47638921466329065,1.3117662571704822,0.9791983701799929,0.2869674541546143,0.6900567630418009
0.058,1.7594615259684856,1.0,3173.447038203726,0.479326262805719,1.3115542938780358,0.9794349269207848,0.2869503840906764,0.690478067494128
0.0585,1.7590550958747269,1.0,3176.770512835519,0.4822468313759457,1.3113427356194125,0.979666024017004,0.2869333140267385,0.6908982811767239
0.059000000000000004,1.758648665780968,1.0,3180.0495007703908,0.48515101317345394,1.3111315666352945,0.979891831647447,0.28691624396280063,0.6913174369995769
0.059500000000000004,1.758242235687209,1.0,3183.2858028469354,0.488038900997727,1.310920771166364,0.9801125133230649,0.28689917389886277,0.6917355677848008
0.06,1.7578358055934502,1.0,3186.4812246665533,0.49091058764824796,1.3107103334533023,0.9803282262001547,0.2868821038349249,0.6921527062670206
0.0605,1.7574293754996912,1.0,3189.6375764654094,0.49376616592450007,1.3105002377367923,0.9805391213764901,0.28686503377098704,0.6925688850937357
0.061,1.7570229454059325,1.0,3192.756672992432,0.4966057286259666,1.3102904682575154,0.9807453441714473,0.2868479637070492,0.6929841368256755
0.0615,1.7566165153121736,1.0,3195.84033339239,0.49942936855213066,1.3100810092561537,0.9809470343911046,0.2868308936431113,0.6933984939371338
0.062,1.7562100852184148,1.0,3198.8864592795053,0.5022371270198261,1.309871877902118,0.9811443244248368,0.2868138235791734,0.6938119237417568
0.0625,1.7558036551246559,1.0,3201.9003155390383,0.5050291564299644,1.3096630295427498,0.9813373468146804,0.28679675351523554,0.6942245157347132
0.063,1.755397225030897,1.0,3204.8828285997492,0.507805542516271,1.3094544560072843,0.9815262261082578,0.2867796834512977,0.694636287172308
0.0635,1.7549907949371382,1.0,3207.834760221406,0.5105663685957245,1.309246150525138,0.9817110821832765,0.2867626133873598,0.6950472525044122
0.064,1.7545843648433792,1.0,3210.75687413644,0.5133117179853033,1.3090381063257284,0.9818920305585739,0.28674554332342195,0.6954574261435198
0.0645,1.7541779347496205,1.0,3213.649936009992,0.5160416740019862,1.3088303166384723,0.9820691825844841,0.28672847325948403,0.6958668224648628
0.065,1.7537715046558615,1.0,3216.51471340149,0.5187563199627517,1.3086227746927868,0.9822426456235491,0.28671140319554617,0.6962754558065223
0.0655,1.7533650745621028,1.0,3219.3519757267372,0.5214557391845783,1.3084154737180889,0.9824125232221401,0.2866943331316083,0.6966833404695372
0.066,1.7529586444683438,1.0,3222.162494221298,0.5241400149844447,1.3082084069437954,0.9825789152735003,0.28667726306767044,0.6970904907180098
0.0665,1.752552214374585,1.0,3224.9470419048375,0.5268092306793295,1.3080015675993237,0.9827419181727008,0.2866601930037326,0.6974969207792068
0.067,1.7521457842808261,1.0,3227.7063935465058,0.529463469586211,1.3077949489140905,0.9829016249639636,0.2866431229397947,0.697902644843662
0.0675,1.7517393541870672,1.0,3230.4413256311996,0.5321028150220681,1.3075885441175132,0.9830581254807779,0.28662605287585685,0.6983076770652699
0.068,1.7513329240933084,1.0,3233.1526163270173,0.5347273503038792,1.3073823464390086,0.9832115064792105,0.28660898281191893,0.6987120315613816
0.0685,1.7509264939995495,1.0,3235.8410454538757,0.537337158748623,1.3071763491079935,0.9833618517647886,0.28659191274798107,0.6991157224128957
0.069,1.7505200639057907,1.0,3238.5073944524233,0.5399323236732778,1.3069705453538853,0.9835092423133017,0.2865748426840432,0.6995187636643438
0.0695,1.7501136338120318,1.0,3241.1524463549067,0.5425129283948225,1.306764928406101,0.9836537563858596,0.28655777262010534,0.6999211693239789
