Time [s],Phi [rad],STIM [ ],Fsee [N],Gamma [ ],Lcerel [ ],q [ ],Lmtc [m],fisomrel [ ]
0.0,1.8,1.0,17.97027807580967,6.009410654853575e-05,1.379339396700833,0.005000948949604685,0.288653,0.5411403766283421
0.0005,1.79999375,1.0,18.296307796631734,0.005668966334944866,1.3793002152299652,0.01308017046025451,0.2886527375,0.5412351617554277
0.001,1.799975,1.0,21.675196855861916,0.01124637722481659,1.3789325030748665,0.035870089380015686,0.28865195,0.5421242286779857
0.0015,1.79994375,1.0,31.20545340763986,0.016792503250302553,1.3780346111664266,0.07095937912004477,0.2886506375,0.5442915585467114
0.002,1.7999,1.0,53.87697055132322,0.022307519893812792,1.3763490468735577,0.1151412511351202,0.2886488,0.5483462848130249
0.0025,1.79984375,1.0,97.61473938020266,0.027791601653937414,1.3739113061718773,0.16503520489808948,0.28864643749999996,0.5541783645307419
0.003,1.7997750000000001,1.0,161.6037678225618,0.03324492205269878,1.371190202479712,0.2177552733798045,0.28864354999999997,0.5606436019868316
0.0035,1.79969375,1.0,238.41304028814434,0.038667653635514034,1.3685622744986303,0.2710851106176116,0.2886401375,0.5668426333431004
0.004,1.7996,1.0,322.24326903197647,0.0440599679818757,1.3661355383426421,0.32337301579398536,0.2886362,0.5725279577887235
0.0045000000000000005,1.7994937500000001,1.0,410.07194843631333,0.049422035710565776,1.3639039458468343,0.37346850630535616,0.2886317375,0.5777229534346439
0.005,1.799375,1.0,500.2341604740144,0.05475402647100678,1.3618409106266371,0.4206534873123002,0.28862675,0.5824973067502742
0.0055,1.79924375,1.0,591.6183833784195,0.06005610898796329,1.3599226642491966,0.46454960881600055,0.2886212375,0.586912231376786
0.006,1.7991000000000001,1.0,683.347147493254,0.06532845101136865,1.358131349595503,0.5050254159832779,0.2886152,0.5910138279238
0.006500000000000001,1.79894375,1.0,774.7079842156086,0.07057121936992067,1.3564531446230808,0.5421165909758288,0.2886086375,0.5948378689040723
0.007,1.798775,1.0,865.1012027168214,0.07578457990820235,1.3548772269157099,0.5759646144272365,0.28860155,0.5984124802825758
0.0075,1.79859375,1.0,954.0463509810305,0.08096869762998089,1.353394428736931,0.6067716877354259,0.2885939375,0.6017614086023539
0.008,1.7984,1.0,1041.1480726454051,0.0861237366859873,1.35199702301469,0.6347698822295896,0.2885858,0.60490464218366
0.0085,1.79819375,1.0,1126.082119857512,0.0912498598546096,1.350678372820027,0.6602005042932918,0.2885771375,0.6078593075137061
0.009000000000000001,1.797975,1.0,1208.6199765877889,0.09634722936349895,1.34943220135856,0.6833007552750081,0.28856795,0.6106413796355574
0.0095,1.79774375,1.0,1288.599484977605,0.10141600721261473,1.348252765892036,0.7042961852714176,0.2885582375,0.6132653413537843
0.01,1.7975,1.0,1365.8655574550157,0.10645635300052549,1.3471354087089051,0.723396848361382,0.288548,0.615743010269456
0.0105,1.79724375,1.0,1440.331604807249,0.1114684261754141,1.3460755354514313,0.7407949415400441,0.2885372375,0.6180858538329245
0.011,1.796975,1.0,1511.9575253947858,0.1164523854291623,1.3450687938573123,0.7566645968565804,0.28852595000000003,0.6203046157712364
0.0115,1.79669375,1.0,1580.739065387803,0.12140838930792604,1.3441111001855017,0.771162471735094,0.2885141375,0.6224092816617461
0.012,1.7964,1.0,1646.660562222207,0.1263365937348874,1.343199101140648,0.7844290161977426,0.28850180000000003,0.6244080898477398
0.0125,1.79609375,1.0,1709.7439733081326,0.1312371544576469,1.3423294879519623,0.7965894664306911,0.2884889375,0.6263090614749596
0.013000000000000001,1.7957750000000001,1.0,1770.032616709621,0.13611022651109406,1.3414991343970235,0.8077553244834123,0.28847555,0.6281197104785832
0.0135,1.79544375,1.0,1827.5994012668357,0.1409559653569715,1.3407049530912691,0.8180257053715084,0.2884616375,0.6298473690659314
0.014,1.7951000000000001,1.0,1882.4949614251502,0.14577452369999805,1.3399444274190793,0.8274888711346524,0.2884472,0.6314980429423289
0.0145,1.79474375,1.0,1934.7748960752651,0.1505660532560799,1.3392152488177795,0.8362233089757869,0.2884322375,0.6330772161016962
0.015,1.794375,1.0,1984.5159316693873,0.15533070574112326,1.3385151087246958,0.8442987833594383,0.28841675,0.6345903098377148
0.0155,1.79399375,1.0,2031.7985337481944,0.16006863193161064,1.3378418624443456,0.8517774102269026,0.2884007375,0.6360423341203314
0.016,1.7936,1.0,2076.7233426190433,0.1647799831426935,1.3371933310793478,0.858714496060812,0.2883842,0.6374383210319303
0.0165,1.7931937500000001,1.0,2119.3634973076005,0.16946490764230848,1.336567779619744,0.8651594867401015,0.2883671375,0.6387823014089142
0.017,1.792775,1.0,2159.7928306620706,0.17412355290827564,1.3359635934853258,0.8711565616326459,0.28834955,0.6400780097335037
0.0175,1.7923437500000001,1.0,2198.0961708325503,0.17875606641841504,1.3353791580958856,0.8767452208445912,0.2883314375,0.6413291464122928
0.018000000000000002,1.7919,1.0,2234.359117711354,0.18336259465607038,1.334812952157521,0.8819608597969578,0.2883128,0.6425391807001455
0.0185,1.79144375,1.0,2268.6759989975553,0.18794328498037968,1.3342634560214828,0.8868352250930029,0.2882936375,0.6437115496446884
0.019,1.790975,1.0,2301.1227115486877,0.19249828190292861,1.3337294127669166,0.8913968993987376,0.28827395,0.6448491041270696
0.0195,1.79049375,1.0,2331.7694848710144,0.19702772847828062,1.333209686852615,0.8956716277147773,0.2882537375,0.6459544151389738
0.02,1.79,1.0,2360.6923477013456,0.20153176776099915,1.3327031427373712,0.8996826107022908,0.288233,0.6470300344791977
0.0205,1.78949375,1.0,2387.9726397123923,0.2060105428056477,1.3322086448799784,0.9034507903893251,0.2882117375,0.6480784957493891
0.021,1.788975,1.0,2413.6787328496875,0.21046419421468235,1.3317252299772966,0.9069951370133483,0.28818995000000003,0.6491019508817273
0.021500000000000002,1.78844375,1.0,2437.9036045392813,0.21489286649007486,1.3312517371530295,0.9103327890993362,0.2881676375,0.6501029548249371
0.022,1.7879,1.0,2460.7046534522315,0.21929669806170435,1.330787385380052,0.9134793661445998,0.2881448,0.6510832451321076
0.0225,1.78734375,1.0,2482.1404924727394,0.22367582708302122,1.330331410864947,0.916449058826877,0.28812143749999997,0.6520445121045073
0.023,1.786775,1.0,2502.272478166432,0.22803039170747574,1.329883049814297,0.9192547764642424,0.28809755,0.6529884357309248
0.0235,1.78619375,1.0,2521.1644797854556,0.23236053008851826,1.3294415384346845,0.9219082804505458,0.28807313749999996,0.653916686077131
0.024,1.7856,1.0,2538.858460552022,0.23666637901577073,1.329006341016389,0.9244203433095163,0.2880482,0.6548304450606107
0.0245,1.78499375,1.0,2555.4400104044366,0.24094807611072203,1.328576528680109,0.92680073762288,0.2880227375,0.6557317117363823
0.025,1.784375,1.0,2571.001869943306,0.2452057584989088,1.3281511256363099,0.9290583982456936,0.28799675,0.6566225725243073
0.025500000000000002,1.78374375,1.0,2585.5564927767077,0.2494395590294666,1.327729924409779,0.9312016407871866,0.2879702375,0.6575034969590576
0.026000000000000002,1.7831052683902018,1.0,2599.3726721334247,0.25364961055153107,1.3273127175253043,0.9332380930956756,0.2879434212723885,0.6583749519968123
0.0265,1.7824667448772533,1.0,2612.816002151069,0.25783604591423775,1.326899297507673,0.9351747613952814,0.28791660328484464,0.6592374020694831
0.027,1.7818282213643049,1.0,2625.907747351037,0.2619989979667223,1.3264894568816725,0.9370180892621657,0.2878897852973008,0.6600913091361942
0.0275,1.7811896978513564,1.0,2638.6673359161086,0.26613859942632784,1.3260829893014914,0.9387740104061539,0.28786296730975697,0.6609371303833018
0.028,1.780551174338408,1.0,2651.1008435804324,0.27025498151123184,1.3256798142920194,0.9404480136128586,0.28783614932221313,0.6617750591923334
0.0285,1.7799126508254595,1.0,2663.2103376996893,0.27434827441370774,1.3252798896919402,0.9420451703196667,0.2878093313346693,0.6626052084247424
0.029,1.779274127312511,1.0,2675.003733983701,0.27841860691471026,1.3248831206756702,0.9435701591078303,0.28778251334712546,0.6634277994261415
0.029500000000000002,1.7786356037995625,1.0,2686.489106886527,0.2824661077951938,1.3244894124176259,0.9450273086132753,0.2877556953595816,0.664243052387959
0.03,1.777997080286614,1.0,2697.6641941665907,0.28649086850348315,1.3240987659932308,0.9464206278579651,0.2877288773720378,0.6650509881430644
0.0305,1.7773585567736656,1.0,2708.5509496558157,0.2904930620254404,1.3237109620728182,0.9477538338105226,0.28770205938449395,0.6658520823784772
0.031,1.7767200332607171,1.0,2719.161307038235,0.2944728266347384,1.3233258748560268,0.9490303764708332,0.2876752413969501,0.6666466155885997
0.0315,1.7760815097477687,1.0,2729.502105808376,0.2984302825029542,1.3229434262878852,0.9502534617126742,0.2876484234094063,0.6674347685505142
0.032,1.7754429862348202,1.0,2739.580297825877,0.3023655498016649,1.322563538313422,0.9514260716539791,0.28762160542186244,0.6682167211438952
0.0325,1.7748044627218718,1.0,2749.4029428168174,0.3062787487024476,1.322186132877666,0.9525509830204492,0.2875947874343186,0.6689926523639507
0.033,1.7741659392089233,1.0,2758.9772040098087,0.3101699993768793,1.3218111319256458,0.9536307837914708,0.28756796944677476,0.6697627403339751
0.0335,1.7735274156959748,1.0,2768.3103439073943,0.31403942199653717,1.32143845740239,0.9546678883073388,0.2875411514592309,0.6705271623175124
0.034,1.7728888921830264,1.0,2777.4097201921677,0.3178871367329983,1.3210680312529275,0.9556645509963703,0.2875143334716871,0.6712860947301313
0.0345,1.772250368670078,1.0,2786.2827817683997,0.32171326375783965,1.3206997754222867,0.9566228788625817,0.28748751548414325,0.6720397131508129
0.035,1.7716118451571294,1.0,2794.937064938457,0.32551792324263845,1.3203336118554965,0.9575448428588875,0.2874606974965994,0.6727881923329468
0.035500000000000004,1.770973321644181,1.0,2803.380189714559,0.3293012353589717,1.3199694624975855,0.9584322882569524,0.2874338795090556,0.6735317062149433
0.036000000000000004,1.7703347981312325,1.0,2811.619856265057,0.33306332027841656,1.3196072492935824,0.95928694411266,0.28740706152151174,0.6742704279304523
0.0365,1.769696274618284,1.0,2819.663841496857,0.33680429817255,1.3192468941885158,0.9601104319154359,0.28738024353396796,0.675004529818197
0.037,1.7690577511053356,1.0,2827.5199957712944,0.34052428921294914,1.3188883191274143,0.9609042735001968,0.28735342554642407,0.675734183431417
0.0375,1.7684192275923871,1.0,2835.196239757254,0.34422341357119113,1.3185314460553068,0.9616698982923302,0.2873266075588803,0.6764595595469234
0.038,1.7677807040794387,1.0,2842.7005614169734,0.347901791418853,1.3181761969172219,0.9624086499487113,0.2872997895713364,0.6771808281737668
0.0385,1.7671421805664902,1.0,2850.0399605855437,0.3515595392745543,1.3178225030209072,0.9631217925974257,0.2872729715837926,0.677898139583946
0.039,1.7665036570535417,1.0,2857.21193076008,0.35519674328664536,1.3174703806306274,0.9638105182228995,0.2872461535962487,0.6786114713719533
0.0395,1.7658651335405933,1.0,2864.235172297773,0.3588135649770205,1.3171196578995479,0.964475947246035,0.28721933560870494,0.6793211816762555
0.04,1.765226610027645,1.0,2871.113730019644,0.3624101134907589,1.316770293834902,0.9651191375933502,0.2871925176211611,0.680027362703284
0.0405,1.7645880865146966,1.0,2877.851683452119,0.3659864979729398,1.3164222474439229,0.9657410873565825,0.28716569963361727,0.6807301062580895
0.041,1.763949563001748,1.0,2884.453145610397,0.3695428275686423,1.3160754777338437,0.9663427388074575,0.28713888164607343,0.6814295037478395
0.0415,1.7633110394887996,1.0,2890.922261819416,0.37307921142294576,1.3157299437118979,0.9669249821027381,0.2871120636585296,0.6821256461852099
0.042,1.7626725159758512,1.0,2897.2632085724135,0.3765957586809292,1.315385604385319,0.9674886587064089,0.28708524567098576,0.682818624191668
0.0425,1.7620339924629027,1.0,2903.48019242627,0.3800925784876719,1.3150424187613396,0.9680345645532903,0.2870584276834419,0.6835085280006528
0.043000000000000003,1.7613954689499542,1.0,2909.577448934448,0.38356977998825303,1.3147003458471935,0.9685634529760659,0.2870316096958981,0.6841954474606402
0.043500000000000004,1.7607569454370058,1.0,2915.5592416168506,0.3870274723277518,1.3143593446501138,0.9690760374156324,0.28700479170835425,0.6848794720381088
0.044,1.7601184219240573,1.0,2921.4298609674775,0.3904657646512474,1.3140193741773338,0.9695729939328379,0.2869779737208104,0.6855606908203942
0.0445,1.7594798984111089,1.0,2927.193623498664,0.39388476610381906,1.3136803934360866,0.9700549635379982,0.28695115573326657,0.6862391925184373
0.045,1.7588413748981604,1.0,2932.8548708229787,0.39728458583054593,1.3133423614336057,0.9705225543530858,0.28692433774572274,0.6869150654694247
0.0455,1.758202851385212,1.0,2938.4179687725523,0.4006653329765072,1.3130052371771244,0.9709763436201366,0.2868975197581789,0.6875883976393244
0.046,1.7575643278722635,1.0,2943.887306555187,0.40402711668678215,1.3126689796738755,0.971416879568212,0.28687070177063506,0.6882592766253113
0.0465,1.756925804359315,1.0,2949.26729594796,0.4073700461064499,1.312333547931093,0.9718446831501383,0.2868438837830912,0.6889277896580858
0.047,1.7562872808463665,1.0,2954.5598516402342,0.4106942154552057,1.3119989229624476,0.9722602492860201,0.2868170657955474,0.6895939798159206
0.0475,1.755648757333418,1.0,2959.7671267675537,0.4139997265185443,1.3116650838066228,0.9726640496547119,0.28679024780800355,0.690257893927968
0.048,1.7550102338204696,1.0,2964.896754545181,0.41728671372582055,1.311331961818904,0.9730565339420901,0.2867634298204597,0.6909196733099249
0.0485,1.7543717103075211,1.0,2969.950796095916,0.42055527627636236,1.3109995371784597,0.9734381292683181,0.2867366118329159,0.6915793618456118
0.049,1.7537331867945727,1.0,2974.9313235843074,0.4238055133694976,1.3106677900644585,0.9738092425661428,0.28670979384537204,0.6922370032412803
0.0495,1.7530946632816242,1.0,2979.8404199143147,0.4270375242045543,1.3103367006560687,0.9741702617191441,0.2866829758578282,0.6928926410264848
0.05,1.7524561397686758,1.0,2984.6801784361237,0.4302514079808603,1.3100062491324582,0.974521556625833,0.28665615787028437,0.6935463185549242
0.0505,1.7518176162557273,1.0,2989.452702661124,0.4334472638977435,1.309676415672796,0.9748634801950534,0.28662933988274053,0.6941980790052604
0.051000000000000004,1.7511790927427788,1.0,2994.160105986253,0.43662519115453186,1.3093471804562502,0.9751963692777027,0.2866025218951967,0.6948479653819138
0.051500000000000004,1.7505405692298304,1.0,2998.80451142663,0.4397852889505533,1.3090185236619893,0.9755205455393733,0.28657570390765286,0.6954960205158308
0.052000000000000005,1.749902045716882,1.0,3003.3880513570844,0.44292765648513566,1.3086904254691816,0.9758363162781518,0.286548885920109,0.6961422870652285
0.0525,1.7492635222039334,1.0,3007.912867262071,0.4460523929576069,1.3083628660569955,0.9761439751914741,0.2865220679325652,0.6967868075163122
0.053,1.748624998690985,1.0,3012.3811094948574,0.44915959756729495,1.3080358256045994,0.9764438030956247,0.28649524994502135,0.6974296241839695
0.0535,1.7479864751780365,1.0,3016.7949370449346,0.45224936951352773,1.3077092842911617,0.9767360686011894,0.2864684319574775,0.6980707792124394
0.054,1.747347951665088,1.0,3021.1565173144154,0.45532180799563315,1.307383222295851,0.977021028747512,0.28644161396993373,0.6987103145759548
0.0545,1.7467094281521396,1.0,3025.468025902658,0.4583770122129391,1.3070576197978352,0.9772989295989721,0.28641479598238984,0.6993482720793626
0.055,1.7460709046391911,1.0,3029.731646400847,0.4614150813647735,1.306732456976283,0.9775700068056834,0.28638797799484605,0.6999846933587139
0.0555,1.7454323811262427,1.0,3033.948681468312,0.4644361038337563,1.306407721672512,0.9778344855689923,0.28636116000730216,0.7006196049089936
0.056,1.7447938576132942,1.0,3038.1185374061906,0.46744015070664297,1.30608341811055,0.9780925811099218,0.2863343420197584,0.7012530011408233
0.0565,1.7441553341003457,1.0,3042.246696395813,0.4704273690048264,1.305759498201645,0.9783445036948298,0.2863075240322145,0.7018849785059895
0.057,1.7435168105873973,1.0,3046.334125477468,0.47339784813521274,1.3054359528447832,0.9785904519764349,0.2862807060446707,0.7025155571103296
0.0575,1.7428782870744488,1.0,3050.3817954787646,0.47635167750470797,1.3051127729389522,0.9788306165773134,0.2862538880571268,0.7031447569818348
0.058,1.7422397635615003,1.0,3054.390680941155,0.47928894652021814,1.3047899493831385,0.9790651804788165,0.28622707006958303,0.7037725980708669
0.0585,1.7416012400485519,1.0,3058.361760045892,0.4822097445886494,1.3044674730763295,0.9792943193881561,0.28620025208203914,0.7043991002503653
0.059000000000000004,1.7409627165356034,1.0,3062.2960145442617,0.4851141611169077,1.3041453349175118,0.9795182020850485,0.28617343409449536,0.705024283316054
0.059500000000000004,1.740324193022655,1.0,3066.1944296874203,0.4880022855118991,1.3038235258056725,0.9797369907492067,0.2861466161069515,0.7056481669866386
0.06,1.7396856695097065,1.0,3070.057994159675,0.49087420718052965,1.3035020366397987,0.9799508412698801,0.2861197981194077,0.7062707709039997
0.0605,1.739047145996758,1.0,3073.8877000128305,0.4937300155297055,1.303180858318877,0.9801599035385585,0.28609298013186385,0.7068921146333832
0.061,1.7384086224838096,1.0,3077.68454260251,0.4965697999663327,1.3028599817418947,0.9803643217258788,0.28606616214432,0.7075122176635817
0.0615,1.737770098970861,1.0,3081.449520526392,0.4993936498973172,1.3025393978078388,0.9805642345436997,0.2860393441567762,0.7081310994071119
0.062,1.7371315754579126,1.0,3085.1836355642317,0.5022016547295651,1.302219097415696,0.9807597754932482,0.28601252616923234,0.7087487792003893
0.0625,1.7364930519449642,1.0,3088.8878926198086,0.5049939038699826,1.3018990714644532,0.9809510731001767,0.2859857081816885,0.7093652763038936
0.063,1.7358545284320157,1.0,3092.563299664414,0.5077704867254755,1.3015793108530977,0.9811382511373135,0.28595889019414467,0.7099806099023298
0.0635,1.7352160049190672,1.0,3096.2108676826756,0.5105314927029501,1.3012598064806165,0.9813214288358375,0.28593207220660083,0.7105947991047881
0.064,1.7345774814061188,1.0,3099.8316106197212,0.5132770112093122,1.300940549245996,0.9815007210855645,0.285905254219057,0.7112078629448924
0.0645,1.7339389578931703,1.0,3103.426545330396,0.5160071316514682,1.3006215300482238,0.9816762386249747,0.28587843623151316,0.7118198203809467
0.065,1.7333004343802219,1.0,3106.9966915305886,0.5187219434363237,1.3003027397862865,0.9818480882215851,0.2858516182439693,0.7124306902960775
0.0655,1.7326619108672734,1.0,3110.5413964109766,0.5214214965952844,1.299984183624177,0.9820163708623021,0.2858248002564255,0.7130404642070665
0.066,1.732023387354325,1.0,3114.0627072967127,0.5241059175263012,1.29966584373934,0.9821811880233734,0.28579798226888165,0.7136491776020072
0.0665,1.7313848638413765,1.0,3117.561507636165,0.5267752976689075,1.2993477122512112,0.9823426357407365,0.2857711642813378,0.7142568468430042
0.067,1.730746340328428,1.0,3121.0382520434664,0.529429717194916,1.299029784944677,0.9825008061458788,0.28574434629379397,0.7148634812370542
0.0675,1.7301078168154795,1.0,3124.4933965189903,0.5320692562761394,1.2987120576046247,0.9826557881998734,0.28571752830625013,0.7154690900561587
0.068,1.729469293302531,1.0,3127.9273984304664,0.5346939950843905,1.298394526015941,0.9828076678247191,0.2856907103187063,0.7160736825373784
0.0685,1.7288307697895826,1.0,3131.3407164945615,0.5373040137914818,1.298077185963513,0.9829565280283568,0.28566389233116246,0.7166772678828869
0.069,1.7281922462766341,1.0,3134.733810758605,0.5398993925692263,1.2977600332322272,0.9831024490237144,0.2856370743436186,0.7172798552600221
0.0695,1.7275537227636857,1.0,3138.107142583063,0.5424802115894363,1.2974430636069707,0.9832455083420966,0.2856102563560748,0.717881453801338
0.07,1.7269151992507372,1.0,3141.4611746240857,0.5450465510239247,1.2971262728726305,0.9833857809412337,0.28558343836853095,0.7184820726046528
0.07050000000000001,1.7262766757377888,1.0,3144.7963708167363,0.5475984910445043,1.2968096568140932,0.9835233393082667,0.2855566203809871,0.7190817207331002
