Time [s],Phi [rad],STIM [ ],Fsee [N],Gamma [ ],Lcerel [ ],q [ ],Lmtc [m],fisomrel [ ]
0.0,1.8,1.0,17.973118296637335,7.778653256299527e-05,1.379339078541309,0.005001586730579108,0.288653,0.5411411463374698
0.0005,1.79999375,1.0,18.304940385523864,0.005686559520445174,1.3792992569432005,0.013129773374429086,0.2886527375,0.5412374798543875
0.001,1.799975,1.0,21.696951885793936,0.011263871726457712,1.3789302845893103,0.035962676851504234,0.28865195,0.5421295899906386
0.0015,1.79994375,1.0,31.255410647868587,0.01680989962162833,1.3780303659791344,0.07108586009388117,0.2886506375,0.5443017933599544
0.002,1.7999,1.0,53.98315728891034,0.022324818685236378,1.3763421802657787,0.11529088133465125,0.2886488,0.5483627657933678
0.0025,1.79984375,1.0,97.79207784105672,0.027808803412829874,1.3739027862522095,0.16519788960553689,0.28864643749999996,0.5541986812271509
0.003,1.7997750000000001,1.0,161.83379267966814,0.033262027323322264,1.3711816127015775,0.21792304554575462,0.28864354999999997,0.5606639361997965
0.0035,1.79969375,1.0,238.67253592234493,0.038684662959083946,1.3685542957587937,0.2712519372112903,0.2886401375,0.566861387365241
0.004,1.7996,1.0,322.5190962153422,0.04407688189658374,1.3661282431021955,0.32353452049442105,0.2886362,0.5725449923561852
0.0045000000000000005,1.7994937500000001,1.0,410.357397057182,0.04943885475161504,1.3638972530176878,0.37362179657481,0.2886317375,0.5777384861166484
0.005,1.799375,1.0,500.52529126251954,0.054770751170750955,1.3618347300973763,0.4207968881778311,0.28862675,0.5825115691816289
0.0055,1.79924375,1.0,591.9119278516025,0.0600727398750761,1.3599169338273394,0.46468236764602217,0.2886212375,0.5869253850265518
0.006,1.7991000000000001,1.0,683.6408303345612,0.06534498861229314,1.3581260150355046,0.5051474161366165,0.2886152,0.591026011973181
0.006500000000000001,1.79894375,1.0,774.996449952353,0.07058766420646623,1.3564482234099282,0.5422281738444988,0.2886086375,0.5948490562114347
0.007,1.798775,1.0,865.376580167992,0.07580093237677756,1.3548727811380497,0.576066396095431,0.28860155,0.5984225421152611
0.0075,1.79859375,1.0,954.3249035731236,0.08098495855989647,1.3533901464264866,0.6068641852951446,0.2885939375,0.6017710599766148
0.008,1.7984,1.0,1041.4229825794775,0.08613990637213928,1.3519929773219468,0.6348539074680644,0.2885858,0.604913724222039
0.0085,1.79819375,1.0,1126.350585541155,0.09126593881155284,1.3506745738554446,0.6602768329448588,0.2885771375,0.6078678037350201
0.009000000000000001,1.797975,1.0,1208.8891017569345,0.09636321831724219,1.3494285253828284,0.6833700596371338,0.28856795,0.6106495715841265
0.0095,1.79774375,1.0,1288.8514972309447,0.10143190628948828,1.348249432174292,0.704359281098742,0.2885582375,0.6132727455047298
0.01,1.7975,1.0,1366.100995348055,0.10647216273724208,1.3471323835997506,0.7234543532324288,0.288548,0.6157497074501135
0.0105,1.79724375,1.0,1440.5435900154648,0.11148414665448207,1.346072883010555,0.7408474641073857,0.2885372375,0.6180917080509014
0.011,1.796975,1.0,1512.1800259713154,0.11646801857588834,1.3450660765876103,0.7567124508345,0.28852595000000003,0.6203105956263821
0.0115,1.79669375,1.0,1580.9621733944605,0.12142393503677389,1.344108435431534,0.7712061899214018,0.2885141375,0.6224151296711153
0.012,1.7964,1.0,1646.875893873111,0.12635205212537512,1.3431965812655855,0.784469063570535,0.28850180000000003,0.6244136052538725
0.0125,1.79609375,1.0,1709.9487847144055,0.13125252592992853,1.3423271358130249,0.7966262282950232,0.2884889375,0.6263141967029682
0.013000000000000001,1.7957750000000001,1.0,1770.2319690805434,0.13612551206967144,1.3414968842757748,0.8077891087778705,0.28847555,0.6281246110648535
0.0135,1.79544375,1.0,1827.786066831026,0.14097116510644714,1.3407028796105906,0.8180568383604819,0.2884616375,0.6298518744421282
0.014,1.7951000000000001,1.0,1882.663863571182,0.14578963776440762,1.339942578806545,0.8275176326715191,0.2884472,0.6315020507473084
0.0145,1.79474375,1.0,1934.9312028450363,0.1505810823490117,1.3392135613279148,0.8362499086043588,0.2884322375,0.6330808667450032
0.015,1.794375,1.0,1984.6620120909665,0.15534565041565138,1.3385135515257367,0.8443234184538986,0.28841675,0.634593671662731
0.0155,1.79399375,1.0,2031.9520967151673,0.16008349385967038,1.3378402446424291,0.8518002054254706,0.2884007375,0.636045819834004
0.016,1.7936,1.0,2076.869943730359,0.16479476167174203,1.3371918034160175,0.8587356676129405,0.2883842,0.6374416062150952
0.0165,1.7931937500000001,1.0,2119.493149383653,0.1694796025330434,1.3365664422315453,0.8651792126742923,0.2883671375,0.6387851720778057
0.017,1.792775,1.0,2159.9085560085537,0.17413816475002966,1.3359624109775567,0.8711749621680857,0.28834955,0.6400805433997043
0.0175,1.7923437500000001,1.0,2198.2075616796096,0.17877059626039105,1.3353780298388829,0.8767623856262579,0.2883314375,0.6413315596345326
0.018000000000000002,1.7919,1.0,2234.4804601116284,0.1833770446151335,1.3348117331185905,0.8819768583049774,0.2883128,0.6425417836930031
0.0185,1.79144375,1.0,2268.7961901005924,0.18795765426379799,1.3342622577155518,0.8868501841017166,0.2882936375,0.643714104167417
0.019,1.790975,1.0,2301.2310241356067,0.19251256965592564,1.3337283405286393,0.8914109313088695,0.28827395,0.6448513862500018
0.0195,1.79049375,1.0,2331.8679569147853,0.19704193524105743,1.3332087184567252,0.895684803819333,0.2882537375,0.6459564730370755
0.02,1.79,1.0,2360.782210440113,0.2015458936518958,1.3327022644367303,0.8996949969206149,0.288233,0.6470318980824998
0.0205,1.78949375,1.0,2388.068233213106,0.2060245901999473,1.3322077159205976,0.9034624191230294,0.2882117375,0.6480804639120521
0.021,1.788975,1.0,2413.7922557928914,0.2104781656896695,1.3317241326752687,0.9070060428168545,0.28818995000000003,0.6491042723241096
0.021500000000000002,1.78844375,1.0,2438.016046129879,0.21490675974816534,1.3312506557163735,0.9103430642907688,0.2881676375,0.6501052394370939
0.022,1.7879,1.0,2460.804863326713,0.21931051200253765,1.3307864260595426,0.913489079302858,0.2881448,0.6510852689246007
0.0225,1.78734375,1.0,2482.2271658322525,0.2236895620798894,1.330330584720406,0.9164582541831391,0.28812143749999997,0.6520462525455186
0.023,1.786775,1.0,2502.3487467659493,0.22804404847395632,1.3298823257743282,0.9192634862693594,0.28809755,0.6529899589978316
0.0235,1.78619375,1.0,2521.2360970093696,0.23237411004793912,1.32944086110332,0.9219165299209827,0.28807313749999996,0.6539181091693338
0.024,1.7856,1.0,2538.955861441129,0.2366798855254403,1.3290054230497694,0.9244281139513516,0.2880482,0.6548323711857215
0.0245,1.78499375,1.0,2555.556349915982,0.24096150932297597,1.3285754357891677,0.9268080736734482,0.2880227375,0.655734001900378
0.025,1.784375,1.0,2571.0875179443588,0.2452191158570621,1.3281503234970067,0.9290654081834352,0.28799675,0.6566242512398275
0.025500000000000002,1.78374375,1.0,2585.6008287071604,0.24945283954421482,1.327729510348778,0.9312083628745899,0.2879702375,0.6575043623933361
0.026000000000000002,1.7831000000000001,1.0,2599.1491224221763,0.2536628148009501,1.3273124205199731,0.933244502803563,0.2879432,0.6583755719813658
0.0265,1.78244375,1.0,2611.7803230867034,0.25784917447204825,1.3268985355187586,0.9351807864369783,0.2879156375,0.6592389906750349
0.027,1.781775,1.0,2623.5425711182875,0.2620120521557711,1.3264873448808598,0.9370236162402731,0.28788755,0.6600957067367554
0.0275,1.7810937500000001,1.0,2634.4903120644963,0.26615158232537606,1.3260782888391767,0.9387788819300087,0.2878589375,0.6609469054455182
0.028,1.7804,1.0,2644.6588131388085,0.2702678938338554,1.3256709932745572,0.9404520399780572,0.2878298,0.661793380547077
0.0285,1.77969375,1.0,2654.084030787338,0.27436111553420134,1.3252650840678497,0.9420481278587362,0.2878001375,0.6626359218314244
0.029,1.778975,1.0,2662.802550812331,0.2784313762794063,1.3248601870999022,0.9435718016769074,0.28776995,0.6634753151703334
0.029500000000000002,1.7782437500000001,1.0,2670.8515315986388,0.2824788049224624,1.3244559282515629,0.9450273699652072,0.2877392375,0.6643123425459716
0.03,1.7775,1.0,2678.2686504436992,0.28650353031636216,1.32405193340368,0.9464188240821421,0.287708,0.6651477820705898
0.0305,1.77674375,1.0,2685.0863613267597,0.2905056791825094,1.323647880598265,0.9477498716846733,0.2876762375,0.6659823003324337
0.031,1.775975,1.0,2691.3401132976514,0.2944853802934793,1.3232434240708477,0.9490239524371752,0.28764395,0.6668166096777873
0.0315,1.7751937500000001,1.0,2697.063816515396,0.29844276092360383,1.322838235481698,0.9502442646051222,0.2876111375,0.6676513830072183
0.032,1.7744,1.0,2702.28220669687,0.3023779443504152,1.3224320732293948,0.9514137927911548,0.2875778,0.6684871114572519
0.0325,1.77359375,1.0,2707.020272040583,0.3062910538514459,1.322024695712517,0.952535316096635,0.2875439375,0.6693242836456021
0.033,1.772775,1.0,2711.3032288500003,0.3101822127042281,1.3216158613296431,0.9536114247648894,0.28750955,0.6701633856543104
0.0335,1.7719437500000002,1.0,2715.1564984512806,0.31405154418629416,1.321205328479352,0.9546445352863763,0.2874746375,0.671004901009157
0.034,1.7711000000000001,1.0,2718.6056854047274,0.3178991715751764,1.3207928555602224,0.9556369041242698,0.2874392,0.6718493106553517
0.0345,1.7702437500000001,1.0,2721.666311237565,0.3217252125490884,1.3203782942348874,0.9565906490073149,0.2874032375,0.6726969023697191
0.035,1.7693750000000001,1.0,2724.368620088425,0.32552979480556554,1.3199613633376963,0.9575077390548201,0.28736675,0.6735482333261565
0.035500000000000004,1.76849375,1.0,2726.7379676118194,0.32931304121470406,1.3195418274053834,0.9583900214753914,0.2873297375,0.6744037644720287
0.036000000000000004,1.7676,1.0,2728.790267043224,0.33307506878054033,1.3191195378117584,0.9592392347457249,0.2872922,0.6752637773814085
0.0365,1.76669375,1.0,2730.541513780668,0.3368159945071108,1.3186943459306317,0.9600570091269668,0.2872541375,0.6761285518872667
0.037,1.765775,1.0,2732.0077761012208,0.34053593539845195,1.3182661031358134,0.9608448746190181,0.28721555,0.6769983660546677
0.0375,1.76484375,1.0,2733.205186367568,0.3442350084586001,1.3178346608011136,0.9616042682447659,0.2871764375,0.6778734961525545
0.038,1.7639,1.0,2734.149932724025,0.3479133306915918,1.3173998703003424,0.9623365407274671,0.28713679999999997,0.6787542166241256
0.0385,1.76294375,1.0,2734.858251282508,0.3515710191014634,1.3169615830073105,0.9630429626179597,0.28709663750000003,0.6796408000558031
0.039,1.761975,1.0,2735.346418797973,0.35520819069225124,1.3165196502958272,0.9637247299225246,0.28705595,0.6805335171447937
0.0395,1.7609937500000001,1.0,2735.627552986759,0.35882495855114743,1.3160739525289515,0.9643829711721571,0.2870147375,0.6814325782293562
0.04,1.76,1.0,2735.7136443915274,0.3624214380744936,1.3156243805510814,0.9650187515582795,0.286973,0.6823381709239353
0.0405,1.7589937500000001,1.0,2735.62139627021,0.3659977502896785,1.3151707826220478,0.9656330731144771,0.2869307375,0.6832505669049933
0.041,1.757975,1.0,2735.3598714703203,0.36955400544159156,1.314713076534114,0.9662268857789506,0.28688795,0.6841698962322479
0.0415,1.75694375,1.0,2734.938147396469,0.3730903137751221,1.314251180079544,0.9668010868088083,0.2868446375,0.6850962876869069
0.042,1.7559,1.0,2734.3653132842296,0.37660678553515947,1.3137850110506015,0.9673565242418789,0.28680079999999997,0.6860298687499167
0.0425,1.75484375,1.0,2733.6504676233812,0.3801035309665931,1.3133144872395501,0.9678940000968003,0.2867564375,0.6869707655797761
0.043000000000000003,1.753775,1.0,2732.8027157304646,0.3835806603143123,1.3128395264386539,0.9684142733336312,0.28671155,0.6879191029899197
0.043500000000000004,1.75269375,1.0,2731.831167472717,0.3870382838232065,1.312360046440176,0.9689180625951502,0.28666613750000003,0.6888750044256733
0.044,1.7516,1.0,2730.7449351400087,0.39047651173816494,1.3118759650363805,0.9694060487471315,0.2866202,0.6898385919407729
0.0445,1.75049375,1.0,2729.5531314682235,0.3938954543040771,1.311387200019531,0.969878877234186,0.2865737375,0.6908099861734585
0.045,1.7493750000000001,1.0,2728.2406652225977,0.3972952200242569,1.310893889224556,0.9703371768768646,0.28652675,0.6917888700345327
0.0455,1.74824375,1.0,2726.8591540150273,0.4006759171165758,1.3103955640309373,0.9707814985039047,0.2864792375,0.692776128284172
0.046,1.7471,1.0,2725.4195755869428,0.40403765240269746,1.3098921250597977,0.9712123926381315,0.2864312,0.6937719095214372
0.0465,1.7459452123100105,1.0,2723.9648198904456,0.40738053099204413,1.3093838428793958,0.9716304092656427,0.28638269891702045,0.6947756306287542
0.047,1.744788758610554,1.0,2722.9302172210787,0.4107046579940383,1.3088709880579896,0.9720360710649308,0.28633412786164325,0.6957867115308713
0.0475,1.7436323049110976,1.0,2722.368466847743,0.41401013851810237,1.3083538311638367,0.9724298750273881,0.2862855568062661,0.6968045752760972
0.048,1.742475851211641,1.0,2722.2496952323954,0.4172970776736587,1.3078326427651954,0.9728122939672672,0.2862369857508889,0.6978286481128686
0.0485,1.7413193975121843,1.0,2722.546678601232,0.4205655790026709,1.3073076703672353,0.9731837761296347,0.2861884146955117,0.6988584047623172
0.049,1.740162943812728,1.0,2723.2141963231998,0.42381574795472476,1.3067793260998992,0.97354475995179,0.28613984364013456,0.6998930008854964
0.0495,1.7390064901132714,1.0,2724.222196718528,0.4270476870842784,1.3062478846249357,0.9738956534688101,0.2860912725847574,0.7009318659526533
0.05,1.7378500364138147,1.0,2725.546487831851,0.43026149749265624,1.3057135677157639,0.9742368419439107,0.2860427015293802,0.7019745360793975
0.0505,1.7366935827143584,1.0,2727.1629119443705,0.4334572802811827,1.3051765971458027,0.9745686928388864,0.285994130474003,0.7030205502375908
0.051000000000000004,1.7355371290149018,1.0,2729.047331980536,0.43663513655118213,1.3046371946884714,0.9748915568013875,0.28594555941862587,0.7040694502944465
0.051500000000000004,1.7343806753154452,1.0,2731.175619004663,0.43979516740397906,1.3040955821171887,0.9752057685891138,0.2858969883632487,0.7051207810484954
0.052000000000000005,1.7332242216159888,1.0,2733.527643982805,0.44293747224354224,1.3035519448448392,0.9755116454293681,0.2858484173078715,0.7061741606534303
0.0525,1.7320677679165322,1.0,2736.0806145782412,0.4460621527118075,1.303006492407951,0.9758094922169745,0.2857998462524943,0.7072291631333876
0.053,1.7309113142170756,1.0,2738.818666026046,0.44916930708865715,1.302459371305345,0.9760995961356789,0.2857512751971172,0.7082854869565545
0.0535,1.7297548605176192,1.0,2741.7280306374855,0.452259032620157,1.3019107089021609,0.9763822305702256,0.28570270414174,0.7093428694202637
0.054,1.7285984068181626,1.0,2744.79492761946,0.4553314265523727,1.3013606325635387,0.9766576571083418,0.28565413308636284,0.7104010495564534
0.0545,1.727441953118706,1.0,2748.005558901496,0.45838658613137007,1.3008092696546187,0.9769261261528829,0.28560556203098564,0.7114597681436698
0.055,1.7262854994192496,1.0,2751.346105323324,0.4614246086032148,1.3002567475405402,0.9771878774972971,0.2855569909756085,0.7125187677180367
0.0555,1.725129045719793,1.0,2754.8111007595753,0.46444558356418003,1.2997031177879965,0.9774431356612959,0.2855084199202313,0.7135779374622266
0.056,1.7239725920203364,1.0,2758.3784407401217,0.46744961780408617,1.2991485823524183,0.9776921262406227,0.2854598488648541,0.7146368803461047
0.0565,1.72281613832088,1.0,2762.0387901441945,0.47043680634749463,1.298593227341506,0.9779350577190284,0.28541127780947695,0.7156954227863002
0.057,1.7216596846214234,1.0,2765.7858235701838,0.47340724134864415,1.2980371115009635,0.9781721282375616,0.2853627067540998,0.7167534444137829
0.0575,1.7205032309219668,1.0,2769.6132020387304,0.4763610149617736,1.2974802935764949,0.9784035279199169,0.2853141356987226,0.7178108256812579
0.058,1.7193467772225104,1.0,2773.5145720402543,0.4792982193411218,1.2969228323138045,0.9786294392627671,0.2852655646433454,0.7188674478659067
0.0585,1.7181903235230538,1.0,2777.4835646587244,0.48221894664092774,1.2963647864585963,0.9788500375041002,0.28521699358796826,0.7199231930719088
0.059000000000000004,1.7170338698235972,1.0,2781.5137947717158,0.48512328901543006,1.2958062147565743,0.9790654909709706,0.28516842253259106,0.7209779442327406
0.059500000000000004,1.7158774161241408,1.0,2785.598860327648,0.4880113386188677,1.295247175953443,0.9792759614079679,0.2851198514772139,0.7220315851132548
0.06,1.7147209624246842,1.0,2789.7323416987665,0.49088318760547944,1.294687728794906,0.9794816042876097,0.2850712804218367,0.7230840003115433
0.0605,1.7135645087252276,1.0,2793.907801111381,0.49373892812950426,1.2941279320266676,0.979682569103791,0.28502270936645957,0.724135075260574
0.061,1.7124080550257712,1.0,2798.1224326952606,0.4965786438242356,1.2935678116217724,0.9798789972354754,0.28497413831108237,0.7251847575880217
0.0615,1.7112516013263146,1.0,2802.3706763304,0.4994024293049873,1.2930074181890947,0.980071026877795,0.2849255672557052,0.7262329492543398
0.062,1.710095147626858,1.0,2806.6448693401617,0.502210384279454,1.292446821036127,0.9802587924021978,0.284876996200328,0.7272795180671667
0.0625,1.7089386939274016,1.0,2810.9428643890037,0.5050025944673696,1.291886039861683,0.9804424195467907,0.2848284251449509,0.7283244251717603
0.063,1.707782240227945,1.0,2815.262507655187,0.5077791455884679,1.2913250943645758,0.9806220294148364,0.2847798540895737,0.7293676319944867
0.0635,1.7066257865284884,1.0,2819.6016387553045,0.5105401233624829,1.2907640042436184,0.9807977386806807,0.2847312830341965,0.7304091002430392
0.064,1.705469332829032,1.0,2823.9580906765177,0.5132856135091483,1.2902027891976247,0.9809696597850698,0.28468271197881934,0.7314487919066296
0.0645,1.7043128791295754,1.0,2828.3296897176256,0.5160157017481979,1.2896414689254074,0.9811379011204739,0.2846341409234422,0.7324866692561616
0.065,1.7031564254301188,1.0,2832.7142554388693,0.5187304737993658,1.2890800631257802,0.9813025672070029,0.284585569868065,0.7335226948443717
0.0655,1.7019999717306624,1.0,2837.109600620448,0.5214300153823855,1.288518591497556,0.9814637588594503,0.2845369988126878,0.7345568315059514
0.066,1.7008435180312058,1.0,2841.5135312292937,0.5241144122169912,1.287957073739549,0.9816215733459792,0.28448842775731065,0.7355890423576403
0.0665,1.6996870643317492,1.0,2845.92384639456,0.5267837500229166,1.2873955295505715,0.9817761045389222,0.28443985670193345,0.7366192907982991
0.067,1.6985306106322928,1.0,2850.338338392041,0.5294381145198955,1.2868339786294372,0.9819274430581407,0.2843912856465563,0.7376475405089529
0.0675,1.6973741569328362,1.0,2854.7547926365637,0.5320775914276619,1.2862724406749593,0.9820756764073608,0.2843427145911791,0.7386737554528122
0.068,1.6962177032333796,1.0,2859.17362581967,0.5347022457770823,1.2857109119563783,0.9822208866505502,0.28429414353580196,0.7396979425671386
0.0685,1.6950612495339232,1.0,2863.5923228360243,0.5373121754054951,1.2851494147719649,0.9823631564183674,0.28424557248042476,0.7407200614005292
0.069,1.6939047958344666,1.0,2868.0079226160697,0.5399074798710983,1.284587975305796,0.9825025658400062,0.2841970014250476,0.7417400647683279
0.0695,1.69274834213501,1.0,2872.419930048143,0.5424882373801496,1.2840265978116157,0.9826391900058206,0.2841484303696704,0.7427579455853276
0.07,1.6915918884355536,1.0,2876.8278485700253,0.5450545261389067,1.2834652865431673,0.9827731015230079,0.28409985931429327,0.7437736968271687
0.07050000000000001,1.690435434736097,1.0,2881.231180174143,0.5476064243536276,1.2829040457541947,0.9829043706148498,0.28405128825891607,0.7447873115303205
0.07100000000000001,1.6892789810366404,1.0,2885.629425414961,0.55014401023057,1.2823428796984415,0.9830330652153445,0.28400271720353887,0.7457987827920644
0.07150000000000001,1.688122527337184,1.0,2890.022083415186,0.5526673619759918,1.2817817926296513,0.9831592510594722,0.2839541461481617,0.7468081037704726
0.07200000000000001,1.6869660736377274,1.0,2894.4086518730523,0.5551765577961507,1.281220788801568,0.9832829917693275,0.2839055750927846,0.7478152676843872
0.0725,1.6858096199382708,1.0,2898.788627070173,0.5576716758973046,1.2806598724679352,0.9834043489363294,0.2838570040374074,0.7488202678134004
