Time [s],Phi [rad],STIM [ ],Fsee [N],Gamma [ ],Lcerel [ ],q [ ],Lmtc [m],fisomrel [ ]
0.0,1.8,1.0,17.97389032064703,8.369381452314686e-05,1.3793389920640722,0.005001835819729741,0.288653,0.5411413555478757
0.0005,1.79999375,1.0,18.307668923467386,0.0056924336672265355,1.3792989541005538,0.013146368327571618,0.2886527375,0.5412382124305675
0.001,1.799975,1.0,21.704077657267728,0.011269712923920523,1.3789295581752334,0.03599361940925393,0.28865195,0.5421313454755178
0.0015,1.79994375,1.0,31.271969888988263,0.016815708054594022,1.3780289595829092,0.07112811305542151,0.2886506375,0.5443051840454822
0.002,1.7999,1.0,54.018508180130425,0.022330594537481024,1.3763398957849253,0.11534085652235825,0.2886488,0.5483682488539272
0.0025,1.79984375,1.0,97.85118568529397,0.027814546867114008,1.3738999482348233,0.1652522172281533,0.28864643749999996,0.5542054486925907
0.003,1.7997750000000001,1.0,161.91048530727122,0.03326773856136813,1.3711787501392865,0.2179790667192288,0.28864354999999997,0.5606707125160624
0.0035,1.79969375,1.0,238.75907026097124,0.03869034216159671,1.3685516360427479,0.27130763873171027,0.2886401375,0.5668676389356311
0.004,1.7996,1.0,322.6110907904031,0.04408252924325898,1.3661258106690497,0.3235884422775342,0.2886362,0.5725506720724847
0.0045000000000000005,1.7994937500000001,1.0,410.45261262805485,0.04944447042115043,1.3638950210442071,0.3736729738184809,0.2886317375,0.5777436660052171
0.005,1.799375,1.0,500.62241322100266,0.05477633534089349,1.3618326686572289,0.42084476238933005,0.28862675,0.5825163261874619
0.0055,1.79924375,1.0,592.0098558693512,0.06007829272234837,1.3599150224438328,0.46472668820201285,0.2886212375,0.5869297723828295
0.006,1.7991000000000001,1.0,683.7387822163845,0.06535051031247052,1.358124236057371,0.5051881447255094,0.2886152,0.5910300750903199
0.006500000000000001,1.79894375,1.0,775.0942303058213,0.07059315493323655,1.3564465554891214,0.5422654073045835,0.2886086375,0.5948528478314435
0.007,1.798775,1.0,865.4720116234025,0.07580639228770841,1.3548712406285393,0.5761003381554834,0.28860155,0.5984260286184995
0.0075,1.79859375,1.0,954.4211663296411,0.08099038788300221,1.3533886666824726,0.6068950324154155,0.2885939375,0.6017743949629601
0.008,1.7984,1.0,1041.5171528353724,0.08614530522917029,1.3519915915947762,0.634881936114475,0.2885858,0.6049168349699499
0.0085,1.79819375,1.0,1126.4420121816365,0.09127130737452718,1.350673280212178,0.6603022985791076,0.2885771375,0.6078706968916816
0.009000000000000001,1.797975,1.0,1208.9782454045205,0.09636855677630547,1.3494273078616024,0.6833932003366316,0.28856795,0.6106522848233193
0.0095,1.79774375,1.0,1288.9368419807088,0.10143721479553834,1.3482483032740713,0.7043803354880006,0.2885582375,0.6132752527638089
0.01,1.7975,1.0,1366.1826977226003,0.10647744146589652,1.347131333878088,0.7234735294126312,0.288548,0.615752031377613
0.0105,1.79724375,1.0,1440.6203474903164,0.1114893956543749,1.3460719226394833,0.74086496068435,0.2885372375,0.6180938276805215
0.011,1.796975,1.0,1512.255755066453,0.11647323819880273,1.345065151797962,0.7567284171265802,0.28852595000000003,0.6203126307865099
0.0115,1.79669375,1.0,1581.0370566708464,0.12142912548061167,1.3441075410839587,0.771220781938147,0.2885141375,0.6224170923761214
0.012,1.7964,1.0,1646.9489315435878,0.1263572135206388,1.3431957265944445,0.7844824267929853,0.28850180000000003,0.6244154759161712
0.0125,1.79609375,1.0,1710.017697096129,0.13125765833972122,1.3423263444263909,0.7966384981559973,0.2884889375,0.6263159244632144
0.013000000000000001,1.7957750000000001,1.0,1770.3001427324987,0.1361306156353881,1.3414961148182234,0.8078003794992501,0.28847555,0.6281262868751875
0.0135,1.79544375,1.0,1827.8512777238652,0.14097623998794792,1.340702155273091,0.8180672188960946,0.2884616375,0.6298534483171896
0.014,1.7951000000000001,1.0,1882.7244248899137,0.14579468421608105,1.3399419159908017,0.8275272173950657,0.2884472,0.6315034877311949
0.0145,1.79474375,1.0,1934.9874929027364,0.15058610050941687,1.339212953636432,0.8362587729319207,0.2884322375,0.6330821813942855
0.015,1.794375,1.0,1984.713093676297,0.1553506401794998,1.3385130070159719,0.8443316339908408,0.28841675,0.634594847197081
0.0155,1.79399375,1.0,2032.001376737426,0.16008845562305607,1.3378397254851981,0.8518078215564351,0.2884007375,0.6360469384058864
0.016,1.7936,1.0,2076.9222999970316,0.1647996958995989,1.3371912578483036,0.8587427240459055,0.2883842,0.6374427794345626
0.0165,1.7931937500000001,1.0,2119.5482172840284,0.16948450931696132,1.3365658742070474,0.8651857613914731,0.2883671375,0.6387863913241261
0.017,1.792775,1.0,2159.96397909031,0.1741430441829765,1.3359618446631885,0.871181055590712,0.28834955,0.6400817567937106
0.0175,1.7923437500000001,1.0,2198.256783347775,0.17877544787800298,1.3353775312909424,0.876768081837985,0.2883314375,0.6413326259731918
0.018000000000000002,1.7919,1.0,2234.521224480671,0.1833818684619275,1.334811323596021,0.8819821977008819,0.2883128,0.642542658137374
0.0185,1.79144375,1.0,2268.834210831976,0.18796245127990382,1.3342618786552685,0.8868551828628288,0.2882936375,0.643714912238044
0.019,1.790975,1.0,2301.2675041298967,0.1925173402290063,1.3337279794013497,0.8914156150769219,0.28827395,0.6448521548619015
0.0195,1.79049375,1.0,2331.899448386764,0.19704667920630914,1.3332084087669296,0.8956892064328466,0.2882537375,0.6459571311448047
0.02,1.79,1.0,2360.8139407880994,0.20155061204018343,1.3327019543145764,0.8996991297525448,0.288233,0.6470325561073391
0.0205,1.78949375,1.0,2388.081436898067,0.20602928027037704,1.3322075876111703,0.9034663428218456,0.2882117375,0.6480807357575467
0.021,1.788975,1.0,2413.797453565382,0.21048282903152243,1.3317240824347094,0.907009752454647,0.28818995000000003,0.6491043786124048
0.021500000000000002,1.78844375,1.0,2438.020100459195,0.21491139736444434,1.3312506167232576,0.9103465628024275,0.2881676375,0.6501053218126961
0.022,1.7879,1.0,2460.810884908461,0.2193151243099674,1.3307863684148786,0.9134923765704468,0.2881448,0.6510853905321945
0.0225,1.78734375,1.0,2482.2344335199073,0.22369414890891648,1.3303305154476366,0.9164613662216299,0.28812143749999997,0.6520463984824577
0.023,1.786775,1.0,2502.3582287790523,0.22804861020211614,1.329882235759595,0.9192664248875191,0.28809755,0.6529901483745248
0.0235,1.78619375,1.0,2521.24491199374,0.2323786453718174,1.3294407777348585,0.9219193117587984,0.28807313749999996,0.6539182843286084
0.024,1.7856,1.0,2538.9601373916344,0.2366843938980325,1.3290053827509531,0.9244307563611286,0.2880482,0.6548324557426621
0.0245,1.78499375,1.0,2555.559732167235,0.24096599230642177,1.3285754040167423,0.9268105810599021,0.2880227375,0.655734068479702
0.025,1.784375,1.0,2571.091839886781,0.24522357438964668,1.3281502830200604,0.9290677872037629,0.28799675,0.6566243359497903
0.025500000000000002,1.78374375,1.0,2585.6060861601304,0.24945727394036865,1.3277294612487416,0.9312106222132781,0.2879702375,0.6575044650178877
0.026000000000000002,1.7831000000000001,1.0,2599.1534520409054,0.2536672247512491,1.3273123801906201,0.9332466529689644,0.2879432,0.6583756561669354
0.0265,1.78244375,1.0,2611.7861543425242,0.25785356061494935,1.3268984813335303,0.935182831160135,0.2879156375,0.6592391036410445
0.027,1.781775,1.0,2623.5478551643414,0.2620164125432025,1.3264872958906053,0.9370255642623817,0.28788755,0.6600958087437511
0.0275,1.7810937500000001,1.0,2634.4881045775755,0.26615591532235183,1.3260783092630122,0.9387807483323604,0.2878589375,0.660946862972498
0.028,1.7804,1.0,2644.654867221326,0.2702722020440516,1.3256710297122367,0.94045382310939,0.2878298,0.6617933048666181
0.0285,1.77969375,1.0,2654.0817205923,0.2743654006732606,1.3252651053629054,0.942049828981373,0.2878001375,0.6626358776570729
0.029,1.778975,1.0,2662.802850750439,0.2784356391749376,1.324860184339645,0.9435734247096058,0.28776995,0.6634753208890685
0.029500000000000002,1.7782437500000001,1.0,2670.852999077303,0.2824830455140414,1.3244559147670818,0.9450289212496736,0.2877392375,0.664312370448521
0.03,1.7775,1.0,2678.2674117797405,0.28650774765553083,1.3240519447698424,0.9464203121710908,0.287708,0.6651477585806218
0.0305,1.77674375,1.0,2685.081792138952,0.2905098735643647,1.3236479224725535,0.9477513010547544,0.2876762375,0.6659822139005103
0.031,1.775975,1.0,2691.332255504711,0.29448955120550174,1.3232434959998414,0.9490253262013242,0.28764395,0.6668164613960477
0.0315,1.7751937500000001,1.0,2697.047850855722,0.29844690320363865,1.3228383814737716,0.9502455897496608,0.2876111375,0.6676510824215418
0.032,1.7744,1.0,2702.2649248209127,0.30238206171161236,1.3224322311044825,0.9514150656292362,0.2875778,0.6684867868143674
0.0325,1.77359375,1.0,2707.006406285752,0.30629514903950145,1.322024822269379,0.9525365351084337,0.2875439375,0.669324023732063
0.033,1.772775,1.0,2711.295054111378,0.3101862871833856,1.3216159358839155,0.9536125907574545,0.28750955,0.6701632327344171
0.0335,1.7719437500000002,1.0,2715.153822868687,0.3140555981393446,1.3212053528635466,0.9546456512199031,0.2874746375,0.6710048510580502
0.034,1.7711000000000001,1.0,2718.6058431259025,0.31790320390345816,1.3207928541237273,0.9556379749527215,0.2874392,0.671849313594238
0.0345,1.7702437500000001,1.0,2721.6744028015855,0.321729226471806,1.320378220579912,0.9565916727259794,0.2874032375,0.6726970528636775
0.035,1.7693750000000001,1.0,2724.382929580682,0.32553378784046794,1.3199612331475554,0.957508719007496,0.28736675,0.6735484989881878
0.035500000000000004,1.76849375,1.0,2726.7456202040617,0.3293170019186182,1.3195417578110398,0.9583909693727675,0.2873297375,0.6744039062979299
0.036000000000000004,1.7676,1.0,2728.789469297384,0.3330789950698393,1.3191195450639102,0.9592401534538375,0.2872922,0.6752637626218209
0.0365,1.76669375,1.0,2730.542016811389,0.336819894813163,1.3186943413591448,0.9600578930829813,0.2872541375,0.6761285611787657
0.037,1.765775,1.0,2732.0163918861517,0.34053981597798744,1.3182660248575973,0.9608457206887482,0.28721555,0.6769985249405079
0.0375,1.76484375,1.0,2733.2257821940493,0.34423887339371073,1.3178344737201209,0.9616050755703232,0.2871764375,0.6778738753668807
0.038,1.7639,1.0,2734.183427263312,0.34791718188973086,1.3173995661075684,0.9623373105859763,0.28713679999999997,0.6787548323811459
0.0385,1.76294375,1.0,2734.9026121310235,0.35157485629544594,1.3169611801807937,0.9630436982905546,0.28709663750000003,0.6796416143443829
0.039,1.761975,1.0,2735.3966613249327,0.35521201144025416,1.3165191941006493,0.9637254365728979,0.28705595,0.6805344380289398
0.0395,1.7609937500000001,1.0,2735.678933174854,0.35882876215355347,1.3160734860279892,0.9643836538388937,0.2870147375,0.6814335185909264
0.04,1.76,1.0,2735.7628144527002,0.362425223264742,1.3156239341236662,0.9650194137812642,0.286973,0.6823390695417718
0.0405,1.7589937500000001,1.0,2735.6617153420843,0.3660015096032179,1.3151704165485336,0.9656337197730813,0.2869307375,0.683251302718826
0.041,1.757975,1.0,2735.389064736745,0.36955773599837927,1.3147128114634448,0.966227518918355,0.28688795,0.6841704282550201
0.0415,1.75694375,1.0,2734.9566295718146,0.3730940144721997,1.3142510122509423,0.9668017066065394,0.2868446375,0.6850966240410017
0.042,1.7559,1.0,2734.372160966809,0.3766104513563763,1.3137849488631932,0.9673571312324584,0.28680079999999997,0.6860299931980971
0.0425,1.75484375,1.0,2733.653576002955,0.38010717234986136,1.3133144590070194,0.967894590708152,0.2867564375,0.6869708219934273
0.043000000000000003,1.753775,1.0,2732.80761248634,0.3835842846861992,1.3128394819559173,0.9684148453732665,0.28671155,0.687919191739647
0.043500000000000004,1.75269375,1.0,2731.8410133237608,0.3870418955989341,1.312359956983384,0.9689186151862836,0.28666613750000003,0.6888751826318193
0.044,1.7516,1.0,2730.7605250039646,0.3904801123216102,1.3118758233629157,0.9694065822684836,0.2866202,0.6898388737299215
0.0445,1.75049375,1.0,2729.572896161699,0.3938990420877719,1.3113870203680098,0.9698793932633034,0.2865737375,0.6908103429411118
0.045,1.7493750000000001,1.0,2728.2848762226745,0.3972987921309633,1.3108934872721627,0.9703376615261656,0.28652675,0.6917896670017654
0.0455,1.74824375,1.0,2726.903214130776,0.4006794696847288,1.3103951633488713,0.9707819691585069,0.2864792375,0.6927769214592714
0.046,1.7471,1.0,2725.4346571570422,0.4040411819826125,1.3098919878716322,0.9712128688984893,0.2864312,0.6937721806535975
0.0465,1.7459437500000001,1.0,2723.8859497899443,0.40738403625815883,1.3093839001139422,0.9716308858797825,0.28638263750000004,0.6947755176986168
0.047,1.744775,1.0,2722.2638327080163,0.41070813974491194,1.308870839349298,0.9720365192687902,0.28633355,0.695787004463202
0.0475,1.74359375,1.0,2720.5743606405536,0.414013597299726,1.3083527510531365,0.972430243926665,0.28628393750000003,0.6968066993557476
0.048,1.7424,1.0,2718.819658378033,0.4173004992341757,1.3078296164494299,0.9728125123830247,0.2862338,0.6978345894024136
0.0485,1.74119375,1.0,2717.0126053697386,0.42056897667970394,1.3073013187798386,0.9731837537200064,0.2861831375,0.698870852921467
0.049,1.739975,1.0,2715.1563909884635,0.4238191290582644,1.306767829458725,0.9735443787394054,0.28613195,0.6999154936517302
0.0495,1.73874375,1.0,2713.254201746391,0.4270510557918109,1.306229119900452,0.9738947789106333,0.2860802375,0.7009685144291917
0.05,1.7375,1.0,2711.309221016815,0.4302648563022971,1.305685161519382,0.9742353274524579,0.286028,0.702029917177517
0.0505,1.73624375,1.0,2709.3246287737306,0.4334606300116768,1.3051359257298774,0.9745663803448079,0.2859752375,0.7030997028985038
0.051000000000000004,1.734975,1.0,2707.3036013497904,0.43663847634190367,1.3045813839463003,0.9748882772757475,0.28592195,0.7041778716624885
0.051500000000000004,1.73369375,1.0,2705.249311212193,0.4397984947149316,1.304021507583014,0.9752013425283151,0.2858681375,0.705264422598697
0.052000000000000005,1.7324,1.0,2703.1649267568773,0.44294078455271424,1.3034562680543802,0.9755058858115409,0.2858138,0.706359353885549
0.0525,1.73109375,1.0,2701.0536121207724,0.4460654452772053,1.3028856367747619,0.9758022030396127,0.28575893750000003,0.7074626627409025
0.053,1.729775,1.0,2698.9185270119024,0.44917257631035873,1.3023095851585214,0.9760905770628477,0.28570355000000003,0.7085743454122536
0.0535,1.72844375,1.0,2696.7628265581625,0.452262277074128,1.3017280846200212,0.9763712783538397,0.2856476375,0.7096943971668792
0.054,1.7271,1.0,2694.5896611736594,0.45533464699046716,1.301141106573624,0.976644565651891,0.2855912,0.7108228122819299
0.0545,1.7257437500000001,1.0,2692.4021764435906,0.4583897854813297,1.300548622433692,0.9769106865685969,0.2855342375,0.7119595840344709
0.055,1.724375,1.0,2690.1940012951095,0.46142776411603503,1.2999506907018774,0.9771698806848437,0.28547675,0.7131045380977892
0.0555,1.72299375,1.0,2687.975114328307,0.4644487079553906,1.2993472202217862,0.9774223737294528,0.2854187375,0.7142577861782189
0.056,1.7216,1.0,2685.7507344728638,0.46745272146764444,1.298738163302278,0.9776683825304672,0.2853602,0.7154193551874408
0.0565,1.72019375,1.0,2683.5218009279974,0.4704398954336228,1.2981235114065293,0.9779081159065445,0.28530113749999997,0.7165891962584217
0.057,1.718775,1.0,2681.2892513652796,0.47341032063415195,1.2975032559977162,0.9781417740872497,0.28524155,0.7177672597919558
0.0575,1.71734375,1.0,2679.0540219194245,0.4763640878500581,1.2968773885390148,0.9783695491336505,0.2851814375,0.7189534954536188
0.058,1.7159,1.0,2676.817047181733,0.4793012878621676,1.2962459004936013,0.9785916253350465,0.2851208,0.720147852170712
0.0585,1.71444375,1.0,2674.5792601944427,0.4822220114513066,1.295608783324652,0.9788081795833647,0.2850596375,0.721350278129206
0.059000000000000004,1.7129750000000001,1.0,2672.3415924467477,0.48512634939830146,1.2949660284953428,0.979019381726648,0.28499795,0.722560720770678
0.059500000000000004,1.71149375,1.0,2670.1049738729334,0.4880143924839784,1.2943176274688502,0.979225394902955,0.2849357375,0.7237791267892448
0.06,1.71,1.0,2667.870332851278,0.4908862314891636,1.2936635717083502,0.9794263758559048,0.284873,0.7250054421284906
0.0605,1.7084937500000001,1.0,2665.638596205505,0.49374195719468345,1.293003852677019,0.9796224752330066,0.2848097375,0.7262396119783923
0.061,1.7069750000000001,1.0,2663.4106892071836,0.49658166038136414,1.2923384618380327,0.979813837867841,0.28474595,0.7274815807722357
0.0615,1.7054437500000001,1.0,2661.1875355797647,0.499405431830032,1.2916673906545677,0.9800006030470823,0.2846816375,0.7287312921835325
0.062,1.7039,1.0,2658.9700575051133,0.5022133623215131,1.2909906305898,0.9801829047632837,0.2846168,0.729988689122929
0.0625,1.70234375,1.0,2656.7591756300703,0.505005542636634,1.2903081731069057,0.9803608719542891,0.2845514375,0.7312537137351112
0.063,1.7007750000000001,1.0,2654.555809076183,0.5077820635562207,1.2896200096690613,0.9805346287300705,0.28448555,0.7325263073957042
0.0635,1.69919375,1.0,2652.3613253728117,0.5105430028396785,1.2889261275907742,0.9807042934143181,0.28441913750000003,0.7338064183526776
0.064,1.6976,1.0,2650.176327927766,0.5132884437271765,1.2882265212146051,0.9808699807367259,0.2843522,0.7350939810858634
0.0645,1.69599375,1.0,2647.9999563476667,0.5160185002255199,1.287521198382756,0.98103180412337,0.2842847375,0.7363889045935712
0.065,1.694375,1.0,2645.8325393075356,0.5187332546063445,1.2868101559729133,0.9811898700540193,0.28421675,0.7376911174451313
0.0655,1.69274375,1.0,2643.6744049643416,0.521432789141286,1.2860933908627632,0.9813442811756632,0.2841482375,0.7390005475275708
0.066,1.6911,1.0,2641.5258809620655,0.5241171861019801,1.2853708999299926,0.9814951364663551,0.2840792,0.7403171220444711
0.0665,1.6894437500000001,1.0,2639.3872944374666,0.5267865277600625,1.2846426800522877,0.9816425313909104,0.2840096375,0.7416407675148311
0.067,1.687775,1.0,2637.2589720252263,0.5294408963871691,1.283908728107335,0.9817865580489181,0.28393955,0.742971409771924
0.0675,1.68609375,1.0,2635.141239864532,0.5320803742549354,1.2831690409728211,0.9819273053154992,0.2838689375,0.744308973962158
0.068,1.6844000000000001,1.0,2633.0344236048504,0.5347050436349972,1.2824236155264321,0.9820648589752151,0.2837978,0.745653384543935
0.0685,1.68269375,1.0,2630.93884841207,0.5373149867989903,1.281672448645855,0.9821993018495001,0.2837261375,0.7470045652865056
0.069,1.680975,1.0,2628.854838975576,0.5399102860185502,1.280915537208776,0.9823307139179792,0.28365395,0.7483624392688292
0.0695,1.67924375,1.0,2626.782719514475,0.5424910235653129,1.2801528780928815,0.9824591724340008,0.28358123749999997,0.7497269288784283
0.07,1.6775,1.0,2624.722813785003,0.5450572817109138,1.2793844681758582,0.982584752034699,0.283508,0.7510979558102453
0.07050000000000001,1.67574375,1.0,2622.675445087598,0.547609142726989,1.2786103043353922,0.9827075248458765,0.2834342375,0.7524754410654978
0.07100000000000001,1.673975,1.0,2620.6409362741015,0.550146688885174,1.2778303834491704,0.9828275605819903,0.28335995,0.7538593049505323
0.07150000000000001,1.67219375,1.0,2618.6196097557463,0.5526700024571045,1.2770447023948788,0.9829449266414944,0.2832851375,0.7552494670756794
0.07200000000000001,1.6704,1.0,2616.6117875107843,0.5551791657144163,1.2762532580502044,0.9830596881977879,0.2832098,0.7566458463541046
0.0725,1.66859375,1.0,2614.6163812971936,0.5576742098562423,1.2754560603858416,0.9831719058580137,0.2831339375,0.7580483379997182
0.073,1.6667750000000001,1.0,2612.63318752562,0.5601552659666463,1.2746531111694381,0.983281643761875,0.28305755,0.7594568511637381
0.0735,1.66494375,1.0,2610.662282868554,0.562622426971849,1.273844409567224,0.9833889616189851,0.2829806375,0.7608712989438091
0.074,1.6631,1.0,2608.7034439363083,0.5650757662390044,1.27302995753476,0.9834939162147054,0.2829032,0.7622915889303802
0.0745,1.6612437500000001,1.0,2606.756447729727,0.5675153571352659,1.272209757027608,0.9835965625234003,0.2828252375,0.7637176281217174
0.075,1.659375,1.0,2604.8210716356625,0.5699412730277876,1.2713838100013297,0.9836969537763852,0.28274675,0.7651493229246242
0.0755,1.65749375,1.0,2602.897093422285,0.5723535872837232,1.2705521184114865,0.9837951415268945,0.2826677375,0.7665865791551563
