Time [s],Phi [rad],STIM [ ],Fsee [N],Gamma [ ],Lcerel [ ],q [ ],Lmtc [m],fisomrel [ ]
0.0,1.8,1.0,18.000880193382393,0.0001873048569743741,1.379335969996108,0.005009136378385523,0.288653,0.5411486666680861
0.0005,1.79999375,1.0,18.36826172302307,0.005795463533684332,1.3792922346622418,0.01344007433679445,0.2886527375,0.5412544665973307
0.001,1.799975,1.0,21.841597820070504,0.01137216487430056,1.3789155624057998,0.03653848811213038,0.28865195,0.5421651676233943
0.0015,1.79994375,1.0,31.576190672444447,0.01691758533057198,1.378003187694471,0.07187072461569337,0.2886506375,0.544367315346998
0.002,1.7999,1.0,54.65418170868227,0.022431900362416064,1.3762989434987571,0.11621826866640496,0.2886488,0.5484665341891556
0.0025,1.79984375,1.0,98.90309663595312,0.027915284446535505,1.3738495841661877,0.16620545691621805,0.28864643749999996,0.5543255370496445
0.003,1.7997750000000001,1.0,163.2684870228947,0.03336791108260084,1.3711281743796864,0.21896163772032648,0.28864354999999997,0.5607904278750035
0.0035,1.79969375,1.0,240.28754242140954,0.03878995279413583,1.368504736179689,0.2722843320864982,0.2886401375,0.5669778680265876
0.004,1.7996,1.0,324.23376070596976,0.04418158113888116,1.3660829624437378,0.3245337354870257,0.2886362,0.572650716225819
0.0045000000000000005,1.7994937500000001,1.0,412.1305861565297,0.049542966714113575,1.3638557296183305,0.3745700182992476,0.2886317375,0.5778348470150267
0.005,1.799375,1.0,502.33277486644255,0.054874279148519105,1.3617963984766221,0.4216838209062207,0.28862675,0.582600019290004
0.0055,1.79924375,1.0,593.7339141913769,0.06017568714095981,1.3598813976973905,0.46550340030175735,0.2886212375,0.5870069502275914
0.006,1.7991000000000001,1.0,685.4627928865802,0.06544735842532769,1.358092945830189,0.5059018681528196,0.2886152,0.5911015374574534
0.006500000000000001,1.79894375,1.0,776.8064730168035,0.07068945979102788,1.3564173653743148,0.5429179492133461,0.2886086375,0.594919201720766
0.007,1.798775,1.0,867.1746152182551,0.07590215714400951,1.354843770482034,0.5766948637904858,0.28860155,0.5984881969071862
0.0075,1.79859375,1.0,956.0780470180878,0.08108561530204893,1.3533632089205192,0.6074358970589196,0.2885939375,0.6018317684355661
0.008,1.7984,1.0,1043.1377520383408,0.08623999851075453,1.3519677540817299,0.6353733834919402,0.2885858,0.6049703446641037
0.0085,1.79819375,1.0,1128.031385067863,0.09136546959492836,1.3506507997287966,0.6607486759004859,0.2885771375,0.6079209714590413
0.009000000000000001,1.797975,1.0,1210.5195015001457,0.09646219075174099,1.3494062645253841,0.6837988901970152,0.28856795,0.6106991782857694
0.0095,1.79774375,1.0,1290.4370198142797,0.10153032360618394,1.3482284657260504,0.7047492750304721,0.2885582375,0.6133193101341867
0.01,1.7975,1.0,1367.6409991083406,0.1065700280557423,1.3471126027286804,0.7238094136888047,0.288548,0.6157934981725808
0.0105,1.79724375,1.0,1442.0453575759175,0.11158146346310471,1.3460540979001878,0.741171101838204,0.2885372375,0.6181331674951761
0.011,1.796975,1.0,1513.621152799512,0.11656478919011598,1.345048481785062,0.7570080127066975,0.28852595000000003,0.6203493151078562
0.0115,1.79669375,1.0,1582.338971542983,0.1215201624644794,1.3440919954096922,0.7714765705116741,0.2885141375,0.6224512075732667
0.012,1.7964,1.0,1648.1937213186704,0.12644773964146092,1.3431811632444932,0.7847168044400648,0.28850180000000003,0.6244473507466726
0.0125,1.79609375,1.0,1711.2146226575342,0.13134767668419653,1.3423126015309805,0.7968535900947359,0.2884889375,0.6263459274014418
0.013000000000000001,1.7957750000000001,1.0,1771.4577009553732,0.1362201294815226,1.3414830520327716,0.8079980848367041,0.28847555,0.6281547358877022
0.0135,1.79544375,1.0,1828.9703073116027,0.14106525202354014,1.3406897275357832,0.8182492609639098,0.2884616375,0.6298804513762558
0.014,1.7951000000000001,1.0,1883.799619965923,0.14588319685724094,1.3399301502500451,0.8276951535203594,0.2884472,0.6315289953794061
0.0145,1.79474375,1.0,1936.0168650254407,0.15067411652961663,1.3392018423855883,0.836413975306657,0.2884322375,0.6331062185019851
0.015,1.794375,1.0,1985.694592824313,0.15543816251963766,1.3385025459785744,0.8444753241263541,0.28841675,0.6346174310141044
0.0155,1.79399375,1.0,2032.9390525126948,0.16017548711006555,1.3378298484185964,0.8519410660028631,0.2884007375,0.6360682191245797
0.016,1.7936,1.0,2077.8172859782735,0.1648862391510022,1.3371819328941086,0.8588664837711849,0.2883842,0.6374628320465334
0.0165,1.7931937500000001,1.0,2120.402250860625,0.16957056704541654,1.3365570658089996,0.8653008927888246,0.2883671375,0.6388052980039437
0.017,1.792775,1.0,2160.779394658704,0.1742286191962775,1.3359535135671574,0.8712883228796081,0.28834955,0.6400996068937557
0.0175,1.7923437500000001,1.0,2199.0327936366552,0.17886054293726728,1.3353696721093453,0.8768681783830236,0.2883314375,0.6413494356800709
0.018000000000000002,1.7919,1.0,2235.2616987780516,0.18346648639684596,1.334803885373788,0.8820757325466092,0.2883128,0.6425585406205849
0.0185,1.79144375,1.0,2269.5405637087442,0.18804659448066424,1.3342548370136644,0.8869427092172987,0.2882936375,0.6437299232556398
0.019,1.790975,1.0,2301.942265086101,0.19260101126881235,1.3337213002399382,0.8914976280407627,0.28827395,0.6448663704278222
0.0195,1.79049375,1.0,2332.546276862983,0.19712988084138042,1.3332020482635734,0.895766149665739,0.2882537375,0.6459706474265285
0.02,1.79,1.0,2361.4321671762796,0.2016333464350423,1.332695912385728,0.8997714132726914,0.288233,0.6470453758986862
0.0205,1.78949375,1.0,2388.683444216733,0.20611155172807488,1.332201737862395,0.903534309985444,0.2882117375,0.6480931293405761
0.021,1.788975,1.0,2414.3772142674607,0.21056463919550616,1.3317184789309922,0.9070737517684269,0.28818995000000003,0.6491162332133575
0.021500000000000002,1.78844375,1.0,2438.573903391481,0.21499274826934864,1.3312452907457581,0.9104069055674895,0.2881676375,0.6501165732103258
0.022,1.7879,1.0,2461.3373887419866,0.21939601838161474,1.3307813284609311,0.9135493409233392,0.2881448,0.6510960227730281
0.0225,1.78734375,1.0,2482.734712092486,0.22377458896431704,1.3303257472307493,0.9165152006994823,0.28812143749999997,0.6520564436111198
0.023,1.786775,1.0,2502.8317837842437,0.2281285987423822,1.3298777404198199,0.9193173585677654,0.28809755,0.6529996057892664
0.0235,1.78619375,1.0,2521.6907043996325,0.23245818556604292,1.3294365618054491,0.9219675549456837,0.28807313749999996,0.6539271420465704
0.024,1.7856,1.0,2539.387373294234,0.23676348930292343,1.3290013564251948,0.9244764836027225,0.2880482,0.6548409039234118
0.0245,1.78499375,1.0,2555.9685592389706,0.24104464423056843,1.3285715637036049,0.926853966051749,0.2880227375,0.6557421158334438
0.025,1.784375,1.0,2571.482648066645,0.24530178462652266,1.328146623065227,0.92910898893575,0.28799675,0.6566319954428821
0.025500000000000002,1.78374375,1.0,2585.979508720263,0.2495350447683308,1.3277259739346094,0.9312497863905225,0.2879702375,0.6575117538539914
0.026000000000000002,1.7831000000000001,1.0,2599.5103662686465,0.2537445589335376,1.3273090557362999,0.9332839132786377,0.2879432,0.6583825957685323
0.0265,1.78244375,1.0,2612.125772397028,0.25793046085041127,1.3268953256370695,0.9352183129766841,0.2879156375,0.6592456826423289
0.027,1.781775,1.0,2623.869516809899,0.2620928821044641,1.3264843137449536,0.9370593830768355,0.28788755,0.6601020181074194
0.0275,1.7810937500000001,1.0,2634.800283391243,0.26623195851757403,1.3260754210460253,0.9388129982411769,0.2878589375,0.6609528692272237
0.028,1.7804,1.0,2644.95321432011,0.270347818925322,1.3256682747703172,0.9404846066923834,0.2878298,0.6617990268116236
0.0285,1.77969375,1.0,2654.3641379369656,0.27444059216328903,1.3252625021478621,0.9420792384006168,0.2878001375,0.6626412777312245
0.029,1.778975,1.0,2663.069509193803,0.27851040706705593,1.3248577304086926,0.9436015426351955,0.28776995,0.6634804049544427
0.029500000000000002,1.7782437500000001,1.0,2671.106353184718,0.2825573924722037,1.324453586782841,0.9450558216940936,0.2877392375,0.6643171875757315
0.03,1.7775,1.0,2678.5122117578453,0.2865816772143132,1.3240496985003405,0.9464460612419194,0.287708,0.6651524008349441
0.0305,1.77674375,1.0,2685.3134765101026,0.29058338587539134,1.323645799247703,0.9477759701005644,0.2876762375,0.6659865963945009
0.031,1.775975,1.0,2691.5532004697993,0.2945626502374992,1.3232414735446139,0.9490489746755765,0.28764395,0.666820630678274
0.0315,1.7751937500000001,1.0,2697.2667502883705,0.2985195979038993,1.3228363798664715,0.9502682672836646,0.2876111375,0.6676552035545642
0.032,1.7744,1.0,2702.4776604108906,0.30245435163127493,1.322430287736601,0.9514368297792195,0.2875778,0.6684907830041221
0.0325,1.77359375,1.0,2707.2097111114695,0.3063670341763095,1.3220229666783267,0.9525574387433462,0.2875439375,0.6693278346036009
0.033,1.772775,1.0,2711.486905337099,0.3102577682956864,1.321614186214973,0.9536326821051697,0.28750955,0.6701668215091857
0.0335,1.7719437500000002,1.0,2715.3334467296036,0.314126676746089,1.321203715869865,0.954664974227493,0.2874746375,0.6710082044368335
0.034,1.7711000000000001,1.0,2718.7737188251317,0.31797388228420065,1.3207913251663268,0.9556565696150102,0.2874392,0.6718524416391326
0.0345,1.7702437500000001,1.0,2721.832265431616,0.3217995076667048,1.3203767836276832,0.9566095753854187,0.2874032375,0.672699988878765
0.035,1.7693750000000001,1.0,2724.5246736348568,0.32560367513951616,1.3199599435550384,0.9575259714099458,0.28736675,0.6735511304855122
0.035500000000000004,1.76849375,1.0,2726.8854525357433,0.32938650506858724,1.3195404861624975,0.9584075927009297,0.2873297375,0.6744064977775341
0.036000000000000004,1.7676,1.0,2728.9486848289275,0.333148117169405,1.319118097687603,0.9592561592461698,0.2872922,0.6752667083171096
0.0365,1.766696482662464,1.0,2730.833591577369,0.3368886294203676,1.3186929257368127,0.9600733306322274,0.2872542522718235,0.6761314384097907
0.037,1.7657922480457944,1.0,2732.9736540002395,0.34060815979987347,1.3182651179165845,0.960860663990402,0.28721627441792336,0.6770003658084902
0.0375,1.7648880134291247,1.0,2735.388590590765,0.3443068262863207,1.3178348218333764,0.9616196214706196,0.2871782965640232,0.6778731697389856
0.038,1.763983778812455,1.0,2738.061080908609,0.34798474583087363,1.3174021979711292,0.9623515781151425,0.28714031871012313,0.6787495048568115
0.0385,1.7630795441957854,1.0,2740.958593990368,0.35164203619379564,1.316967544811467,0.9630578402367421,0.287102340856223,0.6796287485210161
0.039,1.7621753095791157,1.0,2744.060594617444,0.35527881235020026,1.3165310517323634,0.9637396264265946,0.28706436300232285,0.6805105015599614
0.0395,1.7612710749624463,1.0,2747.3486553919784,0.3588951886510187,1.31609288880553,0.964398082476176,0.2870263851484227,0.6813944057607615
0.04,1.7603668403457766,1.0,2750.804323840861,0.3624912794471823,1.315653226102679,0.9650342882784926,0.28698840729452263,0.6822801047543718
0.0405,1.759462605729107,1.0,2754.411405536581,0.3660671974326673,1.3152122129827946,0.9656492601989276,0.2869504294406225,0.6831672856712033
0.041,1.7585583711124373,1.0,2758.156675964532,0.36962305365611636,1.3147699716772363,0.9662439548527391,0.28691245158672235,0.6840556917420659
0.0415,1.7576541364957676,1.0,2762.0134599077724,0.3731589700835699,1.3143267457224177,0.9668192879406788,0.28687447373282227,0.6849448243735796
0.042,1.756749901879098,1.0,2765.9730348092635,0.3766750558125575,1.3138826159401877,0.9673761089048768,0.2868364958789221,0.6858345134264816
0.0425,1.7558456672624283,1.0,2770.0266582480303,0.38017141994060877,1.3134376631523959,0.9679152210983825,0.286798518025022,0.6867245896606035
0.043000000000000003,1.7549414326457589,1.0,2774.1655663918987,0.3836481715652534,1.3129919681808915,0.9684373847567612,0.28676054017112185,0.6876148847393234
0.043500000000000004,1.7540371980290892,1.0,2778.3809725949686,0.38710541978402097,1.312545611847524,0.9689433197493387,0.28672256231722176,0.6885052312335996
0.044,1.7531329634124195,1.0,2782.6640661401084,0.3905432736944411,1.3120986749741428,0.9694337081284699,0.2866845844633216,0.689395462625588
0.0445,1.7522287287957499,1.0,2787.0060111264474,0.39396184239404347,1.3116512383825971,0.9699091964935294,0.2866466066094215,0.6902854133118419
0.045,1.7513244941790802,1.0,2791.397945501361,0.39736123498035775,1.3112033828947365,0.970370398184774,0.2866086287555214,0.6911749186060971
0.0455,1.7504202595624105,1.0,2795.8309802372887,0.40074156055091353,1.31075518933241,0.9708178953208729,0.28657065090162126,0.6920638147416389
0.046,1.749516024945741,1.0,2800.304536886771,0.40410291492881917,1.3103066636903358,0.9712522333012287,0.2865326730477211,0.6929520869559084
0.0465,1.7486117903290714,1.0,2804.8040783048164,0.40744542266468015,1.309857937115041,0.9716739434748551,0.286494695193821,0.6938394732360056
0.047,1.7477075557124018,1.0,2809.3257520947827,0.41076918777466653,1.3094090446055826,0.9720835212004656,0.28645671733992084,0.6947259027941983
0.0475,1.746803321095732,1.0,2813.866663662591,0.41407431249949006,1.3089600124757377,0.9724814368243456,0.28641873948602076,0.6956113223564797
0.048,1.7458990864790624,1.0,2818.4239090710803,0.4173608990798627,1.3085108670392833,0.9728681379873028,0.2863807616321206,0.6964956789498394
0.0485,1.7449948518623928,1.0,2822.9945749661892,0.4206290497564963,1.308061634609996,0.9732440509323912,0.2863427837782205,0.6973789199024787
0.049,1.7440906172457233,1.0,2827.5757385187326,0.4238788667701028,1.3076123415016532,0.9736095817256962,0.2863048059243204,0.6982609928439742
0.0495,1.7431863826290537,1.0,2832.1644673809196,0.42711045236139394,1.3071630140280313,0.9739651173967055,0.28626682807042025,0.6991418457054065
0.05,1.742282148012384,1.0,2836.7578196589643,0.4303239087710818,1.3067136785029076,0.9743110270042465,0.2862288502165201,0.7000214267194356
0.0505,1.7413779133957143,1.0,2841.3528439006786,0.43351933823987804,1.3062643612400588,0.9746476626334782,0.28619087236262,0.7008996844203403
0.051000000000000004,1.7404736787790447,1.0,2845.946579098418,0.4366968430084947,1.305815088553262,0.9749753603289798,0.2861528945087199,0.7017765676440068
0.051500000000000004,1.739569444162375,1.0,2850.536054707076,0.43985652531764363,1.305365886756294,0.9752944409685587,0.28611491665481975,0.702652025527877
0.052000000000000005,1.7386652095457054,1.0,2855.1206756359284,0.442998474417397,1.304916760966836,0.9756052083435358,0.2860769388009196,0.7035260487292521
0.0525,1.737760974929036,1.0,2859.697903581491,0.4461227985019281,1.3044677335427606,0.9759079559068337,0.2860389609470195,0.704398594487674
0.053,1.7368567403123663,1.0,2864.2644606887343,0.4492296087874598,1.3040188333330875,0.9762029649231055,0.2860009830931194,0.705269607712973
0.0535,1.7359525056956966,1.0,2868.819774365981,0.4523189998326432,1.3035700651103985,0.9764905012293102,0.28596300523921925,0.7061390802578712
0.054,1.735048271079027,1.0,2873.363270424364,0.4553910661961294,1.3031214336472756,0.9767708192287616,0.2859250273853191,0.7070070040294014
0.0545,1.7341440364623573,1.0,2877.8943730922765,0.4584459024365696,1.3026729437163,0.9770441624798186,0.28588704953141897,0.7078733709888695
0.055,1.7332398018456876,1.0,2882.412505030097,0.46148360311261494,1.302224600090054,0.9773107642494873,0.2858490716775189,0.708738173151808
0.0555,1.7323355672290182,1.0,2886.917087345182,0.46450426278291657,1.301776407541119,0.9775708480343072,0.28581109382361874,0.7096014025879354
0.056,1.7314313326123485,1.0,2891.407539607939,0.46750797600612565,1.3013283708420766,0.9778246280507069,0.28577311596971866,0.7104630514211094
0.0565,1.7305270979956788,1.0,2895.883279867724,0.4704948373408933,1.3008804947655088,0.9780723096968595,0.2857351381158185,0.7113231118292813
0.057,1.7296228633790092,1.0,2900.3437246698936,0.47346494134587075,1.3004327840839973,0.9783140899879101,0.2856971602619184,0.7121815760444459
0.0575,1.7287186287623395,1.0,2904.7882890728806,0.4764183825797091,1.2999852435701238,0.9785501579663184,0.28565918240801824,0.7130384363525941
0.058,1.7278143941456698,1.0,2909.216386666019,0.4793552556010595,1.29953787799647,0.9787806950889262,0.2856212045541181,0.7138936850936605
0.0585,1.7269101595290004,1.0,2913.6274295877674,0.48227565496857316,1.2990906921356176,0.9790058755922482,0.285583226700218,0.7147473146614708
0.059000000000000004,1.7260059249123307,1.0,2918.020828544236,0.48517967524090116,1.2986436907601484,0.9792258668373715,0.2855452488463179,0.715599317503689
0.059500000000000004,1.725101690295661,1.0,2922.397228226647,0.48806737185143045,1.2981968677902755,0.9794408258337192,0.2855072709924178,0.7164497067604239
0.06,1.7241974556789914,1.0,2926.7559083030324,0.49093886808218035,1.2977502291484453,0.9796509097052846,0.28546929313851765,0.7172984727106133
0.0605,1.7232932210623217,1.0,2931.0961581325496,0.4937942795505557,1.297303780656407,0.9798562688533229,0.2854313152846175,0.7181456058909664
0.061,1.722388986445652,1.0,2935.418088799748,0.49663369152309966,1.2968575209183086,0.9800570451373714,0.2853933374307174,0.7189911105683544
0.0615,1.7214847518289824,1.0,2939.721812096586,0.4994571892663553,1.2964114485382978,0.9802533750606796,0.28535535957681724,0.7198349909930741
0.062,1.720580517212313,1.0,2944.00744051637,0.5022648580468658,1.2959655621205224,0.9804453900131825,0.28531738172291715,0.7206772513988623
0.0625,1.7196762825956433,1.0,2948.2750872480156,0.5050567831311742,1.29551986026913,0.9806332165016831,0.285279403869017,0.7215178960029142
0.063,1.7187720479789736,1.0,2952.5248661705823,0.5078330497858237,1.2950743415882686,0.9808169763680112,0.2852414260151169,0.7223569290058984
0.0635,1.717867813362304,1.0,2956.756891847211,0.5105937432773574,1.2946290046820859,0.9809967869958702,0.2852034481612168,0.7231943545919752
0.064,1.7169635787456343,1.0,2960.971279519682,0.5133389488723185,1.2941838481547294,0.9811727615070375,0.28516547030731665,0.7240301769288109
0.0645,1.7160593441289647,1.0,2965.168145102773,0.51606875183725,1.2937388706103472,0.9813450089475412,0.2851274924534165,0.7248644001675948
0.065,1.715155109512295,1.0,2969.347605178771,0.5187832374386951,1.293294070653087,0.9815136344643939,0.28508951459951637,0.7256970284430547
0.0655,1.7142508748956256,1.0,2973.5097769919184,0.5214824909431971,1.2928494468870964,0.9816787394734289,0.2850515367456163,0.726528065873475
0.066,1.713346640278956,1.0,2977.654778442631,0.5241665976172988,1.2924049979165233,0.9818404218187454,0.28501355889171615,0.727357516560708
0.0665,1.7124424056622862,1.0,2981.782728082614,0.5268356427275436,1.2919607223455154,0.9819987759242411,0.284975581037816,0.7281853845901941
0.067,1.7115381710456166,1.0,2985.8937451092015,0.5294897115404745,1.2915166187782205,0.9821538929376787,0.2849376031839159,0.7290116740309747
0.0675,1.710633936428947,1.0,2989.9879493598037,0.5321288893226347,1.2910726858187864,0.9823058608677017,0.2848996253300158,0.7298363889357081
0.068,1.7097297018122772,1.0,2994.06546130702,0.5347532613405673,1.2906289220713607,0.982454764714193,0.28486164747611564,0.7306595333406853
0.0685,1.7088254671956078,1.0,2998.1264020529647,0.5373629128608155,1.2901853261400913,0.9826006865923471,0.2848236696222155,0.7314811112658446
0.069,1.7079212325789381,1.0,3002.170893324607,0.5399579291499222,1.2897418966291259,0.9827437058507933,0.2847856917683154,0.7323011267147862
0.0695,1.7070169979622685,1.0,3006.1990574678352,0.5425383954744308,1.2892986321426123,0.9828838991841016,0.2847477139144153,0.7331195836747879
0.07,1.7061127633455988,1.0,3010.2108642547023,0.5451043397959171,1.2888555326106093,0.9830213373046884,0.28470973606051514,0.7339364836742388
0.07050000000000001,1.7052085287289291,1.0,3014.2069003277684,0.5476559041333527,1.288412592629186,0.983156095283468,0.28467175820661506,0.7347518380513749
0.07100000000000001,1.7043042941122595,1.0,3018.1873911820708,0.5501931779279928,1.287969809931986,0.9832882426867124,0.2846337803527149,0.7355656523205862
0.07150000000000001,1.70340005949559,1.0,3022.1524994591787,0.5527162366860526,1.2875271828030141,0.9834178460205876,0.2845958024988148,0.7363779309609761
