Time [s],Phi [rad],STIM [ ],Fsee [N],Gamma [ ],Lcerel [ ],q [ ],Lmtc [m],fisomrel [ ]
0.0,1.8,1.0,18.00327657033306,0.00019112584709316707,1.3793357017822656,0.005009511416006424,0.288653,0.5411493155400384
0.0005,1.79999375,1.0,18.371789188740337,0.005799263091070457,1.3792918438255748,0.013450999049067366,0.2886527375,0.5412554120133795
0.001,1.799975,1.0,21.847907063345318,0.01137594311917442,1.3789149213570038,0.036558653325784556,0.28865195,0.5421667167506876
0.0015,1.79994375,1.0,31.58868776328823,0.01692134238248026,1.3780021316712392,0.07189815493333725,0.2886506375,0.5443698611352014
0.002,1.7999,1.0,54.678984021803046,0.02243563634023155,1.3762973504883866,0.11625064454968811,0.2886488,0.5484703571920291
0.0025,1.79984375,1.0,98.94321689162486,0.027918999468471352,1.3738476685782715,0.16624061071627752,0.28864643749999996,0.5543301042684659
0.003,1.7997750000000001,1.0,163.3197502127892,0.0333716052662004,1.3711262693237372,0.21899786110414082,0.28864354999999997,0.5607949369191484
0.0035,1.79969375,1.0,240.34493806591615,0.038793626256284956,1.3685029779534563,0.27232033054863786,0.2886401375,0.5669820001257477
0.004,1.7996,1.0,324.2945019596603,0.04418523399581145,1.36608136059437,0.3245685707914235,0.2886362,0.5726544560758127
0.0045000000000000005,1.7994937500000001,1.0,412.19326258660675,0.04954659908140946,1.3638542635382405,0.3746030715491209,0.2886317375,0.5778382490594537
0.005,1.799375,1.0,502.39654231908344,0.05487789114111467,1.361795047409558,0.4217147351085348,0.28862675,0.5826031367025375
0.0055,1.79924375,1.0,593.7981294721924,0.06017927887312051,1.3598801462341612,0.4655320155370364,0.2886212375,0.5870098225334144
0.006,1.7991000000000001,1.0,685.5269712250209,0.06545093001072105,1.35809178177455,0.5059281614750596,0.2886152,0.5911041958722199
0.006500000000000001,1.79894375,1.0,776.8701319886394,0.07069301134230246,1.3564162807441393,0.5429419884387763,0.2886086375,0.5949216671572541
0.007,1.798775,1.0,867.2374124297487,0.07590568877450557,1.3548427578151758,0.576716770138187,0.28860155,0.5984904886037006
0.0075,1.79859375,1.0,956.1395526941913,0.08108912712225007,1.353362264318396,0.6074558221983315,0.2885939375,0.6018338971804083
0.008,1.7984,1.0,1043.1978117426454,0.0862434906322623,1.3519668710150765,0.6353914888734733,0.2885858,0.6049723268745424
0.0085,1.79819375,1.0,1128.0901470180966,0.09136894212968412,1.3506499688889215,0.6607651219895257,0.2885771375,0.6079228294585408
0.009000000000000001,1.797975,1.0,1210.5765115224062,0.0964656438077013,1.3494054864035885,0.6838138371003482,0.28856795,0.6107009122164277
0.0095,1.79774375,1.0,1290.4921960096733,0.1015337572915285,1.3482277363255113,0.704762870281264,0.2885582375,0.6133209300178897
0.01,1.7975,1.0,1367.694476511982,0.1065734424822569,1.3471119160281375,0.7238217920608385,0.288548,0.6157950183395255
0.0105,1.79724375,1.0,1442.0972051089893,0.11158485874362477,1.3460534495313827,0.7411823867389403,0.2885372375,0.6181345984293073
0.011,1.796975,1.0,1513.6709756384132,0.11656816542370967,1.3450478736449076,0.7570183183677375,0.28852595000000003,0.6203506533581884
0.0115,1.79669375,1.0,1582.3865157470882,0.12152351975229729,1.3440914278233516,0.771485998569491,0.2885141375,0.6224524531201762
0.012,1.7964,1.0,1648.2392296045145,0.12645107809510758,1.3431806309270105,0.7847254431659832,0.28850180000000003,0.6244485158052904
0.0125,1.79609375,1.0,1711.2581761677209,0.13135099640525952,1.3423121015476376,0.7968615190646321,0.2884889375,0.626347018922321
0.013000000000000001,1.7957750000000001,1.0,1771.4997885428274,0.13622343060355582,1.3414825771641896,0.8080053731471096,0.28847555,0.6281557700679314
0.0135,1.79544375,1.0,1829.0106789730514,0.14106853462646357,1.3406892792465825,0.818255973273756,0.2884616375,0.6298814254032019
0.014,1.7951000000000001,1.0,1883.838181939568,0.14588646103762118,1.3399297283330143,0.8277013466771547,0.2884472,0.6315299100619998
0.0145,1.79474375,1.0,1936.0536883709108,0.15067736240066706,1.3392014449616825,0.8364196992582829,0.2884322375,0.6331070782394984
0.015,1.794375,1.0,1985.7303866375355,0.1554413902016861,1.338502164528976,0.8444806210211366,0.28841675,0.6346182544936161
0.0155,1.79399375,1.0,2032.9738640380078,0.16017869669610849,1.3378294817730683,0.8519459757530679,0.2884007375,0.6360690090718755
0.016,1.7936,1.0,2077.8505141954283,0.1648894307120039,1.3371815867244463,0.8588710440838556,0.2883842,0.6374635764476553
0.0165,1.7931937500000001,1.0,2120.4336757303354,0.16957374068204517,1.3365567417305697,0.8653051361060682,0.2883671375,0.6388059936087456
0.017,1.792775,1.0,2160.809193837753,0.17423177503890513,1.3359532091388973,0.8712922770308791,0.28834955,0.6401002591494782
0.0175,1.7923437500000001,1.0,2199.060087017969,0.17886368106491962,1.3353693957160393,0.8768718712662827,0.2883314375,0.6413500268401104
0.018000000000000002,1.7919,1.0,2235.287719303263,0.18346960697029183,1.3348036240144725,0.882079183419775,0.2883128,0.6425590986823206
0.0185,1.79144375,1.0,2269.5654795072505,0.1880496975528252,1.3342545886477342,0.8869459381354116,0.2882936375,0.6437304527038712
0.019,1.790975,1.0,2301.9662301837197,0.19260409691733935,1.3337210630379983,0.8915006531182611,0.28827395,0.644866875270371
0.0195,1.79049375,1.0,2332.5694299120933,0.19713294916865381,1.3332018206074383,0.895768987293767,0.2882537375,0.645971131198624
0.02,1.79,1.0,2361.454531474654,0.20163639755157806,1.3326956938341787,0.8997740785233042,0.288233,0.6470458396179668
0.0205,1.78949375,1.0,2388.7054375749353,0.20611458580514314,1.3322015241652958,0.9035368156561691,0.2882117375,0.6480935820862703
0.021,1.788975,1.0,2414.3982108968457,0.21056765623968668,1.3317182760069735,0.9070761115575273,0.28818995000000003,0.6491166625094432
0.021500000000000002,1.78844375,1.0,2438.5936880389095,0.2149957483330895,1.331245100486039,0.9104091310647526,0.2881676375,0.6501169751402867
0.022,1.7879,1.0,2461.3561656245915,0.2193990015632324,1.3307811487293206,0.9135514418473182,0.2881448,0.6510964019302011
0.0225,1.78734375,1.0,2482.753112469223,0.22377755540799632,1.3303255718636453,0.9165171851068915,0.28812143749999997,0.652056813051517
0.023,1.786775,1.0,2502.8495081053497,0.22813154832451246,1.3298775721755092,0.9193192353596024,0.28809755,0.6529999597435961
0.0235,1.78619375,1.0,2521.7111310139057,0.2324611189058559,1.3294363686366508,0.9219693261208226,0.28807313749999996,0.6539275478938034
0.024,1.7856,1.0,2539.4081864049585,0.23676640630154497,1.3290011602884313,0.924478160468786,0.2880482,0.654841315461945
0.0245,1.78499375,1.0,2555.9882071625384,0.24104754485162488,1.3285713791487603,0.9268555576723535,0.2880227375,0.6557425025646735
0.025,1.784375,1.0,2571.500355981759,0.24530466889614086,1.3281464572355468,0.929110502364667,0.28799675,0.656632342486478
0.025500000000000002,1.78374375,1.0,2585.9952895104507,0.2495379127751382,1.3277258265667005,0.9312512268802877,0.2879702375,0.6575120618659853
0.026000000000000002,1.7831000000000001,1.0,2599.5250296436016,0.25374741082866215,1.3273089191601302,0.9332852844664791,0.2879432,0.6583828808616945
0.0265,1.78244375,1.0,2612.1388042154877,0.25793329640994234,1.326895204550823,0.9352196200010023,0.2879156375,0.6592459350818736
0.027,1.781775,1.0,2623.881032465921,0.2620957019329988,1.3264842069859604,0.9370606301350529,0.28788755,0.6601022403977952
0.0275,1.7810937500000001,1.0,2634.8106278361265,0.2662347626847165,1.3260753253441846,0.9388141886415311,0.2878589375,0.6609530682451664
0.028,1.7804,1.0,2644.9626547200587,0.2703506074903989,1.3256681876000482,0.9404857435920645,0.2878298,0.6617992078612877
0.0285,1.77969375,1.0,2654.37286274727,0.27444336517534956,1.3252624217281037,0.9420803248189514,0.2878001375,0.6626414445521978
0.029,1.778975,1.0,2663.0776273697456,0.27851316456487185,1.3248576557029035,0.9436025814654346,0.28776995,0.6634805597296359
0.029500000000000002,1.7782437500000001,1.0,2671.1138935168574,0.2825601344842693,1.324453517499,0.9450568157139801,0.2877392375,0.6643173309391777
0.03,1.7775,1.0,2678.5191223191764,0.2865844037588453,1.3240496350909454,0.9464470131231866,0.287708,0.6651525318795444
0.0305,1.77674375,1.0,2685.325501022596,0.290586099033906,1.3236456890539756,0.947776876084235,0.2876762375,0.6659868238417644
0.031,1.775975,1.0,2691.569408863151,0.2945653493197483,1.3232413251817503,0.9490498381430641,0.28764395,0.6668209365266133
0.0315,1.7751937500000001,1.0,2697.2834412563725,0.2985222814058841,1.3228362272482874,0.9502690942968227,0.2876111375,0.667655517780906
0.032,1.7744,1.0,2702.4923219462285,0.30245701864865415,1.3224301538043448,0.9514376248574103,0.2875778,0.668491058411054
0.0325,1.77359375,1.0,2707.221026783646,0.3063696844043995,1.3220228634006803,0.9525582049831781,0.2875439375,0.6693280467067182
0.033,1.772775,1.0,2711.494759374769,0.310260402029461,1.3216141145880516,0.9536334212900128,0.28750955,0.6701669684239275
0.0335,1.7719437500000002,1.0,2715.3389280217384,0.31412929488017954,1.3212036659172162,0.9546656869276606,0.2874746375,0.6710083067644814
0.034,1.7711000000000001,1.0,2718.779123956049,0.3179764863128961,1.3207912759389324,0.9556572552794114,0.2874392,0.6718525423516317
0.0345,1.7702437500000001,1.0,2721.8317133658943,0.3218020925766695,1.3203767886528155,0.9566102399826706,0.2874032375,0.6726999786113177
0.035,1.7693750000000001,1.0,2724.5309635203703,0.32560624476018873,1.3199598863302104,0.9575266044929923,0.28736675,0.6735512472562462
0.035500000000000004,1.76849375,1.0,2726.896656810333,0.32938906296318793,1.3195403842711682,0.9584081984804766,0.2873297375,0.6744067054203897
0.036000000000000004,1.7676,1.0,2728.9448226425275,0.33315066429794593,1.319118132796976,0.959256758028436,0.2872922,0.6752666368627919
0.0365,1.76669375,1.0,2730.691572890494,0.3368911658767414,1.3186929822289208,0.9600739111800088,0.2872541375,0.6761313235906784
0.037,1.765775,1.0,2732.153092532573,0.3406106848118534,1.3182647828882896,0.9608611858777388,0.28721555,0.6770010458324932
0.0375,1.76484375,1.0,2733.345630787781,0.34430933821556065,1.3178333850963695,0.9616200172344553,0.2871764375,0.6778760820095118
0.038,1.7639,1.0,2734.2854927472026,0.34798724320014196,1.3173986391744472,0.9623517541985506,0.28713679999999997,0.6787567087060238
0.0385,1.76294375,1.0,2734.9890315031516,0.35164451687787623,1.31696039544381,0.9630576656701944,0.28709663750000003,0.6796432006380854
0.039,1.761975,1.0,2735.4726407741364,0.3552812763610422,1.3165185042257448,0.9637389461191989,0.28705595,0.6805358306208455
0.0395,1.7609937500000001,1.0,2735.749992143126,0.3588976379455925,1.3160728408628501,0.9643967228739693,0.2870147375,0.6814348190972175
0.04,1.76,1.0,2735.8336788785914,0.3624937154539828,1.3156232907346868,0.9650320590538081,0.286973,0.6823403646231103
0.0405,1.7589937500000001,1.0,2735.735933382414,0.36606962197771986,1.3151697426993305,0.9656459576809987,0.2869307375,0.6832526571646613
0.041,1.757975,1.0,2735.4664889572236,0.3696254701607555,1.3147121084694855,0.9662393674475761,0.28688795,0.6841718392305192
0.0415,1.75694375,1.0,2735.0350937831604,0.3731613726470417,1.3142502997578547,0.966813184428721,0.2868446375,0.6850980519837324
0.042,1.7559,1.0,2734.4352712693676,0.3766774406086432,1.3137843757289955,0.9673682676635414,0.28680079999999997,0.6860311401414687
0.0425,1.7548437680312536,1.0,2733.7183130592125,0.38017378775506405,1.31331387916548,0.9679053872556531,0.2867564382573127,0.6869719806195123
0.043000000000000003,1.7537819394337726,1.0,2733.200926188836,0.3836505236415921,1.3128390431135395,0.9684253276543696,0.2867118414562184,0.6879200672952965
0.043500000000000004,1.7527201108362915,1.0,2733.1281432080877,0.3871077573820806,1.3123601687440414,0.9689288368430519,0.2866672446551243,0.6888747607850574
0.044,1.7516582822388105,1.0,2733.466788704111,0.3905455980903828,1.3118775572278523,0.9694166232907631,0.28662264785403,0.6898354250560834
0.0445,1.7505964536413294,1.0,2734.1837771366477,0.39396415488035225,1.3113915097358388,0.9698893584389782,0.2865780510529358,0.6908014275013871
0.045,1.7495346250438482,1.0,2735.2490204836026,0.3973635358031218,1.3109023008197838,0.9703476768161811,0.2865334542518416,0.6917721917887905
0.0455,1.748472796446367,1.0,2736.6288453540265,0.4007438498502711,1.3104102380047524,0.9707921831245672,0.2864888574507474,0.6927470795339061
0.046,1.747410967848886,1.0,2738.2969871543164,0.4041052038901276,1.3099155617996514,0.9712234461641245,0.2864442606496532,0.6937255885025717
0.0465,1.746349139251405,1.0,2740.232032155211,0.40744770321862794,1.3094184688528638,0.9716420028362431,0.286399663848559,0.6947073059080018
0.047,1.745287310653924,1.0,2742.4125770492583,0.4107714531317089,1.3089191558127733,0.972048363471497,0.28635506704746483,0.6956918213390417
0.0475,1.7442254820564427,1.0,2744.8172188423364,0.41407655892530715,1.3084178193277631,0.972443013400322,0.2863104702463706,0.6966787267892451
0.048,1.7431636534589616,1.0,2747.427250160225,0.4173631242200182,1.3079146315431434,0.972826412477519,0.2862658734452764,0.6976676648011808
0.0485,1.7421018248614806,1.0,2750.226723854541,0.42063125158010717,1.3074097395023654,0.9731989966166608,0.2862212766441822,0.6986583292700506
0.049,1.7410399962639995,1.0,2753.1870634563106,0.4238810524546518,1.3069034044356809,0.9735611899546371,0.286176679843088,0.6996501924291738
0.0495,1.7399781676665185,1.0,2756.297699659937,0.42711262715035675,1.3063957242725415,0.9739133842238519,0.2861320830419938,0.7006430489397473
0.05,1.7389163390690372,1.0,2759.548051356089,0.4303260759739269,1.3058867969423984,0.9742559529416231,0.2860874862408996,0.7016366946948978
0.0505,1.7378545104715561,1.0,2762.9275228173174,0.433521499232067,1.305376720374703,0.9745892524234028,0.2860428894398054,0.7026309268277755
0.051000000000000004,1.736792681874075,1.0,2766.4255010964666,0.43669899723148187,1.3048655924989072,0.9749136227309558,0.2859982926387111,0.7036255437190377
0.051500000000000004,1.735730853276594,1.0,2770.0313536380127,0.4398586702788762,1.3043535112444622,0.9752293885602156,0.28595369583761693,0.7046203450037214
0.052000000000000005,1.7346690246791128,1.0,2773.7344261012654,0.4430006186809548,1.303840574540819,0.9755368600731493,0.28590909903652273,0.7056151315775032
0.0525,1.7336071960816317,1.0,2777.5240403969674,0.4461249427444225,1.3033268803174298,0.9758363336776236,0.28586450223542853,0.7066097056023457
0.053,1.7325453674841507,1.0,2781.3895033062204,0.4492317427622459,1.3028125264103694,0.9761280927516933,0.28581990543433433,0.7076038706918666
0.0535,1.7314835388866696,1.0,2785.3271346927613,0.45232111148033444,1.3022975473084508,0.9764124036660113,0.28577530863324013,0.7085975538625477
0.054,1.7304217102891886,1.0,2789.3233366968198,0.4553931566008306,1.3017820666035902,0.9766895282526704,0.28573071183214593,0.7095905110856704
0.0545,1.7293598816917073,1.0,2793.3736527766337,0.45844797284822614,1.3012661254157964,0.976959710884851,0.2856861150310517,0.7105826584086531
0.055,1.7282980530942262,1.0,2797.4736146125056,0.4614856549470128,1.3007497648650774,0.9772231856034131,0.2856415182299575,0.7115739124158185
0.0555,1.7272362244967452,1.0,2801.618741705193,0.4645062976216826,1.300233026071442,0.9774801766409428,0.2855969214288633,0.7125641902295433
0.056,1.7261743958992641,1.0,2805.80454101259,0.4675099955967271,1.299715950154899,0.9777308989150448,0.2855523246277691,0.7135534095113079
0.0565,1.725112567301783,1.0,2810.026506623762,0.4704968435966383,1.299198578235456,0.9779755584929286,0.2855077278266749,0.714541488462633
0.057,1.7240507387043018,1.0,2814.2801194702083,0.4734669363459078,1.298680951433122,0.9782143530291704,0.2854631310255807,0.7155283458259091
0.0575,1.7229889101068208,1.0,2818.5608470745365,0.4764203685690276,1.2981631108679055,0.9784474721784137,0.2854185342244865,0.7165139008851183
0.058,1.7219270815093397,1.0,2822.8641433372054,0.4793572349904894,1.2976450976598146,0.9786750979846288,0.28537393742339223,0.7174980734664522
0.0585,1.7208652529118587,1.0,2827.191089447301,0.48227761186368784,1.29712690254716,0.9788974008764686,0.2853293406222981,0.7184808794092173
0.059000000000000004,1.7198034243143776,1.0,2831.5322455161418,0.48518161572039326,1.2966086101921834,0.9791145531390427,0.28528474382120383,0.7194621567597621
0.059500000000000004,1.7187415957168963,1.0,2835.8847333262106,0.4880693397176823,1.2960902464849282,0.9793267151425776,0.28524014702010964,0.720441855664842
0.06,1.7176797671194153,1.0,2840.2471235183825,0.4909408718966703,1.2955718243261114,0.9795340399214071,0.28519555021901544,0.7214199510986428
0.0605,1.7166179385219342,1.0,2844.617982310995,0.49379630029847277,1.2950533566164506,0.9797366746325818,0.28515095341792124,0.7223964182058853
0.061,1.7155561099244532,1.0,2848.9958714848417,0.4966357129642052,1.2945348562566632,0.9799347608272734,0.28510635661682704,0.7233712323018711
0.0615,1.7144942813269721,1.0,2853.379348372021,0.49945919793498306,1.2940163361474666,0.9801284347076454,0.28506175981573284,0.7243443688725126
0.062,1.7134324527294909,1.0,2857.766965848473,0.5022668432519217,1.293497809189578,0.980317827370075,0.28501716301463864,0.7253158035743563
0.0625,1.7123706241320098,1.0,2862.157272330082,0.5050587369561367,1.292979288283715,0.9805030650355463,0.2849725662135444,0.7262855122345913
0.063,1.7113087955345287,1.0,2866.54881177279,0.5078349670887433,1.2924607863305948,0.980684269267985,0.2849279694124502,0.727253470851053
0.0635,1.7102469669370477,1.0,2870.940123675808,0.5105956216908573,1.2919423162309351,0.98086155718125,0.284883372611356,0.7282196555922088
0.064,1.7091851383395666,1.0,2875.3297430891494,0.5133407888035938,1.2914238908854532,0.9810350416354507,0.2848387758102618,0.7291840427971412
0.0645,1.7081233097420854,1.0,2879.716200624619,0.5160705564680684,1.2909055231948663,0.9812048314232154,0.2847941790091676,0.7301466089755138
0.065,1.7070614811446043,1.0,2884.0980224701575,0.5187850127253966,1.2903872260598919,0.981371031446494,0.2847495822080734,0.7311073308075295
0.0655,1.7059996525471233,1.0,2888.473730408579,0.5214842456166937,1.2898690123812473,0.981533742884442,0.2847049854069792,0.7320661851438786
0.066,1.7049378239496422,1.0,2892.8452600733153,0.5241683018898631,1.2893508648791312,0.9816930590681496,0.28466038860588494,0.7330232046992946
0.0665,1.7038759953521612,1.0,2897.2086582860106,0.5268373176149771,1.2888328182809685,0.9818490786371915,0.2846157918047908,0.7339783261603094
0.067,1.70281416675468,1.0,2901.5632821332974,0.5294913783377416,1.2883148780268114,0.9820018919937493,0.28457119500369654,0.7349315405241864
0.0675,1.7017523381571988,1.0,2905.9089027575296,0.5321305638284675,1.28779704589345,0.9821515858772328,0.28452659820260234,0.7358828455835569
0.068,1.7006905095597178,1.0,2910.2452907743386,0.5347549538574656,1.287279323657674,0.9822982440710233,0.28448200140150814,0.7368322391543027
0.0685,1.6996286809622367,1.0,2914.572216277064,0.5373646281950469,1.2867617130962739,0.9824419475239979,0.28443740460041395,0.7377797190755432
0.069,1.6985668523647557,1.0,2918.8894488412852,0.5399596666115221,1.2862442159860388,0.9825827744662499,0.28439280779931975,0.7387252832096236
0.0695,1.6975050237672744,1.0,2923.196757528917,0.5425401488772019,1.2857268341037593,0.9827208005193203,0.2843482109982255,0.7396689294421008
0.07,1.6964431951697934,1.0,2927.493910893293,0.5451061547623973,1.2852095692262253,0.9828560988012359,0.28430361419713135,0.7406106556817316
0.07050000000000001,1.6953813665723123,1.0,2931.780676982751,0.5476577640374192,1.2846924231302268,0.9829887400266331,0.2842590173960371,0.741550459860459
0.07100000000000001,1.6943195379748313,1.0,2936.0568233465738,0.5501950564725783,1.2841753975925536,0.9831187926022267,0.2842144205949429,0.7424883399333995
0.07150000000000001,1.69325770937735,1.0,2940.3221170386105,0.5527181118381854,1.2836584943899956,0.9832463227178749,0.2841698237938487,0.7434242938788292
0.07200000000000001,1.692195880779869,1.0,2944.576324622505,0.5552270099045515,1.283141715299343,0.9833713944334643,0.2841252269927545,0.7443583196981691
