Time [s],Phi [rad],STIM [ ],Fsee [N],Gamma [ ],Lcerel [ ],q [ ],Lmtc [m],fisomrel [ ]
0.0,1.8,1.0,18.322486617675825,0.000608531172143325,1.3793001324471728,0.005095527007258738,0.288653,0.5412353620075168
0.0005,1.79999375,1.0,18.817443487844184,0.0062143271023486525,1.379242764378247,0.01468536103127777,0.2886527375,0.5413741252128363
0.001,1.799975,1.0,22.603456846933103,0.011788678949562292,1.3788388119038848,0.038795450481731844,0.28865195,0.5423506205205771
0.0015,1.79994375,1.0,33.03924669625749,0.01733176309109999,1.3778809449685934,0.07491942284006842,0.2886506375,0.5446619624669735
0.002,1.7999,1.0,57.50100397765281,0.022843754913097654,1.3761183974302436,0.11980263444217278,0.2886488,0.5488997165641116
0.0025,1.79984375,1.0,103.43771542670754,0.02832482881838183,1.3736354782414426,0.17008813493621752,0.28864643749999996,0.5548358718089557
0.003,1.7997750000000001,1.0,169.00014621322285,0.0337751582346356,1.3709169936831413,0.22295637082255357,0.28864354999999997,0.5612901269038919
0.0035,1.79969375,1.0,246.67170616317148,0.03919491561209564,1.3683104376942488,0.27624990314770503,0.2886401375,0.5674343797368333
0.004,1.7996,1.0,330.97395254512054,0.04458427243591082,1.3659061182204604,0.328368031326154,0.2886362,0.5730634969669467
0.0045000000000000005,1.7994937500000001,1.0,419.07779712409166,0.049943399229555534,1.3636938986255958,0.37820594501597016,0.2886317375,0.5782102936942439
0.005,1.799375,1.0,509.3893349125822,0.055272465527154285,1.3616474049369889,0.4250830225162405,0.28862675,0.5829437324692015
0.0055,1.79924375,1.0,600.8449531582738,0.060571640053345956,1.3597432225475319,0.46864871212031084,0.2886212375,0.5873240236961638
0.006,1.7991000000000001,1.0,692.5636903641197,0.06584109034633168,1.3579644798077453,0.5087913568912314,0.2886152,0.5913948698851095
0.006500000000000001,1.79894375,1.0,783.8521474901974,0.07108098318149403,1.3562975887419184,0.5455592845299686,0.2886086375,0.5951914166348686
0.007,1.798775,1.0,874.1308611104525,0.07629148440221865,1.3547318162063446,0.5791015441415881,0.28860155,0.5987415133002173
0.0075,1.79859375,1.0,962.9065853152673,0.08147275869370343,1.3532585213637234,0.6096246483308597,0.2885939375,0.6020676565175886
0.008,1.7984,1.0,1049.8182581602405,0.08662497038179105,1.3518696849692258,0.6373620798845848,0.2885858,0.6051904489785007
0.0085,1.79819375,1.0,1134.5448333101951,0.0917482821104226,1.3505588369293358,0.6625553007904338,0.2885771375,0.6081266002893858
0.009000000000000001,1.797975,1.0,1216.847212614101,0.09684285593035664,1.3493200100392304,0.6854407967600228,0.28856795,0.6108913602876019
0.0095,1.79774375,1.0,1296.5677119676898,0.10190885351640638,1.34814751633646,0.7062427100587984,0.2885582375,0.6134990652702625
0.01,1.7975,1.0,1373.5721787836621,0.10694643482634025,1.3470365224131593,0.7251693075203465,0.288548,0.6159619008653725
0.0105,1.79724375,1.0,1447.7727868700977,0.11195575910433127,1.3459825450284177,0.742411072230658,0.2885372375,0.6182910667591164
0.011,1.796975,1.0,1519.1330359703352,0.11693698490406272,1.344981264037812,0.7581404026300532,0.28852595000000003,0.620497217674979
0.0115,1.79669375,1.0,1587.6478329072586,0.12189027052205659,1.3440286704116162,0.7725123285942789,0.2885141375,0.6225901592309169
0.012,1.7964,1.0,1653.3023376989515,0.12681577185722648,1.3431214527860171,0.7856657750739583,0.28850180000000003,0.6245780249936639
0.0125,1.79609375,1.0,1716.1220611825424,0.13171364478505498,1.3422563053452994,0.7977245714098579,0.2884889375,0.6264688184036518
0.013000000000000001,1.7957750000000001,1.0,1776.148611210015,0.13658404409850547,1.3414301598018268,0.8087989731913131,0.28847555,0.628269917020724
0.0135,1.79544375,1.0,1833.4647292335062,0.14142712544212768,1.3406398515683362,0.8189869287027255,0.2884616375,0.6299888122560646
0.014,1.7951000000000001,1.0,1888.1104897326363,0.146243040874983,1.3398830105643555,0.8283757447922467,0.2884472,0.6316311834493309
0.0145,1.79474375,1.0,1940.1454942509722,0.15103194226654343,1.3391573067822677,0.8370430018128691,0.2884322375,0.633202555026144
0.015,1.794375,1.0,1989.6504067671608,0.15579398148628107,1.338460410214456,0.8450576632554648,0.28841675,0.6347083887674179
0.0155,1.79399375,1.0,2036.7052270096128,0.1605293090700052,1.337790200112684,0.8524811527695918,0.2884007375,0.6361536374612018
0.016,1.7936,1.0,2081.4142412091687,0.16523807643147712,1.3371444760743878,0.8593681525061676,0.2883842,0.6375433745297403
0.0165,1.7931937500000001,1.0,2123.8438163779365,0.16992043133824308,1.3365215878868988,0.8657675892767984,0.2883671375,0.6388814441520416
0.017,1.792775,1.0,2164.069436143399,0.17457652135557086,1.3359199151888783,0.8717231582831638,0.28834955,0.6401715898580893
0.0175,1.7923437500000001,1.0,2202.177510564748,0.17920649404872827,1.3353378376189884,0.8772739325732916,0.2883314375,0.6414175212405007
0.018000000000000002,1.7919,1.0,2238.2509055795,0.18381049565461674,1.3347738706722452,0.8824549416784608,0.2883128,0.6426226260048561
0.0185,1.79144375,1.0,2272.3884700350227,0.1883886738360003,1.3342264573054823,0.887297589762036,0.2882936375,0.6437904184854166
0.019,1.790975,1.0,2304.662209793647,0.19294117250795945,1.3336943866266555,0.8918301766759157,0.28827395,0.6449236490237888
0.0195,1.79049375,1.0,2335.14286106811,0.1974681347458067,1.3331765239635283,0.8960781861357977,0.2882537375,0.6460248848200909
0.02,1.79,1.0,2363.906908637799,0.20196970362485467,1.3326717346438641,0.900064586995694,0.288233,0.6470966740084263
0.0205,1.78949375,1.0,2391.0357560038083,0.2064460221662784,1.3321788873426816,0.9038101160473091,0.2882117375,0.6481415395528636
0.021,1.788975,1.0,2416.5980280145327,0.21089723104969346,1.3316970205417649,0.9073335603337459,0.28818995000000003,0.6491616280730741
0.021500000000000002,1.78844375,1.0,2440.684500956894,0.21532347444235383,1.3312249984628035,0.9106518999112805,0.2881676375,0.650159440029706
0.022,1.7879,1.0,2463.351815744949,0.21972489054824482,1.3307620503486388,0.913780609548198,0.2881448,0.6511366902077951
0.0225,1.78734375,1.0,2484.6595919057913,0.22410161757135186,1.3303074054421116,0.9167337472537878,0.28812143749999997,0.6520950826214941
0.023,1.786775,1.0,2504.6701826320295,0.2284537937156603,1.329860292986063,0.9195241035914538,0.28809755,0.6530363109411629
0.0235,1.78619375,1.0,2523.4484430060716,0.23278155718515553,1.329419942223334,0.922163333491549,0.28807313749999996,0.6539620588825745
0.024,1.7856,1.0,2541.0531738099153,0.23708504410023307,1.328985660942111,0.9246620859504107,0.2880482,0.6548738357604671
0.0245,1.78499375,1.0,2557.5489899934646,0.24136439347366254,1.328556720830384,0.9270300877880733,0.2880227375,0.6557732181032692
0.025,1.784375,1.0,2572.98920637531,0.24561974086865726,1.32813251660893,0.9292762599501441,0.28799675,0.6566615164027114
0.025500000000000002,1.78374375,1.0,2587.41944776789,0.2498512192129311,1.327712529005911,0.931408790479544,0.2879702375,0.6575398543767534
0.026000000000000002,1.7831000000000001,1.0,2600.886630450073,0.25405896143419776,1.3272962387494898,0.9334351925802844,0.2879432,0.6584093498100669
0.0265,1.78244375,1.0,2613.4388516171,0.25824310046017107,1.3268831265678278,0.9353623693424199,0.2879156375,0.6592711146850811
0.027,1.781775,1.0,2625.125284809372,0.2624037692185648,1.3264726731890872,0.9371966714698017,0.28788755,0.6601262552958274
0.0275,1.7810937500000001,1.0,2635.988065770384,0.26654109854006847,1.326064433480749,0.9389439591448706,0.2878589375,0.6609757181724434
0.028,1.7804,1.0,2646.0706335129985,0.2706552208097889,1.325657957883992,0.9406096368470606,0.2878298,0.6618204542947325
0.0285,1.77969375,1.0,2655.42585964215,0.2747462697058582,1.325252716842082,0.9421986837651819,0.2878001375,0.6626615758509069
0.029,1.778975,1.0,2664.0851347512325,0.27881437231530665,1.3248483852141484,0.9437157291114066,0.28776995,0.6634997660196438
0.029500000000000002,1.7782437500000001,1.0,2672.080374799867,0.2828596557251644,1.3244446378593204,0.9451650568918681,0.2877392375,0.6643357046056583
0.03,1.7775,1.0,2679.44397503494,0.2868822470224617,1.3240411496367275,0.9465506360642457,0.287708,0.6651700680551913
0.0305,1.77674375,1.0,2686.208766255634,0.29088227329422883,1.3236375954054989,0.947876147702758,0.2876762375,0.6660035294647533
0.031,1.775975,1.0,2692.4079734219686,0.294859861627496,1.3232336500247643,0.949145009500033,0.28764395,0.6668367585831255
0.0315,1.7751937500000001,1.0,2698.075176607264,0.29881513910929347,1.3228289883536528,0.9503603978958113,0.2876111375,0.6676704218066234
0.032,1.7744,1.0,2703.237475668803,0.3027482281800378,1.3224233473476559,0.9515252742449685,0.2875778,0.6685050544806532
0.0325,1.77359375,1.0,2707.929618413509,0.3066592592130488,1.322016396545679,0.9526423906054962,0.2875439375,0.6693413276649745
0.033,1.772775,1.0,2712.174703173271,0.31054835469263964,1.3216079140584274,0.9537143227204162,0.28750955,0.6701796862722806
0.0335,1.7719437500000002,1.0,2715.994219171631,0.3144156357707442,1.3211976944169213,0.9547434752499883,0.2874746375,0.6710205392259377
0.034,1.7711000000000001,1.0,2719.4098243139383,0.3182612235992964,1.3207855321521806,0.9557320937730994,0.2874392,0.6718642932456705
0.0345,1.7702437500000001,1.0,2722.44332785251,0.3220852393302299,1.320371221795226,0.9566822771870137,0.2874032375,0.6727113528234507
0.035,1.7693750000000001,1.0,2725.1166739871896,0.32588780411547874,1.319954557877077,0.9575959890021509,0.28736675,0.6735621201966969
0.035500000000000004,1.76849375,1.0,2727.4519264026244,0.3296690391069766,1.3195353349287542,0.958475067641914,0.2873297375,0.6744169953187784
0.036000000000000004,1.7676,1.0,2729.46567818177,0.3334290600478673,1.319113398161295,0.9593212398213948,0.2872922,0.6752762726847921
0.0365,1.76669375,1.0,2731.1779320886603,0.3371679870617372,1.3186885625690283,0.9601361228474182,0.2872541375,0.6761403064020617
0.037,1.765775,1.0,2732.6173960482,0.3408859500961516,1.3182605647735912,0.9609212290395774,0.28721555,0.6770096074936057
0.0375,1.76484375,1.0,2733.796536723281,0.34458306327928767,1.3178292895849169,0.9616779900043696,0.2871764375,0.6778843835521271
0.038,1.7639,1.0,2734.727870247343,0.3482594407393226,1.3173946218129389,0.9624077514642595,0.28713679999999997,0.678764840702237
0.0385,1.76294375,1.0,2735.423956324991,0.35191519660443354,1.3169564462675905,0.9631117793490265,0.28709663750000003,0.6796511835759569
0.039,1.761975,1.0,2735.897392625228,0.35555044500279775,1.3165146477588048,0.963791265391343,0.28705595,0.6805436152873716
0.0395,1.7609937500000001,1.0,2736.1608094707112,0.3591653000625923,1.3160691110965155,0.964447332271858,0.2870147375,0.6814423374064367
0.04,1.76,1.0,2736.2268648196905,0.36275987591199443,1.315619721090656,0.9650810383544864,0.286973,0.6823475499319405
0.0405,1.7589937500000001,1.0,2736.1082395430503,0.36633428667918133,1.3151663625511594,0.9656933820485464,0.2869307375,0.6832594512636199
0.041,1.757975,1.0,2735.8176329951475,0.3698886464923301,1.314708920287959,0.9662853058307823,0.28688795,0.6841782381734283
0.0415,1.75694375,1.0,2735.367758878542,0.37342306947961795,1.314247279110988,0.9668576999570623,0.2868446375,0.6851041057759591
0.042,1.7559,1.0,2734.7687930111033,0.3769376653248819,1.3137813469717767,0.9674114070889566,0.28680079999999997,0.6860372011880659
0.0425,1.75484375,1.0,2734.029649798017,0.3804325435783138,1.3133110433537651,0.9679472251469337,0.2867564375,0.6869776470426502
0.043000000000000003,1.753775,1.0,2733.1654815778656,0.38390782638988286,1.3128362311366721,0.9684659066590959,0.28671155,0.6879256775771768
0.043500000000000004,1.75269375,1.0,2732.18276015072,0.3873636204095662,1.312356852062225,0.9689681680776759,0.28666613750000003,0.6888813678883203
0.044,1.7516,1.0,2731.0879607237807,0.39080003228734095,1.311872847872152,0.9694546882414445,0.2866202,0.6898447919646479
0.0445,1.75049375,1.0,2729.887560556844,0.39421716867318446,1.3113841603081802,0.9699261107187092,0.2865737375,0.6908160226695458
0.045,1.7493750000000001,1.0,2728.5880376820305,0.3976151362170739,1.3108907311120375,0.9703830459821413,0.28652675,0.6917951317239248
0.0455,1.74824375,1.0,2727.195869698866,0.40099404156898644,1.3103925020254517,0.9708260734290225,0.2864792375,0.6927821896887116
0.046,1.7471,1.0,2725.717532645499,0.40435399137889927,1.3098894147901499,0.9712557432592943,0.2864312,0.6937772659471252
0.0465,1.7459437500000001,1.0,2724.15949994379,0.4076950922967896,1.30938141114786,0.9716725782226919,0.28638263750000004,0.6947804286867307
0.047,1.744775,1.0,2722.5282414207645,0.41101745097263453,1.30886843284031,0.9720770752452483,0.28633355,0.6957917448812849
0.0475,1.74359375,1.0,2720.8302224050603,0.41432117405641145,1.308350421609227,0.9724697069445625,0.28628393750000003,0.6968112802723596
0.048,1.7424,1.0,2719.069809932444,0.4176063607484809,1.3078273382570544,0.9728509234469743,0.2862338,0.697839061931049
0.0485,1.74119375,1.0,2717.2497975120264,0.42087310657474697,1.3072991578912752,0.973221153851654,0.2861831375,0.6988750878804628
0.049,1.739975,1.0,2715.3823485606035,0.42412154288773035,1.3067657702146855,0.973580805367238,0.28613195,0.699919522399843
0.0495,1.73874375,1.0,2713.4704175396223,0.42735176816354903,1.3062271487449009,0.97393026773056,0.2860802375,0.7009723640675012
0.05,1.7375,1.0,2711.5169559931887,0.43056388087832126,1.3056832669995364,0.9742699125284418,0.286028,0.7020336105755425
0.0505,1.73624375,1.0,2709.5249123140457,0.4337579795081651,1.3051340984962072,0.9746000942028401,0.2859752375,0.7031032587210042
0.051000000000000004,1.734975,1.0,2707.497231525556,0.43693416252919876,1.3045796167525288,0.9749211509916643,0.28592195,0.7041813043969474
0.051500000000000004,1.73369375,1.0,2705.4368550790373,0.44009252841754026,1.304019795286116,0.9752334058099136,0.2858681375,0.7052677425835083
0.052000000000000005,1.7324,1.0,2703.3467206662917,0.44323317564930786,1.303454607614584,0.9755371670754095,0.2858138,0.7063625673388992
0.0525,1.73109375,1.0,2701.2297620487566,0.4463562027006196,1.3028840272555486,0.9758327294830664,0.28575893750000003,0.7074657717903701
0.053,1.729775,1.0,2699.0889089006737,0.44946170804759367,1.3023080277266246,0.9761203747313177,0.28570355000000003,0.7085773481251225
0.0535,1.72844375,1.0,2696.9270866692104,0.4525497901663482,1.301726582545427,0.976400372204047,0.2856476375,0.7096972875811788
0.054,1.7271,1.0,2694.747216449476,0.4556205475330013,1.301139665229571,0.9766729796111004,0.2855912,0.7108255804382075
0.0545,1.7257437500000001,1.0,2692.552214874764,0.45867407862367116,1.3005472492966723,0.9769384435902297,0.2855342375,0.7119622160083032
0.055,1.724375,1.0,2690.344994023124,0.4617104819144759,1.2999493082643456,0.9771970002730893,0.28547675,0.7131071826267237
0.0555,1.72299375,1.0,2688.128461338961,0.4647298558815336,1.2993458156502065,0.9774488758177197,0.2854187375,0.7142604676425786
0.056,1.7216,1.0,2685.902249503697,0.46773229749649176,1.2987367749357972,0.9776942885237492,0.2853602,0.7154220003219351
0.0565,1.72019375,1.0,2683.6657695674767,0.47071789860371077,1.2981221916406689,0.9779334472789408,0.28530113749999997,0.7165917055209321
0.057,1.718775,1.0,2681.4239161657038,0.4736867528149124,1.2975020210056054,0.9781665496587385,0.28524155,0.7177696029897331
0.0575,1.71734375,1.0,2679.180694321132,0.4766389538945074,1.2968762263587033,0.9783937856477288,0.2851814375,0.7189556958642092
0.058,1.7159,1.0,2676.9370313664417,0.4795745953606255,1.2962447992150736,0.9786153391031263,0.2851208,0.7201499328380763
0.0585,1.71444375,1.0,2674.689892808982,0.4824937705254744,1.295607767454204,0.9788313885103087,0.2850596375,0.7213521933059353
0.059000000000000004,1.7129750000000001,1.0,2672.442890541783,0.4853965714131225,1.2949650979478249,0.9790421017761993,0.28499795,0.7225624712775194
0.059500000000000004,1.71149375,1.0,2670.1992198707976,0.48828308967708345,1.2943167613404185,0.9792476403493782,0.2849357375,0.7237807525321656
0.06,1.71,1.0,2667.9531629456146,0.4911534167499349,1.2936628101734622,0.9794481637709338,0.284873,0.7250068683706158
0.0605,1.7084937500000001,1.0,2665.7221551402217,0.4940076438661097,1.2930030841197486,0.9796438139400974,0.2848097375,0.7262410481387612
0.061,1.7069784213723007,1.0,2663.657021260386,0.49684586103427925,1.2923377403514165,0.9798347440644288,0.2847460936976366,0.7274829259127162
0.0615,1.7054626698482571,1.0,2662.145162191398,0.4996681578445824,1.2916671204175316,0.9800211112220196,0.28468243213362676,0.7287317948576055
0.062,1.7039469183242137,1.0,2661.169881226589,0.5024746236900516,1.2909915646740875,0.9802030665247113,0.284618770569617,0.7299869556394336
0.0625,1.7024311668001701,1.0,2660.685481179506,0.5052653477699535,1.290311491113267,0.9803807594887348,0.28455510900560715,0.731247570559922
0.063,1.7009154152761266,1.0,2660.652756451181,0.5080404181258171,1.2896272594453226,0.9805543310613452,0.2844914474415973,0.7325129164100503
0.0635,1.6993996637520832,1.0,2661.036172255961,0.5107999223308587,1.2889391967189263,0.980723915361421,0.2844277858775875,0.7337823360950944
0.064,1.6978839122280396,1.0,2661.806952294083,0.5135439460532778,1.2882475686320451,0.9808896384253314,0.28436412431357766,0.7350552907452628
0.0645,1.696368160703996,1.0,2662.9255557841734,0.516272578319123,1.2875527406074858,0.9810516270297303,0.28430046274956783,0.7363310630392985
0.065,1.6948524091799526,1.0,2664.3559887217257,0.5189859077237455,1.2868550458075154,0.9812100018334579,0.284236801185558,0.7376090009399497
0.0655,1.693336657655909,1.0,2666.0778959570484,0.5216840184698475,1.2861546737483633,0.9813648718533472,0.28417313962154817,0.7388887203187746
0.066,1.6918209061318654,1.0,2668.0709457240123,0.5243669947601308,1.2854518139462598,0.9815163422966398,0.28410947805753833,0.7401698402895085
0.0665,1.690305154607822,1.0,2670.3148187890615,0.5270349207972977,1.284746655917435,0.9816645147262745,0.2840458164935285,0.741451983239279
0.067,1.6887894030837785,1.0,2672.789198396033,0.5296878807840503,1.2840393891781183,0.9818094872179245,0.2839821549295187,0.7427347748575301
0.0675,1.6872736515597349,1.0,2675.4737610074894,0.5323259589230905,1.2833302032445402,0.981951354509252,0.2839184933655089,0.7440178441626517
0.068,1.6857579000356915,1.0,2678.3481678425933,0.5349492394171205,1.28261928763293,0.9820902081418112,0.28385483180149906,0.7453008235263238
0.0685,1.6842421485116479,1.0,2681.397246231701,0.5375578037136081,1.281906784272069,0.9822261341636375,0.28379117023748923,0.7465834342518531
0.069,1.6827263969876043,1.0,2684.602661730736,0.5401517367989966,1.2811928639099575,0.9823592173426982,0.2837275086734794,0.7478653484888909
0.0695,1.681210645463561,1.0,2687.9474255627165,0.5427311230172592,1.2804776846939445,0.9824895390264623,0.28366384710946957,0.7491462639946564
0.07,1.6796948939395173,1.0,2691.4221923266173,0.5452960422309473,1.2797613345178147,0.9826171743642327,0.28360018554545974,0.7504260067245261
0.07050000000000001,1.6781791424154737,1.0,2695.0176014137955,0.5478465743026121,1.2790439012753518,0.9827421960553034,0.2835365239814499,0.7517044042124735
0.07100000000000001,1.6766633908914303,1.0,2698.7242748114836,0.5503827990948047,1.2783254728603408,0.9828646744475448,0.2834728624174401,0.7529812855773842
0.07150000000000001,1.6751476393673868,1.0,2702.532815077941,0.5529047964700767,1.2776061371665657,0.9829846776314133,0.28340920085343024,0.7542564815288837
0.07200000000000001,1.6736318878433432,1.0,2706.4338034889643,0.5554126462909792,1.2768859820878107,0.9831022715296234,0.2833455392894204,0.7555298243726677
0.0725,1.6721161363192998,1.0,2710.417798355024,0.5579064284200633,1.2761650955178607,0.9832175199827112,0.2832818777254106,0.7568011480153407
0.073,1.6706003847952562,1.0,2714.4753335105597,0.5603862227198807,1.2754435653504994,0.9833304848307004,0.28321821616140075,0.7580702879687665
0.0735,1.6690846332712126,1.0,2718.603893089735,0.5628521005403327,1.274721415942268,0.9834412226800785,0.2831545545973909,0.7593371926743476
0.074,1.6675688817471692,1.0,2722.789612927977,0.5653041506350366,1.2739987748782629,0.9835497939249652,0.2830908930333811,0.7606016306288618
