Time [s],Phi [rad],STIM [ ],Fsee [N],Gamma [ ],Lcerel [ ],q [ ],Lmtc [m],fisomrel [ ]
0.0,1.8,1.0,17.9678515916513,3.2343756428645705e-05,1.3793396685337844,0.00500027623834034,0.288653,0.5411397189945109
0.0005,1.79999375,1.0,18.28466737203199,0.005641371642335535,1.3793015077686919,0.01300266147468417,0.2886527375,0.5412320350905516
0.001,1.799975,1.0,21.642920825666213,0.011218937316613881,1.378935796499509,0.03572510328676046,0.28865195,0.542116269551284
0.0015,1.79994375,1.0,31.129074638045832,0.016765217258277856,1.3780411081351716,0.07076115836177078,0.2886506375,0.5442758946426388
0.002,1.7999,1.0,53.712612655673276,0.02228038695465171,1.3763596884988376,0.1149066480144901,0.2886488,0.5483207425799042
0.0025,1.79984375,1.0,97.33872754993564,0.027764620909094238,1.3739245820941257,0.16478006878354787,0.28864643749999996,0.5541467056943031
0.003,1.7997750000000001,1.0,161.24482553393932,0.03321809264850493,1.3712036186209389,0.21749211684331463,0.28864354999999997,0.560611841590308
0.0035,1.79969375,1.0,238.0075906041481,0.03864097472308096,1.3685747496005243,0.27082340789607307,0.2886401375,0.566813309811578
0.004,1.7996,1.0,321.8119860823163,0.04403343871705616,1.366146951429574,0.3231196406828841,0.2886362,0.5725013072666745
0.0045000000000000005,1.7994937500000001,1.0,409.6254044991045,0.049395655253897816,1.3639144205041325,0.37322800380087934,0.2886317375,0.5776986433327215
0.005,1.799375,1.0,499.77855075492107,0.054727793987461304,1.3618505865541652,0.4204284910567821,0.28862675,0.5824749777117557
0.0055,1.79924375,1.0,591.1588402689263,0.06003002364847396,1.3599316380653155,0.4643413039695256,0.2886212375,0.5868916323967435
0.006,1.7991000000000001,1.0,682.8870998832666,0.06530251199015996,1.3581397083693856,0.5048339902581832,0.2886152,0.5909947362534804
0.006500000000000001,1.79894375,1.0,774.2422466377469,0.07054542574255174,1.3564610920204672,0.5419416578470267,0.2886086375,0.5948198018991584
0.007,1.798775,1.0,864.6584319788686,0.07575893117018981,1.3548843766254612,0.5758050234942305,0.28860155,0.5983962985559879
0.0075,1.79859375,1.0,953.6069922550822,0.08094319273677021,1.3534011844610472,0.6066265777696295,0.2885939375,0.60174618246661
0.008,1.7984,1.0,1040.7106574334287,0.0860983746652438,1.3520034613061427,0.6346380957529211,0.2885858,0.6048901888663741
0.0085,1.79819375,1.0,1125.6626699534172,0.09122464022568356,1.3506843092164393,0.6600807264023119,0.2885771375,0.6078460308335101
0.009000000000000001,1.797975,1.0,1208.2135547325195,0.09632215134209691,1.3494377534430002,0.6831918943844786,0.28856795,0.6106290065966486
0.0095,1.79774375,1.0,1288.195501824638,0.10139106952186858,1.3482581106211422,0.7041972458652596,0.2885582375,0.6132534706205112
0.01,1.7975,1.0,1365.4775982053798,0.10643155530526367,1.347140394112865,0.7233067438928464,0.288548,0.6157319731350916
0.0105,1.79724375,1.0,1439.9607065240746,0.11144376767498872,1.346080176743699,0.7407127673532927,0.2885372375,0.6180756099013077
0.011,1.796975,1.0,1511.596134524265,0.11642786508807376,1.345073207739261,0.7565895852233524,0.28852595000000003,0.6202949021063034
0.0115,1.79669375,1.0,1580.389842992943,0.12138400635571879,1.3441152716001286,0.7710938740850204,0.2885141375,0.6224001270777098
0.012,1.7964,1.0,1646.3352783269904,0.12631234783702794,1.343202908022051,0.7843661183981935,0.28850180000000003,0.6243997574145653
0.0125,1.79609375,1.0,1709.4391317248774,0.13121304476455403,1.3423329891397537,0.7965317083084038,0.2884889375,0.6263014175594428
0.013000000000000001,1.7957750000000001,1.0,1769.744460236555,0.1360862523708499,1.3415023870879628,0.8077022077560891,0.28847555,0.6281126263176762
0.0135,1.79544375,1.0,1827.3073837232498,0.14093212492831575,1.340708197033915,0.8179768555757,0.2884616375,0.6298403203887084
0.014,1.7951000000000001,1.0,1882.210572174985,0.1457508168854509,1.3399475402106815,0.827443823526817,0.2884472,0.6314912943389894
0.0145,1.79474375,1.0,1934.5057275687373,0.1505424797194589,1.3392181549241517,0.8361816669831315,0.2884322375,0.6330709291130554
0.015,1.794375,1.0,1984.2598047953886,0.15530726462014824,1.3385178391433707,0.8442602301570478,0.28841675,0.6345844151202263
0.0155,1.79399375,1.0,2031.5562768982863,0.1600453225659081,1.3378444147698993,0.8517416531139773,0.2884007375,0.6360368348494395
0.016,1.7936,1.0,2076.4843778185605,0.16475680375757093,1.33719582133815,0.8586813101751827,0.2883842,0.6374329657911045
0.0165,1.7931937500000001,1.0,2119.136054469364,0.16944185830757366,1.336570125838874,0.8651286134968028,0.2883671375,0.6387772652831777
0.017,1.792775,1.0,2159.5792800046984,0.1741006332164552,1.3359657756774235,0.8711277876022346,0.28834955,0.6400733340990663
0.0175,1.7923437500000001,1.0,2197.892781786628,0.1787332754847544,1.3353812182591505,0.8767183720293396,0.2883314375,0.6413247399203064
0.018000000000000002,1.7919,1.0,2234.1651390040447,0.18333993211301017,1.3348149009894077,0.8819357722978962,0.2883128,0.6425350193732562
0.0185,1.79144375,1.0,2268.4748089181617,0.18792074812557535,1.3342654619586742,0.886811790756539,0.2882936375,0.643707273410568
0.019,1.790975,1.0,2300.925984044811,0.19247587130398136,1.3337313603314302,0.891374952192665,0.28827395,0.6448449589647101
0.0195,1.79049375,1.0,2331.584666428665,0.19700544420686902,1.3332115044533195,0.8956510283695782,0.2882537375,0.6459505526146538
0.02,1.79,1.0,2360.5206104017493,0.2015096091742854,1.3327048213102834,0.8996632477697096,0.288233,0.6470264728217232
0.0205,1.78949375,1.0,2387.808717473619,0.20598850854627757,1.3322102378882645,0.9034325769169098,0.2882117375,0.648075120670353
0.021,1.788975,1.0,2413.5286014113003,0.2104422846628926,1.3317266811732045,0.9069779714380508,0.28818995000000003,0.6490988807328162
0.021500000000000002,1.78844375,1.0,2437.7475040985287,0.21487107751455842,1.3312532385315379,0.910316629150959,0.2881676375,0.6500997830432655
0.022,1.7879,1.0,2460.551561309899,0.21927503051497102,1.3307888509862347,0.9134641194209331,0.2881448,0.6510801532627764
0.0225,1.78734375,1.0,2481.998163602073,0.2236542816148307,1.330332767532467,0.9164346436972246,0.28812143749999997,0.6520416539998123
0.023,1.786775,1.0,2502.14349002315,0.2280089681208856,1.3298842743613197,0.9192411277739384,0.28809755,0.6529858594678111
0.0235,1.78619375,1.0,2521.046140989838,0.23233922733988396,1.3294426576638778,0.9218953477293281,0.28807313749999996,0.6539143345387788
0.024,1.7856,1.0,2538.766934468966,0.23664519657857405,1.3290072036312262,0.9244080480731642,0.2880482,0.6548286350725794
0.0245,1.78499375,1.0,2555.3635628362053,0.240927012119244,1.3285772468405128,0.9267890543921717,0.2880227375,0.655730206819862
0.025,1.784375,1.0,2570.8926910120304,0.2451848099539472,1.3281521481747216,0.9290473615368795,0.28799675,0.6566204325520266
0.025500000000000002,1.78374375,1.0,2585.4207802014403,0.24941872749457247,1.3277311918752974,0.9311911989386717,0.2879702375,0.6575008478061128
0.026000000000000002,1.7831000000000001,1.0,2598.989271813346,0.25362889671447386,1.3273139095133009,0.9332281553271857,0.2879432,0.6583724637727
0.0265,1.78244375,1.0,2611.6407305049433,0.25781544958700536,1.326899832659792,0.9351652020771851,0.2879156375,0.6592362863743622
0.027,1.781775,1.0,2623.4187498281995,0.26197851808552114,1.3264884928858323,0.937008751710467,0.28788755,0.6600933163684244
0.0275,1.7810937500000001,1.0,2634.3678627413424,0.2661182341833751,1.3260794217624814,0.9387647101420613,0.2878589375,0.6609445494357328
0.028,1.7804,1.0,2644.5334569850543,0.2702347298539214,1.3256721508608005,0.9404385234071414,0.2878298,0.661790976255421
0.0285,1.77969375,1.0,2653.954347722585,0.27432813310586135,1.3252662794826109,0.9420352276918722,0.2878001375,0.6626334420648599
0.029,1.778975,1.0,2662.680372660275,0.27839857889694175,1.3248613114884922,0.9435594672221214,0.28776995,0.6634729856440589
0.029500000000000002,1.7782437500000001,1.0,2670.742958007638,0.28244619426916695,1.3244569259312278,0.9450155607989181,0.2877392375,0.6643102781098782
0.03,1.7775,1.0,2678.172738709733,0.28647110563837636,1.3240528135116214,0.9464075104936829,0.287708,0.665145963186232
0.0305,1.77674375,1.0,2685.000778162019,0.2904734394204093,1.3236486649304768,0.9477390276602018,0.2876762375,0.6659806814053569
0.031,1.775975,1.0,2691.258528685352,0.29445332203110514,1.3232441708885974,0.9490135577114653,0.28764395,0.6668150701101507
0.0315,1.7751937500000001,1.0,2696.9777941219686,0.29841087988630316,1.322839022086787,0.9502343024938458,0.2876111375,0.6676497634504053
0.032,1.7744,1.0,2702.1901690574027,0.3023462389009896,1.3224329140264788,0.9514042409514339,0.2875778,0.6684853825012543
0.0325,1.77359375,1.0,2706.918931074661,0.30625951639547977,1.3220256206890788,0.9525261538285565,0.2875439375,0.6693223839917524
0.033,1.772775,1.0,2711.2056912902995,0.31015085109556984,1.321616750887345,0.953602619730859,0.28750955,0.6701615610608017
0.0335,1.7719437500000002,1.0,2715.069921547035,0.3140203627756832,1.3212061175128824,0.9546360624339919,0.2874746375,0.6710032846693252
0.034,1.7711000000000001,1.0,2718.5312556618796,0.3178681712102431,1.3207935334572956,0.9556287451498694,0.2874392,0.6718479237627009
0.0345,1.7702437500000001,1.0,2721.6094737116346,0.3216943961736729,1.32037881161219,0.9565827830575615,0.2874032375,0.6726958452485998
0.035,1.7693750000000001,1.0,2724.324487094474,0.3254991574403961,1.3199617648691702,0.9575001547163641,0.28736675,0.6735474139725952
0.035500000000000004,1.76849375,1.0,2726.696324368004,0.32928257478483586,1.3195422061198414,0.9583827124724388,0.2873297375,0.6744029926915331
0.036000000000000004,1.7676,1.0,2728.7451178630386,0.3330447679814157,1.3191199482558087,0.9592321919582393,0.2872922,0.6752629420446747
0.0365,1.76669375,1.0,2730.49109107426,0.33678585680455886,1.3186948041686768,0.96005022077319,0.2872541375,0.6761276205226044
0.037,1.765775,1.0,2731.9545468263223,0.34050596102868874,1.318266586750051,0.9608383264245896,0.28721555,0.6769973844339041
0.0375,1.76484375,1.0,2733.1510932922397,0.3442051946610697,1.3178351521557765,0.9615979466008762,0.2871764375,0.6778725001725587
0.038,1.7639,1.0,2734.093734828679,0.34788367280611043,1.3174003806860424,0.9623304352196366,0.28713679999999997,0.6787531834832761
0.0385,1.76294375,1.0,2734.8086895399065,0.35154152777619835,1.3169620330653278,0.9630370579998823,0.28709663750000003,0.6796398902904786
0.039,1.761975,1.0,2735.3065853327207,0.3551788714799411,1.3165200119811458,0.9637190154898506,0.28705595,0.6805327870390796
0.0395,1.7609937500000001,1.0,2735.5980807459723,0.35879581582594644,1.3160742201210098,0.9643774386001541,0.2870147375,0.6814320388230084
0.04,1.76,1.0,2735.693860800987,0.36239247272282193,1.315624560172433,0.9650133933841278,0.286973,0.6823378093621117
0.0405,1.7589937500000001,1.0,2735.6046330627946,0.3659689540791754,1.3151709348229288,0.9656278854411863,0.2869307375,0.6832502609784477
0.041,1.757975,1.0,2735.341123910703,0.36952537180361444,1.3147132467600102,0.9662218639765804,0.28688795,0.68416955457198
0.0415,1.75694375,1.0,2734.914075019109,0.3730618378047467,1.314251398671191,0.9667962255476785,0.2868446375,0.6850958495956638
0.042,1.7559,1.0,2734.334240048382,0.37657846399117995,1.3137852932439842,0.9673518175239751,0.28680079999999997,0.6860293040299326
0.0425,1.75484375,1.0,2733.612381545664,0.3800753622715218,1.313314833165903,0.9678894412854245,0.2867564375,0.6869700743565764
0.043000000000000003,1.753775,1.0,2732.759268055004,0.38355264455437993,1.3128399211244608,0.9684098551813622,0.28671155,0.687918315532019
0.043500000000000004,1.75269375,1.0,2731.7856714387667,0.3870104227483621,1.312360459807171,0.9689137772701741,0.28666613750000003,0.6888741809599896
0.044,1.7516,1.0,2730.7000616485943,0.3904488026664259,1.3118763728281493,0.9694018885871479,0.2866202,0.6898377808404248
0.0445,1.75049375,1.0,2729.5081476816786,0.3938678919962954,1.311387608902857,0.9698748369885736,0.2865737375,0.6908091741765348
0.045,1.7493750000000001,1.0,2728.220639291936,0.3972678122663461,1.310894071295039,0.9703332354827686,0.28652675,0.691788509035699
0.0455,1.74824375,1.0,2726.842923709422,0.4006486675147917,1.3103957116299214,0.9707776669579471,0.2864792375,0.692775836102534
0.046,1.7471,1.0,2725.3803874781556,0.4040105617798459,1.3098924815327302,0.971208684910959,0.2864312,0.6937712050047401
0.0465,1.7459437500000001,1.0,2723.838415598687,0.4073535990997223,1.309384332628692,0.9716268152071772,0.28638263750000004,0.6947746642981469
0.047,1.744775,1.0,2722.222390723278,0.4106778835126346,1.3088712165430332,0.9720325577188245,0.28633355,0.6957862614516158
0.0475,1.74359375,1.0,2720.537692403221,0.4139835190567966,1.3083530849009797,0.9724263878512112,0.28628393750000003,0.6968060428317897
0.048,1.7424,1.0,2718.78969638687,0.41727060977042185,1.3078298893277578,0.9728087579655266,0.2862338,0.6978340536876926
0.0485,1.74119375,1.0,2716.9837739709888,0.420539259691724,1.307301581448594,0.9731800987061023,0.2861831375,0.6988703381351823
0.049,1.739975,1.0,2715.125291402744,0.4237895728589169,1.3067681128887145,0.973540820239379,0.28613195,0.6999149391412529
0.0495,1.73874375,1.0,2713.219609334566,0.427021653310214,1.3062294352733457,0.9738913134112105,0.2860802375,0.7009678985081882
0.05,1.7375,1.0,2711.2720823303307,0.43023560508382924,1.3056855002277135,0.9742319508285796,0.286028,0.7020292568575657
0.0505,1.73624375,1.0,2709.284122503692,0.43343151953360387,1.305136295286281,0.9745630888052795,0.2859752375,0.7030989837339398
0.051000000000000004,1.734975,1.0,2707.2575247086647,0.4366094972746888,1.30458180448073,0.9748850681788471,0.28592195,0.704177054780811
0.051500000000000004,1.73369375,1.0,2705.2026401528487,0.4397696642536501,1.3040219337043322,0.9751982120421093,0.2858681375,0.7052635963860927
0.052000000000000005,1.7324,1.0,2703.1214608601117,0.44291211607134395,1.303456665064426,0.9755028304933077,0.2858138,0.7063585855483955
0.0525,1.73109375,1.0,2701.0159762655094,0.4460369483286268,1.3028859806683497,0.9757992198305034,0.28575893750000003,0.7074619984520794
0.053,1.729775,1.0,2698.888173120791,0.44914425662635477,1.302309862623442,0.9760876632823604,0.28570355000000003,0.708573810461083
0.0535,1.72844375,1.0,2696.7400354069796,0.45223413656538425,1.3017282930370409,0.9763684316941559,0.2856476375,0.7096939961127348
0.054,1.7271,1.0,2694.573544254006,0.45530668374657157,1.3011412540164848,0.9766417841721292,0.2855912,0.71082252911154
0.0545,1.7257437500000001,1.0,2692.3906778674204,0.45836199377077286,1.3005487276691126,0.9769079686890266,0.2855342375,0.7119593823229516
0.055,1.724375,1.0,2690.1934114620976,0.46140016223884456,1.2999506961022622,0.9771672226534821,0.28547675,0.7131045277671184
0.0555,1.72299375,1.0,2687.9837172034627,0.46442128475164285,1.299347141423272,0.9774197734456829,0.2854187375,0.7142579366126135
0.056,1.7216,1.0,2685.763564155201,0.4674254569100241,1.2987380457394806,0.9776658389215754,0.2853602,0.7154195791701403
0.0565,1.72019375,1.0,2683.5349182346818,0.4704127743148445,1.2981233911582264,0.9779056278877036,0.28530113749999997,0.7165894248862218
0.057,1.718775,1.0,2681.299742175188,0.4733833325669604,1.2975031597868474,0.9781393405486141,0.28524155,0.7177674423368672
0.0575,1.71734375,1.0,2679.0599954947215,0.4763372272672281,1.2968773337326824,0.9783671689286259,0.2851814375,0.7189535992212166
0.058,1.7159,1.0,2676.8176344730496,0.4792745540165039,1.2962458951030698,0.9785892972696236,0.2851208,0.720147862355169
0.0585,1.71444375,1.0,2674.5746121351617,0.48219540841564396,1.2956088260053475,0.9788059024064203,0.2850596375,0.7213501976649879
0.059000000000000004,1.7129750000000001,1.0,2672.3294086085293,0.4850998516553082,1.2949661404200616,0.9790171529801247,0.28499795,0.7225605102222337
0.059500000000000004,1.71149375,1.0,2670.08764818365,0.48798801681732035,1.2943177866950155,0.9792232134049816,0.2849357375,0.7237788279175617
0.06,1.71,1.0,2667.85029449201,0.4908599954068028,1.2936637559415916,0.9794242404854593,0.284873,0.7250050970863436
0.0605,1.7084937500000001,1.0,2665.6178237367535,0.49371587424785235,1.2930040437396284,0.9796203847899733,0.2848097375,0.7262392549497001
0.061,1.7069750000000001,1.0,2663.3907113241053,0.4965557401645655,1.2923386456689652,0.9798117910839749,0.28474595,0.7274812380371022
0.0615,1.7054437500000001,1.0,2661.1694318674417,0.4993796799810388,1.2916675573094403,0.9799985985961015,0.2846816375,0.7287309821847716
0.062,1.7039,1.0,2658.954459191688,0.502187780521369,1.2909907742408928,0.9801809412701621,0.2846168,0.7299884225340745
0.0625,1.70234375,1.0,2656.746266337309,0.5049801286096528,1.290308292043161,0.9803589480038087,0.2845514375,0.7312534935299195
0.063,1.7007750000000001,1.0,2654.545325565999,0.5077568110699865,1.2896201062960841,0.9805327428746969,0.28448555,0.7325261289191484
0.0635,1.69919375,1.0,2652.35210836596,0.510517914726467,1.2889262125795007,0.9807024453548719,0.28441913750000003,0.7338062617489323
0.064,1.6976,1.0,2650.1670854577405,0.5132635264031908,1.2882266064732493,0.9808681705140821,0.2843522,0.7350938243651617
0.0645,1.69599375,1.0,2647.9907268007423,0.5159937329242545,1.2875212835571692,0.9810300292126638,0.2842847375,0.7363887484108351
0.065,1.694375,1.0,2645.8235016001177,0.5187086211137548,1.2868102394110985,0.9811881282846062,0.28421675,0.7376909648244527
0.0655,1.69274375,1.0,2643.6658783136863,0.5214082777957882,1.2860934696148765,0.9813425707113632,0.2841482375,0.7390004038383985
0.066,1.6911,1.0,2641.5183246598017,0.5240927897944515,1.2853709697483418,0.9814934557869421,0.2840792,0.740316994977331
0.0665,1.6894437500000001,1.0,2639.381307625776,0.5267622439338412,1.284642735391333,0.9816408792747677,0.2840096375,0.7416406670565676
0.067,1.687775,1.0,2637.2552934755813,0.5294167270380539,1.2839087621236889,0.9817849335567838,0.28393955,0.7429713481804676
0.0675,1.68609375,1.0,2635.140464103374,0.532056325408976,1.2831690481493345,0.9819257078667893,0.2838689375,0.7443089610019129
0.068,1.6844000000000001,1.0,2633.0377744510247,0.5346811194729717,1.282423584515597,0.982063287604418,0.2837978,0.7456534403997497
0.0685,1.68269375,1.0,2630.947334857306,0.5372911906480576,1.2816723700757264,0.9821977556539337,0.2837261375,0.747004706428326
0.069,1.680975,1.0,2628.867808273052,0.5398866211908162,1.2809154170874848,0.9823291927424052,0.28365395,0.7483626544724632
0.0695,1.67924375,1.0,2626.7970261615624,0.5424674931987447,1.2801527455328567,0.9824576772019998,0.28358123749999997,0.7497271657219465
0.07,1.6775,1.0,2624.7362795828817,0.5450338883236221,1.2793843433578669,0.982583283202837,0.283508,0.751098178209482
0.07050000000000001,1.67574375,1.0,2622.695158674125,0.547585888934107,1.2786101215338184,0.9827060789042696,0.2834342375,0.7524757658766293
0.07100000000000001,1.673975,1.0,2620.6678131054528,0.550123574885954,1.2778301341271887,0.9828261365717395,0.28335995,0.7538597467183301
0.07150000000000001,1.67219375,1.0,2618.6484016946524,0.5526470260349174,1.277044435204455,0.9829435260928586,0.2832851375,0.7552499391653206
0.07200000000000001,1.6704001792846137,1.0,2616.639813843926,0.5551563222367522,1.276253078832094,0.9830583150718727,0.2832098075299538,0.7566461621039184
0.0725,1.6686022963853064,1.0,2615.026619438438,0.5576515431566964,1.2754561102418533,0.9831705685102526,0.2831342964481829,0.7580482504159054
0.073,1.666804413485999,1.0,2613.983082020234,0.560132767819057,1.2746538548420616,0.9832803618309577,0.28305878536641194,0.7594555485344252
0.0735,1.6650065305866915,1.0,2613.448253787538,0.5626000756485855,1.2738468756226726,0.9833877787603444,0.28298327428464104,0.7608669920653715
0.074,1.663208647687384,1.0,2613.3852488319867,0.5650535438616757,1.273035513778863,0.9834928906192206,0.28290776320287014,0.7622819139525266
0.0745,1.6614107647880765,1.0,2613.757317662314,0.5674932496747217,1.2722201105058084,0.9835957666043695,0.2828322521210992,0.7636996538144307
0.075,1.6596128818887692,1.0,2614.5278153410577,0.569919270304117,1.2714010069986854,0.9836964738747069,0.2827567410393283,0.7651195580360316
