Time [s],Phi [rad],STIM [ ],Fsee [N],Gamma [ ],Lcerel [ ],q [ ],Lmtc [m],fisomrel [ ]
0.0,1.8,1.0,17.96701841253454,1.0142393829968918e-05,1.3793397618769905,0.00500002741312846,0.288653,0.5411394931731766
0.0005,1.79999375,1.0,18.276411212417074,0.005619294811816076,1.3793024247721204,0.012940910116449687,0.2886527375,0.5412298168430802
0.001,1.799975,1.0,21.618144116551317,0.011196984319658765,1.3789383263648938,0.035609321235349656,0.28865195,0.5421101556497872
0.0015,1.79994375,1.0,31.06913307850858,0.016743387400268404,1.3780462124979043,0.07060272538378427,0.2886506375,0.5442635880611908
0.002,1.7999,1.0,53.58246389143876,0.022258679544904104,1.3763681267531034,0.11471904519557567,0.2886488,0.5483004884067599
0.0025,1.79984375,1.0,97.11921705424479,0.027743035260737913,1.3739351537955777,0.16457598842991664,0.28864643749999996,0.5541214947572628
0.003,1.7997750000000001,1.0,160.95875439214416,0.0331966280785713,1.3712143217629398,0.2172815829197823,0.28864354999999997,0.560586502927553
0.0035,1.79969375,1.0,237.68411859687006,0.038619630552426926,1.3685847099898323,0.27061401009062974,0.2886401375,0.5667898965615792
0.004,1.7996,1.0,321.4677077705278,0.04401221427033087,1.3661560675936866,0.32291688683566283,0.2886362,0.5724800196566571
0.0045000000000000005,1.7994937500000001,1.0,409.26881312237407,0.04937454985949704,1.3639227892295873,0.3730355373500589,0.2886317375,0.577679220278563
0.005,1.799375,1.0,499.41465293386835,0.05470680697741854,1.3618583179356432,0.4202484242935565,0.28862675,0.5824571356530198
0.0055,1.79924375,1.0,590.791631948613,0.060009154359323594,1.3599388113035535,0.4641745907294079,0.2886212375,0.5868751661906406
0.006,1.7991000000000001,1.0,682.519371070678,0.06528175976135352,1.3581463917941088,0.5046807828795007,0.2886152,0.5909794708063161
0.006500000000000001,1.79894375,1.0,773.8827963031442,0.07052479001591337,1.356467227355073,0.5418015089799452,0.2886086375,0.5948058540235543
0.007,1.798775,1.0,864.2869015138848,0.07573841101629578,1.3548903773843708,0.5756774689913087,0.28860155,0.5983827169642184
0.0075,1.79859375,1.0,953.2438853154074,0.08092278772504949,1.353406768887319,0.6065105468722587,0.2885939375,0.6017335959968912
0.008,1.7984,1.0,1040.355714040086,0.08607808412459309,1.352008686693723,0.6345326632511533,0.2885858,0.6048784582020418
0.0085,1.79819375,1.0,1125.3205983260875,0.09120446353497587,1.350689151311345,0.6599849140566096,0.2885771375,0.6078352013792365
0.009000000000000001,1.797975,1.0,1207.884717836916,0.09630208788468457,1.349442246331275,0.6831047943735139,0.28856795,0.6106189938742109
0.0095,1.79774375,1.0,1287.8724766727667,0.10137111851747871,1.348262384872482,0.7041180582379182,0.2885582375,0.6132439773052655
0.01,1.7975,1.0,1365.1650776785236,0.10641171618433927,1.3471444106194908,0.7232346427926964,0.288548,0.6157230809172398
0.0105,1.79724375,1.0,1439.6613904403935,0.11142403987393806,1.3460839227170367,0.7406470153875242,0.2885372375,0.6180673419540439
0.011,1.796975,1.0,1511.3095341405024,0.1164082480326557,1.3450767085356028,0.7565295359871176,0.28852595000000003,0.620287197787738
0.0115,1.79669375,1.0,1580.1133518494164,0.12136449930898467,1.3441185745766315,0.7710389577153988,0.2885141375,0.6223928782887349
0.012,1.7964,1.0,1646.0677385017514,0.1262929501223241,1.3432060393915701,0.7843158168189736,0.28850180000000003,0.6243929034603062
0.0125,1.79609375,1.0,1709.1804579656584,0.1311937558015892,1.3423359603224856,0.7964855540902527,0.2884889375,0.6262949307081683
0.013000000000000001,1.7957750000000001,1.0,1769.4953059268782,0.13606707163424278,1.3415051997385745,0.8076597814116361,0.28847555,0.6281065004831515
0.0135,1.79544375,1.0,1827.0750438167277,0.1409130519030493,1.3407107782192524,0.8179377554455058,0.2884616375,0.6298347117513756
0.014,1.7951000000000001,1.0,1881.9881230533517,0.14573185089002702,1.3399499751985477,0.827407751688996,0.2884472,0.631486015186565
0.0145,1.79474375,1.0,1934.2875470822512,0.1505236199901541,1.3392205106813113,0.8361483518648434,0.2884322375,0.6330658326948673
0.015,1.794375,1.0,1984.0472994340194,0.15528851059840887,1.3385201046723945,0.8442294036965674,0.28841675,0.634579524019742
0.0155,1.79399375,1.0,2031.3492860283734,0.16002667322651207,1.3378465956671342,0.8517130814484679,0.2884007375,0.6360321358294897
0.016,1.7936,1.0,2076.2904293398233,0.16473825925312252,1.3371978425859625,0.8586547610940783,0.2883842,0.6374286191178968
0.0165,1.7931937500000001,1.0,2118.9557421511877,0.16942341816797835,1.3365719859658594,0.865103901451095,0.2883671375,0.6387732725223131
0.017,1.792775,1.0,2159.411918057826,0.17408229681997753,1.3359674859602537,0.8711047504022177,0.28834955,0.6400696695712587
0.0175,1.7923437500000001,1.0,2197.7363624771074,0.1787150420580179,1.3353828027225743,0.8766968680052752,0.2883314375,0.6413213508863229
0.018000000000000002,1.7919,1.0,2234.016297074386,0.18332180073099733,1.3348163964062503,0.8819156778110119,0.2883128,0.642531826203867
0.0185,1.79144375,1.0,2268.3387397067713,0.18790271864170713,1.3342668186678994,0.8867929729274233,0.2882936375,0.6437043811787042
0.019,1.790975,1.0,2300.7959292509154,0.19245794221618182,1.3337326478946314,0.8913573204755724,0.28827395,0.6448422185243559
0.0195,1.79049375,1.0,2331.46597267223,0.1969876156278517,1.3332126717874528,0.8956344732142822,0.2882537375,0.6459480719396277
0.02,1.79,1.0,2360.41535593516,0.20149188088578732,1.3327058501053093,0.899647677827954,0.288233,0.647024289877881
0.0205,1.78949375,1.0,2387.7156234480967,0.20597087999905914,1.332211142607147,0.9034179168962951,0.2882117375,0.6480732038509369
0.021,1.788975,1.0,2413.4429564718375,0.21042475497673765,1.3317275090519118,0.9069641602143621,0.28818995000000003,0.6490971292672633
0.021500000000000002,1.78844375,1.0,2437.6695971873123,0.214853646353052,1.3312539878604228,0.9103036012537308,0.2881676375,0.6500982000209403
0.022,1.7879,1.0,2460.474027033077,0.21925769632818326,1.3307895932671674,0.9134518297426278,0.2881448,0.6510785873282589
0.0225,1.78734375,1.0,2481.9226016212683,0.2236370445810949,1.330333487799089,0.91642303503013,0.28812143749999997,0.6520401366023247
0.023,1.786775,1.0,2502.0706362524256,0.22799182809984808,1.3298849660114584,0.9192301494217151,0.28809755,0.6529844043355195
0.0235,1.78619375,1.0,2520.975851859018,0.232322183872504,1.3294433224595459,0.921884954832757,0.28807313749999996,0.6539129377768358
0.024,1.7856,1.0,2538.6981736136277,0.2366282488871238,1.3290078516986217,0.9243982010112258,0.2880482,0.6548272752571995
0.0245,1.78499375,1.0,2555.299540569585,0.2409101601317687,1.3285778482839563,0.926779710187277,0.2880227375,0.6557289464830529
0.025,1.784375,1.0,2570.832090050781,0.24516805131769528,1.3281527157552337,0.9290384869958853,0.28799675,0.6566192447144923
0.025500000000000002,1.78374375,1.0,2585.361300474392,0.2494020618900955,1.3277317473870165,0.931182766236363,0.2879702375,0.6574996867176429
0.026000000000000002,1.7831000000000001,1.0,2598.9320409097286,0.25361232467473066,1.327314442624896,0.9332201340557064,0.2879432,0.6583713509220464
0.0265,1.78244375,1.0,2611.5862050095966,0.2577989711803455,1.326900339338376,0.935157565039879,0.2879156375,0.659235230039715
0.027,1.781775,1.0,2623.3667081118397,0.26196213291568476,1.3264889753969606,0.9370014746280585,0.28788755,0.6600923116844478
0.0275,1.7810937500000001,1.0,2634.3173989631996,0.26610194138949306,1.3260798886701537,0.9387577713883258,0.2878589375,0.6609435784593756
0.028,1.7804,1.0,2644.4829761778706,0.27021852811051505,1.3256726170274589,0.9404319037709165,0.2878298,0.6617900080308868
0.0285,1.77969375,1.0,2653.9080528989844,0.27431202444210895,1.3252667062340375,0.942028903061609,0.2878001375,0.6626325568101414
0.029,1.778975,1.0,2662.634946747967,0.278382560094895,1.324861729543442,0.943553422989123,0.28776995,0.6634721195090676
0.029500000000000002,1.7782437500000001,1.0,2670.700225794869,0.28243026369859947,1.324457318601887,0.9450097775709277,0.2877392375,0.6643094655793161
0.03,1.7775,1.0,2678.1290721461487,0.2864552626182101,1.3240532142111872,0.9464019773457236,0.287708,0.6651451350746125
0.0305,1.7767464107195272,1.0,2685.0781819766053,0.2904576842187146,1.323649157173156,0.9477337413402379,0.2876763492502201,0.6659796653734242
0.031,1.7759920665755937,1.0,2692.014746160677,0.2944376542686488,1.3232449564655517,0.9490085301152074,0.28764466679617495,0.6668134506364272
0.0315,1.7752377224316604,1.0,2698.9548221827486,0.2983953015233079,1.3228408054523215,0.9502296082722096,0.28761298434212973,0.6676460916291336
0.032,1.774483378287727,1.0,2705.8880785149927,0.3023307502425999,1.32243679826035,0.9513999980022226,0.2875813018880845,0.6684773951773417
0.0325,1.7737290341437935,1.0,2712.8063053796304,0.3062441238267987,1.322033009190197,0.9525225100516059,0.28754961943403934,0.6693072097956201
0.033,1.7729746899998602,1.0,2719.701251664819,0.31013554567617824,1.321629512542422,0.9535997635459719,0.2875179369799941,0.6701353847631506
0.0335,1.7722203458559267,1.0,2726.5646253452746,0.31400513919101236,1.321226382617585,0.9546342013618678,0.2874862545259489,0.6709617701225157
0.034,1.7714660017119934,1.0,2733.388869012465,0.3178530269632075,1.3208236866769176,0.9556281030880909,0.2874545720719037,0.6717862310810938
0.0345,1.77071165756806,1.0,2740.167568558732,0.3216793316169528,1.3204214812843595,0.9565835976574046,0.2874228896178585,0.6726086553939312
0.035,1.7699573134241264,1.0,2746.895346169961,0.32548417514840666,1.3200198133479706,0.9575026749686122,0.2873912071638133,0.6734289510992668
0.035500000000000004,1.7692029692801932,1.0,2753.569348267228,0.32926767655739186,1.3196187067187422,0.9583871945561181,0.2873595247097681,0.6742470737099449
0.036000000000000004,1.7684486251362597,1.0,2760.186710525358,0.3330299548437311,1.319218185247666,0.959238898623618,0.2873278422557229,0.6750629789769985
0.0365,1.7676942809923262,1.0,2766.744558176682,0.33677112900724704,1.3188182727857334,0.9600594207887805,0.28729615980167766,0.6758766228887809
0.037,1.766939936848393,1.0,2773.2400063262535,0.3404913180477624,1.3184189931839354,0.960850294081885,0.2872644773476325,0.6766879616700539
0.0375,1.7661855927044594,1.0,2779.6747412928516,0.3441906249034792,1.3180203290310948,0.9616129508029102,0.2872327948935873,0.6774970354686041
0.038,1.7654312485605261,1.0,2786.0411211809364,0.34786919038034414,1.3176223469447834,0.9623487533149168,0.2872011124395421,0.6783037140347182
0.0385,1.7646769044165926,1.0,2792.3384680953855,0.35152713051359086,1.3172250506805008,0.9630589718197402,0.2871694299854969,0.6791079949641381
0.039,1.7639225602726591,1.0,2798.5671623359185,0.35516455746020137,1.316828434505642,0.9637448003553986,0.2871377475314517,0.6799098950532656
0.0395,1.7631682161287259,1.0,2804.7275901399967,0.35878158337715754,1.3164324926876025,0.964407363760447,0.2871060650774065,0.680709431031602
0.04,1.7624138719847924,1.0,2810.820143597108,0.3623783204214414,1.316037219493778,0.9650477224275427,0.28707438262336127,0.681506619561995
0.0405,1.7616595278408589,1.0,2816.8452205635226,0.36595488075003485,1.3156426091915632,0.9656668766819533,0.2870427001693161,0.6823014772408869
0.041,1.7609051836969256,1.0,2822.8032245772074,0.36951137651991983,1.315248656048354,0.9662657708182489,0.2870110177152709,0.6830940205985541
0.0415,1.7601508395529921,1.0,2828.6945647744697,0.3730479198880783,1.3148553543315458,0.9668452968251657,0.28697933526122565,0.6838842660993519
0.042,1.7593964954090588,1.0,2834.5196558065645,0.3765646230114922,1.3144626983085337,0.9674062978257184,0.2869476528071805,0.6846722301419519
0.0425,1.7586421512651254,1.0,2840.2789177570603,0.3800615980471434,1.3140706822467132,0.9679495712570433,0.28691597035313526,0.6854579290595795
0.043000000000000003,1.7578878071211919,1.0,2845.972776060502,0.3835389571520139,1.3136793004134797,0.9684758718121239,0.28688428789909004,0.6862413791202486
0.043500000000000004,1.7571334629772586,1.0,2851.6016614213395,0.3869968124830857,1.3132885470762288,0.9689859141634675,0.2868526054450449,0.6870225965269949
0.044,1.756379118833325,1.0,2857.166165783705,0.39043525205970453,1.3128984151159686,0.9694803717344472,0.28682092299099965,0.687801600184678
0.0445,1.7556247746893916,1.0,2862.667951765072,0.3938544041601464,1.312508887961436,0.9699598883451139,0.2867892405369544,0.688578427758631
0.045,1.7548704305454583,1.0,2868.1082900978886,0.3972543941332059,1.3121199526019542,0.9704250744889377,0.28675755808290926,0.6893531096548273
0.0455,1.7541160864015248,1.0,2873.488330841746,0.40063532476276315,1.3117315971661607,0.9708765064553977,0.28672587562886404,0.6901256738782988
0.046,1.7533617422575916,1.0,2878.809231344443,0.40399729883269825,1.311343809782692,0.9713147315901973,0.2866941931748188,0.6908961483099456
0.0465,1.752607398113658,1.0,2884.0721560908455,0.40734041912689134,1.3109565785801849,0.9717402700266567,0.28666251072077364,0.6916645607069685
0.047,1.7518530539697246,1.0,2889.278276554628,0.41066478842922255,1.3105698916872761,0.9721536162976245,0.2866308282667284,0.6924309387032959
0.0475,1.7510987098257913,1.0,2894.428771053852,0.41397050952357195,1.3101837372326026,0.9725552408372115,0.2865991458126832,0.6931953098099992
0.048,1.7503443656818578,1.0,2899.5248246091596,0.41725768519381967,1.3097981033448012,0.9729455913808426,0.28656746335863803,0.6939577014157012
0.0485,1.7495900215379243,1.0,2904.5676288048244,0.42052641822384584,1.3094129781525088,0.9733250942714031,0.2865357809045928,0.6947181407869742
0.049,1.748835677393991,1.0,2909.558381654042,0.4237768113975306,1.3090283497843618,0.9736941556785846,0.28650409845054764,0.6954766550687314
0.0495,1.7480813332500575,1.0,2914.498287465652,0.427008967498754,1.3086442063689976,0.974053162737949,0.2864724159965024,0.6962332712846034
0.05,1.7473269891061243,1.0,2919.3885567159487,0.43022298931139624,1.3082605360350525,0.9744024846156826,0.28644073354245725,0.6969880163373153
0.0505,1.7465726449621908,1.0,2924.230405921688,0.4334189796193374,1.3078773269111637,0.9747424735045114,0.286409051088412,0.6977409170090448
0.051000000000000004,1.7458183008182573,1.0,2929.0250575177743,0.4365970412064576,1.3074945671259677,0.9750734655558171,0.2863773686343668,0.6984919999617786
0.051500000000000004,1.745063956674324,1.0,2933.773739737192,0.4397572768566369,1.3071122448081014,0.9753957817525635,0.28634568618032163,0.6992412917376556
0.052000000000000005,1.7443096125303905,1.0,2938.4776864940627,0.4428997893537555,1.3067303480862018,0.975709728727291,0.2863140037262764,0.6999888187593032
0.0525,1.743555268386457,1.0,2943.136109963622,0.4460246319920758,1.3063488828349528,0.9760155954647268,0.2862823212722312,0.7007345726587257
0.053,1.7428009242425238,1.0,2947.751463855475,0.44913193231085796,1.305967826568595,0.9763136642880245,0.286250638818186,0.7014786004620223
0.0535,1.7420465800985903,1.0,2952.3266596142334,0.4522218328963058,1.305587152881295,0.976604206431042,0.2862189563641408,0.7022209566132144
0.054,1.741292235954657,1.0,2956.8624604515553,0.45529442537930787,1.3052068542188164,0.9768874774149825,0.2861872739100956,0.7029616586028512
0.0545,1.7405378918107235,1.0,2961.3596331820445,0.4583498013907529,1.304826923026923,0.9771637218767207,0.2861555914560504,0.7037007238454669
0.055,1.73978354766679,1.0,2965.8189481607933,0.4613880525615293,1.3044473517513784,0.9774331741236153,0.2861239090020052,0.7044381696797593
0.0555,1.7390292035228567,1.0,2970.2411792231906,0.4644092705225259,1.3040681328379469,0.9776960586555773,0.28609222654795996,0.705174013368765
0.056,1.7382748593789232,1.0,2974.627103624756,0.4674135469046312,1.3036892587323918,0.9779525906565747,0.2860605440939148,0.7059082721000332
0.0565,1.7375205152349897,1.0,2978.9775019827916,0.4704009733387339,1.3033107218804776,0.9782029764576127,0.28602886163986957,0.7066409629857895
0.057,1.7367661710910565,1.0,2983.293158219537,0.4733716414557224,1.3029325147279676,0.9784474139730492,0.28599717918582435,0.707372103063105
0.0575,1.736011826947123,1.0,2987.5748595061445,0.47632564288648555,1.3025546297206256,0.9786860931120017,0.2859654967317792,0.7081017092940534
0.058,1.7352574828031897,1.0,2991.8233962078493,0.4792630692619118,1.302177059304216,0.9789191961664417,0.28593381427773396,0.7088297985658687
0.0585,1.7345031386592562,1.0,2996.0395618311286,0.4821840122128898,1.301799795924502,0.9791468981774857,0.28590213182368873,0.7095563876911
0.059000000000000004,1.7337487945153227,1.0,3000.2241529714374,0.4850885633703082,1.3014228320272478,0.979369367281264,0.28587044936964356,0.7102814934077599
0.059500000000000004,1.7329944503713894,1.0,3004.3779692620365,0.4879768143650556,1.3010461600582173,0.9795867650356607,0.28583876691559834,0.7110051323794714
0.06,1.732240106227456,1.0,3008.501813325258,0.49084885682802054,1.300669772463174,0.9797992467291251,0.2858070844615531,0.7117273211956097
0.0605,1.7314857620835227,1.0,3012.596490723554,0.49370478239009175,1.3002936616878817,0.9800069616726684,0.28577540200750795,0.7124480763714414
0.061,1.7307314179395892,1.0,3016.6628099126706,0.49654468268215773,1.2999178201781048,0.980210053476086,0.2857437195534627,0.713167414348259
0.0615,1.7299770737956557,1.0,3020.7015821960927,0.4993686493351071,1.2995422403796066,0.9804086603093698,0.2857120370994175,0.713885351493514
0.062,1.7292227296517224,1.0,3024.7136216806075,0.5021767739798286,1.2991669147381513,0.9806029151502137,0.28568035464537234,0.714601904100943
0.0625,1.728468385507789,1.0,3028.6997452326573,0.5049691482472107,1.2987918356995023,0.9807929460184504,0.2856486721913271,0.7153170883906941
0.063,1.7277140413638554,1.0,3032.6607724370247,0.507745863768142,1.2984169957094238,0.980978876198204,0.28561698973728195,0.7160309205094444
0.0635,1.7269596972199222,1.0,3036.597525555575,0.5105070121735112,1.2980423872136795,0.9811608244484855,0.2855853072832367,0.7167434165305202
0.064,1.7262053530759887,1.0,3040.508970996832,0.5132526207623039,1.2976680186637364,0.9813389014179389,0.28555362482919155,0.717454562068895
0.0645,1.7254510089320552,1.0,3044.397242255991,0.5159828401877129,1.2972938712343662,0.9815132211658305,0.28552194237514633,0.7181643945359824
0.065,1.724696664788122,1.0,3048.2632262824845,0.5186977700216399,1.2969199368732167,0.9816838905632915,0.2854902599211011,0.718872930762771
0.0655,1.7239423206441884,1.0,3052.1073010418454,0.5213974908929859,1.2965462119261522,0.9818510115868279,0.28545857746705594,0.7195801791844696
0.066,1.7231879765002551,1.0,3055.929845865645,0.524082083430652,1.2961726927390371,0.9820146826259837,0.2854268950130107,0.7202861482005992
0.0665,1.7224336323563216,1.0,3059.731241435091,0.5267516282635389,1.2957993756577364,0.9821749986351629,0.2853952125589655,0.7209908461750425
0.067,1.7216792882123881,1.0,3063.511869764332,0.5294062060205478,1.2954262570281143,0.9823320512779868,0.2853635301049203,0.7216942814360923
0.0675,1.7209249440684549,1.0,3067.2721141840248,0.5320458973305796,1.2950533331960359,0.9824859290646057,0.2853318476508751,0.7223964622764956
0.068,1.7201705999245214,1.0,3071.0123593258863,0.5346707828225352,1.2946806005073654,0.9826367174823523,0.2853001651968299,0.7230973969535028
0.0685,1.7194162557805879,1.0,3074.732991106718,0.5372809431253157,1.2943080553079678,0.9827844991201088,0.2852684827427847,0.72379709368891
0.069,1.7186619116366546,1.0,3078.434396712922,0.5398764588678219,1.2939356939437072,0.9829293537867273,0.2852368002887395,0.7244955606691048
0.0695,1.717907567492721,1.0,3082.1169645858827,0.5424574106789549,1.2935635127604486,0.9830713586238278,0.28520511783469427,0.7251928060451083
0.07,1.7171532233487876,1.0,3085.781084407113,0.5450238791876155,1.2931915081040564,0.9832105882132773,0.2851734353806491,0.7258888379326183
0.07050000000000001,1.7163988792048543,1.0,3089.4271470833537,0.5475759450227049,1.2928196763203952,0.9833471146796371,0.2851417529266039,0.7265836644120505
0.07100000000000001,1.7156445350609209,1.0,3093.0555447329734,0.5501136888131238,1.2924480137553298,0.9834810077878412,0.28511007047255865,0.7272772935285792
