Time [s],Phi [rad],STIM [ ],Fsee [N],Gamma [ ],Lcerel [ ],q [ ],Lmtc [m],fisomrel [ ]
0.0,1.8,1.0,18.14695882232764,0.00043023336739191433,1.379319652678131,0.005047884978219999,0.288653,0.5411881412376978
0.0005,1.79999375,1.0,18.589462406341973,0.0060370294072828274,1.3792677982088053,0.014148243262798038,0.2886527375,0.5413135753885362
0.001,1.799975,1.0,22.242899566184118,0.011612375754369336,1.3788749709173223,0.03783196040128671,0.28865195,0.5422632538660658
0.0015,1.79994375,1.0,32.3763361956314,0.017156448817499705,1.3779359905219177,0.07362319686063479,0.2886506375,0.5445292954981407
0.002,1.7999,1.0,56.24558190559235,0.022669424013910297,1.37619745247047,0.1182820755438241,0.2886488,0.5487100661821698
0.0025,1.79984375,1.0,101.46646300533679,0.028151475778600034,1.373727963865817,0.16844328505873396,0.28864643749999996,0.5546154624512454
0.003,1.7997750000000001,1.0,166.53568869661717,0.03360277756749508,1.3710073497225024,0.22126542311975972,0.28864354999999997,0.5610763598593266
0.0035,1.79969375,1.0,243.93700911033233,0.03902350186432178,1.3683933550904563,0.27457235579757455,0.2886401375,0.5672395915982045
0.004,1.7996,1.0,328.0939780533857,0.044413820183601994,1.3659814584542807,0.32674675142393156,0.2886362,0.5728876660321354
0.0045000000000000005,1.7994937500000001,1.0,416.1131162708102,0.04977390307727601,1.3637627936928096,0.3766690688460664,0.2886317375,0.5780504780765384
0.005,1.799375,1.0,506.3856408829877,0.055103920141995895,1.361710698535392,0.42364649955732764,0.28862675,0.5827977377711697
0.0055,1.79924375,1.0,597.8189572785565,0.060404040042422794,1.3598019204171643,0.4673197325675999,0.2886212375,0.587189343316711
0.006,1.7991000000000001,1.0,689.5431773058249,0.06567443043946637,1.3580190446043037,0.5075706230221377,0.2886152,0.5912702924126965
0.006500000000000001,1.79894375,1.0,780.8590430142675,0.07091525811553108,1.3563484055469683,0.5444434500241183,0.2886086375,0.5950759370667519
0.007,1.798775,1.0,871.1795994115638,0.07612668892458174,1.3547792593990082,0.5780848606828546,0.28860155,0.5986341744269492
0.0075,1.79859375,1.0,960.0091224415085,0.08130888757093843,1.3533028965567824,0.608700061239173,0.2885939375,0.6019676762901389
0.008,1.7984,1.0,1046.9854533538912,0.08646201844944401,1.3519112320234934,0.6365219968490996,0.2885858,0.6050972091062086
0.0085,1.79819375,1.0,1131.7850594955069,0.09158624423438144,1.3505977696167133,0.6617921116947286,0.2885771375,0.6080395533794198
0.009000000000000001,1.797975,1.0,1214.166715656747,0.0966817269619806,1.349356521065202,0.684747178497238,0.28856795,0.6108100165472545
0.0095,1.79774375,1.0,1293.9686512483702,0.1017486282987834,1.3481818107996888,0.7056118147134873,0.2885582375,0.6134229165441636
0.01,1.7975,1.0,1371.0568225829768,0.10678710839340766,1.3470687672431774,0.7245948173298984,0.288548,0.6158905319014706
0.0105,1.79724375,1.0,1445.3438799217731,0.1117973263650945,1.3460128720889293,0.7418872280318001,0.2885372375,0.6182241465203133
0.011,1.796975,1.0,1516.7834648233797,0.1167794406140041,1.3450099022628508,0.7576620602541657,0.28852595000000003,0.6204342070809252
0.0115,1.79669375,1.0,1585.3850509660851,0.12173361000818464,1.3440556482917736,0.7720747878043772,0.2885141375,0.6225309658116307
0.012,1.7964,1.0,1651.1325085247333,0.12665999037193587,1.343146802866753,0.785264842667245,0.28850180000000003,0.6245225500074163
0.0125,1.79609375,1.0,1714.0404385768472,0.13155873715186622,1.3422801750498798,0.7973565616841368,0.2884889375,0.6264167148208661
0.013000000000000001,1.7957750000000001,1.0,1774.1571428065529,0.13643000558470733,1.3414526060073504,0.8084605738117102,0.28847555,0.6282210390650165
0.0135,1.79544375,1.0,1831.5471862621396,0.14127395028197248,1.3406611236406347,0.8186752692206296,0.2884616375,0.6299425983415184
0.014,1.7951000000000001,1.0,1886.2736892859718,0.14609072492747316,1.3399030895289312,0.8280881785145934,0.2884472,0.6315876585736204
0.0145,1.79474375,1.0,1938.3910144754184,0.15088048096342652,1.3391762265940403,0.8367771949398253,0.2884322375,0.633161630463738
0.015,1.794375,1.0,1987.9743529322336,0.15564336983204966,1.3384782577577627,0.8448115578445831,0.28841675,0.6346698629632319
0.0155,1.79399375,1.0,2035.1054152889951,0.16037954202069157,1.33780703760738,0.8522529088159861,0.2884007375,0.6361173639761675
0.016,1.7936,1.0,2079.8827783297215,0.1650891490530909,1.3371604199721228,0.8591561475694,0.2883842,0.6375090918501971
0.0165,1.7931937500000001,1.0,2122.3837654703643,0.16977233964057792,1.336536635539192,0.8655703406562296,0.2883671375,0.6388491484054879
0.017,1.792775,1.0,2162.6786547967286,0.17442926082844576,1.335934114930217,0.8715393553642927,0.28834955,0.64014116845042
0.0175,1.7923437500000001,1.0,2200.848487279825,0.17906005966198754,1.3353512887668266,0.8771024162257195,0.2883314375,0.6413887535791725
0.018000000000000002,1.7919,1.0,2236.9841577686293,0.18366488318649637,1.3347865876706502,0.8822946507760419,0.2883128,0.6425954742214353
0.0185,1.79144375,1.0,2271.1656382086767,0.18824387656607205,1.3342386407828573,0.8871476178440848,0.2882936375,0.6437644483661611
0.019,1.790975,1.0,2303.49274271386,0.1927971871803896,1.3337059564530755,0.8916896410869296,0.28827395,0.6448990262364096
0.0195,1.79049375,1.0,2334.0326509383344,0.1973249576980512,1.3331874355391033,0.8959463002129826,0.2882537375,0.6460016989760072
0.02,1.79,1.0,2362.854907816448,0.20182733041449188,1.3326820109396968,0.8999406563731839,0.288233,0.647074871164284
0.0205,1.78949375,1.0,2390.0341586981895,0.20630444762514674,1.332188615553613,0.903693527408379,0.2882117375,0.6481209301548916
0.021,1.788975,1.0,2415.6497185638273,0.21075645162545087,1.3317061822796077,0.9072237366318372,0.28818995000000003,0.6491422469307644
0.021500000000000002,1.78844375,1.0,2439.7680538216323,0.21518348226815945,1.3312338085406974,0.9105483646754385,0.2881676375,0.6501408293355377
0.022,1.7879,1.0,2462.4765034307584,0.21958568302338247,1.330770426138644,0.9136828724957508,0.2881448,0.6511190216583543
0.0225,1.78734375,1.0,2483.831265299909,0.22396319158748204,1.3303152975268746,0.9166413688790284,0.28812143749999997,0.65207845733333
0.023,1.786775,1.0,2503.8888642227735,0.22831614527477598,1.329867707352315,0.9194366938722633,0.28809755,0.653020713157294
0.0235,1.78619375,1.0,2522.7082340774828,0.2326446813995821,1.3294269402618923,0.9220805466752501,0.28807313749999996,0.6539473565997692
0.024,1.7856,1.0,2540.350514402315,0.2369489372762182,1.328992280902532,0.9245836027646154,0.2880482,0.6548599461305786
0.0245,1.78499375,1.0,2556.872115567859,0.2412290488293722,1.3285630772453343,0.9269556280847171,0.2880227375,0.6557598988235858
0.025,1.784375,1.0,2572.3331223976015,0.24548515282237438,1.328138659255324,0.9292055566724271,0.28799675,0.6566486616776736
0.025500000000000002,1.78374375,1.0,2586.794960739112,0.24971738580730402,1.327718359476222,0.9313415756614849,0.2879702375,0.6575276685657325
0.026000000000000002,1.7831000000000001,1.0,2600.2992123591,0.2539258797739899,1.3273017088903294,0.933371227857253,0.2879432,0.6583979316245857
0.0265,1.78244375,1.0,2612.8885772158196,0.25811076671226085,1.3268882384799463,0.9353014430874035,0.2879156375,0.6592604577279266
0.027,1.781775,1.0,2624.6067792478498,0.26227217861194574,1.3264774792273737,0.9371385962334601,0.28788755,0.660116248588456
0.0275,1.7810937500000001,1.0,2635.4984770391507,0.26641024746287334,1.326068962114912,0.9388885590622237,0.2878589375,0.6609663008459952
0.028,1.7804,1.0,2645.6091793618352,0.2705251052548724,1.3256622181248618,0.9405567465864287,0.2878298,0.6618116061415654
0.0285,1.77969375,1.0,2654.978352251743,0.27461687952767516,1.3252568410333505,0.9421481658570687,0.2878001375,0.6626530209215745
0.029,1.778975,1.0,2663.6558647413585,0.27868570589357083,1.3248523348892531,0.9436674358254922,0.28776995,0.6634915832812518
0.029500000000000002,1.7782437500000001,1.0,2671.672037550384,0.2827317108173632,1.3244483893011034,0.9451188531585647,0.2877392375,0.6643279422191315
0.03,1.7775,1.0,2679.0575296341467,0.2867550206921732,1.324044695066119,0.9465063985145612,0.287708,0.665162741069853
0.0305,1.77674375,1.0,2685.843425448812,0.29075576191112207,1.3236409429815177,0.9478337636698304,0.2876762375,0.6659966199809758
0.031,1.775975,1.0,2692.0611955877484,0.29473406086733084,1.3232368238445174,0.9491043761166185,0.28764395,0.6668302159148867
0.0315,1.7751937500000001,1.0,2697.7426595374236,0.29869004395392057,1.3228320284523356,0.9503214212776369,0.2876111375,0.6676641626446121
0.032,1.7744,1.0,2702.9192644049213,0.3026238369825777,1.3224262538696125,0.9514878631817154,0.2875778,0.6684990778558935
0.0325,1.77359375,1.0,2707.61217266594,0.30653555658991727,1.3220192935619477,0.952606470832184,0.2875439375,0.6693353781054342
0.033,1.772775,1.0,2711.866200426553,0.31042534262594906,1.3216107272540514,0.95367980689395,0.28750955,0.6701739161834189
0.0335,1.7719437500000002,1.0,2715.7003576790726,0.3142933147052876,1.3212003722122851,0.9547102839141166,0.2874746375,0.671015053860617
0.034,1.7711000000000001,1.0,2719.133813177755,0.31813959244254725,1.3207880457030106,0.9557001547582921,0.2874392,0.6718591509376378
0.0345,1.7702437500000001,1.0,2722.1858791850937,0.3219642954523425,1.320373564992589,0.9566515250621733,0.2874032375,0.6727065652230211
0.035,1.7693750000000001,1.0,2724.8759969577945,0.3257675433492878,1.319956747347382,0.9575663645733008,0.28736675,0.6735576525091949
0.035500000000000004,1.76849375,1.0,2727.223722973587,0.3295494557479976,1.3195374100337514,0.9584465174934867,0.2873297375,0.6744127665463082
0.036000000000000004,1.7676,1.0,2729.2487158981817,0.3333101522630864,1.319115370318058,0.95929371192036,0.2872922,0.6752722590139308
0.0365,1.76669375,1.0,2730.970724292337,0.3370497525091686,1.318690445466664,0.9601095684758011,0.2872541375,0.6761364794906228
0.037,1.765775,1.0,2732.4095750597917,0.34076837610085864,1.3182624527459303,0.9608956081996454,0.28721555,0.677005775421379
0.0375,1.76484375,1.0,2733.585162635119,0.344466142652771,1.317831209422219,0.9616532597787121,0.2871764375,0.6778804920829384
0.038,1.7639,1.0,2734.510370837037,0.3481431602476656,1.3173965969490944,0.9623838699452049,0.28713679999999997,0.6787608426184124
0.0385,1.76294375,1.0,2735.2074571600315,0.3517995603002988,1.31695841207005,0.9630887023302791,0.28709663750000003,0.6796472098789299
0.039,1.761975,1.0,2735.687383271091,0.3554354553704145,1.3165165544679474,0.9637689522265421,0.28705595,0.6805397664149838
0.0395,1.7609937500000001,1.0,2735.9610573453697,0.3590509578643699,1.3160709245896025,0.9644257456856745,0.2870147375,0.6814386818529139
0.04,1.76,1.0,2736.039413931655,0.3626461801885223,1.315621422881831,0.9650601442290263,0.286973,0.6823441244197972
0.0405,1.7589937500000001,1.0,2735.9334099285184,0.36622123474922885,1.315167949791449,0.9656731492256232,0.2869307375,0.6832562609191795
0.041,1.757975,1.0,2735.654020780141,0.3697762339528468,1.3147104057652719,0.9662657059287719,0.28688795,0.6841752567061796
0.0415,1.75694375,1.0,2735.2122368911832,0.37331129020573345,1.314248691250116,0.966838707201182,0.2868446375,0.6851012756619558
0.042,1.7559,1.0,2734.619060262679,0.376826515914246,1.3137827066927967,0.9673929969556251,0.28680079999999997,0.6860344801675456
0.0425,1.75484375,1.0,2733.885501346678,0.38032202348474164,1.3133123525401298,0.9679293733355451,0.2867564375,0.6869750310770709
0.043000000000000003,1.753775,1.0,2733.0225761204338,0.3837979253235776,1.3128375292389316,0.9684485916577419,0.28671155,0.6879230876903082
0.043500000000000004,1.75269375,1.0,2732.0346767841743,0.38725430642279185,1.3123581974413,0.9689513677126672,0.28666613750000003,0.6888786877908862
0.044,1.7516,1.0,2730.9392626084127,0.3906913139181713,1.3118741991072267,0.9694383798623032,0.2866202,0.6898421043725317
0.0445,1.75049375,1.0,2729.7423042334694,0.3941090541053338,1.3113854805571068,0.9699102730825881,0.2865737375,0.6908134008234046
0.045,1.7493750000000001,1.0,2728.4492268723357,0.3975076310652459,1.3108919930767282,0.9703676592336404,0.28652675,0.6917926295943226
0.0455,1.74824375,1.0,2727.0654559612553,0.4008871488788741,1.3103936879518783,0.9708111190320672,0.2864792375,0.6927798420906633
0.046,1.7471,1.0,2725.596416239544,0.4042477116271851,1.3098905164683445,0.9712412039330405,0.2864312,0.6937750886574703
0.0465,1.7459437500000001,1.0,2724.047530882224,0.40758942339114523,1.3093824299119146,0.971658437881207,0.28638263750000004,0.694778418564411
0.047,1.744775,1.0,2722.424220684776,0.41091238825172116,1.3088693795683757,0.9720633189407355,0.28633355,0.6957898799905826
0.0475,1.74359375,1.0,2720.731903301591,0.41421671028987944,1.308351316723516,0.972456320813915,0.28628393750000003,0.6968095200091645
0.048,1.7424,1.0,2718.97599253556,0.4175024935865866,1.3078281926631223,0.972837894256891,0.2862338,0.6978373845719249
0.0485,1.74119375,1.0,2717.161897681854,0.42076984222280917,1.3072999586729825,0.9732084684004074,0.2861831375,0.698873518493569
0.049,1.739975,1.0,2715.2950229228077,0.4240188602795137,1.3067665660388843,0.9735684519827421,0.28613195,0.6999179654359402
0.0495,1.73874375,1.0,2713.3807667766328,0.4272496518376667,1.306227966046615,0.9739182345014279,0.2860802375,0.7009707678920702
0.05,1.7375,1.0,2711.4245215980577,0.43046232097823484,1.3056841099819623,0.9742581872897996,0.286028,0.7020319671700752
0.0505,1.73624375,1.0,2709.431673131809,0.43365697178218454,1.3051349491307134,0.9745886645239039,0.2859752375,0.7031016033769035
0.051000000000000004,1.734975,1.0,2707.403445363945,0.4368336866404779,1.3045804726975896,0.9749100042253838,0.28592195,0.7041796417452579
0.051500000000000004,1.73369375,1.0,2705.342430468373,0.4399925762728499,1.304020657386164,0.975222531443712,0.2858681375,0.7052660710538416
0.052000000000000005,1.7324,1.0,2703.2550603574427,0.4431337645030757,1.303455444799704,0.9755265557513697,0.2858138,0.7063609471346104
0.0525,1.73109375,1.0,2701.1433613114546,0.4462573460027994,1.3028848167108333,0.9758223723286524,0.28575893750000003,0.7074642468305004
0.053,1.729775,1.0,2699.009356862073,0.4493634154436656,1.3023087548921752,0.9761102633477236,0.28570355000000003,0.7085759461592561
0.0535,1.72844375,1.0,2696.8550677035923,0.45245206749731837,1.3017272411163536,0.976390498654735,0.2856476375,0.7096960203071232
0.054,1.7271,1.0,2694.682511611201,0.455523396835402,1.3011402571559918,0.9766633364105587,0.2855912,0.7108244436225228
0.0545,1.7257437500000001,1.0,2692.493703366298,0.4585774981295608,1.3005477847837135,0.9769290236929691,0.2855342375,0.7119611896097023
0.055,1.724375,1.0,2690.29065468959,0.461614466051439,1.2999498057721421,0.977187797062898,0.28547675,0.7131062309223668
0.0555,1.72299375,1.0,2688.0753741817216,0.4646343952726809,1.299346301893901,0.9774398830971892,0.2854187375,0.7142595393572877
0.056,1.7216,1.0,2685.849867270359,0.46763738046493075,1.2987372549216143,0.9776854988900932,0.2853602,0.7154210858478904
0.0565,1.72019375,1.0,2683.6161361658437,0.47062351629983284,1.298122646627905,0.9779248525255804,0.28530113749999997,0.716590840457823
0.057,1.718775,1.0,2681.3761798234677,0.47359289744903144,1.2975024587853967,0.9781581435223909,0.28524155,0.7177687723745004
0.0575,1.71734375,1.0,2679.131993912945,0.47654561858417077,1.2968766731667134,0.9783855632536068,0.2851814375,0.7189548499026289
0.058,1.7159,1.0,2676.8855707960684,0.4794817743768952,1.296245271544478,0.9786072953423951,0.2851208,0.7201490404577118
0.0585,1.71444375,1.0,2674.638899510919,0.48240145949884894,1.2956082356913146,0.9788235160354539,0.2850596375,0.7213513105595288
0.059000000000000004,1.7129750000000001,1.0,2672.3939657638307,0.48530476862167626,1.2949655473798465,0.9790343945555882,0.28499795,0.722561625825598
0.059500000000000004,1.71149375,1.0,2670.152751928815,0.4881917964170215,1.2943171883826972,0.9792400934347311,0.2849357375,0.7237799509646172
0.06,1.71,1.0,2667.914537260751,0.4910626009169374,1.2936631652942063,0.9794407671817731,0.284873,0.7250062032824862
0.0605,1.7084937500000001,1.0,2665.680305564439,0.4939173065958383,1.2930034690417205,0.9796365688626231,0.2848097375,0.72624032885688
0.061,1.7069750000000001,1.0,2663.4514436953277,0.4967560181757577,1.2923380868286876,0.9798276438165683,0.28474595,0.7274822799405062
0.0615,1.7054437500000001,1.0,2661.228403548883,0.49957882082579536,1.2916670144439686,0.9800141307227611,0.2846816375,0.7287319919813195
0.062,1.7039,1.0,2659.011636269582,0.502385799715051,1.2909902476764246,0.9801961630026079,0.2846168,0.7299893997360112
0.0625,1.70234375,1.0,2656.8015922543486,0.5051770400126246,1.2903077823149167,0.9803738690568896,0.2845514375,0.7312544372684788
0.063,1.7007750000000001,1.0,2654.598721158114,0.5079526268876161,1.289619614148306,0.9805473724904613,0.28448555,0.7325270379482982
0.0635,1.69919375,1.0,2652.403471898943,0.5107126455091251,1.2889257389654534,0.9807167923252774,0.28441913750000003,0.7338071344491923
0.064,1.6976,1.0,2650.2162926628343,0.5134571810462515,1.2882261525552203,0.9808822432024241,0.2843522,0.7350946587474965
0.0645,1.69599375,1.0,2648.0376309108897,0.5161863186680951,1.2875208507064675,0.9810438355738031,0.2842847375,0.736389542120629
0.065,1.694375,1.0,2645.867933384739,0.5189001435437558,1.2868098292080563,0.9812016758840716,0.28421675,0.7376917151455535
0.0655,1.69274375,1.0,2643.7076461136267,0.5215987408423335,1.2860930838488478,0.9813558667433955,0.2841482375,0.7390011076972454
0.066,1.6911,1.0,2641.5572144216867,0.524282195732928,1.285370610417703,0.981506507091546,0.2840792,0.7403176489471543
0.0665,1.6894437500000001,1.0,2639.417082935329,0.526950593384639,1.2846424047034828,0.9816536923538286,0.2840096375,0.7416412673616668
0.067,1.687775,1.0,2637.287695591079,0.5296040189665665,1.2839084624950485,0.9817975145893091,0.28393955,0.7429718907005665
0.0675,1.68609375,1.0,2635.169495644168,0.5322425576478101,1.2831687795812614,0.9819380626317638,0.2838689375,0.7443094460154942
0.068,1.6844000000000001,1.0,2633.062925677191,0.53486629459747,1.2824233517509822,0.9820754222237643,0.2837978,0.7456538596484088
0.0685,1.68269375,1.0,2630.9684276089674,0.5374753149846457,1.2816721747930722,0.9822096761442741,0.2837261375,0.7470050572300415
0.069,1.680975,1.0,2628.8864427043736,0.5400697039784373,1.2809152444963923,0.9823409043301112,0.28365395,0.7483629636783551
0.0695,1.67924375,1.0,2626.817458276725,0.5426495332913696,1.2801525562171692,0.9824691831206089,0.28358123749999997,0.7497275039699804
0.07,1.6775,1.0,2624.761223669579,0.5452148526590004,1.2793841121454694,0.9825945852235793,0.283508,0.7510985901807645
0.07050000000000001,1.67574375,1.0,2622.7170064001543,0.5477658069477694,1.2786099189434441,0.9827171870106483,0.2834342375,0.7524761258492587
0.07100000000000001,1.673975,1.0,2620.6847227407948,0.5503024718635644,1.2778299772662054,0.9828370577581103,0.28335995,0.7538600246564406
0.07150000000000001,1.67219375,1.0,2618.6642891451033,0.5528249231122726,1.2770442877688648,0.982954264448848,0.2832851375,0.7552501996640384
0.07200000000000001,1.6704,1.0,2616.655622245734,0.5553332363997816,1.2762528511065345,0.9830688718620203,0.2832098,0.7566465633147668
0.0725,1.66859375,1.0,2614.6586388531978,0.5578274874319787,1.2754556679343265,0.9831809426586589,0.2831339375,0.7580490274325703
0.073,1.6667750000000001,1.0,2612.673255954418,0.5603077519147518,1.2746527389073525,0.9832905374633877,0.28305755,0.7594575032228624
0.0735,1.66494375,1.0,2610.69939071123,0.562774105553988,1.2738440646807243,0.9833977149424632,0.2829806375,0.7608719012727656
0.074,1.6631,1.0,2608.7369604586984,0.5652266240555749,1.2730296459095543,0.983502531878323,0.2829032,0.7622921315513502
0.0745,1.6612437500000001,1.0,2606.7858827039895,0.5676653831253999,1.2722094832489539,0.9836050432408211,0.2828252375,0.7637181034098772
0.075,1.659375,1.0,2604.8460751249027,0.5700904584693506,1.2713835773540352,0.9837053022553186,0.28274675,0.7651497255820358
0.0755,1.65749375,1.0,2602.9174555682134,0.5725019257933144,1.27055192887991,0.9838033604677847,0.2826677375,0.7665869061841839
