Time [s],Phi [rad],STIM [ ],Fsee [N],Gamma [ ],Lcerel [ ],q [ ],Lmtc [m],fisomrel [ ]
0.0,1.8,1.0,18.162396870993412,0.00044969845769273284,1.3793179320559386,0.005052297199962567,0.288653,0.5411923036377755
0.0005,1.79999375,1.0,18.610815261386367,0.006056385313820669,1.3792654470321832,0.01420617085412821,0.2886527375,0.5413192623962955
0.001,1.799975,1.0,22.278750779089897,0.01163162308957687,1.3788713624677786,0.03793657324062922,0.28865195,0.542271972901177
0.0015,1.79994375,1.0,32.44482049689168,0.01717558819036825,1.3779302779053209,0.07376430997274783,0.2886506375,0.5445430645484916
0.002,1.7999,1.0,56.37825694699496,0.022688456030032434,1.3761890563914012,0.11844785295473427,0.2886488,0.5487302099851632
0.0025,1.79984375,1.0,101.67703662986669,0.028170401040128117,1.3737180417351562,0.1686227749591772,0.28864643749999996,0.5546391112297195
0.003,1.7997750000000001,1.0,166.80113825366558,0.03362159667332242,1.370997585385349,0.22145003876451863,0.28864354999999997,0.5610994631321448
0.0035,1.79969375,1.0,244.2333517745732,0.039042215409717834,1.3683843474535213,0.2747555681911816,0.2886401375,0.5672607543088115
0.004,1.7996,1.0,328.40683112169677,0.044432428760886974,1.365973258240511,0.32692386688897007,0.2886362,0.5729068056531383
0.0045000000000000005,1.7994937500000001,1.0,416.43429490133855,0.04979240727274743,1.3637553181189177,0.3768370167324542,0.2886317375,0.5780678206001435
0.005,1.799375,1.0,506.7145368123061,0.05512232055106012,1.3617037589314636,0.4238034631240127,0.28862675,0.5828137460932707
0.0055,1.79924375,1.0,598.1478027468288,0.06042233722871705,1.3597955343322834,0.4674649937589929,0.2886212375,0.5872039970489371
0.006,1.7991000000000001,1.0,689.8743855961206,0.06569262500133594,1.3580130555851464,0.5077040303094376,0.2886152,0.5912839669342693
0.006500000000000001,1.79894375,1.0,781.185776979675,0.07093335060650637,1.3563428535411013,0.5445654162506347,0.2886086375,0.5950885546243152
0.007,1.798775,1.0,871.5018395704981,0.07614467994855739,1.3547740753029758,0.578195992732951,0.28860155,0.5986459039952757
0.0075,1.79859375,1.0,960.3269132446441,0.08132677768864191,1.3532980262638195,0.6088011151351954,0.2885939375,0.6019786499939079
0.008,1.7984,1.0,1047.2955419202306,0.08647980817951888,1.3519066814026224,0.636613820696176,0.2885858,0.6051074221434734
0.0085,1.79819375,1.0,1132.08757203395,0.09160393420796975,1.350593499696479,0.6618755274755896,0.2885771375,0.6080491006714763
0.009000000000000001,1.797975,1.0,1214.4592623378912,0.0966993177329404,1.3493525343314392,0.6848229995371393,0.28856795,0.6108188990950274
0.0095,1.79774375,1.0,1294.2515752810216,0.10176612031008578,1.348178075963117,0.7056807833036327,0.2885582375,0.6134312098808097
0.01,1.7975,1.0,1371.3369281170756,0.10680450236282786,1.3470651750543272,0.7246575772130898,0.288548,0.6158984829863177
0.0105,1.79724375,1.0,1445.618557190082,0.11181462279613573,1.3460094412220165,0.7419444283333136,0.2885372375,0.618231717427385
0.011,1.796975,1.0,1517.0505216007716,0.11679664001632763,1.3450066460703314,0.7577142833688867,0.28852595000000003,0.620441371706955
0.0115,1.79669375,1.0,1585.6395175390146,0.12175071272416374,1.3440526134691444,0.772122570278472,0.2885141375,0.6225376248885572
0.012,1.7964,1.0,1651.381739728819,0.12667699727092732,1.3431438902560449,0.7853086004653368,0.28850180000000003,0.6245289240431997
0.0125,1.79609375,1.0,1714.2850205546197,0.1315756488108332,1.342277369707925,0.7973967002053771,0.2884889375,0.6264228386027563
0.013000000000000001,1.7957750000000001,1.0,1774.3931648610167,0.13644682249809623,1.3414499451016788,0.8084974744029927,0.28847555,0.6282268335142236
0.0135,1.79544375,1.0,1831.7623787722016,0.14129067252965383,1.340658735869392,0.8187093051192336,0.2884616375,0.6299477859562113
0.014,1.7951000000000001,1.0,1886.4772274223385,0.14610735331928765,1.3399008640724652,0.8281195933156562,0.2884472,0.6315924827895139
0.0145,1.79474375,1.0,1938.5897816393729,0.15089701628072721,1.339174082715425,0.8368062158895683,0.2884322375,0.633166267902264
0.015,1.794375,1.0,1988.1666109437729,0.1556598125207147,1.3384762101067718,0.8448384192508338,0.28841675,0.6346742831369787
0.0155,1.79399375,1.0,2035.2912621207688,0.1603958929953482,1.3378050812906437,0.8522778135359599,0.2884007375,0.6361215786167782
0.016,1.7936,1.0,2080.052342947054,0.16510540771198012,1.337158654363946,0.8591793071086256,0.2883842,0.6375128883529758
0.0165,1.7931937500000001,1.0,2122.543626547481,0.16978850684958735,1.336534987718403,0.8655918932499594,0.2883671375,0.6388526850809132
0.017,1.792775,1.0,2162.8329080060626,0.1744453373349552,1.3359325397949842,0.8715594325382809,0.28834955,0.6401445430704444
0.0175,1.7923437500000001,1.0,2200.998622351928,0.17907604609486905,1.33534976903466,0.8771211434103228,0.2883314375,0.6413920038533167
0.018000000000000002,1.7919,1.0,2237.128952731197,0.1836807800561141,1.3347851338784005,0.8823121478416223,0.2883128,0.6425985782334869
0.0185,1.79144375,1.0,2271.302151886668,0.18825968416252367,1.3342372804893805,0.8871639966246287,0.2882936375,0.6437673479944617
0.019,1.790975,1.0,2303.622640061703,0.19281290617710511,1.3337046712015872,0.8917049908654674,0.28827395,0.644901761537757
0.0195,1.79049375,1.0,2334.1563217897783,0.1973405885958069,1.3331862199256086,0.8959607044145442,0.2882537375,0.6460042820525638
0.02,1.79,1.0,2362.9727293343935,0.20184287368615084,1.3326808599059663,0.8999541903056357,0.288233,0.6470773133042947
0.0205,1.78949375,1.0,2390.1464925823134,0.20631990371565878,1.3321875243871821,0.9037062591694711,0.2882117375,0.6481232418415666
0.021,1.788975,1.0,2415.756908513613,0.21077182095185246,1.331705146613777,0.9072357279050011,0.28818995000000003,0.6491444378505506
0.021500000000000002,1.78844375,1.0,2439.8713797062082,0.21519876536002752,1.331232815155597,0.9105596695637512,0.2881676375,0.6501429278191904
0.022,1.7879,1.0,2462.575420475289,0.2196008802449331,1.3307694795351543,0.913693543671787,0.2881448,0.6511210185205456
0.0225,1.78734375,1.0,2483.9267847264327,0.2239783035918876,1.3303143873750074,0.9166514514534286,0.28812143749999997,0.6520803746590356
0.023,1.786775,1.0,2503.9813114479052,0.2283311726235873,1.3298668300086893,0.9194462301573123,0.28809755,0.6530225588648548
0.0235,1.78619375,1.0,2522.7972361332227,0.2326596245627284,1.329426098769734,0.9220895764606686,0.28807313749999996,0.6539491245196221
0.024,1.7856,1.0,2540.434989262887,0.23696379663200717,1.3289914849916744,0.9245921635610639,0.2880482,0.6548616160809084
0.0245,1.78499375,1.0,2556.9526268977443,0.24124382519158977,1.3285623211327677,0.9269637516789546,0.2880227375,0.655761483201046
0.025,1.784375,1.0,2572.4047726105337,0.24549984578767742,1.3281379883855355,0.9292132803815473,0.28799675,0.6566500656195604
0.025500000000000002,1.78374375,1.0,2586.8600638466687,0.24973199616557312,1.3277177516137084,0.9313489229476735,0.2879702375,0.6575289390218614
0.026000000000000002,1.7831000000000001,1.0,2600.359722189131,0.2539404082081944,1.3273011453835797,0.9333782207813889,0.2879432,0.6583991078781788
0.0265,1.78244375,1.0,2612.9460807295386,0.2581252137984587,1.326887704261443,0.9353081024429247,0.2879156375,0.6592615714371279
0.027,1.781775,1.0,2624.6624907506653,0.2622865448192837,1.326476962813592,0.9371449416651216,0.28788755,0.6601173238265705
0.0275,1.7810937500000001,1.0,2635.553233211174,0.26642453315358683,1.32606845560632,0.9388946091716833,0.2878589375,0.6609673541406547
0.028,1.7804,1.0,2645.663435033806,0.27053931068428566,1.3256617172059206,0.940562519026329,0.2878298,0.6618126465130452
0.0285,1.77969375,1.0,2655.031268077465,0.2746310055599675,1.3252563533473383,0.9421536789008859,0.2878001375,0.662654032548442
0.029,1.778975,1.0,2663.706595630369,0.27869975234287897,1.3248518681022818,0.9436727059784202,0.28776995,0.6634925503522249
0.029500000000000002,1.7782437500000001,1.0,2671.72136061453,0.28274567832166053,1.324447936149157,0.9451238939754159,0.2877392375,0.6643288798742109
0.03,1.7775,1.0,2679.1058887086715,0.2867689098317825,1.3240442513835375,0.9465112229497439,0.287708,0.6651636579887843
0.0305,1.77674375,1.0,2685.8909287859033,0.2907695732087154,1.3236405077009978,0.9478383841276108,0.2876762375,0.6659975184153073
0.031,1.775975,1.0,2692.1076139622182,0.2947477947879295,1.3232363989971123,0.9491088044963946,0.28764395,0.6668310917199605
0.0315,1.7751937500000001,1.0,2697.7874247225805,0.2987037009048952,1.322831619167455,0.9503256690148023,0.2876111375,0.6676650053116051
0.032,1.7744,1.0,2702.962064162624,0.3026374178091246,1.3224258629293209,0.9514919407710504,0.2875778,0.6684998817419732
0.0325,1.77359375,1.0,2707.6547425797753,0.3065490623243932,1.3220189050581994,0.9526103858744014,0.2875439375,0.6693361759729539
0.033,1.772775,1.0,2711.907400960099,0.3104387729478319,1.3216103515425939,0.9536835691494959,0.28750955,0.6701746868005396
0.0335,1.7719437500000002,1.0,2715.739438906611,0.31430666946835906,1.3212000160785726,0.9547139021463485,0.2874746375,0.6710157833900661
0.034,1.7711000000000001,1.0,2719.170416276619,0.3181528716748929,1.3207877123622045,0.9557036368099529,0.2874392,0.6718598328999477
0.0345,1.7702437500000001,1.0,2722.2200376093465,0.32197749935635184,1.3203732540895583,0.9566548779252229,0.2874032375,0.6727072004593984
0.035,1.7693750000000001,1.0,2724.908137322335,0.32578067230165403,1.3199564549567027,0.9575695944527223,0.28736675,0.6735582491439398
0.035500000000000004,1.76849375,1.0,2727.2546656781874,0.3295625102997179,1.3195371286597062,0.9584496298656328,0.2873297375,0.6744133399486938
0.036000000000000004,1.7676,1.0,2729.2796755200725,0.33332313313946166,1.3191150888946375,0.9592967115863378,0.2872922,0.6752728317594632
0.0365,1.76669375,1.0,2731.0033097775404,0.3370626606098036,1.3186901493575653,0.9601124596103507,0.2872541375,0.6761370813215966
0.037,1.765775,1.0,2732.4457897412103,0.3407812124996621,1.3182621237445586,0.9608983943959191,0.28721555,0.677006443206643
0.0375,1.76484375,1.0,2733.6200320153685,0.3444788993962437,1.3178308927106577,0.9616559486706638,0.2871764375,0.6778811340521251
0.038,1.7639,1.0,2734.5449140335822,0.34815584439775565,1.3173962832532664,0.9623864666692309,0.28713679999999997,0.6787614776052688
0.0385,1.76294375,1.0,2735.24196199659,0.35181217411169,1.3169580987625096,0.9630912113384952,0.28709663750000003,0.6796478432042578
0.039,1.761975,1.0,2735.7219515646907,0.3554480005117327,1.3165162406117459,0.9637713777433025,0.28705595,0.6805403999649471
0.0395,1.7609937500000001,1.0,2735.995688947202,0.35906343557156967,1.316070610174334,0.964428091688155,0.2870147375,0.6814393156378322
0.04,1.76,1.0,2736.074006698879,0.3626585912648867,1.3156211088236325,0.9650624144677176,0.286973,0.6823447565846326
0.0405,1.7589937500000001,1.0,2735.967759732331,0.36623357956536984,1.3151676379330002,0.965675347242978,0.2869307375,0.6832568877542516
0.041,1.757975,1.0,2735.6878215463325,0.36978851244670496,1.3147100988757954,0.9662678350761945,0.28688795,0.6841758726581222
0.0415,1.75694375,1.0,2735.245080669214,0.3733235018825779,1.314248393025377,0.9668407706545247,0.2868446375,0.6851018733449241
0.042,1.7559,1.0,2734.6504373184416,0.3768386598466746,1.3137824217551037,0.9673949977293282,0.28680079999999997,0.6860350503746881
0.0425,1.75484375,1.0,2733.9148002761285,0.38033409831268095,1.313312086438334,0.9679313142955637,0.2867564375,0.6869755627922765
0.043000000000000003,1.753775,1.0,2733.049083978801,0.3838099292542829,1.3128372884484267,0.9684504755333637,0.28671155,0.6879235681002419
0.043500000000000004,1.75269375,1.0,2732.064205824997,0.3872662646451664,1.3123579291587404,0.968953196531812,0.28666613750000003,0.6888792222310693
0.044,1.7516,1.0,2730.9672183319535,0.3907032071705195,1.3118739450678825,0.9694401561788965,0.2866202,0.6898426096549599
0.0445,1.75049375,1.0,2729.765576795575,0.39412087138778457,1.311385269028151,0.9699119995741032,0.2865737375,0.6908138208937057
0.045,1.7493750000000001,1.0,2728.468676528398,0.397519373898776,1.3108918162529803,0.9703693375315492,0.28652675,0.6917929801878926
0.0455,1.74824375,1.0,2727.081907012644,0.4008988187992362,1.310393538351531,0.9708127507034873,0.2864792375,0.6927801382321959
0.046,1.7471,1.0,2725.610656973549,0.4042593101849075,1.3098903869329626,0.9712427904848798,0.2864312,0.6937753446637078
0.0465,1.7459437500000001,1.0,2724.060313524854,0.40760095215153225,1.309382313606435,0.9716599807640073,0.28638263750000004,0.6947786480469689
0.047,1.744775,1.0,2722.436261367097,0.4109238487948527,1.3088692699811086,0.9720648195522461,0.28633355,0.6957900958588553
0.0475,1.74359375,1.0,2720.7438820379566,0.4142281042106113,1.3083512076661428,0.9724577805024124,0.28628393750000003,0.6968097344733142
0.048,1.7424,1.0,2718.9885532133344,0.4175138224945503,1.307828078270698,0.9728393143242698,0.2862338,0.6978376091459473
0.0485,1.74119375,1.0,2717.175648062122,0.4207811077424122,1.3072998334039339,0.9732098501050581,0.2861831375,0.6988737639984519
0.049,1.739975,1.0,2715.3105346512198,0.42403006404993915,1.3067664246750104,0.9735697965422347,0.28613195,0.6999182420029056
0.0495,1.73874375,1.0,2713.3985754034857,0.42726079551287355,1.3062278036930877,0.9739195430950165,0.2860802375,0.7009710849659049
0.05,1.7375,1.0,2711.445126607378,0.4304734062269578,1.3056839220673255,0.9742594610607597,0.286028,0.702032333512555
0.0505,1.73624375,1.0,2709.4484111585175,0.4336679823286023,1.3051347964262037,0.9745899068421179,0.2859752375,0.7031019005418981
0.051000000000000004,1.734975,1.0,2707.4136525215886,0.43684463719037503,1.3045803795406308,0.9749112194441598,0.28592195,0.7041798227005271
0.051500000000000004,1.73369375,1.0,2705.350150694011,0.4400034876810492,1.3040205868996648,0.97522372043197,0.2858681375,0.7052662077206102
0.052000000000000005,1.7324,1.0,2703.2600484004424,0.4431446294936648,1.3034553992407387,0.9755277187690506,0.2858138,0.7063610353049868
0.0525,1.73109375,1.0,2701.1454855435227,0.4462681583212619,1.302884797301285,0.9758235096780958,0.28575893750000003,0.7074642843232128
0.053,1.729775,1.0,2699.0085991007372,0.4493741698568805,1.3023087618187361,0.9761113753681246,0.28570355000000003,0.7085759328049193
0.0535,1.72844375,1.0,2696.851523030379,0.4524627597935606,1.3017272735305248,0.9763915857170957,0.2856476375,0.7096959579331502
0.054,1.7271,1.0,2694.676388184958,0.4555340238243422,1.3011403131740837,0.9766643989130928,0.2855912,0.7108243360376747
0.0545,1.7257437500000001,1.0,2692.485322233327,0.45858805764226535,1.3005478614868455,0.9769300620569155,0.2855342375,0.7119610425882779
0.055,1.724375,1.0,2690.280449590611,0.46162495694037,1.299949899206243,0.9771888117287122,0.28547675,0.713106052188025
0.0555,1.72299375,1.0,2688.0638913570424,0.46464481741169616,1.2993464070697085,0.9774408745210752,0.2854187375,0.7142593385665064
0.056,1.7216,1.0,2685.8377652642484,0.46764773474928384,1.2987373658146746,0.9776864675408485,0.2853602,0.7154208745730526
0.0565,1.72019375,1.0,2683.604185630183,0.4706338046461731,1.2981227561785744,0.9779257988817243,0.28530113749999997,0.7165906321699307
0.057,1.718775,1.0,2681.365263322646,0.47360312279540384,1.29750255889884,0.9781590680695543,0.28524155,0.7177685824255173
0.0575,1.71734375,1.0,2679.123105729758,0.4765557848900162,1.2968767547129043,0.9783864664821573,0.2851814375,0.7189546955074428
0.058,1.7159,1.0,2676.8798167402606,0.4794918866230501,1.2962453243582002,0.9786081777452786,0.2851208,0.7201489406757168
0.0585,1.71444375,1.0,2674.6371711673805,0.48241151642490204,1.2956082515616072,0.9788243776513071,0.2850596375,0.721351280639954
0.059000000000000004,1.7129750000000001,1.0,2672.3954448384316,0.48531475278582337,1.2949655337927344,0.9790352349211864,0.28499795,0.7225616513850998
0.059500000000000004,1.71149375,1.0,2670.1564707220555,0.48820171955004166,1.2943171542066991,0.9792409146160664,0.2849357375,0.7237800151137439
0.06,1.71,1.0,2667.920846935714,0.4910725038690883,1.2936631072835003,0.9794415728854148,0.284873,0.7250063119279317
0.0605,1.7084937500000001,1.0,2665.689170593846,0.49392719289449477,1.2930033875031366,0.9796373598167308,0.2848097375,0.726240481223491
0.061,1.7069750000000001,1.0,2663.4620378105337,0.4967658737777923,1.2923379893456068,0.9798284197156027,0.28474595,0.7274824616880353
0.0615,1.7054437500000001,1.0,2661.2400437033875,0.4995886336705123,1.29166690729091,0.980014891370757,0.2846816375,0.728732191298966
0.062,1.7039,1.0,2659.023782398245,0.5023955597241861,1.290990135819045,0.980196908304999,0.2846168,0.7299896073214724
0.0625,1.70234375,1.0,2656.813847033728,0.5051867390903452,1.2903076694100106,0.9803745990129096,0.2845514375,0.7312546463065306
0.063,1.7007750000000001,1.0,2654.6108297673877,0.5079622589205208,1.289619502543806,0.9805480871860798,0.28448555,0.7325272440888979
0.0635,1.69919375,1.0,2652.415321782003,0.5107222063662442,1.2889256297004297,0.9807174919266279,0.28441913750000003,0.733807335785109
0.064,1.6976,1.0,2650.2279132925255,0.513466668579047,1.2882260453598808,0.980882927949693,0.2843522,0.7350948557914666
0.0645,1.69599375,1.0,2648.0491935542786,0.5161957327104604,1.287520744002158,0.9810445057755457,0.2842847375,0.7363897377820328
0.065,1.694375,1.0,2645.879750871029,0.5189094859120158,1.2868097201072606,0.9812023319119225,0.28421675,0.7376919147066162
0.0655,1.69274375,1.0,2643.720172604117,0.5216080153352446,1.2860929681551871,0.9813565090271488,0.2841482375,0.7390013187887599
0.066,1.6911,1.0,2641.5710451826185,0.524291408131678,1.2853704826259365,0.9815071361145749,0.2840792,0.7403178815237248
0.0665,1.6894437500000001,1.0,2639.4329541136044,0.5269597514528476,1.2846422579995074,0.9816543086488245,0.2840096375,0.7416415336764728
0.067,1.687775,1.0,2637.303133443802,0.5296131060428864,1.2839083197388805,0.9817981184597507,0.28393955,0.74297214918063
0.0675,1.68609375,1.0,2635.1803413204275,0.5322515529502879,1.283168679249303,0.9819386548660708,0.2838689375,0.7443096272072878
0.068,1.6844000000000001,1.0,2633.0707447203854,0.5348752243079827,1.2824232793890677,0.9820760041632285,0.2837978,0.7456539899844534
0.0685,1.68269375,1.0,2630.9742235196377,0.537484198065835,1.2816721211330306,0.982210248849323,0.2837261375,0.7470051536237861
0.069,1.680975,1.0,2628.890657847767,0.5400785521737088,1.2809152054560475,0.9823414685990589,0.28365395,0.7483630336211308
0.0695,1.67924375,1.0,2626.8199280853455,0.5426583645814684,1.2801525333329746,0.9824697403782379,0.28358123749999997,0.7497275448568768
0.07,1.6775,1.0,2624.7619148618423,0.5452237132389778,1.2793841057386672,0.9825951385528447,0.283508,0.7510986015963177
0.07050000000000001,1.67574375,1.0,2622.716499053002,0.5477746760961012,1.2786099236479813,0.9827177349930198,0.2834342375,0.7524761174900064
0.07100000000000001,1.673975,1.0,2620.6835617782135,0.5503113311027028,1.2778299880357729,0.9828375991721839,0.28335995,0.7538600055741146
0.07150000000000001,1.67219375,1.0,2618.6629843988044,0.5528337562086467,1.2770442998768976,0.9829547982615785,0.2832851375,0.7552501782707897
0.07200000000000001,1.6704,1.0,2616.6546485152207,0.555342029363797,1.2762528601462115,0.9830693972204582,0.2832098,0.7566465473885131
0.0725,1.66859375,1.0,2614.658435964786,0.5578362285180177,1.2754556698185704,0.9831814588821638,0.2831339375,0.7580490241224577
0.073,1.6667750000000001,1.0,2612.6742288196338,0.5603164316211734,1.2746527298688297,0.9832910440362904,0.28305755,0.7594575190548458
0.0735,1.66494375,1.0,2610.701909384121,0.5627827166231278,1.273844041271846,0.9833982115071486,0.2829806375,0.7608719421553047
0.074,1.6631,1.0,2608.7413601927688,0.5652351614737453,1.2730296050024745,0.9835030182287137,0.2829032,0.7622922027812269
0.0745,1.6612437500000001,1.0,2606.792464008041,0.56767384412289,1.2722094220355713,0.983605519316237,0.2828252375,0.7637182096781258
0.075,1.659375,1.0,2604.855103818137,0.5700988425204259,1.2713834933459922,0.9837057681346911,0.28274675,0.765149870979993
0.0755,1.65749375,1.0,2602.929162834807,0.5725102346162173,1.270551819908593,0.983803816364206,0.2826677375,0.7665870942096564
