Time [s],Phi [rad],STIM [ ],Fsee [N],Gamma [ ],Lcerel [ ],q [ ],Lmtc [m],fisomrel [ ]
0.0,1.8,1.0,17.982979150431667,0.00012754425310773027,1.3793379741305591,0.005004249316555281,0.288653,0.5411438181840665
0.0005,1.79999375,1.0,18.33107311124779,0.005736038139537044,1.3792963573771333,0.013270060530038232,0.2886527375,0.5412444938789477
0.001,1.799975,1.0,21.760042023335327,0.01131307280962201,1.3789238572071367,0.036223718378429644,0.28865195,0.5421451225741883
0.0015,1.79994375,1.0,31.398192756052726,0.01685882472563518,1.3780182515369663,0.07144204452659757,0.2886506375,0.5443309996968586
0.002,1.7999,1.0,54.284593724550824,0.02237346935805544,1.376322724470637,0.11571198507090429,0.2886488,0.5484094612468016
0.0025,1.79984375,1.0,98.2935259475104,0.027857181193872566,1.3738787367621728,0.16565555577990226,0.28864643749999996,0.5542560274142919
0.003,1.7997750000000001,1.0,162.48286099727835,0.03331013374325606,1.3711574075180981,0.21839490604786338,0.28864354999999997,0.5607212335600908
0.0035,1.79969375,1.0,239.40402528433697,0.038732499540011206,1.368531827894524,0.2717210544022386,0.2886401375,0.566914195882401
0.004,1.7996,1.0,323.29621451425413,0.044124450152100626,1.366107706176985,0.32398861249847066,0.2886362,0.572592944763477
0.0045000000000000005,1.7994937500000001,1.0,411.16136384155635,0.04948615618690876,1.3638784151478673,0.374052750751612,0.2886317375,0.5777822034103199
0.005,1.799375,1.0,501.3450729716926,0.05481778728294198,1.3618173362813863,0.4212000113135003,0.28862675,0.582551706525007
0.0055,1.79924375,1.0,592.7384248100469,0.06011951215092138,1.3599008070136747,0.4650555548240063,0.2886212375,0.5869624015016126
0.006,1.7991000000000001,1.0,684.4674082557385,0.06539149853230095,1.3581110069267806,0.5054903508692481,0.2886152,0.5910602892789775
0.006500000000000001,1.79894375,1.0,775.8184982527329,0.0706339132281006,1.3564342043227102,0.5425417075379542,0.2886086375,0.5948809247092999
0.007,1.798775,1.0,866.2026065004395,0.07584692215592519,1.3548594497582302,0.5763519718879431,0.28860155,0.598452713384203
0.0075,1.79859375,1.0,955.1255871214548,0.08103069017515475,1.3533778406481054,0.6071240175661643,0.2885939375,0.6017987938102112
0.008,1.7984,1.0,1042.202884818329,0.0861853813527931,1.3519815028507436,0.6350900283637863,0.2885858,0.6049394823052678
0.0085,1.79819375,1.0,1127.122070002784,0.09131115894530256,1.3506636593661459,0.6604912460674933,0.2885771375,0.6078922130100244
0.009000000000000001,1.797975,1.0,1209.6319736817352,0.09640818477763044,1.3494183806319109,0.6835649689080885,0.28856795,0.6106721788156029
0.0095,1.79774375,1.0,1289.5595204285964,0.10147662003293119,1.348240067907186,0.7045366384618537,0.2885582375,0.6132935430612197
0.01,1.7975,1.0,1366.7995060015844,0.10651662612929874,1.3471234100659388,0.7236157521846,0.288548,0.6157695732914352
0.0105,1.79724375,1.0,1441.2423299773695,0.1115283616301268,1.3460641414875794,0.740994471386936,0.2885372375,0.6181110012004614
0.011,1.796975,1.0,1512.8342533626121,0.11651198483550915,1.3450580880481058,0.7568467989057995,0.28852595000000003,0.6203281756141126
0.0115,1.79669375,1.0,1581.5659236282374,0.12146765358285479,1.3441012253115239,0.7713292045537616,0.2885141375,0.6224309526119511
0.012,1.7964,1.0,1647.4592969729854,0.12639552557542227,1.3431897549365597,0.7845817469799187,0.28850180000000003,0.6244285462582402
0.0125,1.79609375,1.0,1710.5285297261946,0.13129575634656745,1.3423204785450211,0.7967295486687558,0.2884889375,0.6263287307675629
0.013000000000000001,1.7957750000000001,1.0,1770.797448819949,0.13616850027255759,1.3414905023072339,0.8078840548613989,0.28847555,0.6281385103123505
0.0135,1.79544375,1.0,1828.3215192643731,0.14101391172965988,1.3406969323935227,0.8181443088266656,0.2884616375,0.6298647967399345
0.014,1.7951000000000001,1.0,1883.1678966861564,0.1458321440059189,1.339937062721029,0.8275983658338096,0.2884472,0.631514009529972
0.0145,1.79474375,1.0,1935.4238365163142,0.1506233507812361,1.339208243294447,0.8363244809017525,0.2884322375,0.633092371432064
0.015,1.794375,1.0,1985.1459720186353,0.1553876825484772,1.338508392983041,0.8443924077321279,0.28841675,0.6346048082909409
0.0155,1.79399375,1.0,2032.4070866422046,0.16012528967099735,1.337835451634826,0.8518642044198791,0.2884007375,0.6360561467432815
0.016,1.7936,1.0,2077.293571765144,0.16483632223877123,1.3371873892844262,0.8587951447964771,0.2883842,0.6374510985572477
0.0165,1.7931937500000001,1.0,2119.894944455013,0.16952092955959694,1.3365622978913918,0.865234549441316,0.2883671375,0.638794067723425
0.017,1.792775,1.0,2160.307699581776,0.17417926123437918,1.33595833268127,0.871226473193825,0.28834955,0.6400892815753223
0.0175,1.7923437500000001,1.0,2198.5992883385024,0.17881146325530387,1.3353740623400203,0.8768104205284084,0.2883314375,0.6413400456299496
0.018000000000000002,1.7919,1.0,2234.8465426765833,0.18341768161455685,1.3348080555536017,0.8820217653181525,0.2883128,0.6425496362768379
0.0185,1.79144375,1.0,2269.134893865701,0.18799806230432406,1.3342588810079734,0.8868922331970804,0.2882936375,0.6437213025105148
0.019,1.790975,1.0,2301.5458413022698,0.19255274992138718,1.333725224145677,0.8914503522505299,0.28827395,0.6448580190335386
0.0195,1.79049375,1.0,2332.174329755189,0.19708189070921994,1.3332057056491167,0.8957217767315508,0.2882537375,0.6459628753918183
0.02,1.79,1.0,2361.0934364742598,0.20158562753387116,1.3326992227042027,0.8997296901924904,0.288233,0.6470383520791433
0.0205,1.78949375,1.0,2388.3684372886305,0.20606410161294192,1.3322047987156058,0.903495046863718,0.2882117375,0.648086644484451
0.021,1.788975,1.0,2414.069073673298,0.21051745416403328,1.3317214570879967,0.9070367911250735,0.28818995000000003,0.6491099327404859
0.021500000000000002,1.78844375,1.0,2438.2691799817376,0.21494582640474638,1.331248221226046,0.9103720778540246,0.2881676375,0.6501103824444533
0.022,1.7879,1.0,2461.0250910184704,0.219349358145082,1.330784317863468,0.9135165073462032,0.2881448,0.6510897163762761
0.0225,1.78734375,1.0,2482.4355008771895,0.22372819056288268,1.3303285989920655,0.9164841752354127,0.28812143749999997,0.652050435867153
0.023,1.786775,1.0,2502.5803854543283,0.22808246287516346,1.3298801268286196,0.9192879465307264,0.28809755,0.6529945852153505
0.0235,1.78619375,1.0,2521.4921346308242,0.23241231120653616,1.3294384396651815,0.9219396315792701,0.28807313749999996,0.6539231966548806
0.024,1.7856002439450027,1.0,2539.2166157915276,0.23671787168161257,1.3290030757938023,0.9244500050698131,0.2880482102456901,0.6548372962953368
0.0245,1.7850027134844468,1.0,2556.185554946536,0.2409992804250045,1.328573573506533,0.9268289110795996,0.2880231139663468,0.6557379043148821
0.025,1.784405183023891,1.0,2572.634225531666,0.2452566735613237,1.3281494710954247,0.9290853561994107,0.2879980176870034,0.6566260351396462
0.025500000000000002,1.7838076525633348,1.0,2588.597344050183,0.24949018626429534,1.3277303928139261,0.9312276062160304,0.28797292140766007,0.6575025179401457
0.026000000000000002,1.783210122102779,1.0,2604.073936862753,0.2536999532021122,1.3273163013158185,0.933263299373298,0.28794782512831674,0.6583674709596057
0.0265,1.782612591642223,1.0,2619.075964062255,0.25788610684707974,1.326907041225139,0.9351994309845435,0.28792272884897335,0.6592212576448512
0.027,1.7820150611816672,1.0,2633.6177389994787,0.26204877903768165,1.3265024386354394,0.9370424314409614,0.28789763256963,0.6600642779499718
0.0275,1.7814175307211113,1.0,2647.7139307950097,0.26618810161240164,1.3261023196402726,0.9387982223050217,0.28787253629028664,0.6608969296085252
0.028,1.7808200002605554,1.0,2661.3600307110437,0.27030417471505996,1.3257066899825658,0.9404722767378108,0.2878474400109433,0.6617192350146708
0.0285,1.7802224697999995,1.0,2674.594986388784,0.274397166218557,1.3253151575388697,0.9420696171530144,0.2878223437316,0.6625320416947078
0.029,1.7796249393394437,1.0,2687.440650068524,0.27846721795334806,1.3249274917549572,0.9435948975541117,0.28779724745225665,0.6633358581053325
0.029500000000000002,1.7790274088788876,1.0,2699.9073498368994,0.28251445311896084,1.3245435705468418,0.9450524320415236,0.28777215117291327,0.6641309656144998
0.03,1.7784298784183317,1.0,2712.0056326106032,0.28653899491492296,1.3241632718305367,0.9464462168804095,0.28774705489356994,0.6649176441202856
0.0305,1.7778323479577758,1.0,2723.7462541651344,0.2905409665407621,1.3237864735220555,0.9477799579552025,0.28772195861422656,0.665696172079564
0.031,1.77723481749722,1.0,2735.1401694954952,0.29452049119600576,1.3234130535374116,0.9490570955294518,0.28769686233488323,0.6664668265357379
0.0315,1.776637287036664,1.0,2746.1985235058132,0.29847769208018166,1.3230428897926185,0.9502808266046247,0.2876717660555399,0.667229883145517
0.032,1.7760397565761081,1.0,2756.932642030756,0.30241269239281726,1.3226758602036894,0.9514541251366397,0.2876466697761966,0.6679856162047484
0.0325,1.7754422261155522,1.0,2767.354023186455,0.3063256153334403,1.3223118426866383,0.9525797603384717,0.2876215734968532,0.66873429867329
0.033,1.7748446956549964,1.0,2777.4743290525366,0.3102165841015783,1.3219507151574779,0.9536603132705566,0.28759647721750986,0.6694762021989431
0.0335,1.7742471651944403,1.0,2787.3053776839565,0.314085721896759,1.321592355532222,0.9546981918974976,0.2875713809381665,0.6702115971404239
0.034,1.7736496347338844,1.0,2796.859135454009,0.31793315191850985,1.3212366417268842,0.955695644769171,0.28754628465882315,0.6709407525893925
0.0345,1.7730521042733285,1.0,2806.1477097271977,0.32175899736635855,1.3208834516574774,0.9566547734665042,0.2875211883794798,0.6716639363915285
0.035,1.7724545738127726,1.0,2815.1833418627652,0.32556338143983266,1.3205326632400156,0.9575775439364806,0.28749609210013644,0.6723814151666542
0.035500000000000004,1.7718570433522167,1.0,2823.9784005490674,0.32934642733845987,1.3201841543905122,0.9584657968271725,0.2874709958207931,0.6730934543279103
0.036000000000000004,1.7712595128916608,1.0,2832.545375467448,0.3331082582617677,1.31983780302498,0.9593212569214412,0.2874458995414497,0.6738003180999812
0.0365,1.770661982431105,1.0,2840.887760270403,0.3368489814007567,1.319493568235287,0.9601455463580081,0.2874208032621064,0.6745021041335586
0.037,1.770064451970549,1.0,2849.0199989441307,0.34056872962293144,1.319151312197624,0.960940183731326,0.28739570698276307,0.675199106895838
0.0375,1.769466921509993,1.0,2856.950200132388,0.3442676200395392,1.3188109544036748,0.9617065975998492,0.2873706107034197,0.6758915030364094
0.038,1.768869391049437,1.0,2864.684914958409,0.3479457664096842,1.3184724288297598,0.9624461315618688,0.28734551442407635,0.6765794390155409
0.0385,1.7682718605888812,1.0,2872.2307576309395,0.35160328249247097,1.3181356694521995,0.9631600496217464,0.287320418144733,0.6772630606575283
0.039,1.7676743301283253,1.0,2879.5944028111107,0.3552402820470037,1.3178006102473143,0.9638495417747804,0.28729532186538964,0.6779425131582737
0.0395,1.7670767996677694,1.0,2886.782583075127,0.3588568788323868,1.3174671851914246,0.9645157291421592,0.2872702255860463,0.6786179410925821
0.04,1.7664792692072135,1.0,2893.8020864736327,0.3624531866077247,1.317135328260851,0.9651596686966908,0.287245129306703,0.679289488421181
0.0405,1.7658817387466577,1.0,2900.659754188029,0.3660293191321216,1.3168049734319132,0.9657823576159378,0.2872200330273596,0.6799572984974642
0.041,1.7652842082861018,1.0,2907.362478283547,0.36958539016468195,1.3164760546809322,0.9663847372957642,0.28719493674801627,0.6806215140739529
0.0415,1.7646866778255457,1.0,2913.9171995581473,0.3731215134645101,1.3161485059842282,0.966967697054072,0.2871698404686729,0.6812822773084837
0.042,1.7640891473649898,1.0,2920.330905489266,0.3766378027907104,1.3158222613181216,0.9675320775516199,0.28714474418932956,0.6819397297701151
0.0425,1.763491616904434,1.0,2926.6063424517674,0.38013435777583665,1.3154972922807215,0.9680786747527308,0.28711964790998623,0.6825939367459597
0.043000000000000003,1.762894086443878,1.0,2932.751376048956,0.38361129833666063,1.3151735257977117,0.9686082416815918,0.2870945516306429,0.683245053049232
0.043500000000000004,1.7622965559833221,1.0,2938.775061950598,0.3870687484004812,1.3148508787636417,0.969121491257744,0.2870694553512995,0.6838932530030695
0.044,1.7616990255227662,1.0,2944.6810257596335,0.3905068132095156,1.3145293160099205,0.9696190999252138,0.2870443590719562,0.6845386140635573
0.0445,1.7611014950622104,1.0,2950.472917198822,0.3939255980059811,1.3142088023679561,0.9701017090869516,0.2870192627926128,0.6851812133753019
0.045,1.7605039646016545,1.0,2956.154409279197,0.39732520803209503,1.3138893026691572,0.9705699272643982,0.2869941665132695,0.685821127773821
0.0455,1.7599064341410984,1.0,2961.72919749571,0.40070574853007457,1.313570781744932,0.9710243321036138,0.28696907023392615,0.6864584337878579
0.046,1.7593089036805425,1.0,2967.2009990500883,0.404067324742137,1.3132532044266894,0.9714654722402699,0.28694397395458277,0.6870932076416161
0.0465,1.7587113732199866,1.0,2972.573552101836,0.4074100419104997,1.3129365355458378,0.9718938690346973,0.28691887767523944,0.6877255252569152
0.047,1.7581138427594307,1.0,2977.850615045696,0.41073400527737974,1.3126207399337853,0.9723100181871986,0.2868937813958961,0.6883554622552699
0.0475,1.7575163122988748,1.0,2983.0359658172915,0.41403932008499456,1.3123057824219408,0.9727143912429558,0.2868686851165527,0.6889830939598831
0.048,1.756918781838319,1.0,2988.1334012259126,0.41732609157556133,1.3119916278417125,0.9731074369950413,0.2868435888372094,0.6896084953975713
0.0485,1.756321251377763,1.0,2993.1467363145916,0.4205944249912974,1.3116782410245094,0.9734895827933264,0.28681849255786607,0.6902317413005989
0.049,1.7557237209172072,1.0,2998.0798037477316,0.4238444255744199,1.311365586801739,0.9738612357664105,0.2867933962785227,0.6908529061084461
0.0495,1.755126190456651,1.0,3002.9364532263717,0.4270761985671463,1.311053630004811,0.974222783963102,0.28676829999917935,0.6914720639694839
0.05,1.7545286599960952,1.0,3007.7163896010784,0.4302898232587293,1.3107423714981705,0.9745745968199239,0.28674320371983597,0.6920892173332047
0.0505,1.7539311295355393,1.0,3012.4256169324635,0.4334854251496551,1.3104317576691702,0.9749170285232962,0.28671810744049264,0.6927044765000945
0.051000000000000004,1.7533335990749834,1.0,3017.0685324366345,0.43666311764190796,1.31012174899012,0.9752504166232193,0.2866930111611493,0.6933179234799394
0.051500000000000004,1.7527360686144275,1.0,3021.6469317638494,0.4398229968076514,1.3098123285519607,0.9755750829723181,0.286667914881806,0.6939295952717217
0.052000000000000005,1.7521385381538717,1.0,3026.162618844258,0.4429651587190492,1.3095034794456326,0.9758913350600996,0.2866428186024626,0.6945395287342055
0.0525,1.7515410076933158,1.0,3030.6174056706814,0.44608969944826493,1.3091951847620764,0.9761994667787917,0.2866177223231193,0.6951477605865608
0.053,1.75094347723276,1.0,3035.0131120872766,0.4491967150674624,1.3088874275922329,0.9764997591419449,0.2865926260437759,0.6957543274089704
0.0535,1.7503459467722038,1.0,3039.351565585268,0.45228630164880523,1.3085801910270425,0.9767924809590904,0.28656752976443256,0.6963592656432206
0.054,1.749748416311648,1.0,3043.6346011043274,0.45535855526445707,1.3082734581574456,0.9770778894694961,0.28654243348508923,0.6969626115932707
0.0545,1.749150885851092,1.0,3047.864060840467,0.45841357198658167,1.3079672120743833,0.9773562309378268,0.28651733720574585,0.6975644014258031
0.055,1.7485533553905361,1.0,3052.041794060855,0.4614514478873426,1.307661435868796,0.9776277412142979,0.2864922409264025,0.6981646711707614
0.0555,1.7479558249299803,1.0,3056.169656923904,0.46447227903890365,1.307356112631624,0.9778926462617259,0.28646714464705914,0.6987634567218637
0.056,1.7473582944694244,1.0,3060.2495123068347,0.4674761615134284,1.3070512254538083,0.9781511626516819,0.2864420483677158,0.6993607938371003
0.0565,1.7467607640088685,1.0,3064.283229638478,0.4704631913830807,1.3067467574262892,0.9784034980318058,0.2864169520883725,0.6999567181392133
0.057,1.7461632335483126,1.0,3068.2726847394115,0.473433464720024,1.3064426916400074,0.9786498515661772,0.28639185580902915,0.7005512651161587
0.0575,1.7455657030877565,1.0,3072.2197596676124,0.4763870775964221,1.3061390111859037,0.978890414350504,0.28636675952968577,0.701144470121547
0.058,1.7449681726272006,1.0,3076.1263425713473,0.47932412608443875,1.3058356991549185,0.9791253698037591,0.28634166325034244,0.7017363683750708
0.0585,1.7443706421666447,1.0,3079.9921712673417,0.48224467712823654,1.3055327570888966,0.9793548926019564,0.28631656697099905,0.7023269590103869
0.059000000000000004,1.7437731117060888,1.0,3083.8193647562302,0.48514883845392826,1.3052301661708512,0.9795791528435417,0.2862914706916557,0.7029162808013858
0.059500000000000004,1.743175581245533,1.0,3087.611066799308,0.4880367300066944,1.304927898879882,0.97979831446126,0.2862663744123124,0.7035043893007029
0.06,1.742578050784977,1.0,3091.368095688821,0.4909084382762597,1.3046259476309412,0.9800125333513604,0.28624127813296907,0.7040913011159154
0.0605,1.7419805203244212,1.0,3095.0912725512103,0.49376404975234917,1.3043243048389817,0.9802219594186924,0.2862161818536257,0.7046770327942302
0.061,1.7413829898638653,1.0,3098.7814212951203,0.4966036509246875,1.3040229629189557,0.9804267368529566,0.28619108557428236,0.705261600822638
0.0615,1.7407854594033092,1.0,3102.4393685595364,0.4994273282829996,1.3037219142858159,0.9806270043901788,0.28616598929493897,0.7058450216280597
0.062,1.7401879289427533,1.0,3106.065943664244,0.5022351683170103,1.3034211513545149,0.9808228955603085,0.28614089301559564,0.7064273115774891
0.0625,1.7395903984821974,1.0,3109.661978560932,0.5050272575164445,1.3031206665400052,0.9810145389217717,0.2861157967362523,0.7070084869781343
0.063,1.7389928680216415,1.0,3113.22830778582,0.5078036823710269,1.3028204522572393,0.9812020582837638,0.28609070045690893,0.7075885640775543
0.0635,1.7383953375610857,1.0,3116.76576841377,0.5105645293704825,1.3025205009211696,0.9813855729170058,0.2860656041775656,0.7081675590637904
0.064,1.7377978071005298,1.0,3120.275200012832,0.5133098850045359,1.302220804946749,0.9815651977536443,0.2860405078982222,0.7087454880654946
0.0645,1.737200276639974,1.0,3123.757444601503,0.5160398357629121,1.3019213567489298,0.9817410435769311,0.2860154116188789,0.7093223671520581
0.065,1.736602746179418,1.0,3127.213346605648,0.518754468135336,1.3016221487426645,0.9819132172012756,0.28599031533953556,0.7098982123337308
0.0655,1.736005215718862,1.0,3130.643752817786,0.5214538686115322,1.3013231733429058,0.982081821643221,0.2859652190601922,0.7104730395617384
0.066,1.735407685258306,1.0,3134.0495123575793,0.5241381236812258,1.3010244229646062,0.9822469562838718,0.28594012278084885,0.7110468647283988
0.0665,1.7348101547977501,1.0,3137.4314766328603,0.5268073198341414,1.300725890022718,0.982408717023249,0.2859150265015055,0.7116197036672324
0.067,1.7342126243371943,1.0,3140.7904993027455,0.5294615435600041,1.300427566932194,0.982567196427035,0.28588993022216214,0.7121915721530678
0.0675,1.7336150938766384,1.0,3144.127436241776,0.5321008813485385,1.3001294461079869,0.9827224838661325,0.2858648339428188,0.7127624859021461
0.068,1.7330175634160825,1.0,3147.443145504912,0.5347254196894695,1.2998315199650488,0.9828746656494355,0.2858397376634755,0.7133324605722212
0.0685,1.7324200329555266,1.0,3150.7370838051042,0.5373352061951951,1.2995337927921495,0.9830238232766281,0.2858146413841321,0.7139014890801966
0.069,1.7318225024949707,1.0,3154.01089833496,0.5399303623000434,1.2992362503489827,0.9831700392256222,0.28578954510478877,0.7144695997355898
0.0695,1.7312249720344146,1.0,3157.265393643258,0.5425109786055511,1.2989388855483877,0.9833133916249153,0.2857644488254454,0.7150368071016837
0.07,1.7306274415738587,1.0,3160.5009483131334,0.5450771325137224,1.2986416949178226,0.9834539553706505,0.28573935254610205,0.7156031188029662
