Time [s],Phi [rad],STIM [ ],Fsee [N],Gamma [ ],Lcerel [ ],q [ ],Lmtc [m],fisomrel [ ]
0.0,1.8,1.0,17.985274760247226,0.0001383484070942615,1.379337717066849,0.005004996505240689,0.288653,0.5411444400845382
0.0005,1.79999375,1.0,18.336917326291687,0.005746781690765752,1.3792957092129774,0.013300675243932445,0.2886527375,0.5412460617749506
0.001,1.799975,1.0,21.773932813580068,0.011323756098024008,1.3789224433185985,0.03628052785154658,0.28865195,0.5421485393796669
0.0015,1.79994375,1.0,31.4294626871861,0.016869448089239864,1.3780156020981946,0.07151947907240233,0.2886506375,0.5443373870227659
0.002,1.7999,1.0,54.350409989811425,0.022384033132981748,1.3763184836418554,0.11580348039604264,0.2886488,0.5484196392522152
0.0025,1.79984375,1.0,98.40275596927096,0.027867685714380915,1.3738735062244636,0.1657549605638334,0.28864643749999996,0.5542684991818431
0.003,1.7997750000000001,1.0,162.62405012366045,0.03332057934170798,1.3711521486710918,0.21849737051275075,0.28864354999999997,0.5607336815587749
0.0035,1.79969375,1.0,239.56303850064603,0.03874288654690911,1.3685269483107465,0.2718229064724712,0.2886401375,0.5669256644412257
0.004,1.7996,1.0,323.46509329708766,0.04413477889609954,1.366103246478942,0.324087190436979,0.2886362,0.5726033575177905
0.0045000000000000005,1.7994937500000001,1.0,411.33604577427377,0.049496426994837285,1.3638743245847584,0.3741462974004792,0.2886317375,0.577791696135159
0.005,1.799375,1.0,501.52316930111584,0.054828000479869916,1.3618135593820766,0.42128751104494494,0.28862675,0.5825604217068641
0.0055,1.79924375,1.0,592.9179816892215,0.060129668059675685,1.3598973049422487,0.4651365528439422,0.2886212375,0.586970439717175
0.006,1.7991000000000001,1.0,684.6469485709936,0.06540159747444374,1.3581077482258999,0.5055647806237574,0.2886152,0.5910677316982638
0.006500000000000001,1.79894375,1.0,775.997100247339,0.07064395552405918,1.3564311594536247,0.542609754112726,0.2886086375,0.5948878462070943
0.007,1.798775,1.0,866.376732203345,0.07585690812054219,1.354856640325139,0.5764140037313037,0.28860155,0.5984590714832747
0.0075,1.79859375,1.0,955.2939603988037,0.08104062005787951,1.3533752535603223,0.6071804603725696,0.2885939375,0.6018046242703379
0.008,1.7984,1.0,1042.3708641452733,0.08619525563659677,1.351979031982539,0.6351412857885369,0.2885858,0.6049450288413096
0.0085,1.79819375,1.0,1127.2863012473406,0.09132097781647272,1.3506613364054267,0.6605378068114519,0.2885771375,0.607897408004975
0.009000000000000001,1.797975,1.0,1209.7915076560496,0.09641794856207382,1.3494162024225758,0.6836072834304819,0.28856795,0.6106770327952347
0.0095,1.79774375,1.0,1289.7209376784306,0.10148632924200199,1.3482379333733872,0.7045750767821077,0.2885582375,0.6132982836729349
0.01,1.7975,1.0,1366.9583492853749,0.10652628076958484,1.347121369779181,0.7236507333921733,0.288548,0.6157740900593911
0.0105,1.79724375,1.0,1441.395275182801,0.11153796188983281,1.3460622283631416,0.7410263680193205,0.2885372375,0.6181152235342374
0.011,1.796975,1.0,1512.983311610008,0.11652153117467097,1.3450562681921396,0.7568759154134113,0.28852595000000003,0.6203321804251091
0.0115,1.79669375,1.0,1581.7171570508315,0.12147714661569069,1.3440994194637934,0.7713557935798805,0.2885141375,0.622434915576149
0.012,1.7964,1.0,1647.6094796639586,0.12640496564918355,1.343187997862708,0.7846060839544174,0.28850180000000003,0.6244323919738073
0.0125,1.79609375,1.0,1710.6638395724121,0.13130514321684633,1.342318924931368,0.7967519278610823,0.2884889375,0.6263321225568635
0.013000000000000001,1.7957750000000001,1.0,1770.919745182023,0.13617783426037583,1.3414891222122596,0.8079046639021458,0.28847555,0.6281415159779988
0.0135,1.79544375,1.0,1828.4337012608817,0.1410231929067408,1.3406956865095594,0.8181633101706066,0.2884616375,0.6298675038066965
0.014,1.7951000000000001,1.0,1883.2881191885622,0.1458413738822607,1.3399357471276192,0.8276158453729632,0.2884472,0.6315168616861841
0.0145,1.79474375,1.0,1935.5420751029937,0.150632529051948,1.3392069669969064,0.8363406238473541,0.2884322375,0.6330951324641569
0.015,1.794375,1.0,1985.256572766719,0.1553968091445012,1.3385072141747814,0.8444073616652463,0.28841675,0.6346073531620813
0.0155,1.79399375,1.0,2032.5110318364777,0.160134364888619,1.3378343567186042,0.8518780775161747,0.2884007375,0.6360585058052517
0.016,1.7936,1.0,2077.393586509045,0.1648453462917935,1.3371863472135956,0.8588080277839436,0.2883842,0.6374533394539303
0.0165,1.7931937500000001,1.0,2119.9979739988967,0.16952990361061226,1.3365612352500478,0.8652465116904537,0.2883671375,0.638796348619139
0.017,1.792775,1.0,2160.4034956578685,0.17418818494405194,1.3359573539296876,0.8712376270034271,0.28834955,0.6400913786369982
0.0175,1.7923437500000001,1.0,2198.682722471507,0.17882033662192198,1.3353732173453425,0.8768208512931678,0.2883314375,0.6413418529573778
0.018000000000000002,1.7919,1.0,2234.9178166514494,0.1834265049740318,1.3348073395898397,0.8820315350034328,0.2883128,0.6425511650407327
0.0185,1.79144375,1.0,2269.194639712041,0.18800683611014316,1.3342582853978375,0.8869013964634245,0.2882936375,0.643722572203118
0.019,1.790975,1.0,2301.5838201626416,0.1925614746168176,1.3337248482064012,0.8914589855758032,0.28827395,0.6448588191633113
0.0195,1.79049375,1.0,2332.227581455829,0.19709056714914575,1.333205182003014,0.8957298349444156,0.2882537375,0.6459639881579666
0.02,1.7900015620119094,1.0,2361.225905346854,0.20159425528814504,1.33269863352018,0.8997372379760264,0.2882330656045002,0.6470396022123882
0.0205,1.789507811035652,1.0,2389.0476356921286,0.20607268061483294,1.332204549490404,0.9035022169808136,0.2882123280634974,0.6480871725059876
0.021,1.7890140600593945,1.0,2415.8096930880347,0.21052598471022693,1.3317222766461907,0.9070437753630204,0.28819159052249455,0.6491081989051918
0.021500000000000002,1.7885203090831372,1.0,2441.5596800966237,0.21495430915534441,1.3312511617200442,0.9103791191098718,0.28817085298149175,0.6501041704691363
0.022,1.7880265581068797,1.0,2466.339529683868,0.21935779446080955,1.3307906276415988,0.9135238665736215,0.28815011544048896,0.6510764051800928
0.0225,1.7875328071306222,1.0,2490.181631057773,0.22373658031562296,1.330340207082944,0.9164922245643446,0.2881293778994861,0.6520259808175947
0.023,1.7870390561543648,1.0,2513.1193556582007,0.22809080447871247,1.3298994389887413,0.9192971155557749,0.2881086403584833,0.6529539545756179
0.0235,1.7865453051781073,1.0,2535.187315412988,0.23242060455800045,1.329467865038168,0.9219503120821819,0.28808790281748053,0.653861370877524
0.024,1.7860515542018498,1.0,2556.4109044638253,0.2367261132568474,1.3290451269105776,0.9244625700400448,0.2880671652764777,0.6547490575778121
0.0245,1.7855578032255925,1.0,2576.839439313557,0.24100747383904841,1.3286306534215298,0.926843684279331,0.2880464277354749,0.6556182832644719
0.025,1.785064052249335,1.0,2596.509691241661,0.24526482390550125,1.3282240037774349,0.9291026364166179,0.28802569019447205,0.6564700361744593
0.025500000000000002,1.7845703012730776,1.0,2615.446920122999,0.2494982953983858,1.3278248546696794,0.9312476724278393,0.28800495265346926,0.6573050531275626
0.026000000000000002,1.78407655029682,1.0,2633.6772761312523,0.25370802025988193,1.3274328827896495,0.9332863573852432,0.2879842151124664,0.6581240665435575
0.0265,1.7835827993205626,1.0,2651.2277471328307,0.2578941304321696,1.3270477648287318,0.935225640882045,0.2879634775714636,0.6589278045935286
0.027,1.7830890483443051,1.0,2668.1261083969766,0.2620567578574286,1.3266691774783124,0.9370719153744729,0.28794274003046083,0.6597169913445244
0.0275,1.782595297368048,1.0,2684.4008746241066,0.26619603447783896,1.3262967974297777,0.9388310682838974,0.287922002489458,0.6604923468975467
0.028,1.7821015463917904,1.0,2700.08125429196,0.27031209223558045,1.325930301374514,0.9405085285938498,0.2879012649484552,0.6612545875188726
0.0285,1.781607795415533,1.0,2715.1971063184938,0.274405063072833,1.3255693660039078,0.9421093085833783,0.2878805274074524,0.6620044257647114
0.029,1.7811140444392755,1.0,2729.764623718079,0.2784750705920071,1.325213797760195,0.9436380562820609,0.28785978986644956,0.6627423014872162
0.029500000000000002,1.780620293463018,1.0,2743.823120066731,0.2825222545310287,1.3248631973201332,0.9450990505325966,0.28783905232544676,0.6634690785297838
0.03,1.7801265424867605,1.0,2757.3910124005524,0.2865467403577635,1.3245173599931175,0.9464962763629252,0.2878183147844439,0.6641852138491626
0.0305,1.7796327915105032,1.0,2770.486271237448,0.29054865300741,1.3241760885304985,0.9478334302944983,0.2877975772434411,0.6648911467636045
0.031,1.7791390405342458,1.0,2783.127216760667,0.2945281174151666,1.3238391856836274,0.9491139441432164,0.28777683970243834,0.6655873144635368
0.0315,1.7786452895579883,1.0,2795.332499282423,0.29848525851623176,1.3235064542038548,0.9503410072886015,0.2877561021614355,0.6662741520677589
0.032,1.7781515385817308,1.0,2807.1210805702003,0.3024202012458039,1.3231776968425317,0.9515175868097598,0.2877353646204327,0.6669520926771577
0.0325,1.7776577876054733,1.0,2818.5122160347664,0.3063330705390814,1.3228527163510093,0.9526464457155005,0.28771462707942985,0.6676215674259398
0.033,1.7771640366292158,1.0,2829.5254377823053,0.31022399133126266,1.322531315480638,0.9537301594695071,0.28769388953842706,0.6682830055303864
0.0335,1.7766702856529586,1.0,2840.177947552269,0.3140930859345688,1.3222133200703148,0.9547711329044197,0.28767315199742427,0.6689367868917886
0.034,1.7761765346767011,1.0,2850.4832707256664,0.3179404742720993,1.3218985906741925,0.9557716150541371,0.2876524144564214,0.6695832185011756
0.0345,1.7756827837004436,1.0,2860.466524363927,0.32176628885717873,1.3215868865783464,0.9567337002223729,0.28763167691541863,0.6702228137144316
0.035,1.7751890327241862,1.0,2870.1389549855985,0.3255706475192891,1.3212780922671747,0.9576593574220426,0.28761093937441584,0.6708558272613672
0.035500000000000004,1.7746952817479287,1.0,2879.511954854945,0.3293536680879126,1.3209720922250756,0.9585504302726546,0.287590201833413,0.6714825127954642
0.036000000000000004,1.7742015307716712,1.0,2888.5970546781077,0.3331154683925313,1.3206687709364473,0.959408646432734,0.2875694642924102,0.6721031229148862
0.0365,1.773707779795414,1.0,2897.4059165938306,0.33685616626262715,1.3203680128856885,0.9602356262198015,0.2875487267514074,0.6727179091826382
0.037,1.7732140288191565,1.0,2905.950327461023,0.3405758795276824,1.3200697025571968,0.9610328904962545,0.28752798921040457,0.6733271221458788
0.0375,1.772720277842899,1.0,2914.2421924417704,0.3442747260171791,1.319773724435371,0.9618018678911686,0.2875072516694017,0.6739310113543729
0.038,1.7722265268666415,1.0,2922.293528880397,0.3479528235605993,1.3194799630046092,0.9625439014206966,0.28748651412839893,0.6745298253781044
0.0385,1.771732775890384,1.0,2930.11646047798,0.35161028998742505,1.3191883027493094,0.9632602545632151,0.28746577658739614,0.675123811824028
0.039,1.7712390249141265,1.0,2937.719564359895,0.3552472368791308,1.3188986601108583,0.9639521185631065,0.2874450390463933,0.6757131523580971
0.0395,1.770745273937869,1.0,2945.112848826408,0.35886378062698887,1.3186109396829098,0.9646206156052068,0.2874243015053905,0.6762980520228739
0.04,1.7702515229616118,1.0,2952.311550032412,0.3624600471703419,1.3183250010689933,0.9652668014367478,0.2874035639643877,0.6768788064235505
0.0405,1.7697577719853543,1.0,2959.322202995396,0.3660361467756707,1.3180407807081689,0.9658916759432981,0.28738282642338486,0.6774555542300333
0.041,1.7692640210090969,1.0,2966.1513973826363,0.36959218970945623,1.3177582150394973,0.9664961831099144,0.28736208888238207,0.6780284335934712
0.0415,1.7687702700328394,1.0,2972.8057751341403,0.3731282862381794,1.3174772405020383,0.9670812147301107,0.2873413513413793,0.6785975821530961
0.042,1.768276519056582,1.0,2979.292028175567,0.37664454662832114,1.3171977935348524,0.9676476138317464,0.28732061380037643,0.679163137042797
0.0425,1.7677827680803244,1.0,2985.616896221208,0.38014108114636236,1.316919810577,0.9681961778441426,0.28729987625937364,0.6797252348974442
0.043000000000000003,1.7672890171040672,1.0,2991.7871646654403,0.383618000058784,1.3166432280675406,0.9687276615284125,0.28727913871837085,0.6802840118589524
0.043500000000000004,1.7667952661278097,1.0,2997.8096625646403,0.3870754136320669,1.3163679824455352,0.9692427796909393,0.287258401177368,0.680839603582084
0.044,1.7663015151515522,1.0,3003.691260708576,0.39051343213269196,1.3160940101500436,0.9697422096980659,0.28723766363636516,0.6813921452400005
0.0445,1.7658077641752947,1.0,3009.438869780952,0.3939321658271402,1.3158212476201263,0.9702265938084041,0.28721692609536237,0.6819417715295499
0.045,1.7653140131990372,1.0,3015.05943860984,0.39733172498189245,1.3155496312948434,0.9706965413376644,0.2871961885543596,0.6824886166763023
0.0455,1.7648202622227798,1.0,3020.552635883974,0.4007121977295216,1.315279160833273,0.9711526322890763,0.28717545101335673,0.6830326873222805
0.046,1.7643265112465225,1.0,3025.931911451468,0.4040737199417878,1.3150097169993407,0.9715954153931806,0.28715471347235394,0.6835742289413116
0.0465,1.763832760270265,1.0,3031.2015076215694,0.40741639633104093,1.314741260464926,0.9720254136005678,0.28713397593135115,0.6841133257683343
0.047,1.7633390092940076,1.0,3036.3648906460494,0.4107403290006135,1.3144737587841047,0.9724431242777433,0.2871132383903483,0.6846500479470561
0.0475,1.76284525831775,1.0,3041.4255457910117,0.41404562005383805,1.3142071795109518,0.9728490205675654,0.2870925008493455,0.6851844653819277
0.048,1.7623515073414926,1.0,3046.386976661004,0.4173323715940471,1.313941490199543,0.973243552795238,0.2870717633083427,0.6857166477400838
0.0485,1.7618577563652351,1.0,3051.252704547551,0.42060068572457315,1.3136766584039534,0.9736271497800811,0.2870510257673399,0.6862466644532191
0.049,1.7613640053889779,1.0,3056.0262678007425,0.42385066454874876,1.3134126516782585,0.9740002200602076,0.2870302882263371,0.6867745847193961
0.0495,1.7608702544127204,1.0,3060.711221223547,0.42708241016990633,1.313149437576534,0.9743631530366376,0.28700955068533424,0.6873004775047846
0.05,1.760376503436463,1.0,3065.31113549043,0.43029602469137845,1.3128869836528552,0.9747163200428337,0.28698881314433144,0.6878244115453378
0.0505,1.7598827524602054,1.0,3069.829596588451,0.4334916102164976,1.3126252574612973,0.9750600753451563,0.2869680756033286,0.6883464553483978
0.051000000000000004,1.759389001483948,1.0,3074.2702052824607,0.43666926884859636,1.3123642265559359,0.9753947570792709,0.2869473380623258,0.6888666771942347
0.051500000000000004,1.7588952505076905,1.0,3078.636576602913,0.43982910269100717,1.3121038584908464,0.9757206881271531,0.286926600521323,0.6893851451375183
0.052000000000000005,1.7584014995314332,1.0,3082.9323393573973,0.44297121384706256,1.3118441208201044,0.9760381769389461,0.28690586298032017,0.689901927008725
0.0525,1.7579077485551757,1.0,3087.158198592047,0.44609568458179744,1.3115850062006158,0.9763475178007167,0.2868851254393174,0.690417040532405
0.053,1.7574139975789183,1.0,3091.316999054259,0.44920261702551145,1.3113264890561276,0.9766489930444112,0.2868643878983146,0.6909305395790334
0.0535,1.7569202466026608,1.0,3095.415598141236,0.4522921409911285,1.3110685096501393,0.976942873415183,0.28684365035731174,0.6914425456123763
0.054,1.7564264956264033,1.0,3099.455605928096,0.45536434936548703,1.3108110531811716,0.9772294169724346,0.28682291281630895,0.6919530906263103
0.0545,1.7559327446501458,1.0,3103.438638868486,0.45841933503542526,1.3105541048477451,0.9775088707734267,0.2868021752753061,0.6924622065121675
0.055,1.7554389936738886,1.0,3107.36631962599,0.4614571908877816,1.3102976498483805,0.9777814714343117,0.2867814377343033,0.6929699250592215
0.0555,1.754945242697631,1.0,3111.240276909244,0.46447800980939424,1.3100416733815985,0.9780474456580404,0.2867607001933005,0.6934762779551601
0.056,1.7544514917213736,1.0,3115.06214531292,0.46748188468710167,1.3097861606459196,0.9783070107313633,0.2867399626522977,0.6939812967865451
0.0565,1.7539577407451161,1.0,3118.8335651629764,0.4704689084077421,1.3095310968398646,0.9785603749929711,0.2867192251112949,0.694485013039255
0.057,1.7534639897688586,1.0,3122.556182366656,0.47343917385815387,1.3092764671619543,0.9788077382746725,0.28669848757029204,0.6949874580989177
0.0575,1.7529702387926012,1.0,3126.23164826815,0.4763927739251753,1.3090222568107093,0.9790492923173716,0.28667775002928925,0.6954886632513266
0.058,1.752476487816344,1.0,3129.8616195078243,0.4793298014956448,1.3087684509846502,0.9792852211634724,0.28665701248828646,0.6959886596828433
0.0585,1.7519827368400864,1.0,3133.4477578875612,0.4822503494564006,1.3085150348822978,0.9795157015272257,0.2866362749472836,0.6964874784807863
0.059000000000000004,1.751488985863829,1.0,3136.9917302404356,0.48515451069428106,1.3082619937021729,0.9797409031444239,0.2866155374062808,0.6969851506338058
0.059500000000000004,1.7509952348875715,1.0,3140.4952083050366,0.4880423780961245,1.3080093126427959,0.979960989102748,0.286594799865278,0.6974817070322463
0.06,1.750501483911314,1.0,3143.959868604717,0.4909140445487692,1.3077569769026876,0.9801761161539817,0.2865740623242752,0.6979771784684906
0.0605,1.7500077329350565,1.0,3147.3873923324036,0.4937696029390536,1.3075049716803686,0.98038643500922,0.2865533247832724,0.6984715956372949
0.061,1.749513981958799,1.0,3150.7794652390685,0.4966091461538159,1.3072532821743597,0.9805920906181236,0.28653258724226954,0.6989649891361076
0.0615,1.7490202309825418,1.0,3154.1377507823995,0.4994327666579019,1.3070018938093344,0.9807932224128635,0.28651184970126675,0.6994573890225835
0.062,1.7485264800062843,1.0,3157.4601253375467,0.5022405031469046,1.3067508240516466,0.9809899621985989,0.2864911121602639,0.6999487625753692
0.0625,1.7480327290300268,1.0,3160.751759991721,0.5050325133934428,1.3065000287194,0.9811824425868159,0.2864703746192611,0.7004391976881601
0.063,1.7475389780537693,1.0,3164.0133560099234,0.5078088806766097,1.3062495014636282,0.9813707876688573,0.2864496370782583,0.7009287080780587
0.0635,1.7470452270775119,1.0,3167.245616693714,0.5105696882754989,1.305999235935365,0.9815551169914994,0.2864288995372555,0.7014173074201941
0.064,1.7465514761012544,1.0,3170.4492473439605,0.5133150194692039,1.3057492257856438,0.9817355457568485,0.2864081619962527,0.7019050093478298
0.0645,1.7460577251249971,1.0,3173.6249552242975,0.516044957536818,1.3054994646654978,0.9819121850120339,0.2863874244552499,0.702391827452469
0.065,1.7455639741487396,1.0,3176.773449525451,0.5187595857574347,1.3052499462259612,0.9820851418292854,0.28636668691424705,0.7028777752839533
0.0655,1.7450702231724822,1.0,3179.8954413312663,0.5214589874101476,1.3050006641180671,0.982254519476951,0.28634594937324426,0.7033628663505676
0.066,1.7445764721962247,1.0,3182.991643584108,0.5241432457740501,1.3047516119928495,0.9824204175819713,0.28632521183224147,0.7038471141191318
0.0665,1.7440827212199672,1.0,3186.062771052747,0.5268124441282356,1.3045027835013414,0.9825829322842932,0.2863044742912386,0.7043305320150995
0.067,1.7435889702437097,1.0,3189.1095403001887,0.5294666657517975,1.3042541722945769,0.982742156383683,0.2862837367502358,0.7048131334226466
0.0675,1.7430952192674525,1.0,3192.132669652708,0.5321059939238293,1.304005772023589,0.9828981794793561,0.286262999209233,0.705294931684763
0.068,1.742601468291195,1.0,3195.132879169391,0.5347305119234245,1.3037575763394118,0.9830510881028287,0.2862422616682302,0.7057759401033368
0.0685,1.7421077173149375,1.0,3198.110890613208,0.5373403030296765,1.3035095788930786,0.9832009658443622,0.28622152412722734,0.7062561719392414
0.069,1.74161396633868,1.0,3201.067427422914,0.5399354505216788,1.3032617733356229,0.9833478934733527,0.28620078658622455,0.7067356404124149
0.0695,1.7411202153624226,1.0,3204.003214684837,0.5425160376785249,1.3030141533180783,0.9834919490529945,0.28618004904522176,0.707214358701939
0.07,1.740626464386165,1.0,3206.9189791068547,0.5450821477793082,1.3027667124914788,0.9836332080495271,0.2861593115042189,0.7076923399461168
