Time [s],Phi [rad],STIM [ ],Fsee [N],Gamma [ ],Lcerel [ ],q [ ],Lmtc [m],fisomrel [ ]
0.0,1.8,1.0,17.97110127312471,5.938358945585556e-05,1.379339304484266,0.005000926729405284,0.288653,0.541140599723831
0.0005,1.79999375,1.0,18.296812890173413,0.005668259803290708,1.3793001591542957,0.013078179587714102,0.2886527375,0.5412352974028252
0.001,1.799975,1.0,21.675124869269787,0.011245674656246525,1.378932510417601,0.0358663674986493,0.28865195,0.5421242109330829
0.0015,1.79994375,1.0,31.204244660912938,0.01679180462258612,1.3780347139234808,0.07095429105720058,0.2886506375,0.5442913108060972
0.002,1.7999,1.0,53.873520858161335,0.02230682518484634,1.3763492700627775,0.11513523022120299,0.2886488,0.5483457491173934
0.0025,1.79984375,1.0,97.60841728706828,0.02779091084173833,1.373911610048716,0.1650286591086587,0.28864643749999996,0.554177639894059
0.003,1.7997750000000001,1.0,161.59526783355352,0.03324423511541012,1.3711905200104055,0.2177485241879056,0.28864354999999997,0.5606428503010354
0.0035,1.79969375,1.0,238.40327831700031,0.0386669705514011,1.368562574735719,0.27107840070088085,0.2886401375,0.566841927628117
0.004,1.7996,1.0,322.23277724824953,0.044059288729324894,1.3661358158971693,0.32336652087594975,0.2886362,0.5725273096853132
0.0045000000000000005,1.7994937500000001,1.0,410.06100608312585,0.04942136026808302,1.3639042024552956,0.3734623424339494,0.2886317375,0.5777223578934159
0.005,1.799375,1.0,500.2229287035595,0.05475335481720168,1.3618411491063072,0.42064772171445614,0.28862675,0.5824967564203674
0.0055,1.79924375,1.0,591.6070140989041,0.060055441101632925,1.3599228862229258,0.4645442714282516,0.2886212375,0.5869117218525473
0.006,1.7991000000000001,1.0,683.3357271798878,0.06532778687135961,1.3581315570613055,0.5050205115186395,0.2886152,0.5910133540715717
0.006500000000000001,1.79894375,1.0,774.696753187265,0.07057055895498124,1.3564533362424736,0.542112105391846,0.2886086375,0.5948374332959505
0.007,1.798775,1.0,865.0909374112996,0.07578392321974961,1.354877392655616,0.5759605183882216,0.28860155,0.5984121051720402
0.0075,1.79859375,1.0,954.035340599277,0.08096804460262644,1.3533945980171729,0.606767970884106,0.2885939375,0.601761027079977
0.008,1.7984,1.0,1041.1371039791636,0.08612308731545756,1.3519971844453766,0.6347665066635081,0.2885858,0.604904279791223
0.0085,1.79819375,1.0,1126.0716083788602,0.09124921413200317,1.35067852157352,0.6601974363012977,0.2885771375,0.6078589748310277
0.009000000000000001,1.797975,1.0,1208.6092232446067,0.09634658723265405,1.3494323482467792,0.6832979711168377,0.28856795,0.6106410522919058
0.0095,1.79774375,1.0,1288.5893199379718,0.10141536871491177,1.3482529003660393,0.7042936513252435,0.2885582375,0.6132650426869947
0.01,1.7975,1.0,1365.8558606425008,0.10645571811460489,1.3471355333075072,0.7233945403671125,0.288548,0.6157427344238282
0.0105,1.79724375,1.0,1440.3219311341838,0.11146779483313178,1.3460756564968253,0.7407928391454125,0.2885372375,0.6180855866718477
0.011,1.796975,1.0,1511.945605368815,0.11645175758024007,1.3450689394352762,0.756662692143483,0.28852595000000003,0.6203042953986406
0.0115,1.79669375,1.0,1580.7256725104976,0.12140776496543614,1.344111260153126,0.7711607399968161,0.2885141375,0.6224089305989402
0.012,1.7964,1.0,1646.6480819332933,0.12633597296102814,1.3431992471937544,0.784427427511682,0.28850180000000003,0.6244077701710469
0.0125,1.79609375,1.0,1709.7317478957052,0.13123653719189707,1.342329628358113,0.7965880093962514,0.2884889375,0.6263087549368503
0.013000000000000001,1.7957750000000001,1.0,1770.023192983931,0.1361096127968925,1.3414992407672193,0.8077539743567356,0.28847555,0.6281194788119031
0.0135,1.79544375,1.0,1827.589078063979,0.14095535493003056,1.3407050677644738,0.8180244670913328,0.2884616375,0.6298471198967006
0.014,1.7951000000000001,1.0,1882.4847344913483,0.14577391665497166,1.3399445393542333,0.8274877298430984,0.2884472,0.6314978002654277
0.0145,1.79474375,1.0,1934.7653441950085,0.15056544963814175,1.3392153519422094,0.8362222531562569,0.2884322375,0.633076993006132
0.015,1.794375,1.0,1984.5071878891783,0.15533010554596682,1.3385152019341136,0.8442978044002746,0.28841675,0.6345901086081197
0.0155,1.79399375,1.0,2031.7897951366301,0.1600680350509797,1.3378419545083708,0.8517765035648237,0.2884007375,0.6360421357588134
0.016,1.7936,1.0,2076.7151614149166,0.1647793896265144,1.337193416333534,0.858713653282352,0.2883842,0.6374381376955359
0.0165,1.7931937500000001,1.0,2119.35594819034,0.16946431750896404,1.3365678574917228,0.8651587018509195,0.2883671375,0.6387821342583909
0.017,1.792775,1.0,2159.78565812899,0.17412296612942613,1.3359636667769341,0.8711558302083856,0.28834955,0.6400778526970573
0.0175,1.7923437500000001,1.0,2198.0887774420244,0.17875548291899812,1.3353792329831635,0.8767445398248784,0.2883314375,0.641328986236049
0.018000000000000002,1.7919,1.0,2234.3520435203563,0.18336201444818628,1.334813023227799,0.8819602233762499,0.2883128,0.6425390289447108
0.0185,1.79144375,1.0,2268.668681881368,0.18794270785348788,1.3342635289741944,0.8868346307476317,0.2882936375,0.6437113941253759
0.019,1.790975,1.0,2301.1175273372196,0.19249770803228988,1.3337294640885466,0.8913963378433715,0.28827395,0.6448489948953171
0.0195,1.79049375,1.0,2331.767614500294,0.19702715792924602,1.3332097052464527,0.8956710934841411,0.2882537375,0.6459543760509316
0.02,1.79,1.0,2360.693740581343,0.20153120048901002,1.3327031291235099,0.8996821016725545,0.288233,0.6470300633655138
0.0205,1.78949375,1.0,2387.975982477146,0.20600997865623566,1.332208612395315,0.9034503073568568,0.2882117375,0.6480785645739139
0.021,1.788975,1.0,2413.6844889944755,0.21046363326680415,1.3317251743383247,0.9069946770361712,0.28818995000000003,0.6491020685912248
0.021500000000000002,1.78844375,1.0,2437.909496332953,0.21489230842427207,1.3312516804865309,0.9103323548716391,0.2881676375,0.650103074537147
0.022,1.7879,1.0,2460.711851953159,0.2192961431251636,1.330787316467334,0.9134789536052358,0.2881448,0.6510833905112876
0.0225,1.78734375,1.0,2482.149241918236,0.22367527539649204,1.330331327467195,0.9164486659956048,0.28812143749999997,0.6520446877989821
0.023,1.786775,1.0,2502.2820787485452,0.2280298432652705,1.329882958672575,0.9192544032046632,0.28809755,0.6529886274790437
0.0235,1.78619375,1.0,2521.173273105294,0.23235998475851227,1.3294414552699356,0.9219079282599023,0.28807313749999996,0.6539168608087595
0.024,1.7856,1.0,2538.8839875471053,0.23666583716114564,1.3290061004323916,0.9244199805679342,0.2880482,0.6548309498669357
0.0245,1.78499375,1.0,2555.4707270972854,0.2409475366790784,1.328576240125721,0.9268003836774864,0.2880227375,0.6557323164057541
0.025,1.784375,1.0,2571.005726843803,0.24520522187332144,1.3281510895140882,0.9290581047488962,0.28799675,0.6566226481209083
0.025500000000000002,1.78374375,1.0,2585.5318602235125,0.24943902546109945,1.3277301544590314,0.9312014066848995,0.2879702375,0.6575030161296538
0.026000000000000002,1.7831000000000001,1.0,2599.0932649240335,0.25364908015963705,1.3273129408220894,0.9332378702850208,0.2879432,0.6583744858749854
0.0265,1.78244375,1.0,2611.7352375584956,0.2578355186861589,1.3268989544648004,0.9351744597593931,0.2879156375,0.6592381172507027
0.027,1.781775,1.0,2623.5041337541757,0.2619984737578897,1.3264877012487029,0.9370175811518261,0.28788755,0.6600949647108985
0.0275,1.7810937500000001,1.0,2634.4472736545963,0.26613807809205403,1.3260786870353354,0.9387731345155967,0.2878589375,0.6609460773638769
0.028,1.7804,1.0,2644.607382557466,0.27025446050565954,1.3256714682007225,0.940446566425564,0.2878298,0.6617923941326078
0.0285,1.77969375,1.0,2654.0322713253126,0.2743477565446609,1.32526556118158,0.9420429023547636,0.2878001375,0.6626349321085199
0.029,1.778975,1.0,2662.755149739013,0.2784180937571673,1.3248606233223439,0.943566804174224,0.28776995,0.663474411398655
0.029500000000000002,1.7782437500000001,1.0,2670.80931038285,0.2824655993802645,1.3244563162187142,0.9450225861501582,0.2877392375,0.6643115397505797
0.03,1.7775,1.0,2678.228539776543,0.28649040065103804,1.324052301466391,0.9464142448822872,0.287708,0.665147021410508
0.0305,1.77674375,1.0,2685.047072557134,0.29049262480657373,1.3236482406610743,0.9477454867273254,0.2876762375,0.6659815571332631
0.031,1.775975,1.0,2691.299548199766,0.29447239908395706,1.3232437953984646,0.9490197525308597,0.28764395,0.6668158441849348
0.0315,1.7751937500000001,1.0,2697.01450145968,0.29842984645792436,1.322838686426391,0.9502402460031182,0.2876111375,0.6676504545487321
0.032,1.7744,1.0,2702.2196498433873,0.3023650917020844,1.3224326447072907,0.9514099492033833,0.2875778,0.6684859363107846
0.0325,1.77359375,1.0,2706.9588348515053,0.30627827158092147,1.322025256470449,0.9525316251140304,0.2875439375,0.6693231319998134
0.033,1.772775,1.0,2711.2520343215206,0.31016950636425517,1.3216163282297033,0.9536078701067938,0.28750955,0.6701624279848334
0.0335,1.7719437500000002,1.0,2715.119409002616,0.31403891632190517,1.321205666498891,0.9546411063454907,0.2874746375,0.6710042085746277
0.034,1.7711000000000001,1.0,2718.581285359955,0.31788662172369136,1.3207930777918495,0.9556335955491276,0.2874392,0.6718488559975523
0.0345,1.7702437500000001,1.0,2721.65813920923,0.3217127428394333,1.320378368622416,0.9565874515129041,0.2874032375,0.672696750378952
0.035,1.7693750000000001,1.0,2724.370580180978,0.32551739993895074,1.319961345504428,0.9575046515122706,0.28736675,0.6735482697161865
0.035500000000000004,1.76849375,1.0,2726.739337015225,0.3293007132920634,1.3195418149517228,0.9583870467013546,0.2873297375,0.674403789851272
0.036000000000000004,1.7676,1.0,2728.78524368577,0.33306280316859094,1.3191195834781382,0.9592363716048912,0.2872922,0.6752636844411339
0.0365,1.76669375,1.0,2730.529226354926,0.33680378983835313,1.3186944575975112,0.960054252792056,0.2872541375,0.6761283249254723
0.037,1.765775,1.0,2731.9922911580975,0.3405237935711697,1.3182662438236794,0.9608422168111161,0.28721555,0.6769980804922393
0.0375,1.76484375,1.0,2733.1822437887954,0.3442229260497147,1.3178348691995245,0.9616017074147056,0.2871764375,0.6778730737274271
0.038,1.7639,1.0,2734.125150356248,0.3479013133126948,1.317400095371579,0.9623340687075277,0.28713679999999997,0.6787537610271447
0.0385,1.76294375,1.0,2734.839062161832,0.35155907335110653,1.3169617572585204,0.9630405703042377,0.28709663750000003,0.6796404478175727
0.039,1.761975,1.0,2735.3350321730213,0.3551963190171994,1.316519753685385,0.9637224122535835,0.28705595,0.6805333084405076
0.0395,1.7609937500000001,1.0,2735.6241443778426,0.35881316316322287,1.3160739834772093,0.9643807249920435,0.2870147375,0.6814325158445436
0.04,1.76,1.0,2735.7175094570594,0.3624097186414264,1.3156243454590293,0.9650165741227484,0.286973,0.6823382415610948
0.0405,1.7589937500000001,1.0,2735.6262606840305,0.3659860983040595,1.3151707384558815,0.9656309648174766,0.2869307375,0.6832506556797651
0.041,1.757975,1.0,2735.3615500511346,0.36954241500337154,1.3147130612928024,0.9662248458751233,0.28688795,0.6841699268230638
0.0415,1.75694375,1.0,2734.93454462321,0.37307878159161206,1.3142512127948283,0.9667991134667531,0.2868446375,0.6850962221204706
0.042,1.7559,1.0,2734.3564231179926,0.3765953109210305,1.313785091786995,0.9673546145944486,0.28680079999999997,0.6860297071818465
0.0425,1.75484375,1.0,2733.638372713728,0.3800921158438763,1.3133145970943394,0.9678921502885462,0.2867564375,0.6869705460701906
0.043000000000000003,1.753775,1.0,2732.785996339118,0.383569302642375,1.3128396783199745,0.9684124816519596,0.28671155,0.687918799963823
0.043500000000000004,1.75269375,1.0,2731.8118130696034,0.3870269871225717,1.312360222289621,0.9689163258110588,0.28666613750000003,0.6888746541172788
0.044,1.7516,1.0,2730.7274927906824,0.39046528240778444,1.311876123544854,0.9694043623769091,0.2866202,0.6898382766665657
0.0445,1.75049375,1.0,2729.539106498923,0.39388429449949514,1.311387327500125,0.9698772385013376,0.2865737375,0.6908097330112559
0.045,1.7493750000000001,1.0,2728.2527261741934,0.3972841293991857,1.3108937795698856,0.9703355680254979,0.28652675,0.6917890874513756
0.0455,1.74824375,1.0,2726.874423665483,0.4006648931083383,1.3103954251685868,0.9707799335151206,0.2864792375,0.6927764031709575
0.046,1.7471,1.0,2725.4102696431823,0.40402669162843474,1.3098922097106795,0.9712108881523895,0.2864312,0.6937717422214038
0.0465,1.7459437500000001,1.0,2723.866332616764,0.407369630960957,1.3093840786106157,0.9716289574958307,0.28638263750000004,0.6947751655046568
0.047,1.744775,1.0,2722.2486780188897,0.41069381710738717,1.3088709772828462,0.9720346411185932,0.28633355,0.6957867327561846
0.0475,1.74359375,1.0,2720.5633673559705,0.41399935606920707,1.3083528511418225,0.9724284141345972,0.28628393750000003,0.6968065025277712
0.048,1.7424,1.0,2718.8164574236434,0.41728635384789875,1.3078296456019958,0.9728107286212077,0.2862338,0.6978345321701203
0.0485,1.74119375,1.0,2717.0114256399866,0.4205549083212392,1.3073013295277511,0.9731820155754543,0.2861831375,0.6988708318573869
0.049,1.739975,1.0,2715.153812419541,0.423805126777977,1.3067678529587758,0.9735426853682942,0.28613195,0.6999154476755832
0.0495,1.73874375,1.0,2713.2511606628664,0.4270371231886216,1.3062291476253913,0.9738931285769117,0.2860802375,0.7009684602826094
0.05,1.7375,1.0,2711.306440806341,0.4302509963915232,1.305685186875084,0.9742337185494913,0.286028,0.702029867745998
0.0505,1.73624375,1.0,2709.322620152501,0.4334468452250322,1.3051359440553412,0.9745648113910951,0.2859752375,0.7030996672367849
0.051000000000000004,1.734975,1.0,2707.302662648261,0.4366247685274989,1.3045813925136491,0.9748867469108097,0.28592195,0.7041778550205562
0.051500000000000004,1.73369375,1.0,2705.249528677636,0.4397848651372736,1.3040215055974949,0.9751998495087524,0.2858681375,0.7052644264484451
0.052000000000000005,1.7324,1.0,2703.166174871204,0.4429272338927066,1.303456256654365,0.9755044290072521,0.2858138,0.7063593759480872
0.0525,1.73109375,1.0,2701.055553930715,0.44605197363214816,1.3028856190317466,0.9758007814301765,0.28575893750000003,0.707462697014527
0.053,1.729775,1.0,2698.920614469793,0.44915918319394865,1.302309566077126,0.9760891897340582,0.28570355000000003,0.7085743822010835
0.0535,1.72844375,1.0,2696.764300870113,0.4522489614164584,1.3017280711379902,0.9763699244943955,0.2856476375,0.7096944231101656
0.054,1.7271,1.0,2694.5895531535634,0.45532140713802766,1.301141107561826,0.9766432445502299,0.2855912,0.7108228103840457
0.0545,1.7257437500000001,1.0,2692.3993068700934,0.4583766191970068,1.3005486486961202,0.9769093976098743,0.2855342375,0.7119595336955872
0.055,1.724375,1.0,2690.196508441873,0.461414692835315,1.2999506677469865,0.9771686204656037,0.28547675,0.7131045820093651
0.0555,1.72299375,1.0,2687.984500261067,0.4644357001682144,1.2993471342508183,0.9774211375022916,0.2854187375,0.7142579503055567
0.056,1.7216,1.0,2685.765012690535,0.467439779012043,1.2987380324660702,0.9776671707393705,0.2853602,0.7154196044588685
0.0565,1.72019375,1.0,2683.539163445971,0.47042701991482316,1.2981233522418056,0.9779069288718234,0.28530113749999997,0.7165894988778964
0.057,1.718775,1.0,2681.308068439532,0.4733975134245776,1.2975030834270878,0.9781406120112496,0.28524155,0.7177675872173956
0.0575,1.71734375,1.0,2679.072841765477,0.47635135008932866,1.29687721587098,0.978368412106093,0.2851814375,0.7189538223746669
0.058,1.7159,1.0,2676.8345956891326,0.47928862045709886,1.296245739422546,0.9785905133380299,0.2851208,0.7201481564859343
0.0585,1.71444375,1.0,2674.594440637326,0.4822094150759107,1.2956086439308487,0.9788070924960426,0.2850596375,0.721350540922719
0.059000000000000004,1.7129750000000001,1.0,2672.353485191331,0.48511382449378665,1.2949659192449519,0.979018319329608,0.28499795,0.7225609262882033
0.059500000000000004,1.71149375,1.0,2670.1128360822972,0.4880019392587493,1.2943175552139186,0.9792243568823165,0.2849357375,0.7237792624135906
0.06,1.71,1.0,2667.873598188571,0.490873849918821,1.2936635416868123,0.9794253618071505,0.284873,0.7250054983544575
0.0605,1.7084937500000001,1.0,2665.6368745358177,0.4937296470220243,1.2930038685126966,0.9796214846645699,0.2848097375,0.7262395823870996
0.061,1.7069750000000001,1.0,2663.4037662989163,0.49656942111638175,1.2923385255406343,0.9798128702044571,0.28474595,0.7274814620048722
0.0615,1.7054437500000001,1.0,2661.1753728061653,0.4993932627499158,1.2916675026196893,0.9799996576329234,0.2846816375,0.7287310839145202
0.062,1.7039,1.0,2658.952791546814,0.5022012624706489,1.2909907895989248,0.9801819808648885,0.2846168,0.7299883940325074
0.0625,1.70234375,1.0,2656.7371181788644,0.5049935108266036,1.290308376327404,0.9803599687632987,0.2845514375,0.7312533374813344
0.063,1.7007750000000001,1.0,2654.529446541175,0.5077700983658023,1.2896202526541904,0.9805337453657832,0.28448555,0.7325258585858511
0.0635,1.69919375,1.0,2652.3308686668665,0.5105311156362676,1.2889264084283474,0.9807034300994968,0.28441913750000003,0.7338059008695657
0.064,1.6976,1.0,2650.1445496260117,0.5132765859318124,1.28822681435926,0.9808691321167354,0.2843522,0.7350934422331401
0.0645,1.69599375,1.0,2647.9685577232513,0.5160066817302947,1.287521488144002,0.981030969732748,0.2842847375,0.7363883732635794
0.065,1.694375,1.0,2645.8029379795075,0.5187214856467783,1.2868104292596858,0.9811890495845342,0.28421675,0.7376906175633762
0.0655,1.69274375,1.0,2643.6477833501767,0.5214210786150261,1.2860936367403113,0.9813434743316262,0.2841482375,0.7390000989053023
0.066,1.6911,1.0,2641.5031866716877,0.5241055415688012,1.2853711096198785,0.9814943429665511,0.2840792,0.7403167404155588
0.0665,1.6894437500000001,1.0,2639.369240663829,0.5267749554418664,1.284642846932388,0.9816417509703759,0.2840096375,0.7416404645734219
0.067,1.687775,1.0,2637.246037931154,0.5294294011679849,1.2839088477118394,0.9817857904605799,0.28393955,0.7429711932108916
0.0675,1.68609375,1.0,2635.1336709653856,0.5320689596809194,1.283169110992233,0.9819265503316836,0.2838689375,0.7443088475123356
0.068,1.6844000000000001,1.0,2633.0322321471513,0.5346937119144332,1.282423635807569,0.9820641163890387,0.2837978,0.7456533480141381
0.0685,1.68269375,1.0,2630.941813747813,0.5373037388022889,1.2816724211918475,0.9821985714761532,0.2837261375,0.7470046146043445
0.069,1.680975,1.0,2628.862507931928,0.5398991212782498,1.2809154661790685,0.982329995595911,0.28365395,0.7483625665223107
0.0695,1.67924375,1.0,2626.794406758891,0.5424799402760787,1.2801527698032324,0.9824584660260137,0.28358123749999997,0.7497271223583453
0.07,1.6775,1.0,2624.73760218511,0.5450462767295388,1.2793843310983393,0.9825840574289596,0.283508,0.7510982000533595
0.07050000000000001,1.67574375,1.0,2622.692186066147,0.5475982115723927,1.278610149098389,0.9827068419568533,0.2834342375,0.7524757168985123
0.07100000000000001,1.673975,1.0,2620.6582501586745,0.5501358257384037,1.2778302228373817,0.9828268893513213,0.28335995,0.753859589534856
0.07150000000000001,1.67219375,1.0,2618.6358861226577,0.5526592001613346,1.2770445513493178,0.982944267038793,0.2832851375,0.7552497339529822
0.07200000000000001,1.6704,1.0,2616.625185523484,0.5551684157749485,1.2762531336681975,0.9830590402213923,0.2832098,0.756646065492669
0.0725,1.66859375,1.0,2614.62623983415,0.5576635535130082,1.2754559688280205,0.9831712719636672,0.2831339375,0.7580484988425275
0.073,1.6667750000000001,1.0,2612.639140437434,0.5601446943092768,1.2746530558627873,0.9832810232753761,0.28305755,0.7594569480396449
0.0735,1.66494375,1.0,2610.6639786280602,0.5626119190975174,1.2738443938064976,0.983388353190534,0.2829806375,0.7608713264692342
0.074,1.6631,1.0,2608.700845614755,0.5650653088114928,1.273029981693152,0.9834933188429091,0.2829032,0.7622915468642764
0.0745,1.6612437500000001,1.0,2606.7500633049226,0.5675049389844739,1.2722098164102058,0.9835959751377426,0.2828252375,0.7637175250316393
0.075,1.659375,1.0,2604.814273515635,0.5699308347531984,1.2713838732552636,0.9836963714649515,0.28274675,0.765149213446974
0.0755,1.65749375,1.0,2602.8901577822608,0.5723431479989133,1.2705521829688389,0.9837945651180902,0.2826677375,0.7665864677640177
