Time [s],Phi [rad],STIM [ ],Fsee [N],Gamma [ ],Lcerel [ ],q [ ],Lmtc [m],fisomrel [ ]
0.0,1.8,1.0,20.439694330001448,0.0016076496494660298,1.3790716652355226,0.005660868076078043,0.288653,0.541787859105765
0.0005,1.79999375,1.0,21.186744859836065,0.007207841314964426,1.378991077469844,0.01796297484012822,0.2886527375,0.5419826632597154
0.001,1.799975,1.0,25.73115711065736,0.012776620333183815,1.3785365203254971,0.044409955409304896,0.28865195,0.543080684884772
0.0015,1.79994375,1.0,38.01128369805922,0.01831416290454582,1.3774845579709925,0.08233299707427742,0.2886506375,0.5456167362673612
0.002,1.7999,1.0,65.9459822566839,0.02382064424021669,1.3756076394387602,0.12840919760570024,0.2886488,0.5501240471787064
0.0025,1.79984375,1.0,115.7418856904087,0.02929623857021019,1.3730771032943538,0.17934148955268694,0.28864643749999996,0.5561654177216009
0.003,1.7997750000000001,1.0,183.87161426473702,0.03474111914487637,1.3703851986818472,0.23242991190473625,0.28864354999999997,0.562547208537655
0.0035,1.79969375,1.0,262.8735233909374,0.040155458243897296,1.3678283460095797,0.2856208435291335,0.2886401375,0.5685660327546458
0.004,1.7996,1.0,347.8621219158633,0.04553942717924219,1.3654707706730913,0.33740507236281875,0.2886362,0.5740788130855125
0.0045000000000000005,1.7994937500000001,1.0,436.33123558601176,0.0508931963177133,1.3632976997784123,0.3867591416657871,0.2886317375,0.5791287670143961
0.005,1.799375,1.0,526.8079790198378,0.05621693498059944,1.3612839832560824,0.4330682810507539,0.28862675,0.5837815160797795
0.0055,1.79924375,1.0,618.2935156961169,0.061510811822868376,1.3594076034745104,0.4760305745499631,0.2886212375,0.5880936688925673
0.006,1.7991000000000001,1.0,709.9083356894846,0.06677499407905724,1.3576534306718582,0.5155684340095559,0.2886152,0.5921046668643186
0.006500000000000001,1.79894375,1.0,801.0036723004401,0.07200964847006218,1.3560082433364526,0.5517517027405712,0.2886086375,0.5958486309837154
0.007,1.798775,1.0,891.0031499532408,0.07721494058621245,1.354462109033773,0.5847425657857004,0.28860155,0.5993514453422502
0.0075,1.79859375,1.0,979.4420262057953,0.08239103505697001,1.353006545756906,0.614754167314071,0.2885939375,0.6026351360101321
0.008,1.7984,1.0,1065.959913458866,0.0875380959561397,1.3516340072436142,0.6420227117363669,0.2885858,0.6057191484368556
0.0085,1.79819375,1.0,1150.244863366611,0.09265628570514983,1.3503382487138897,0.6667895831234907,0.2885771375,0.608619615714556
0.009000000000000001,1.797975,1.0,1232.07681213479,0.09774576624693873,1.3491133267793505,0.6892894720786871,0.28856795,0.6113516743145869
0.0095,1.79774375,1.0,1311.3125631671287,0.10280669936632278,1.347953606124676,0.7097438594581875,0.2885582375,0.6139294897475569
0.01,1.7975,1.0,1387.8166211516786,0.10783924453418692,1.346854474588679,0.7283580154165685,0.288548,0.6163647112812864
0.0105,1.79724375,1.0,1461.5089569987322,0.11284356079412186,1.3458115134292863,0.7453192177505532,0.2885372375,0.6186683583537838
0.011,1.796975,1.0,1532.3543764390288,0.11781980663051342,1.3448205243602922,0.7607967513060158,0.28852595000000003,0.6208507843746593
0.0115,1.79669375,1.0,1600.3543351361488,0.12276814029233067,1.3438775337060913,0.7749426578163328,0.2885141375,0.6229216894522196
0.012,1.7964,1.0,1665.5036001782692,0.12768871761103806,1.3429792143558887,0.7878930768869638,0.28850180000000003,0.6248892172188053
0.0125,1.79609375,1.0,1727.8272416434418,0.13258169401751213,1.3421223522535888,0.7997693496585491,0.2884889375,0.6267611482412989
0.013000000000000001,1.7957750000000001,1.0,1787.372314855805,0.1374472243510664,1.3413038900146081,0.8106794591664098,0.28847555,0.6285448171584702
0.0135,1.79544375,1.0,1844.2108209139237,0.1422854636631806,1.34052084616665,0.820719389147656,0.2884616375,0.6302473001465201
0.014,1.7951000000000001,1.0,1898.3965730314994,0.14709656449046327,1.3397707483956158,0.829974592785271,0.2884472,0.6318744851233519
0.0145,1.79474375,1.0,1949.9874452848092,0.15188067838801458,1.3390513322027955,0.8385210687523156,0.2884322375,0.6334317414907833
0.015,1.794375,1.0,1999.0616822703728,0.15663795691093463,1.3383603330894787,0.8464263827204849,0.28841675,0.6349243781619167
0.0155,1.79399375,1.0,2045.6975779265379,0.16136855049844365,1.3376956813649983,0.8537507197821893,0.2884007375,0.6363572282762422
0.016,1.7936,1.0,2090.001362045072,0.16607261031858706,1.3370551849175707,0.8605476562740331,0.2883842,0.6377353390311933
0.0165,1.7931937500000001,1.0,2132.0418304925547,0.1707502841266882,1.336437192975042,0.8668651408312109,0.2883671375,0.6390625484154155
0.017,1.792775,1.0,2171.8940195319333,0.17540171933109652,1.335840111867042,0.8727460139739216,0.28834955,0.6403425359092243
0.0175,1.7923437500000001,1.0,2209.643615539016,0.18002706334016155,1.3352623479232004,0.8782285945946915,0.2883314375,0.6415789479114251
0.018000000000000002,1.7919,1.0,2245.372174715128,0.18462646230090407,1.3347024464756063,0.8833472468735492,0.2883128,0.6427751030715685
0.0185,1.79144375,1.0,2279.179565330606,0.18920006358504793,1.3341588549541026,0.8881327799914926,0.2882936375,0.643934501453326
0.019,1.790975,1.0,2311.1374060880216,0.19374801090740518,1.333630378967038,0.8926129698669028,0.28827395,0.6450598540507353
0.0195,1.79049375,1.0,2341.316706541498,0.19827044730389948,1.3331158922790787,0.8968128339885487,0.2882537375,0.6461537063492132
0.02,1.79,1.0,2369.794109282372,0.20276751581045446,1.3326142686548903,0.9007549274853957,0.288233,0.6472185850994021
0.0205,1.78949375,1.0,2396.647667185259,0.20723935884658032,1.3321244182016572,0.9044596264832916,0.2882117375,0.6482569223029679
0.021,1.788975,1.0,2421.9540993294186,0.21168611847260088,1.3316453085719535,0.9079453736390466,0.28818995000000003,0.6492710118055285
0.021500000000000002,1.78844375,1.0,2445.7916092127534,0.21610793699384626,1.331175932580923,0.9112288823711063,0.2881676375,0.6502630793340434
0.022,1.7879,1.0,2468.2178828450265,0.22050495270508108,1.3307155144682725,0.9143253625724483,0.2881448,0.6512348485012304
0.0225,1.78734375,1.0,2489.2935543919248,0.22487730390107014,1.3302632784737098,0.9172486354433138,0.28812143749999997,0.6521880321804745
0.023,1.786775,1.0,2509.081961677191,0.2292251288765781,1.329818448836942,0.9200112795026067,0.28809755,0.6531243329298262
0.0235,1.78619375,1.0,2527.648915027803,0.23354856592636958,1.3293802497976763,0.922624759517663,0.28807313749999996,0.6540454433776159
0.024,1.7856,1.0,2545.050043225492,0.23784775007734638,1.3289480226607855,0.9250995599501323,0.2880482,0.6549528009807377
0.0245,1.78499375,1.0,2561.3572389543606,0.2421228221472343,1.3285209738673496,0.9274452437171241,0.2880227375,0.6558481177590824
0.025,1.784375,1.0,2576.6165963207195,0.24637391561495042,1.3280985689636984,0.9296706054262927,0.28799675,0.6567325543494045
0.025500000000000002,1.78374375,1.0,2590.873988759231,0.25060116349640105,1.3276802886800998,0.9317837082591478,0.2879702375,0.6576072334519338
0.026000000000000002,1.7831000000000001,1.0,2604.1765610808634,0.25480469880749246,1.327265613746822,0.9337919525936484,0.2879432,0.6584732718715433
0.0265,1.78244375,1.0,2616.572619982766,0.2589846545641308,1.3268540248941327,0.9357021394222246,0.2879156375,0.659331780645745
0.027,1.781775,1.0,2628.1115305361704,0.2631411637822224,1.3264450028523005,0.9375205269285224,0.28788755,0.6601838651554897
0.0275,1.7810937500000001,1.0,2638.8331986673265,0.2672743559513025,1.32603812467861,0.9392528940196213,0.2878589375,0.6610304249236454
0.028,1.7804,1.0,2648.788798672392,0.2713843663300552,1.3256328707520315,0.9409045595301089,0.2878298,0.6618725557582613
0.0285,1.77969375,1.0,2658.019561974003,0.2754713258238721,1.3252288203358835,0.9424804481407908,0.2878001375,0.6627111429302602
0.029,1.778975,1.0,2666.557437846889,0.27953536154335934,1.3248256439648818,0.9439851245109439,0.28776995,0.6635468782614792
0.029500000000000002,1.7782437500000001,1.0,2674.434897619048,0.2835766005991228,1.3244230121737415,0.9454228137638834,0.2877392375,0.6643804501661875
0.03,1.7775,1.0,2681.6848882542467,0.2875951701017686,1.3240205954971787,0.9467974310794535,0.287708,0.6652125436659877
0.0305,1.77674375,1.0,2688.340788340719,0.29159119716190274,1.3236180644699087,0.9481126083563378,0.2876762375,0.6660438403977997
0.031,1.775975,1.0,2694.4363664868874,0.2955648088901312,1.3232150896266475,0.9493717182661541,0.28764395,0.6668750186149179
0.0315,1.7751937500000001,1.0,2700.0057099165547,0.29951613236663344,1.3228113417964522,0.9505778960097699,0.2876111375,0.6677067525751725
0.032,1.7744,1.0,2705.0767696398434,0.30344528908468377,1.3224065507016092,0.9517340644056123,0.2875778,0.6685395920430188
0.0325,1.77359375,1.0,2709.683621743968,0.307352410716208,1.3220003925363326,0.9528429424486645,0.2875439375,0.6693741938981114
0.033,1.772775,1.0,2713.8474771783203,0.3112376183889169,1.321592663039165,0.9539070759398761,0.28750955,0.6702109664520985
0.0335,1.7719437500000002,1.0,2717.5897298486193,0.3151010332305212,1.3211831579486493,0.9549288404730215,0.2874746375,0.6710503158486385
0.034,1.7711000000000001,1.0,2720.9319386298775,0.31894277636873153,1.3207716730033279,0.9559104548364346,0.2874392,0.671892646041601
0.0345,1.7702437500000001,1.0,2723.8958103044256,0.32276296893125866,1.3203580039417435,0.9568539932090179,0.2874032375,0.6727383587706054
0.035,1.7693750000000001,1.0,2726.5031834251827,0.3265617320458133,1.319941946502439,0.9577613962716663,0.28736675,0.6735878535338984
0.035500000000000004,1.76849375,1.0,2728.7760131038626,0.3303391868401061,1.3195232964239565,0.9586344813418841,0.2873297375,0.6744415275585729
0.036000000000000004,1.7676,1.0,2730.728192370906,0.334095445921006,1.3191019236389767,0.9594749572911323,0.2872922,0.6752996247764818
0.0365,1.76669375,1.0,2732.3836249843257,0.3378306340783033,1.3186776078520905,0.9602844206255619,0.2872541375,0.6761625709619554
0.037,1.765775,1.0,2733.768858115,0.3415448801351732,1.3182501054919917,0.9610643685501032,0.28721555,0.677030836589082
0.0375,1.76484375,1.0,2734.8962479240718,0.34523829789548616,1.3178193024880265,0.9618162169734533,0.2871764375,0.6779046268049245
0.038,1.7639,1.0,2735.778198706506,0.3489110011631128,1.3173850847695412,0.9625412970417139,0.28713679999999997,0.6787841452992065
0.0385,1.76294375,1.0,2736.427157106039,0.3525631037419239,1.3169473382658825,0.9632408611378456,0.28709663750000003,0.679669594279886
0.039,1.761975,1.0,2736.8556066180035,0.35619471943579,1.3165059489063966,0.9639160883938066,0.28705595,0.6805611744479001
0.0395,1.7609937500000001,1.0,2737.0760623815027,0.3598059620485818,1.31606080262043,0.9645680897597866,0.2870147375,0.6814590849710767
0.04,1.76,1.0,2737.1010662591657,0.36339694538416983,1.315611785337329,0.9651979126704706,0.286973,0.6823635234572186
0.0405,1.7589937500000001,1.0,2736.9431822059905,0.3669677832464249,1.3151587829864404,0.9658065453443101,0.2869307375,0.6832746859263576
0.041,1.757975,1.0,2736.614991926719,0.37051858943921745,1.3147016814971102,0.9663949207482168,0.28688795,0.6841927667821792
0.0415,1.75694375,1.0,2736.1290908210203,0.37404947776641834,1.3142403667986848,0.9669639202569406,0.2868446375,0.6851179587826148
0.042,1.7559,1.0,2735.498084218126,0.37756056203189803,1.313774724820511,0.9675143770335657,0.28680079999999997,0.6860504530096067
0.0425,1.75484375,1.0,2734.726796183792,0.38105194430754563,1.3133047122115977,0.9680470830727298,0.2867564375,0.6869902975319131
0.043000000000000003,1.753775,1.0,2733.8295507321523,0.38452374645099774,1.312830199414281,0.9685627841462231,0.28671155,0.6879377115255777
0.043500000000000004,1.75269375,1.0,2732.8171175048233,0.38797608247057086,1.3123510891596541,0.9690621878353806,0.28666613750000003,0.6888928478978884
0.044,1.7516,1.0,2731.6955204400383,0.3914090582695852,1.3118673272966554,0.9695459667844882,0.2866202,0.6898557722093137
0.0445,1.75049375,1.0,2730.4707853938307,0.39482277975136104,1.3113788596742235,0.970014758756045,0.2865737375,0.6908265489412635
0.045,1.7493750000000001,1.0,2729.148938979209,0.39821735281921844,1.3108856321412967,0.9704691687776291,0.28652675,0.6918052414799309
0.0455,1.74824375,1.0,2727.736007470941,0.4015928833764777,1.3103875905468136,0.9709097711364604,0.2864792375,0.6927919120999476
0.046,1.7471,1.0,2726.2380157751845,0.40494947732645886,1.3098846807397124,0.971337111233833,0.2864312,0.6937866219478523
0.0465,1.7459437500000001,1.0,2724.6609864643997,0.4082872405724822,1.3093768485689317,0.9717517073105145,0.28638263750000004,0.694789431025371
0.047,1.744775,1.0,2723.010938876385,0.4116062790178679,1.30886403988341,0.9721540520532348,0.28633355,0.6958003981725107
0.0475,1.74359375,1.0,2721.293888280035,0.4149066985659361,1.3083462005320856,0.9725446140915043,0.28628393750000003,0.6968195810504683
0.048,1.7424,1.0,2719.5158451040174,0.41818860512000694,1.307823276363897,0.9729238393932108,0.2862338,0.697847036124349
0.0485,1.74119375,1.0,2717.682814232293,0.4214521045834007,1.3072952132277829,0.9732921525667142,0.2861831375,0.6988828186456999
0.049,1.739975,1.0,2715.798254415015,0.42469727877343266,1.3067619801180124,0.9736499567635978,0.28613195,0.6999269373535593
0.0495,1.73874375,1.0,2713.869991264747,0.4279242604471648,1.306223506192839,0.9739976395939312,0.2860802375,0.7009794778538405
0.05,1.7375,1.0,2711.9014154052156,0.4311331524746926,1.305679760963952,0.9743355697579027,0.286028,0.7020404455899908
0.0505,1.73624375,1.0,2709.895332940259,0.4343240525388898,1.305130719239978,0.9746640987180321,0.2859752375,0.703109834745197
0.051000000000000004,1.734975,1.0,2707.854546734936,0.4374970583226299,1.304576355829543,0.9749835618983835,0.28592195,0.7041876386147821
0.051500000000000004,1.73369375,1.0,2705.7818562278208,0.4406522675087868,1.3040166455412732,0.97529427955512,0.2858681375,0.7052738495976782
0.052000000000000005,1.7324,1.0,2703.6800572572033,0.4437897777802339,1.3034515631837953,0.9755965575924171,0.2858138,0.7063684591878543
0.0525,1.73109375,1.0,2701.5519419018187,0.44690968681984494,1.3028810835657354,0.9758906883276172,0.28575893750000003,0.707471457965708
0.053,1.729775,1.0,2699.4002983350565,0.45001209231049366,1.3023051814957196,0.9761769512091863,0.28570355000000003,0.7085828355894134
0.0535,1.72844375,1.0,2697.2279106936685,0.45309709193505365,1.3017238317823747,0.9764556134907745,0.2856476375,0.7097025807862285
0.054,1.7271,1.0,2695.037558960607,0.45616478337639854,1.3011370092343268,0.976726930864404,0.2855912,0.7108306813437658
0.0545,1.7257437500000001,1.0,2692.832018861384,0.459215264317402,1.3005446886602021,0.9769911480555963,0.2855342375,0.7119671241012187
0.055,1.724375,1.0,2690.614061774919,0.4622486324409377,1.299946844868627,0.9772484993830235,0.28547675,0.7131118949405477
0.0555,1.72299375,1.0,2688.3864546587542,0.46526498542987926,1.299343452668228,0.9774992092850744,0.2854187375,0.7142649787776288
0.056,1.7216,1.0,2686.1519599874937,0.46826442096710036,1.298734486867631,0.9777434928155518,0.2853602,0.7154263595533585
0.0565,1.72019375,1.0,2683.9092995057113,0.47124701014954967,1.298119959273272,0.9779815558297124,0.28530113749999997,0.7165959498817049
0.057,1.718775,1.0,2681.659512382391,0.47421285310023786,1.297499860460131,0.9782135971629965,0.28524155,0.7177737022519213
0.0575,1.71734375,1.0,2679.409291079937,0.4771620824558812,1.2968741291233004,0.9784398074570198,0.2851814375,0.718959666636741
0.058,1.7159,1.0,2677.1593065956417,0.4800947863463937,1.2962427591202585,0.9786603688013048,0.2851208,0.7201537872092363
0.0585,1.71444375,1.0,2674.9102288026643,0.4830110529016894,1.2956057443084845,0.978875455999089,0.2850596375,0.7213560074356724
0.059000000000000004,1.7129750000000001,1.0,2672.6627264493313,0.4859109702516822,1.2949630785454573,0.9790852369143948,0.28499795,0.7225662700732984
0.059500000000000004,1.71149375,1.0,2670.417467159803,0.48879462652628614,1.294314755688656,0.9792898727999289,0.2849357375,0.7237845171681336
0.06,1.71,1.0,2668.1751174352157,0.49166210985541514,1.2936607695955593,0.9794895186070157,0.284873,0.7250106900527545
0.0605,1.7084937500000001,1.0,2665.9363426556242,0.49451350836898333,1.2930011141236466,0.9796843232786738,0.2848097375,0.7262447293440747
0.061,1.7069750000000001,1.0,2663.701807083014,0.49734891019690464,1.2923357831303965,0.9798744300268815,0.28474595,0.7274865749411281
0.0615,1.7054437500000001,1.0,2661.472173864857,0.500168403469093,1.291664770473288,0.9800599765949898,0.2846816375,0.7287361660228452
0.062,1.7039,1.0,2659.248105038887,0.5029720763154625,1.2909880700098002,0.9802410955061938,0.2846168,0.7299934410458279
0.0625,1.70234375,1.0,2657.0302615382666,0.505760016865927,1.290305675597412,0.9804179142988942,0.2845514375,0.7312583377421242
0.063,1.7007750000000001,1.0,2654.8193031978435,0.5085323132504006,1.2896175810936026,0.9805905557497374,0.28448555,0.7325307931169979
0.0635,1.69919375,1.0,2652.6158887616025,0.5112890535987973,1.2889237803558504,0.980759138085066,0.28441913750000003,0.7338107434466974
0.064,1.6976,1.0,2650.4206758897217,0.5140303260410309,1.2882242672416349,0.9809237751814578,0.2843522,0.7350981242762202
0.0645,1.69599375,1.0,2648.234321168282,0.5167562187070157,1.287519035608435,0.9810845767559986,0.2842847375,0.7363928704170776
0.065,1.694375,1.0,2646.0574801181874,0.5194668197266654,1.2868080793137293,0.9812416485468803,0.28421675,0.737694915945056
0.0655,1.69274375,1.0,2643.8908072058384,0.5221622172298942,1.286091392214997,0.9813950924848832,0.2841482375,0.7390041941979744
0.066,1.6911,1.0,2641.7349558541778,0.524842499346616,1.2853689681697171,0.9815450068562659,0.2840792,0.7403206377734406
0.0665,1.6894437500000001,1.0,2639.5897196713163,0.527507744174802,1.2846408089732202,0.9816914861631083,0.2840096375,0.7416441641169349
0.067,1.687775,1.0,2637.4523421779386,0.5301580067626577,1.2839069400045962,0.9818346211833611,0.28393955,0.7429746473763605
0.0675,1.68609375,1.0,2635.327422437768,0.532793425014054,1.283167318641154,0.981974501778589,0.2838689375,0.7443120843545252
0.068,1.6844000000000001,1.0,2633.2149354749986,0.5354140775347713,1.282421944984305,0.9821112127839787,0.2837978,0.7456563934670988
0.0685,1.68269375,1.0,2631.1148564076957,0.5380200429305895,1.2816708191354607,0.9822448361149455,0.2837261375,0.7470074924985926
0.069,1.680975,1.0,2629.02716044778,0.5406113998072887,1.2809139411960324,0.9823754508862346,0.28365395,0.7483652986023981
0.0695,1.67924375,1.0,2626.9518229004984,0.5431882267706492,1.2801513112674316,0.9825031335253626,0.28358123749999997,0.7497297283008246
0.07,1.6775,1.0,2624.8888191645697,0.545750602426451,1.2793829294510697,0.9826279578807131,0.283508,0.751100697485136
0.07050000000000001,1.67574375,1.0,2622.8381247314924,0.5482986053804744,1.2786087958483583,0.9827499953245609,0.2834342375,0.7524781214155862
0.07100000000000001,1.673975,1.0,2620.7997151856284,0.5508323142384993,1.2778289105607088,0.9828693148513077,0.28335995,0.7538619147214595
0.07150000000000001,1.67219375,1.0,2618.773566203802,0.553351807606306,1.2770432736895325,0.9829859831711709,0.2832851375,0.7552519914011058
0.07200000000000001,1.6704,1.0,2616.7596535553184,0.5558571640896746,1.276251885336241,0.983100064799572,0.2832098,0.7566482648219781
0.0725,1.66859375,1.0,2614.7579531013034,0.5583484622943851,1.2754547456022456,0.9832116221424445,0.2831339375,0.7580506477206702
0.073,1.6667750000000001,1.0,2612.7684407948555,0.5608257808262178,1.2746518545889578,0.9833207155776754,0.28305755,0.7594590522029527
0.0735,1.66494375,1.0,2610.7910926805775,0.5632891982909528,1.2738432123977892,0.9834274035328778,0.2829806375,0.7608733897438116
0.074,1.6631,1.0,2608.8258848942764,0.5657387932943703,1.273028819130151,0.9835317425596822,0.2829032,0.7622935711874849
0.0745,1.6612437500000001,1.0,2606.8727936631094,0.5681746444422502,1.2722086748874548,0.9836337874047261,0.2828252375,0.7637195067474998
0.075,1.659375,1.0,2604.931795304866,0.5705968303403729,1.2713827797711121,0.9837335910775037,0.28274675,0.7651511060067093
0.0755,1.65749375,1.0,2603.0028662281748,0.5730054295945184,1.2705511338825342,0.9838312049152396,0.2826677375,0.7665882779173313
