Time [s],Phi [rad],STIM [ ],Fsee [N],Gamma [ ],Lcerel [ ],q [ ],Lmtc [m],fisomrel [ ]
0.0,1.8,1.0,17.96810533719125,1.3623476316328364e-05,1.379339640106447,0.005000049344887149,0.288653,0.5411397877675741
0.0005,1.79999375,1.0,18.278570658092537,0.005622756368183509,1.3793021849046405,0.01295057519322737,0.2886527375,0.5412303970872637
0.001,1.799975,1.0,21.62283898607312,0.01120042645943204,1.3789378468764728,0.03562745616999419,0.28865195,0.5421113144280065
0.0015,1.79994375,1.0,31.07932825400287,0.016746810232360364,1.3780453439737663,0.07062754662297122,0.2886506375,0.5442656820783058
0.002,1.7999,1.0,53.603673407246944,0.022262083177611747,1.3763667509261228,0.11474844108937954,0.2886488,0.5483037908077609
0.0025,1.79984375,1.0,97.15442435014502,0.027746419801759212,1.3739334573961874,0.1646079708533437,0.28864643749999996,0.5541255403052732
0.003,1.7997750000000001,1.0,161.0043452384776,0.033199993634993236,1.37121261537811,0.2173145808819368,0.28864354999999997,0.560590542679029
0.0035,1.79969375,1.0,237.73550115263868,0.0386229772307365,1.3685831273593412,0.27064683328738237,0.2886401375,0.5667936167921164
0.004,1.7996,1.0,321.5222809072695,0.04401554217642019,1.3661546222231833,0.3229486710214946,0.2886362,0.5724833948488455
0.0045000000000000005,1.7994937500000001,1.0,409.325253277867,0.04937785909867026,1.3639214644114,0.373065710602414,0.2886317375,0.5776822950913972
0.005,1.799375,1.0,499.4721781264571,0.054710097654399915,1.361857095566682,0.4202766549472457,0.28862675,0.5824599565945319
0.0055,1.79924375,1.0,590.8496339889443,0.06001242657816785,1.3599376781133212,0.46420072866013734,0.2886212375,0.5868777674566045
0.006,1.7991000000000001,1.0,682.5774077500168,0.06528501362562092,1.3581453368651588,0.5047048040167471,0.2886152,0.5909818803626974
0.006500000000000001,1.79894375,1.0,773.942669155576,0.07052802563042306,1.3564662053069823,0.5418234487273786,0.2886086375,0.5948081775320165
0.007,1.798775,1.0,864.3464367903567,0.07574162847718782,1.3548894157160527,0.5756974588488649,0.28860155,0.5983848935354552
0.0075,1.79859375,1.0,953.3020028922044,0.08092598714245705,1.353405874992865,0.6065287315337067,0.2885939375,0.6017356107159677
0.008,1.7984,1.0,1040.4174379020537,0.08608126564994911,1.3520077779464943,0.6345491438767032,0.2885858,0.6048804982945521
0.0085,1.79819375,1.0,1125.3630940421688,0.09120762661452854,1.3506885497356305,0.6600000281808711,0.2885771375,0.6078365468250009
0.009000000000000001,1.797975,1.0,1207.923625228448,0.09630523300538085,1.349441714708898,0.6831185469135138,0.28856795,0.610620178639366
0.0095,1.79774375,1.0,1287.9397993823052,0.1013742469315759,1.3482614940178175,0.7041303579787563,0.2885582375,0.6132459559454009
0.01,1.7975,1.0,1365.2407993804595,0.10641482742929513,1.347143437403721,0.7232457733513018,0.288548,0.615725235546967
0.0105,1.79724375,1.0,1439.7275565112661,0.11142713353471999,1.3460830946079405,0.7406572079012504,0.2885372375,0.6180691697276508
0.011,1.796975,1.0,1511.3662793599754,0.1164113242840319,1.345076015371808,0.7565388849528062,0.28852595000000003,0.6202887232624865
0.0115,1.79669375,1.0,1580.159791434112,0.12136755798151276,1.3441180197869271,0.7710475527856187,0.2885141375,0.6223940958479721
0.012,1.7964,1.0,1646.106800757344,0.12629599143510117,1.3432055821788889,0.7843237194036679,0.28850180000000003,0.6243939042131695
0.0125,1.79609375,1.0,1709.2185942067633,0.13119678006790847,1.3423355222672444,0.7964928031958911,0.2884889375,0.6262958870982558
0.013000000000000001,1.7957750000000001,1.0,1769.531504103976,0.13607007867091298,1.3415047910926707,0.8076664467041159,0.28847555,0.6281073904998449
0.0135,1.79544375,1.0,1827.1171280457681,0.14091604256580273,1.3407103106714071,0.817943862769251,0.2884616375,0.6298357276855653
0.014,1.7951000000000001,1.0,1882.0324040264318,0.14573482485997247,1.3399494904756448,0.8274133703185813,0.2884472,0.6314870660884868
0.0145,1.79474375,1.0,1934.3319733819078,0.15052657716681114,1.3392200309870668,0.836153536812615,0.2884322375,0.633066870462798
0.015,1.794375,1.0,1984.0915704295649,0.15529145109970766,1.3385196326873552,0.8442341975473158,0.28841675,0.6345805430013334
0.0155,1.79399375,1.0,2031.3942051346373,0.16002959741240755,1.3378461223810003,0.851717518622064,0.2884007375,0.6360331555871243
0.016,1.7936,1.0,2076.3362392811982,0.16474116745004855,1.3371973651658975,0.8586588741569755,0.2883842,0.6374296458073228
0.0165,1.7931937500000001,1.0,2118.9933155383155,0.16942630977731415,1.3365715983470376,0.8651077477134314,0.2883671375,0.6387741045475777
0.017,1.792775,1.0,2159.4382881466895,0.17408517169985507,1.3359672164781686,0.8711083623030995,0.28834955,0.6400702469767583
0.0175,1.7923437500000001,1.0,2197.754981847241,0.17871790052332187,1.3353826141130383,0.8767002564849227,0.2883314375,0.6413217543070946
0.018000000000000002,1.7919,1.0,2234.0318547163865,0.18332464294007886,1.3348162400960835,0.8819188493820662,0.2883128,0.6425321599742404
0.0185,1.79144375,1.0,2268.3588690056467,0.18790554553221223,1.334266617961552,0.8867959268870828,0.2882936375,0.6437048090451076
0.019,1.790975,1.0,2300.8228694331992,0.19246075419749323,1.3337323811795418,0.8913600696527006,0.28827395,0.6448427861997226
0.0195,1.79049375,1.0,2331.4902458960914,0.19699041163299097,1.333212433061757,0.8956370561251353,0.2882537375,0.6459485792508424
0.02,1.79,1.0,2360.433074108589,0.20149466053577467,1.3327056769199017,0.8996501164876445,0.288233,0.6470246573509885
0.0205,1.78949375,1.0,2387.7286442393784,0.20597364360291348,1.3322110160656804,0.9034202188442649,0.2882117375,0.6480734719534702
0.021,1.788975,1.0,2413.45263716699,0.21042750239565544,1.3317274154736511,0.9069663330513102,0.28818995000000003,0.6490973272422565
0.021500000000000002,1.78844375,1.0,2437.683741460788,0.2148563792947843,1.3312538518162413,0.9103056400345134,0.2881676375,0.6500984874263509
0.022,1.7879,1.0,2460.493671064631,0.21926041535646787,1.3307894052022697,0.9134537427878856,0.2881448,0.6510789840750275
0.0225,1.78734375,1.0,2481.939452419121,0.22363974829863614,1.330333327174144,0.9164248464774862,0.28812143749999997,0.6520404749938136
0.023,1.786775,1.0,2502.080825832662,0.2279945158392191,1.329884869274273,0.919231873377657,0.28809755,0.6529846078568105
0.0235,1.78619375,1.0,2520.980019141616,0.23232485569614664,1.3294432830450653,0.9218865964815529,0.28807313749999996,0.6539130205882939
0.024,1.7856,1.0,2538.7015337906405,0.23663090558734876,1.3290078200289288,0.9243997576010594,0.2880482,0.6548273417085841
0.0245,1.78499375,1.0,2555.300220050747,0.24091280011660757,1.3285778419006768,0.9267811898206401,0.2880227375,0.6557289598593553
0.025,1.784375,1.0,2570.842744180984,0.24517067926680508,1.328152615969588,0.9290398768648835,0.28799675,0.6566194535469263
0.025500000000000002,1.78374375,1.0,2585.3762250836958,0.24940467671383548,1.3277316079978245,0.9311840806134535,0.2879702375,0.6574999780585469
0.026000000000000002,1.7831000000000001,1.0,2598.944618218057,0.25361492473314456,1.3273143254655069,0.9332213871417592,0.2879432,0.6583715954880748
0.0265,1.78244375,1.0,2611.5930368932577,0.2578015556001781,1.3269002758527546,0.9351587654481122,0.2879156375,0.6592353623960234
0.027,1.781775,1.0,2623.3676526315717,0.2619647015903818,1.3264889666396877,0.9370026259274719,0.28788755,0.6600923299188421
0.0275,1.7810937500000001,1.0,2634.3156009095565,0.2661044949792016,1.3260799053064267,0.9387588725921425,0.2878589375,0.6609435438627289
0.028,1.7804,1.0,2644.4803675333737,0.27022106648707633,1.3256726411171924,0.9404329553038032,0.2878298,0.6617899579966595
0.0285,1.77969375,1.0,2653.900556949478,0.2743145461029211,1.3252667753329799,0.9420299127599298,0.2878001375,0.6626324134709337
0.029,1.778975,1.0,2662.62900818097,0.2783850687590086,1.3248617841963743,0.9435543864985378,0.28776995,0.6634720062778964
0.029500000000000002,1.7782437500000001,1.0,2670.695421427724,0.28243276071446033,1.324457362749903,0.9450106986055188,0.2877392375,0.6643093742263324
0.03,1.7775,1.0,2678.1299630301405,0.28645774822839776,1.3240532060360934,0.9464028528178203,0.287708,0.6651451519697997
0.0305,1.77674375,1.0,2684.9632244793206,0.2904601575599423,1.3236490090974726,0.9477345620120208,0.2876762375,0.6659799710147452
0.031,1.775975,1.0,2691.2261834891297,0.29444011496821537,1.323244466976568,0.9490092729947749,0.28764395,0.6668144597226865
0.0315,1.7751937500000001,1.0,2696.950167129834,0.29839774671233854,1.3228392747159066,0.950230188889208,0.2876111375,0.6676492433064649
0.032,1.7744,1.0,2702.1668170241255,0.30233317905143314,1.3224331273580159,0.9514002893763853,0.2875778,0.6684849438205661
0.0325,1.77359375,1.0,2706.9070790967685,0.3062465374559776,1.3220257288676052,0.952522349854831,0.2875439375,0.669322161821708
0.033,1.772775,1.0,2711.1947725598006,0.3101379459383543,1.3216168504688597,0.9535989646101484,0.28750955,0.6701613568064131
0.0335,1.7719437500000002,1.0,2715.0531184355727,0.31400752716037433,1.321206270652391,0.9546325542997214,0.2874746375,0.6710029709616803
0.034,1.7711000000000001,1.0,2718.5057718779876,0.3178554027495092,1.3207937655626418,0.955625378690684,0.2874392,0.6718474489035102
0.0345,1.7702437500000001,1.0,2721.5765463351836,0.32168169433323046,1.320379111344055,0.9565795497698509,0.2874032375,0.6726952328265101
0.035,1.7693750000000001,1.0,2724.2885794268436,0.3254865232973586,1.319962091567255,0.9574970438755871,0.28736675,0.6735467473211338
0.035500000000000004,1.7684980673590993,1.0,2726.8689430095164,0.32927001051055305,1.3195425860750807,0.9583797213307249,0.28732991882908215,0.6744022183815359
0.036000000000000004,1.7676209564869492,1.0,2729.7003862161837,0.3330322758154305,1.3191207290063147,0.9592293512134927,0.28729308017245186,0.675261353056372
0.0365,1.7667438456147992,1.0,2732.7681255941525,0.336773437518458,1.3186967386804556,0.960047600237111,0.2872562415158216,0.6761236886302342
0.037,1.765866734742649,1.0,2736.048509286641,0.34049361392610294,1.318270833417001,0.9608360321118792,0.28721940285919123,0.676988764655764
0.0375,1.7649896238704992,1.0,2739.518987999831,0.344192922884029,1.317843221247655,0.961596113962697,0.28718256420256094,0.6778561438358235
0.038,1.764112512998349,1.0,2743.15797004205,0.34787148222172354,1.3174141011855343,0.9623292235425015,0.28714572554593065,0.6787254093385824
0.0385,1.763235402126199,1.0,2746.9483159738265,0.3515294079391216,1.3169836315252488,0.963036652268862,0.28710888688930036,0.6795962287789072
0.039,1.762358291254049,1.0,2750.87462304419,0.35516681524117855,1.3165519545191033,0.9637196138981947,0.2870720482326701,0.6804683038588506
0.0395,1.7614811803818988,1.0,2754.9214541393876,0.3587838193328499,1.316119212419403,0.9643792515892512,0.28703520957603973,0.6813413378167614
0.04,1.760604069509749,1.0,2759.07458737698,0.36238053473557336,1.3156855361487585,0.9650166416276658,0.28699837091940944,0.6822150582476751
0.0405,1.7597269586375988,1.0,2763.3203363603147,0.3659570760862013,1.3152510514559796,0.9656327986957995,0.28696153226277915,0.6830892045787604
0.041,1.7588498477654486,1.0,2767.6483945310397,0.3695135558448061,1.3148158532382388,0.9662286774035376,0.2869246936061488,0.6839635795595653
0.0415,1.7579727368932987,1.0,2772.0488460973957,0.3730500861961405,1.314380032604904,0.9668051789898318,0.2868878549495185,0.6848379945769755
0.042,1.7570956260211485,1.0,2776.5124938376402,0.376566778350636,1.3139436739258563,0.9673631544841841,0.28685101629288823,0.6857122755163763
0.0425,1.7562185151489986,1.0,2781.036070291972,0.38006373592668374,1.313506807921531,0.96790340304813,0.28681417763625794,0.6865863564631768
0.043000000000000003,1.7553414042768485,1.0,2785.5989650359984,0.38354108653983,1.3130696212738293,0.9684266975065703,0.28677733897962765,0.6874598604447102
0.043500000000000004,1.7544642934046983,1.0,2790.196984352379,0.3869989369049084,1.3126321524726543,0.968933754341856,0.28674050032299736,0.688332708036719
0.044,1.7535871825325484,1.0,2794.8259209882403,0.3904373937367526,1.3121944400079093,0.9694252524386171,0.286703661666367,0.6892048202428187
0.0445,1.7527100716603983,1.0,2799.4815539312876,0.39385656375019645,1.3117565223694971,0.9699018354308849,0.2866668230097367,0.6900761184951443
0.045,1.7518329607882484,1.0,2804.1596482177206,0.3972565536600734,1.311318438047321,0.970364113880468,0.28662998435310644,0.6909465246548989
0.0455,1.7509558499160982,1.0,2808.8559547738655,0.4006374701812172,1.3108802255312841,0.9708126673002462,0.2865931456964761,0.6918159610128123
0.046,1.750078739043948,1.0,2813.5662102904885,0.40399942002846145,1.3104419233112896,0.9712480460348233,0.2865563070398458,0.6926843502895006
0.0465,1.7492016281717981,1.0,2818.2861371295226,0.40734250991663984,1.3100035698772405,0.9716707730098753,0.2865194683832155,0.6935516156357362
0.047,1.748324517299648,1.0,2823.011443264034,0.410666846560586,1.3095652037190402,0.9720813453605283,0.2864826297265852,0.6944176806326186
0.0475,1.747447406427498,1.0,2827.7378222510456,0.4139725366751336,1.3091268633265916,0.9724802359482017,0.28644579106995494,0.6952824692916544
0.048,1.746570295555348,1.0,2832.463076023932,0.4172596791675761,1.3086885682484124,0.9728678924576972,0.2864089524133246,0.6961459433442132
0.0485,1.7456931846831978,1.0,2837.1847781856704,0.42052837999979825,1.3082503400035892,0.9732447421936806,0.2863721137566943,0.6970080608663
0.049,1.7448160738110479,1.0,2841.8977736064935,0.4237787557211769,1.307812224347539,0.9736111951528487,0.286335275100064,0.697868732596366
0.0495,1.7439389629388977,1.0,2846.601092576678,0.42701090563249794,1.3073742296313935,0.9739676374681083,0.28629843644343367,0.6987279431074853
0.05,1.7430618520667478,1.0,2851.2937623780053,0.43022492903454734,1.3069363642062848,0.9743144373589482,0.2862615977868034,0.6995856770657746
0.0505,1.7421847411945977,1.0,2855.9748073062874,0.43342092522811104,1.3064986364233449,0.9746519461239797,0.2862247591301731,0.7004419192303262
0.051000000000000004,1.7413076303224475,1.0,2860.643248696549,0.436598993513975,1.3060610546337055,0.9749804990699261,0.2861879204735428,0.7012966544531376
0.051500000000000004,1.7404305194502976,1.0,2865.298104949186,0.43975923319292515,1.3056236271884987,0.9753004163816578,0.2861510818169125,0.7021498676790356
0.052000000000000005,1.7395534085781474,1.0,2869.9383915577023,0.4429017435657474,1.3051863624388562,0.9756120039375012,0.2861142431602822,0.7030015439455966
0.0525,1.7386762977059975,1.0,2874.5631211379614,0.4460266239332278,1.3047492687359104,0.9759155540737163,0.2860774045036519,0.7038516683830609
0.053,1.7377991868338474,1.0,2879.1713034595523,0.44913397359615215,1.3043123544307929,0.9762113463017259,0.2860405658470216,0.7047002262142459
0.0535,1.7369220759616972,1.0,2883.761945477631,0.4522238918553066,1.3038756278746353,0.9764996479813992,0.2860037271903913,0.705547202754452
0.054,1.7360449650895473,1.0,2888.334051367109,0.4552964780114769,1.3034390974185701,0.9767807149534382,0.28596688853376095,0.7063925834113634
0.0545,1.7351678542173972,1.0,2892.8866225586303,0.4583518313654491,1.3030027714137289,0.9770547921336769,0.28593004987713067,0.7072363536849475
0.055,1.7342907433452472,1.0,2897.4210657922463,0.46139001024492987,1.302566636967,0.9773221088909869,0.2858932112205004,0.7080785401609684
0.0555,1.733413632473097,1.0,2901.934959160924,0.46441115927556403,1.3021307149790267,0.9775828951806385,0.2858563725638701,0.7089191041653768
0.056,1.732536521600947,1.0,2906.427822353961,0.4674153799987282,1.301695009185159,0.9778373662935171,0.2858195339072398,0.7097580402830577
0.0565,1.731659410728797,1.0,2910.8997424551167,0.47040276274980797,1.3012595183177886,0.9780857273346771,0.28578269525060945,0.7105953527517028
0.057,1.7307822998566469,1.0,2915.350807299554,0.473373397864189,1.300824241109307,0.9783281750485109,0.28574585659397916,0.7114310457940356
0.0575,1.7299051889844967,1.0,2919.7811054672366,0.47632737567725714,1.300389176292106,0.9785648982272644,0.2857090179373489,0.7122651236178255
0.058,1.7290280781123468,1.0,2924.1907262773148,0.4792647865243979,1.2999543225985777,0.9787960780964241,0.28567217928071853,0.7130975904159069
0.0585,1.7281509672401967,1.0,2928.5797597823125,0.4821857207409971,1.299519678761113,0.9790218886784544,0.28563534062408824,0.713928450366198
0.059000000000000004,1.7272738563680468,1.0,2932.9482967617687,0.48509026866244037,1.299085243512104,0.9792424971362679,0.28559850196745795,0.7147577076317138
0.059500000000000004,1.7263967454958966,1.0,2937.296428716629,0.4879785206241134,1.2986510155839426,0.9794580640977056,0.28556166331082766,0.7155853663605858
0.06,1.7255196346237465,1.0,2941.624247863468,0.4908505669614019,1.2982169937090202,0.9796687439622214,0.2855248246541974,0.7164114306860785
0.0605,1.7246425237515965,1.0,2945.9318471285815,0.49370649800969163,1.2977831766197283,0.9798746851908732,0.2854879859975671,0.7172359047266061
0.061,1.7237654128794464,1.0,2950.219320141971,0.4965464041043682,1.297349563048459,0.980076030580655,0.28545114734093674,0.7180587925857477
0.0615,1.7228883020072965,1.0,2954.4867612322564,0.49937037558081726,1.2969161517276038,0.9802729175241278,0.28541430868430645,0.7188800983522659
0.062,1.7220111911351463,1.0,2958.734265420223,0.5021785027744247,1.2964829413895544,0.980465478255242,0.28537747002767616,0.7196998261001213
0.0625,1.7211340802629962,1.0,2962.961928413564,0.5049708760205759,1.2960499307667024,0.980653840082187,0.2853406313710458,0.7205179798884909
0.063,1.7202569693908463,1.0,2967.1698466013863,0.5077475856546568,1.2956171185914396,0.980838125608043,0.2853037927144155,0.7213345637617817
0.0635,1.7193798585186961,1.0,2971.3581170481716,0.5105087220120531,1.2951845035961576,0.9810184529399606,0.28526695405778524,0.7221495817496494
0.064,1.7185027476465462,1.0,2975.5268374885263,0.5132543754281503,1.294752084513248,0.9811949358875469,0.28523011540115495,0.7229630378670124
0.0645,1.717625636774396,1.0,2979.67607486641,0.5159845838645677,1.294319860348753,0.9813676804675743,0.28519327674452466,0.7237749356004164
0.065,1.716748525902246,1.0,2983.806428943268,0.5186994866838169,1.2938878254815565,0.9815367958051778,0.2851564380878943,0.7245852870973285
0.0655,1.715871415030096,1.0,2987.9181819335313,0.5213991831653257,1.2934559770669565,0.981702384457309,0.285119599431264,0.725394099246422
0.066,1.7149943041579458,1.0,2992.0115519966134,0.5240837537650169,1.2930243128262104,0.9818645441024401,0.28508276077463374,0.7262013778467065
0.0665,1.714117193285796,1.0,2996.0867582379883,0.5267532789388136,1.2925928304805756,0.9820233690109841,0.2850459221180034,0.727007128671445
0.067,1.7132400824136458,1.0,3000.1440206998373,0.529407839142639,1.2921615277513097,0.9821789501884818,0.2850090834613731,0.7278113574681784
0.0675,1.7123629715414956,1.0,3004.1835603518875,0.5320475148324161,1.2917304023596696,0.9823313755117948,0.2849722448047428,0.7286140699587541
0.068,1.7114858606693457,1.0,3008.2055990822837,0.5346723864640679,1.2912994520269134,0.982480729858704,0.2849354061481125,0.7294152718393494
0.0685,1.7106087497971956,1.0,3012.210359688901,0.5372825344935176,1.290868674474298,0.9826270952312659,0.28489856749148224,0.7302149687805001
0.069,1.7097316389250454,1.0,3016.1980658703096,0.5398780393766881,1.2904380674230813,0.9827705508732777,0.2848617288348519,0.7310131664271227
0.0695,1.7088545280528955,1.0,3020.168942217487,0.5424589815695025,1.2900076285945206,0.9829111733821637,0.2848248901782216,0.7318098703985415
0.07,1.7079774171807454,1.0,3024.1232142048107,0.5450254415278839,1.2895773557098729,0.9830490368155899,0.2847880515215913,0.7326050862885133
0.07050000000000001,1.7071003063085954,1.0,3028.061108181894,0.5475774997077553,1.289147246490396,0.9831842127930839,0.284751212864961,0.7333988196652494
0.07100000000000001,1.7062231954364453,1.0,3031.9828513651187,0.5501152365650398,1.2887172986573472,0.9833167705929305,0.2847143742083307,0.734191076071442
0.07150000000000001,1.7053460845642952,1.0,3035.888671829704,0.5526387325556605,1.2882875099319842,0.983446777244592,0.2846775355517004,0.7349818610242862
