Time [s],Phi [rad],STIM [ ],Fsee [N],Gamma [ ],Lcerel [ ],q [ ],Lmtc [m],fisomrel [ ]
0.0,1.8,1.0,18.05743628562405,0.0003047532853059032,1.3793296447244767,0.005024093011105774,0.288653,0.5411639688558747
0.0005,1.79999375,1.0,18.46173206991435,0.0059122531692223385,1.3792818909660278,0.013779037849730918,0.2886527375,0.5412794871978132
0.001,1.799975,1.0,22.02213510028936,0.01148829941233784,1.3788972553967247,0.03716105599872914,0.28865195,0.5422094064184604
0.0015,1.79994375,1.0,31.948620303996744,0.0170330684457049,1.3779718059719153,0.07271600808743797,0.2886506375,0.5444429652115079
0.002,1.7999,1.0,55.40646831442078,0.022546735708509954,1.3762507850815402,0.1172148989020911,0.2886488,0.5485821005278211
0.0025,1.79984375,1.0,100.12614741023886,0.028029475657199564,1.3737913617175976,0.1672868754378261,0.28864643749999996,0.5544643428102809
0.003,1.7997750000000001,1.0,164.8334123146094,0.033481461770837335,1.3710701523591853,0.2200754489067898,0.28864354999999997,0.5609277488141933
0.0035,1.79969375,1.0,242.0411719042982,0.03890286655274949,1.3684511109243345,0.2733908551650536,0.2886401375,0.5671038866665299
0.004,1.7996,1.0,326.09097175573817,0.04429386154056567,1.366034052299669,0.32560423752520135,0.2886362,0.5727648997355969
0.0045000000000000005,1.7994937500000001,1.0,414.04813529412803,0.049654617311671485,1.3638109260950795,0.37558556921912445,0.2886317375,0.5779388075696448
0.005,1.799375,1.0,504.2847194951143,0.05498530347483448,1.3617550806149974,0.42263352056882897,0.28862675,0.5826953496468008
0.0055,1.79924375,1.0,595.7002178469105,0.060286088708225334,1.3598431079137419,0.4663823894351882,0.2886212375,0.5870948268079692
0.006,1.7991000000000001,1.0,687.4288135752644,0.06555714072751201,1.3580573111844232,0.5067094744925035,0.2886152,0.5911829142454756
0.006500000000000001,1.79894375,1.0,778.7580271581894,0.070798626291315,1.3563841347076637,0.5436562739803465,0.2886086375,0.5949947338286665
0.007,1.798775,1.0,869.1029188646501,0.07601071132436804,1.354812691392156,0.5773676307497652,0.28860155,0.5985585268719853
0.0075,1.79859375,1.0,957.9723407103626,0.08119356055809787,1.353334130349609,0.6080477562350554,0.2885939375,0.6018972969709362
0.008,1.7984,1.0,1044.9923886810307,0.08634733827346663,1.3519404968043534,0.6359293151591096,0.2885858,0.6050315264958703
0.0085,1.79819375,1.0,1129.842546161538,0.0914722073195063,1.3506252015159133,0.6612536862435164,0.2885771375,0.60797821448318
0.009000000000000001,1.797975,1.0,1212.2789920256103,0.09656832968426789,1.3493822579235404,0.6842578495943067,0.28856795,0.6107526717099767
0.0095,1.79774375,1.0,1292.1392959467614,0.10163586713171532,1.348205969698899,0.7051667391456733,0.2885582375,0.6133692687055147
0.01,1.7975,1.0,1369.287791881862,0.10667497974410659,1.347091462503985,0.7241895372803824,0.288548,0.6158402954618777
0.0105,1.79724375,1.0,1443.6359878974813,0.11168582665749517,1.3460342118988915,0.7415176884912561,0.2885372375,0.6181770541948759
0.011,1.796975,1.0,1515.138374708788,0.11666856638298642,1.3450299669819399,0.757324593249151,0.28852595000000003,0.620390057029469
0.0115,1.79669375,1.0,1583.7996676724483,0.12162335764062489,1.3440745613992409,0.771766125599821,0.2885141375,0.6224894649168369
0.012,1.7964,1.0,1649.6067758560764,0.12655035638699497,1.3431646379533277,0.784982046678586,0.28850180000000003,0.6244835180432446
0.0125,1.79609375,1.0,1712.5752920494085,0.1314497181213204,1.3422969843930574,0.7970970065859733,0.2884889375,0.6263800206486575
0.013000000000000001,1.7957750000000001,1.0,1772.7523739729147,0.136321598029987,1.3414684469927247,0.8082219274689388,0.28847555,0.6281865424374259
0.0135,1.79544375,1.0,1830.2033708217111,0.14116615095775484,1.3406760377605915,0.8184554539875166,0.2884616375,0.6299101954583675
0.014,1.7951000000000001,1.0,1884.9880040243143,0.14598353024666544,1.3399171498006217,0.8278853598227948,0.2884472,0.6315571787991764
0.0145,1.79474375,1.0,1937.161329547704,0.15077388748113282,1.33918949227132,0.8365897379129388,0.2884322375,0.6331329347344523
0.015,1.794375,1.0,1986.7993491224581,0.1555373742455711,1.3384907743311913,0.8446380041723074,0.28841675,0.6346428434077503
0.0155,1.79399375,1.0,2033.9809329272105,0.1602741410634392,1.3378188763771461,0.8520919689962505,0.2884007375,0.6360918583012833
0.016,1.7936,1.0,2078.809131810313,0.16498433955498076,1.3371716010925796,0.8590066563245395,0.2883842,0.6374850491602881
0.0165,1.7931937500000001,1.0,2121.3563101658606,0.16966811790410696,1.3365472278552204,0.8654312723630111,0.2883671375,0.6388264139762958
0.017,1.792775,1.0,2161.695469079373,0.1743256234359721,1.335944155915018,0.8714097847685826,0.28834955,0.6401196559519964
0.0175,1.7923437500000001,1.0,2199.9105130216403,0.1789570034757304,1.335360784521921,0.8769815068113016,0.2883314375,0.641368444530745
0.018000000000000002,1.7919,1.0,2236.0897361639213,0.18356240470795918,1.3347955690206865,0.8821816591182297,0.2883128,0.6425762977172026
0.0185,1.79144375,1.0,2270.323854414475,0.18814197378279346,1.3342470296589835,0.8870418495934502,0.2882936375,0.6437465662122024
0.019,1.790975,1.0,2302.697010045251,0.1926958562379942,1.3337138305118716,0.8915905095319306,0.28827395,0.6448822682560389
0.0195,1.79049375,1.0,2333.2765140770252,0.1972241948248857,1.3331948686310098,0.8958532761840238,0.2882537375,0.6459859040751408
0.02,1.79,1.0,2362.1353572216767,0.2017271322947923,1.3326890410680559,0.8998532545001039,0.288233,0.6470599552079639
0.0205,1.78949375,1.0,2389.3517371619805,0.20620481139903835,1.3321952448746683,0.9036113013515348,0.2882117375,0.648106885467663
0.021,1.788975,1.0,2414.996404482155,0.21065737329976963,1.3317124950760297,0.9071462997199913,0.28818995000000003,0.6491288922526625
0.021500000000000002,1.78844375,1.0,2439.1579758834523,0.21508496124233192,1.331239674318126,0.9104753230520726,0.2881676375,0.6501284380026204
0.022,1.7879,1.0,2461.904127545485,0.21948771525137462,1.3307759039604137,0.9136139053657035,0.2881448,0.6511074660687857
0.0225,1.78734375,1.0,2483.2888631128044,0.2238657731330938,1.3303204661096615,0.9165761886727827,0.28812143749999997,0.6520675690978825
0.023,1.786775,1.0,2503.368831659031,0.22821927269368558,1.3298726428726382,0.9193750386072874,0.28809755,0.6530103299879494
0.0235,1.78619375,1.0,2522.2031109206823,0.23254835173934602,1.3294317163561131,0.9220221772777887,0.28807313749999996,0.6539373222533974
0.024,1.7856038989776148,1.0,2540.039872990139,0.2368531480762712,1.3289969686668552,0.9245283007058186,0.28804836375705983,0.6548501103572075
0.0245,1.7850137718920966,1.0,2557.3200527955373,0.24113379657553674,1.328567912792136,0.9269032222986628,0.2880235784194681,0.6557497662098832
0.025,1.7844236448065787,1.0,2574.0620389406554,0.24539043658866966,1.3281444424251023,0.9291559895047795,0.2879987930818763,0.6566365590099449
0.025500000000000002,1.7838335177210605,1.0,2590.2804408218317,0.24962320107316427,1.32772636683866,0.9312948725768314,0.28797400774428455,0.6575109326490179
0.026000000000000002,1.7832433906355425,1.0,2605.9903416470484,0.2538322226557693,1.327313495126973,0.9333274580531749,0.2879492224066928,0.6583733287875162
0.0265,1.7826532635500243,1.0,2621.2072570357373,0.25801763396323363,1.326905636384205,0.9352607146761183,0.28792443706910104,0.6592241865441264
0.027,1.7820631364645063,1.0,2635.947113396419,0.2621795676223061,1.3265025997045203,0.9371010519735756,0.2878996517315093,0.660063942558003
0.0275,1.7814730093789881,1.0,2650.2262271128966,0.26631815625973543,1.3261041941820828,0.9388543725762839,0.2878748663939175,0.6608930310486429
0.028,1.7808828822934701,1.0,2664.0378666610795,0.2704334981643666,1.3257104443696093,0.940526136632222,0.28785008105632576,0.6617114363155348
0.0285,1.780292755207952,1.0,2677.4344751380563,0.2745257752329295,1.3253208328015469,0.9421213403131342,0.287825295718734,0.6625202670449872
0.029,1.779702628122434,1.0,2690.4276814822383,0.2785951122040439,1.3249352219877937,0.9436446323052385,0.28780051038114224,0.6633198390042834
0.029500000000000002,1.779112501036916,1.0,2703.028717040827,0.2826416328999296,1.3245534803914554,0.9451003146380887,0.2877757250435505,0.6641104539725549
0.03,1.7785223739513978,1.0,2715.2490494585318,0.28666546114280594,1.3241754764756375,0.9464923725472236,0.2877509397059587,0.6648924121549535
0.0305,1.7779322468658798,1.0,2727.1003715851734,0.2906667207548927,1.3238010787034458,0.9478245018278285,0.28772615436836696,0.6656660122145566
0.031,1.7773421197803616,1.0,2738.5945907670853,0.29464553555840933,1.3234301555379855,0.949100133504457,0.2877013690307752,0.6664315513031713
0.0315,1.7767519926948436,1.0,2749.74381852207,0.2986020293755755,1.3230625754423626,0.950322456109231,0.28767658369318344,0.6671893250910325
0.032,1.7761618656093254,1.0,2760.5603605979873,0.30253632602861075,1.3226982068796824,0.9514944358261992,0.2876517983555917,0.6679396277954008
0.0325,1.7755717385238075,1.0,2771.056707414865,0.3064485493397346,1.322336918313051,0.9526188347292254,0.2876270130179999,0.6686827522080535
0.033,1.7749816114382893,1.0,2781.245524890746,0.31033882313116673,1.3219785782055733,0.9536982273143156,0.28760222768040816,0.6694189897216758
0.0335,1.7743914843527713,1.0,2791.1396456509806,0.31420727122512665,1.3216230550203556,0.9547350155041225,0.2875774423428164,0.6701486303551445
0.034,1.7738013572672533,1.0,2800.752060621398,0.31805401744383394,1.321270217220503,0.9557314422820951,0.28755265700522464,0.6708719627777129
0.0345,1.773211230181735,1.0,2810.095911004752,0.32187918560950823,1.3209199332691215,0.956689604095954,0.2875278716676329,0.6715892743320875
0.035,1.7726211030962171,1.0,2819.1844806410104,0.325682899544369,1.3205720716293163,0.9576114621545623,0.2875030863300411,0.6723008510564046
0.035500000000000004,1.772030976010699,1.0,2828.0293731451884,0.32946527988486446,1.3202265169773268,0.9584988536688466,0.28747830099244936,0.6730069445936537
0.036000000000000004,1.771440848925181,1.0,2836.6366080844364,0.33322644087160036,1.319883204825771,0.9593535040308105,0.2874535156548576,0.6737077017550825
0.0365,1.7708507218396627,1.0,2845.0210199682488,0.3369665126858013,1.3195419929009429,0.960177027158257,0.28742873031726585,0.6744034272094828
0.037,1.7702605947541448,1.0,2853.189833317923,0.3406856102691426,1.3192028076960538,0.9609709412927185,0.2874039449796741,0.6750942843078958
0.0375,1.7696704676686266,1.0,2861.150348026476,0.34438384856329946,1.3188655757043146,0.9617366726060399,0.2873791596420823,0.6757804356848087
0.038,1.7690803405831086,1.0,2868.9099361157932,0.34806134250994714,1.3185302234189362,0.9624755618078398,0.28735437430449057,0.6764620432674828
0.0385,1.7684902134975904,1.0,2876.4760386130242,0.35171820705076073,1.3181966773331297,0.9631888702090085,0.2873295889668988,0.6771392682849366
0.039,1.7679000864120724,1.0,2883.8561625470215,0.3553545571274156,1.317864863940106,0.9638777852914749,0.28730480362930705,0.6778122712765876
0.0395,1.7673099593265544,1.0,2891.0578780647747,0.3589705076815869,1.317534709733076,0.9645434258293588,0.2872800182917153,0.6784812121005457
0.04,1.7667198322410362,1.0,2898.0888156671754,0.36256617365494986,1.3172061412052507,0.9651868466020691,0.28725523295412353,0.6791462499415643
0.0405,1.7661297051555183,1.0,2904.9566635651468,0.3661416699891797,1.3168790848498408,0.9658090427358769,0.28723044761653177,0.6798075433186459
0.041,1.76553957807,1.0,2911.6691651549386,0.36969711162595165,1.3165534671600576,0.9664109537068609,0.28720566227894,0.6804652500923034
0.0415,1.764949450984482,1.0,2918.2279274153043,0.3732325957219149,1.3162292690370103,0.9669934686126351,0.28718087694134825,0.6811194177433615
0.042,1.7643593238989639,1.0,2924.6453857572087,0.3767482541840907,1.3159063765003385,0.9675574258811709,0.2871560916037565,0.6817702847143698
0.0425,1.763769196813446,1.0,2930.928818831987,0.380244203278994,1.315584721408748,0.9681036197038085,0.28713130626616473,0.6824179962160808
0.043000000000000003,1.7631790697279277,1.0,2937.082346856014,0.38372054971356107,1.3152642636814378,0.9686328025088605,0.287106520928573,0.6830626404508957
0.043500000000000004,1.7625889426424097,1.0,2943.1101189747496,0.38717740019472824,1.314944963237607,0.9691456869189377,0.2870817355909812,0.6837043052655052
0.044,1.7619988155568918,1.0,2949.0163122165077,0.39061486142943175,1.3146267799964542,0.9696429482546791,0.28705695025338945,0.6843430781538993
0.0445,1.7614086884713736,1.0,2954.805130481876,0.3940330401246081,1.3143096738771787,0.9701252268570362,0.2870321649157977,0.684979046260273
0.045,1.7608185613858556,1.0,2960.4808035686524,0.39743204298719353,1.3139936047989793,0.970593130242931,0.28700737957820593,0.6856122963818316
0.0455,1.7602284343003374,1.0,2966.0475862325034,0.40081197672412433,1.313678532681055,0.971047235107759,0.2869825942406142,0.6862429149714935
0.046,1.7596383072148194,1.0,2971.5097572832033,0.40417294804233683,1.3133644174426047,0.9714880891870045,0.2869578089030224,0.6868709881404879
0.0465,1.7590481801293012,1.0,2976.8716187165273,0.4075150636487674,1.3130512190028274,0.9719162129881471,0.28693302356543066,0.6874966016608539
0.047,1.7584580530437832,1.0,2982.137494881624,0.41083843025035227,1.312738897280922,0.9723321014030538,0.2869082382278389,0.6881198409678346
0.0475,1.757867925958265,1.0,2987.3117316842477,0.41414315455402784,1.3124274121960873,0.9727362252101583,0.28688345289024714,0.688740791162169
0.048,1.757277798872747,1.0,2992.3986958254013,0.41742934326673037,1.3121167236675224,0.973129032474937,0.2868586675526554,0.6893595370122815
0.0485,1.7566876717872288,1.0,2997.400507948331,0.4206970905181854,1.3118068112706103,0.973510949669564,0.2868338822150636,0.6899761238687947
0.049,1.7560975447017109,1.0,3002.3195792203137,0.42394649656335404,1.3114976521663004,0.9738823837057894,0.28680909687747186,0.6905906017056203
0.0495,1.7555074176161929,1.0,3007.1636330533884,0.427177691989984,1.3111891776206064,0.974243722930452,0.2867843115398801,0.6912031113897026
0.05,1.7549172905306747,1.0,3011.934737335101,0.43039077448329927,1.3108813680867557,0.9745953370455307,0.28675952620228834,0.6918136957159028
0.0505,1.7543271634451567,1.0,3016.6349701125478,0.43358584172852366,1.3105742040179749,0.9749375787851405,0.2867347408646966,0.6924223973169685
0.051000000000000004,1.7537370363596385,1.0,3021.2664193085443,0.4367629914108811,1.310267665867491,0.9752707848452646,0.2867099555271048,0.6930292586643463
0.051500000000000004,1.7531469092741205,1.0,3025.831182445887,0.43992232121559555,1.309961734088531,0.975595276754583,0.28668517018951306,0.6936343220689758
0.052000000000000005,1.7525567821886023,1.0,3030.3313663805698,0.44306392882789086,1.309656389134322,0.9759113616906262,0.2866603848519213,0.6942376296820578
0.0525,1.7519666551030844,1.0,3034.7690870430556,0.4461879119329909,1.3093516114580905,0.9762193332451281,0.28663559951432954,0.6948392234957991
0.053,1.7513765280175662,1.0,3039.146469188297,0.4492943682161197,1.309047381513064,0.9765194721421606,0.2866108141767378,0.6954391453441282
0.0535,1.7507864009320482,1.0,3043.4656461541263,0.45238339536250105,1.308743679752469,0.9768120469123409,0.286586028839146,0.6960374369033957
0.054,1.7501962738465302,1.0,3047.728759627972,0.45545509105735893,1.3084404866295327,0.977097314526154,0.28656124350155426,0.6966341396930391
0.0545,1.749606146761012,1.0,3051.937959422402,0.45850955298591717,1.3081377825974818,0.9773755209891981,0.2865364581639625,0.6972292950762342
0.055,1.749016019675494,1.0,3056.0954032587447,0.46154687883339973,1.3078355481095436,0.977646901901938,0.28651167282637074,0.6978229442605131
0.0555,1.7484258925899758,1.0,3060.2032565595428,0.46456716628503053,1.3075337636189446,0.977911682986371,0.286486887488779,0.6984151282983646
0.056,1.7478357655044579,1.0,3064.2636922490506,0.4675705130260334,1.307232409578912,0.978170080581812,0.2864621021511872,0.699005888087805
0.0565,1.7472456384189397,1.0,3068.2788905626558,0.4705570167416323,1.3069314664426726,0.9784223021118547,0.28643731681359547,0.6995952643729291
0.057,1.7466555113334217,1.0,3072.247737621138,0.47352673761175923,1.3066309429471838,0.9786685448073077,0.2864125314760037,0.700183242434059
0.0575,1.7460653842479035,1.0,3076.1744959342172,0.47647980667011414,1.306330801783358,0.9789090015725268,0.28638774613841195,0.7007698975725927
0.058,1.7454752571623855,1.0,3080.0615689152078,0.479416329804445,1.3060310216539939,0.9791438562214875,0.2863629608008202,0.7013552735504234
0.0585,1.7448851300768673,1.0,3083.9099111052287,0.4823363952074325,1.3057315937132077,0.9793732844211209,0.28633817546322843,0.7019393896861674
0.059000000000000004,1.7442950029913493,1.0,3087.720480466852,0.48524009107175736,1.305432509115115,0.9795974549170181,0.28631339012563667,0.7025222652284602
0.059500000000000004,1.7437048759058313,1.0,3091.4942383160756,0.4881275055901003,1.3051337590138319,0.9798165298603679,0.2862886047880449,0.7031039193561504
0.06,1.7431147488203131,1.0,3095.2321492557057,0.4909987269551421,1.3048353345634738,0.9800306651169886,0.28626381945045315,0.7036843711784917
0.0605,1.7425246217347952,1.0,3098.935181110594,0.4938538433595634,1.3045372269181568,0.980240010559565,0.2862390341128614,0.7042636397353288
0.061,1.741934494649277,1.0,3102.604304864838,0.496692942996045,1.3042394272319964,0.9804447103441258,0.28621424877526963,0.7048417439972794
0.0615,1.741344367563759,1.0,3106.240494600206,0.4995161140572676,1.3039419266591088,0.980644903171728,0.28618946343767787,0.7054187028659086
0.062,1.7407542404782408,1.0,3109.844727436917,0.502323444735912,1.3036447163536093,0.9808407225362402,0.2861646781000861,0.7059945351739035
0.0625,1.7401641133927228,1.0,3113.4179834757047,0.5051150232246587,1.3033477874696142,0.9810322969590697,0.28613989276249435,0.7065692596852353
0.063,1.7395739863072046,1.0,3116.961245741617,0.5078909377161887,1.303051131161239,0.9812197502116098,0.2861151074249026,0.7071428950953238
0.0635,1.7389838592216866,1.0,3120.4755001300023,0.5106512764031825,1.3027547385825995,0.981403201526136,0.28609032208731083,0.7077154600311921
0.064,1.7383937321361684,1.0,3123.9617353536746,0.5133961274783211,1.3024586008878114,0.9815827657958346,0.2860655367497191,0.7082869730516187
0.0645,1.7378036050506505,1.0,3127.4209428919858,0.5161255791342849,1.3021627092309909,0.981758553764597,0.2860407514121273,0.7088574526472822
0.065,1.7372134779651325,1.0,3130.854116942123,0.5188397195637549,1.3018670547662534,0.981930672207176,0.28601596607453555,0.7094269172409049
0.0655,1.7366233508796143,1.0,3134.262254371196,0.5215386369594116,1.3015716286477148,0.9820992241002585,0.2859911807369438,0.7099953851873877
0.066,1.7360332237940963,1.0,3137.6463546709733,0.5242224195139359,1.3012764220294908,0.9822643087849748,0.28596639539935204,0.7105628747739419
0.0665,1.735443096708578,1.0,3141.0064728790367,0.5268911322367359,1.300981434090213,0.9824260209794088,0.2859416100617603,0.7111293888169603
0.067,1.7348529696230601,1.0,3144.343378377296,0.5295448675131204,1.3006866579633238,0.9825844536230166,0.2859168247241685,0.7116949417182625
0.0675,1.734262842537542,1.0,3147.658649747906,0.5321837350859703,1.3003920799500628,0.9827396972313301,0.28589203938657676,0.7122595609160558
0.068,1.733672715452024,1.0,3150.952729453414,0.5348078140988541,1.3000976959943178,0.9828918377078952,0.285867254048985,0.7128232552898661
0.0685,1.7330825883665057,1.0,3154.2260612129207,0.5374171836953407,1.2998035020399767,0.9830409580445518,0.28584246871139324,0.7133860336880282
0.069,1.7324924612809878,1.0,3157.479089985091,0.5400119230189986,1.2995094940309273,0.9831871384402852,0.2858176833738015,0.7139479049277357
0.0695,1.7319023341954698,1.0,3160.7122619510737,0.5425921112133963,1.2992156679110578,0.9833304564144381,0.2857928980362097,0.714508877795088
0.07,1.7313122071099516,1.0,3163.9260244981747,0.5451578274221026,1.2989220196242555,0.9834709869145927,0.28576811269861796,0.7150689610451411
