Time [s],Phi [rad],STIM [ ],Fsee [N],Gamma [ ],Lcerel [ ],q [ ],Lmtc [m],fisomrel [ ]
0.0,1.8,1.0,18.273583252129015,0.0005639729279891525,1.3793055614991208,0.005082101196634653,0.288653,0.5412222290045814
0.0005,1.79999375,1.0,18.755606145295086,0.006170018794707721,1.3792495394690065,0.014549757428258116,0.2886527375,0.541357738560416
0.001,1.799975,1.0,22.5084201915474,0.011744619176489939,1.378848314632175,0.03855354812797188,0.28865195,0.5423276610343128
0.0015,1.79994375,1.0,32.867913476438034,0.017287950458535387,1.3778951184983488,0.07459469414509859,0.2886506375,0.5446278042573947
0.002,1.7999,1.0,57.18069190400302,0.022800188034745806,1.376138485076652,0.1194221713529452,0.2886488,0.5488515307533202
0.0025,1.79984375,1.0,102.94118224786973,0.028281506315687453,1.3736586905491857,0.16967683421214602,0.28864643749999996,0.5547805579625891
0.003,1.7997750000000001,1.0,168.37927606334443,0.03373207873699557,1.3709396946338153,0.2225337804626376,0.28864354999999997,0.5612364252071808
0.0035,1.79969375,1.0,245.9842037464687,0.039152077756403406,1.3683312396832428,0.2758308047853007,0.2886401375,0.5673855161779515
0.004,1.7996,1.0,330.2505098550859,0.044541674866739524,1.3659250125774867,0.32796309597257084,0.2886362,0.5730194042416015
0.0045000000000000005,1.7994937500000001,1.0,418.3337203182078,0.04990104059865804,1.3637111669707638,0.37782216048045036,0.2886317375,0.5781702392243788
0.005,1.799375,1.0,508.63625844045777,0.05523034450443258,1.3616632561366675,0.4247243408658898,0.28862675,0.5829071720683139
0.0055,1.79924375,1.0,600.0858803299092,0.060529755285587517,1.3597579330275926,0.4683169230439015,0.2886212375,0.5872902730348029
0.006,1.7991000000000001,1.0,691.8039871318618,0.06579944051407911,1.3579781924340573,0.5084866381927434,0.2886152,0.5913635642271846
0.006500000000000001,1.79894375,1.0,783.101509772258,0.07103956698686921,1.356310323910408,0.5452807417393654,0.2886086375,0.5951624779172837
0.007,1.798775,1.0,873.3908764330714,0.07625030051011657,1.3547437043438382,0.5788477586977804,0.28860155,0.5987146180752918
0.0075,1.79859375,1.0,962.1806439791546,0.08143180580082818,1.353269633017567,0.6093938510340322,0.2885939375,0.6020426224095456
0.008,1.7984,1.0,1049.1105278833095,0.08658424722150868,1.3518800595678941,0.6371523607068438,0.2885858,0.6051671673421406
0.0085,1.79819375,1.0,1133.8551417906253,0.09170778737230409,1.3505685621048944,0.6623647790296988,0.2885771375,0.6081048573460038
0.009000000000000001,1.797975,1.0,1216.1771936646394,0.09680258832213931,1.3493291325888206,0.6852676424639296,0.28856795,0.6108710367498158
0.0095,1.79774375,1.0,1295.9180005461342,0.10186881177372684,1.3481560860182304,0.7060852125177398,0.2885582375,0.6134800375269979
0.01,1.7975,1.0,1372.943287532256,0.10690661771001184,1.347044581519892,0.7250258897276911,0.288548,0.6159440638956731
0.0105,1.79724375,1.0,1447.1657725302762,0.11191616532171972,1.345990121755667,0.7422802940473369,0.2885372375,0.6182743483657487
0.011,1.796975,1.0,1518.5456129963327,0.11689761314047227,1.3449884218844865,0.7580209831667056,0.28852595000000003,0.6204814692782257
0.0115,1.79669375,1.0,1587.0805105488096,0.12185111963077855,1.344035432471191,0.7724031019599094,0.2885141375,0.6225753227179867
0.012,1.7964,1.0,1652.7567185429782,0.12677684065993733,1.3431278256798456,0.7855656933587559,0.28850180000000003,0.6245640792226451
0.0125,1.79609375,1.0,1715.598154654022,0.1316749319455468,1.342262311551679,0.797632707986587,0.2884889375,0.6264557081993032
0.013000000000000001,1.7957750000000001,1.0,1775.6467387859382,0.1365455484116841,1.3414358153114194,0.8087145019859509,0.28847555,0.6282576021129664
0.0135,1.79544375,1.0,1832.9803200459876,0.14138884551677128,1.34064522426298,0.8189091354793491,0.2884616375,0.6299771402641072
0.014,1.7951000000000001,1.0,1887.6477063996992,0.14620497572204974,1.3398880685547394,0.8283039587273628,0.2884472,0.6316202195603596
0.0145,1.79474375,1.0,1939.7056865746267,0.1509940907364481,1.339162048739666,0.8369766374641225,0.2884322375,0.6331922981336493
0.015,1.794375,1.0,1989.2319591341566,0.15575634226889487,1.3384648653707283,0.844996210244858,0.28841675,0.6346987720330829
0.0155,1.79399375,1.0,2036.3051699363739,0.16049188102052656,1.3377944099621855,0.852424161100887,0.2884007375,0.6361445682343718
0.016,1.7936,1.0,2081.0293244353024,0.16520085819844627,1.3371484828501161,0.8593152210241549,0.2883842,0.6375347592852837
0.0165,1.7931937500000001,1.0,2123.475701644738,0.16988342185814884,1.3365253812822648,0.8657183444163989,0.2883671375,0.6388733027832472
0.017,1.792775,1.0,2163.718673697899,0.17453971950975306,1.3359234960087163,0.871677269427643,0.28834955,0.6401639184607206
0.0175,1.7923437500000001,1.0,2201.8435004290586,0.1791698986633776,1.3353412177795552,0.8772311069194124,0.2883314375,0.6414102922771843
0.018000000000000002,1.7919,1.0,2237.9327964572385,0.18377410568424388,1.3347770638606877,0.8824149174127293,0.2883128,0.6426158083954625
0.0185,1.79144375,1.0,2272.0850012633146,0.1883524879664991,1.3342294805592083,0.887260132417913,0.2882936375,0.6437839742510261
0.019,1.790975,1.0,2304.373057593118,0.1929051894880471,1.3336972470075081,0.8917950729789198,0.28827395,0.6449175616696752
0.0195,1.79049375,1.0,2334.8684132447456,0.1974323534358806,1.3331792211017426,0.8960452423070672,0.2882537375,0.646019153782003
0.02,1.79,1.0,2363.6482866353244,0.20193412299699226,1.3326742607380664,0.9000336265813802,0.288233,0.647091314548409
0.0205,1.78949375,1.0,2390.790718912786,0.20641064065413525,1.332181267125354,0.9037809865900205,0.2882117375,0.648136497994242
0.021,1.788975,1.0,2416.3739810910156,0.21086204882365023,1.3316991849252968,0.907306104552089,0.28818995000000003,0.6491570494894572
0.021500000000000002,1.78844375,1.0,2440.47585221058,0.21528848975094833,1.3312270041195928,0.9106260006383953,0.2881676375,0.6501552032587986
0.022,1.7879,1.0,2463.1542963587085,0.21969010190058447,1.3307639402650246,0.91375615780646,0.2881448,0.6511327035087857
0.0225,1.78734375,1.0,2484.470292945446,0.2240670237371136,1.330309208918374,0.9167106414037521,0.28812143749999997,0.6520912834939989
0.023,1.786775,1.0,2504.4875867780097,0.22841939372509057,1.3298620256364226,0.9195022485845294,0.28809755,0.6530326659535588
0.0235,1.78619375,1.0,2523.272451778834,0.23274735032907035,1.329421605975953,0.9221426402122223,0.28807313749999996,0.6539585635083673
0.024,1.7856,1.0,2540.880443709686,0.2370510287317972,1.3289872881982066,0.924642478029892,0.2880482,0.6548704215688463
0.0245,1.78499375,1.0,2557.385850862489,0.24133056985460952,1.3285582527658393,0.927011480217835,0.2880227375,0.6557700080977642
0.025,1.784375,1.0,2572.834426482018,0.24558610719673574,1.3281339656792797,0.9292585860643363,0.28799675,0.656658483952772
0.025500000000000002,1.78374375,1.0,2587.27224516401,0.24981777396838312,1.3277139032871839,0.9313919885726355,0.2879702375,0.6575369821182344
0.026000000000000002,1.7831000000000001,1.0,2600.746679838021,0.25402570337975894,1.3272975419382074,0.9334192054234259,0.2879432,0.6584066295956869
0.0265,1.78244375,1.0,2613.3062902167494,0.25821002864107045,1.3268843579810061,0.9353471437536587,0.2879156375,0.6592685475361781
0.027,1.781775,1.0,2625.0007173253507,0.26237088296252503,1.326473827764236,0.9371821579314904,0.28788755,0.6601238513551273
0.0275,1.7810937500000001,1.0,2635.8699576375134,0.2665083957764253,1.3260655259276248,0.9389301143939249,0.2878589375,0.6609734464334867
0.028,1.7804,1.0,2645.9683274314707,0.2706227031550551,1.3256589023630012,0.9405964076860408,0.2878298,0.6618184927032056
0.0285,1.77969375,1.0,2655.3344827791766,0.2747139350883167,1.3252535589354917,0.9421860383918099,0.2878001375,0.6626598290809842
0.029,1.778975,1.0,2664.0009634224757,0.2787822189738038,1.3248491596419614,0.9437036367419106,0.28776995,0.6634981616068607
0.029500000000000002,1.7782437500000001,1.0,2672.000845771006,0.28282768220911003,1.3244453684792759,0.9451534876717425,0.2877392375,0.6643341928327389
0.03,1.7775,1.0,2679.3676950657327,0.286850452191829,1.3240418494443005,0.9465395609888795,0.287708,0.665168621839022
0.0305,1.77674375,1.0,2686.1355200451862,0.2908506563195543,1.3236382665339006,0.9478655385466123,0.2876762375,0.6660021442440431
0.031,1.775975,1.0,2692.338730115377,0.2948284219898797,1.3232342837449416,0.9491348387532341,0.28764395,0.6668354522062966
0.0315,1.7751937500000001,1.0,2698.00690877879,0.2987838747979503,1.3228296124895917,0.9503506440492467,0.2876111375,0.6676691367978955
0.032,1.7744,1.0,2703.1683010238753,0.3027171406943983,1.3224239791700214,0.9515159170760746,0.2875778,0.668503755281153
0.0325,1.77359375,1.0,2707.8601848592893,0.30662834744897777,1.3220170301831804,0.9526334077251066,0.2875439375,0.669340026377566
0.033,1.772775,1.0,2712.1042640602122,0.31051761659212507,1.32160855636926,0.9537056944582677,0.28750955,0.6701783688459202
0.0335,1.7719437500000002,1.0,2715.9224310593245,0.31438506965427665,1.3211983485684504,0.9547351829360836,0.2874746375,0.6710191992248095
0.034,1.7711000000000001,1.0,2719.3367483236048,0.3182308281658689,1.3207861976209434,0.9557241196548732,0.2874392,0.6718629318108962
0.0345,1.7702437500000001,1.0,2722.3694307023256,0.3220550136573382,1.3203718943669291,0.9566746043543309,0.2874032375,0.6727099786343915
0.035,1.7693750000000001,1.0,2725.0428287437658,0.32585774765912096,1.319955229646599,0.9575886013192938,0.28736675,0.6735607494317348
0.035500000000000004,1.76849375,1.0,2727.379412982982,0.3296391517016536,1.3195359943001437,0.9584679496858123,0.2873297375,0.6744156516154929
0.036000000000000004,1.7676,1.0,2729.3952200597023,0.33339933958516255,1.3191140386071596,0.9593143771899356,0.2872922,0.6752749692724116
0.0365,1.76669375,1.0,2731.1187852024573,0.337138441396245,1.3186891000296102,0.9601294964222806,0.2872541375,0.6761392140380011
0.037,1.765775,1.0,2732.564506785953,0.3408565733937995,1.3182610452450272,0.9609148307036247,0.28721555,0.6770086322689501
0.0375,1.76484375,1.0,2733.7459621375488,0.3445538508574816,1.3178297489295283,0.9616718114413184,0.2871764375,0.6778834524725542
0.038,1.7639,1.0,2734.6767803112143,0.34823038906694687,1.317395085759231,0.9624017841603941,0.28713679999999997,0.6787639015812834
0.0385,1.76294375,1.0,2735.3706355831987,0.3518863033018509,1.3169569304102526,0.9631060145956104,0.28709663750000003,0.6796502049263721
0.039,1.761975,1.0,2735.841241295233,0.35552170884184925,1.3165151575587106,0.9637856942875667,0.28705595,0.6805425862104101
0.0395,1.7609937500000001,1.0,2736.10234404672,0.3591367209665975,1.3160696418807225,0.9644419457281694,0.2870147375,0.6814412674789281
0.04,1.76,1.0,2736.1677182344283,0.3627314549557512,1.3156202580524057,0.965075827096185,0.286973,0.6823464690909848
0.0405,1.7589937500000001,1.0,2736.051160940968,0.366306026088966,1.3151668807498778,0.9656883366195401,0.2869307375,0.6832584096887511
0.041,1.757975,1.0,2735.758094924283,0.3698605321972311,1.3147094608442518,0.9662804201287276,0.28688795,0.6841771532369909
0.0415,1.75694375,1.0,2735.3109818362223,0.37339510918509183,1.3142477946416906,0.9668529644775942,0.2868446375,0.6851030725855671
0.042,1.7559,1.0,2734.7191928750613,0.37690986875064597,1.313781797385804,0.9674068137297934,0.28680079999999997,0.6860362998384385
0.0425,1.75484375,1.0,2733.9901230943087,0.38040491853829317,1.3133114023401156,0.9679427670073991,0.2867564375,0.6869769297310913
0.043000000000000003,1.753775,1.0,2733.1311743568976,0.38388036619243293,1.3128365427681483,0.9684615805790949,0.28671155,0.6879250558318639
0.043500000000000004,1.75269375,1.0,2732.1497535391527,0.3873363193574649,1.3123571519334258,0.9689639705854358,0.28666613750000003,0.6888807705230827
0.044,1.7516,1.0,2731.0532708327764,0.3907728856777886,1.311873163099471,0.9694506155645178,0.2866202,0.6898441649819218
0.0445,1.75049375,1.0,2729.849138146538,0.3941901727978038,1.3113845095298078,0.9699221587945146,0.2865737375,0.6908153291609727
0.045,1.7493750000000001,1.0,2728.544767605952,0.3975882883619099,1.3108911244879589,0.9703792104680317,0.28652675,0.6917943517685347
0.0455,1.74824375,1.0,2727.147570151869,0.4009673400145066,1.3103929412374475,0.9708223497118819,0.2864792375,0.6927813202486175
0.046,1.7471,1.0,2725.6649542382356,0.4043274353999935,1.3098898930417973,0.9712521264646647,0.2864312,0.6937763207606615
0.0465,1.7459437500000001,1.0,2724.1043246278527,0.4076686821627702,1.3093819131645315,0.9716690632234334,0.28638263750000004,0.6947794381589742
0.047,1.744775,1.0,2722.47308128763,0.4109911879472362,1.308868934869173,0.9720736566697389,0.28633355,0.695790755971883
0.0475,1.74359375,1.0,2720.776011416834,0.4142950552201221,1.308350915153531,0.9724663802126933,0.28628393750000003,0.6968103097065685
0.048,1.7424,1.0,2719.014248035043,0.4175803833189661,1.307827844264009,0.9728476862892456,0.2862338,0.6978380685451946
0.0485,1.74119375,1.0,2717.2006762700744,0.4208472937283001,1.3072996053921586,0.9732180009316217,0.2861831375,0.6988742108604069
0.049,1.739975,1.0,2715.338452163442,0.42409588615510124,1.3067661702538529,0.9735777333201922,0.28613195,0.6999187397569648
0.0495,1.73874375,1.0,2713.4307288989894,0.42732626030634635,1.3062275105649637,0.9739272733930497,0.2860802375,0.7009716574400033
0.05,1.7375,1.0,2711.4806565300883,0.4305385158890125,1.3056835980413637,0.9742669929219693,0.286028,0.7020329652056314
0.0505,1.73624375,1.0,2709.4913817246133,0.4337327526100766,1.305134404398925,0.9745972465188554,0.2859752375,0.7031026634314836
0.051000000000000004,1.734975,1.0,2707.4660475277788,0.4369090701765156,1.3045799013535204,0.9749183725777464,0.28592195,0.7041807515672187
0.051500000000000004,1.73369375,1.0,2705.4077931428824,0.4400675682953066,1.3040200606210222,0.9752306941570357,0.2858681375,0.7052672281249681
0.052000000000000005,1.7324,1.0,2703.3197537293886,0.4432083466734264,1.3034548539173028,0.9755345198062019,0.2858138,0.7063620906697337
0.0525,1.73109375,1.0,2701.205060219273,0.446331505017852,1.3028842529582343,0.9758301443409836,0.28575893750000003,0.7074653358097333
0.053,1.729775,1.0,2699.0668391505496,0.4494371430355605,1.3023082294596893,0.976117849570642,0.28570355000000003,0.7085769591866959
0.0535,1.72844375,1.0,2696.9082125188283,0.45252536043352876,1.3017267551375404,0.976397904980655,0.2856476375,0.7096969554661057
0.054,1.7271,1.0,2694.7322976468404,0.4555962569187338,1.3011398017076596,0.9766705683739294,0.2855912,0.7108253183273963
0.0545,1.7257437500000001,1.0,2692.5377290349675,0.45864991502638175,1.3005473818679902,0.9769360872683024,0.2855342375,0.7119619619014556
0.055,1.724375,1.0,2690.3302092025424,0.46168644687661753,1.299949443627369,0.977194697659585,0.28547675,0.7131069236850502
0.0555,1.72299375,1.0,2688.114204450031,0.46470595760543726,1.299345946233528,0.9774466255433035,0.2854187375,0.7142602183467914
0.056,1.7216,1.0,2685.8908691548677,0.4677085390074099,1.298736879215146,0.9776920879651462,0.2853602,0.7154218016479443
0.0565,1.72019375,1.0,2683.6613558448453,0.4706942828771044,1.298122232100902,0.9779312929725209,0.28530113749999997,0.7165916285943109
0.057,1.718775,1.0,2681.426815181569,0.47366328100908967,1.2975019944194757,0.9781644400586625,0.28524155,0.7177696534325073
0.0575,1.71734375,1.0,2679.188395946531,0.47661562519793477,1.2968761556995458,0.9783917205813445,0.2851814375,0.7189558296462342
0.058,1.7159,1.0,2676.9472450296835,0.47955140723820855,1.2962447054697916,0.9786133181578375,0.2851208,0.7201501099525396
0.0585,1.71444375,1.0,2674.7045074205103,0.48247071892448007,1.2956076332588924,0.9788294090376434,0.2850596375,0.7213524462980746
0.059000000000000004,1.7129750000000001,1.0,2672.461326201363,0.48537365205131816,1.2949649285955274,0.979040162454417,0.28499795,0.7225627898553426
0.059500000000000004,1.71149375,1.0,2670.2188425432955,0.4882602984132919,1.2943165810083757,0.9792457409583967,0.2849357375,0.7237810910189422
0.06,1.71,1.0,2667.978195704262,0.4911307498049701,1.2936625800261163,0.9794463007305615,0.284873,0.7250072994018011
0.0605,1.7084937500000001,1.0,2665.740523030012,0.4939850980209219,1.2930029151774285,0.9796419918796586,0.2848097375,0.7262413638314051
0.061,1.7069750000000001,1.0,2663.506959957019,0.4968234348557161,1.2923375759909914,0.9798329587231533,0.28474595,0.7274832323460183
0.0615,1.7054437500000001,1.0,2661.278640017942,0.49964585210392176,1.2916665519954844,0.9800193400530942,0.2846816375,0.7287328521908973
0.062,1.7039,1.0,2659.056305361207,0.5024524333851165,1.2909898363064818,0.9802012689466205,0.2846168,0.7299901631579303
0.0625,1.70234375,1.0,2656.840487905848,0.5052432488787053,1.2903074239650252,0.9803788725558185,0.2845514375,0.7312551007359411
0.063,1.7007750000000001,1.0,2654.6339852344395,0.5080184278203294,1.289619289121629,0.9805522766451041,0.28448555,0.7325276382929921
0.0635,1.69919375,1.0,2652.436950231641,0.5107780535799691,1.288925430270141,0.9807216001103615,0.28441913750000003,0.7338077032627994
0.064,1.6976,1.0,2650.2495355520728,0.5135222095276052,1.2882258459044085,0.9808869574756356,0.2843522,0.7350952224256639
0.0645,1.69599375,1.0,2648.071893623658,0.516250979033218,1.287520534518279,0.9810484590842606,0.2842847375,0.7363901219079183
0.065,1.694375,1.0,2645.9041766497776,0.5189644454667881,1.2868094946056003,0.981206211280278,0.28421675,0.737692327181378
0.0655,1.69274375,1.0,2643.746536612224,0.5216626921982961,1.28609272466022,0.9813603165807069,0.2841482375,0.7390017630627919
0.066,1.6911,1.0,2641.5991252740446,0.5243458025977223,1.2853702231759851,0.9815108738391912,0.2840792,0.7403183537132922
0.0665,1.6894437500000001,1.0,2639.4620941824605,0.5270138600350474,1.2846419886467437,0.9816579784015085,0.2840096375,0.7416420226378413
0.067,1.687775,1.0,2637.3355946713946,0.5296669478802518,1.2839080195663433,0.981801722253406,0.28393955,0.7429726926846838
0.0675,1.68609375,1.0,2635.21977786517,0.5323051495033161,1.2831683144286308,0.9819421941611876,0.2838689375,0.7443102860447963
0.068,1.6844000000000001,1.0,2633.114794680682,0.5349285482742208,1.2824228717274544,0.9820794798054584,0.2837978,0.7456547242513324
0.0685,1.68269375,1.0,2631.020795830912,0.5375372275629462,1.2816716899566614,0.9822136619084061,0.2837261375,0.7470059281790766
0.069,1.680975,1.0,2628.93793182823,0.5401312707394731,1.2809147676100991,0.9823448203549683,0.28365395,0.7483638180438903
0.0695,1.67924375,1.0,2626.8663529869104,0.5427107611737819,1.2801521031816154,0.9824730323082256,0.28358123749999997,0.7497283134021604
0.07,1.6775,1.0,2624.806209427055,0.545275782235853,1.2793836951650577,0.9825983723193294,0.283508,0.7510993331502491
0.07050000000000001,1.67574375,1.0,2622.7576510774,0.5478264172956672,1.2786095420542736,0.9827209124322577,0.2834342375,0.7524767955239413
0.07100000000000001,1.673975,1.0,2620.720827678697,0.5503627497232048,1.2778296423431104,0.9828407222836769,0.28335995,0.7538606180978935
0.07150000000000001,1.67219375,1.0,2618.6986795760695,0.5528848026714293,1.277043968627089,0.9829578643830579,0.2832851375,0.7552507635438539
0.07200000000000001,1.6704,1.0,2616.689471731632,0.5553927282992656,1.2762525368641469,0.9830724088732584,0.2832098,0.7566471169519234
0.0725,1.66859375,1.0,2614.6927793243385,0.5578866071302042,1.2754553508695687,0.9831844187813699,0.2831339375,0.7580495844302385
0.073,1.6667750000000001,1.0,2612.708389923388,0.5603665134433915,1.2746524124919967,0.9832939546321812,0.28305755,0.7594580749755298
0.0735,1.66494375,1.0,2610.7360914774704,0.5628325215179735,1.2738437235800724,0.9834010749973036,0.2829806375,0.7608724969891612
0.074,1.6631,1.0,2608.7756723104726,0.5652847056330961,1.2730292859824375,0.9835058365694475,0.2829032,0.7622927582778073
0.0745,1.6612437500000001,1.0,2606.8269211171355,0.5677231400679055,1.272209101547734,0.9836082942333995,0.2828252375,0.763718766054131
0.075,1.659375,1.0,2604.8896269591664,0.5701478991015478,1.2713831721246032,0.9837085011338711,0.28274675,0.7651504269374618
0.0755,1.65749375,1.0,2602.9635792605354,0.5725590570131692,1.2705514995616873,0.9838065087403698,0.2826677375,0.7665876469544717
