Time [s],Phi [rad],STIM [ ],Fsee [N],Gamma [ ],Lcerel [ ],q [ ],Lmtc [m],fisomrel [ ]
0.0,1.8,1.0,17.980821318749342,0.00012632476089809288,1.3793382157807552,0.005004168765755434,0.288653,0.5411432335722998
0.0005,1.79999375,1.0,18.328688223513765,0.005734825487714603,1.379296621907479,0.013266612404983242,0.2886527375,0.541243853984614
0.001,1.799975,1.0,21.756851246605766,0.011311866959817177,1.3789241820473976,0.03621732176095145,0.28865195,0.542144337562853
0.0015,1.79994375,1.0,31.39305308967154,0.016857625639694448,1.3780186871368507,0.07143332801987293,0.2886506375,0.5443299495386855
0.002,1.7999,1.0,54.27552586567633,0.02237227699803896,1.3763233089537559,0.11570168569718711,0.2886488,0.5484080584760714
0.0025,1.79984375,1.0,98.27958819690343,0.02785599552205273,1.3738794043878118,0.16564436299007385,0.28864643749999996,0.5542544355057881
0.003,1.7997750000000001,1.0,162.4654374877368,0.033308954722117624,1.3711580566469013,0.21838336461850477,0.28864354999999997,0.5607196970219887
0.0035,1.79969375,1.0,239.38474595558318,0.03873132713224914,1.3685324196227784,0.2717095783753707,0.2886401375,0.5669128051242998
0.004,1.7996,1.0,323.2759695371419,0.044123284320619134,1.3661082408781837,0.3239775027008116,0.2886362,0.57259169630447
0.0045000000000000005,1.7994937500000001,1.0,411.14059225548186,0.04948499689481928,1.3638789016182156,0.37404220603615107,0.2886317375,0.5777810744806156
0.005,1.799375,1.0,501.32404225744284,0.05481663449357804,1.361817782325261,0.42119014656709547,0.28862675,0.5825506772743304
0.0055,1.79924375,1.0,592.7173101011854,0.06011836582777061,1.3599012188691106,0.4650464221741622,0.2886212375,0.5869614561751548
0.006,1.7991000000000001,1.0,684.4463630143185,0.06539035863911546,1.3581113889310719,0.5054819581477243,0.2886152,0.5910594168299061
0.006500000000000001,1.79894375,1.0,775.7976814098125,0.07063277972889498,1.3564345592383122,0.5425340334009789,0.2886086375,0.5948801179228
0.007,1.798775,1.0,866.1818751889052,0.07584579501462932,1.3548597842666175,0.5763449804658302,0.28860155,0.5984519563464596
0.0075,1.79859375,1.0,955.1049648994847,0.08102956934587803,1.353378157528186,0.6071176612968986,0.2885939375,0.6017980796619405
0.008,1.7984,1.0,1042.183141387575,0.0861842668244753,1.3519817932770288,0.6350842491811597,0.2885858,0.6049388303618843
0.0085,1.79819375,1.0,1127.1022822359068,0.09131005066573686,1.3506639392646596,0.6604860003934565,0.2885771375,0.6078915870516299
0.009000000000000001,1.797975,1.0,1209.6122976162937,0.09640708271279219,1.3494186492905271,0.6835602050550241,0.28856795,0.6106715801274988
0.0095,1.79774375,1.0,1289.5412476148585,0.10147552416898437,1.3482403095498685,0.7045322999555664,0.2885582375,0.6132930063922569
0.01,1.7975,1.0,1366.7823448282409,0.10651553640797884,1.3471236305023402,0.7236117983604268,0.288548,0.6157690852897794
0.0105,1.79724375,1.0,1441.2258351943683,0.11152727799654216,1.3460643478196435,0.7409908659123075,0.2885372375,0.6181105458168521
0.011,1.796975,1.0,1512.8188965498766,0.11651090727378507,1.3450582755449205,0.7568435034488166,0.28852595000000003,0.6203277630037172
0.0115,1.79669375,1.0,1581.5507292387545,0.12146658205879146,1.3441014067494303,0.7713261927783356,0.2885141375,0.6224305544421656
0.012,1.7964,1.0,1647.4452250915926,0.1263944601121164,1.3431899195757135,0.7845789851075243,0.28850180000000003,0.624428185910763
0.0125,1.79609375,1.0,1710.5146338230772,0.1312946968488766,1.342320638099822,0.796727015841898,0.2884889375,0.6263283824328146
0.013000000000000001,1.7957750000000001,1.0,1770.7833150448462,0.13616744669263084,1.3414906618077076,0.8078817299109794,0.28847555,0.628138162940478
0.0135,1.79544375,1.0,1828.307311606525,0.14101286406693805,1.3406970901853212,0.8181421704266596,0.2884616375,0.6298644538879308
0.014,1.7951000000000001,1.0,1883.156534368579,0.1458311022604154,1.3399371870609067,0.8275963838275386,0.2884472,0.6315137399653001
0.0145,1.79474375,1.0,1935.412304816175,0.15062231487988734,1.3392083677726536,0.8363226517980112,0.2884322375,0.6330921021460847
0.015,1.794375,1.0,1985.1324649685998,0.1553866524067543,1.3385085369465428,0.8443907234578703,0.28841675,0.6346044974946143
0.0155,1.79399375,1.0,2032.3925221614436,0.16012426527750054,1.3378356050533542,0.8518626481689356,0.2884007375,0.6360558161933485
0.016,1.7936,1.0,2077.278229497914,0.16483530336025107,1.3371875491403684,0.8587937034897524,0.2883842,0.6374507547981876
0.0165,1.7931937500000001,1.0,2119.882270760313,0.16951991649436796,1.3365624286090019,0.8652332022276439,0.2883671375,0.6387937871454418
0.017,1.792775,1.0,2160.2977015587862,0.17417825399937317,1.3359584348326423,0.8712252117116517,0.28834955,0.6400890627066366
0.0175,1.7923437500000001,1.0,2198.5914358284044,0.17881046180693347,1.3353741418686005,0.8768092387525153,0.2883314375,0.6413398755290174
0.018000000000000002,1.7919,1.0,2234.8397513972623,0.18341668584871543,1.3348081237741878,0.8820206592514188,0.2883128,0.6425494906084444
0.0185,1.79144375,1.0,2269.1275112065887,0.18799707205638577,1.3342589546067156,0.8868912006008615,0.2882936375,0.6437211456161531
0.019,1.790975,1.0,2301.5395656714495,0.192551765386513,1.3337252862662203,0.8914493829598369,0.28827395,0.6448578868192899
0.0195,1.79049375,1.0,2332.1656500783056,0.19708091130817906,1.333205791000553,0.895720873486355,0.2882537375,0.645962694016887
0.02,1.79,1.0,2361.0849645686676,0.20158465355061914,1.3326993055007617,0.8997288419278147,0.288233,0.6470381764008637
0.0205,1.78949375,1.0,2388.3615222598924,0.20606313319405284,1.332204865909687,0.9034942463713959,0.2882117375,0.6480865021234914
0.021,1.788975,1.0,2414.0637678393255,0.21051649131869976,1.3317215083701703,0.9070360345904906,0.28818995000000003,0.6491098242494229
0.021500000000000002,1.78844375,1.0,2438.2642098019733,0.21494486900477958,1.3312482690250524,0.9103713644472018,0.2881676375,0.6501102814665385
0.022,1.7879,1.0,2461.0342191560558,0.21934840638080885,1.3307842304836506,0.9135158066363763,0.2881448,0.6510899007121784
0.0225,1.78734375,1.0,2482.4446767148397,0.2237272436559516,1.3303285115352395,0.916483512591382,0.28812143749999997,0.6520506201113303
0.023,1.786775,1.0,2502.566924787406,0.2280815211501052,1.3298802546079247,0.9192873614273416,0.28809755,0.6529943163897027
0.0235,1.78619375,1.0,2521.4534963285278,0.23241137485502922,1.3294388050733645,0.9219391233638715,0.28807313749999996,0.6539224289280412
0.024,1.7856,1.0,2539.1590317222444,0.2367169407624833,1.329003508303217,0.9244495375795795,0.2880482,0.6548363887888234
0.0245,1.78499375,1.0,2555.7401027943793,0.24099835486422708,1.3285737096691406,0.926828416726222,0.2880227375,0.6557376189867963
0.025,1.784375,1.0,2571.255046327142,0.2452557531520201,1.3281487545427932,0.929084739582532,0.28799675,0.6566275347321864
0.025500000000000002,1.78374375,1.0,2585.7547229619304,0.24948926943876445,1.32772807313099,0.9312267465023734,0.2879702375,0.6575073663324251
0.026000000000000002,1.7831000000000001,1.0,2599.296905043781,0.253699040280555,1.3273110439795388,0.933261990875128,0.2879432,0.6583784454369401
0.0265,1.78244375,1.0,2611.9339697623177,0.2578852001119711,1.3268971078224514,0.9351974211372613,0.2879156375,0.6592419671470555
0.027,1.781775,1.0,2623.7046307866967,0.26204787940037194,1.3264858423909653,0.9370394486214149,0.28788755,0.6600988351985387
0.0275,1.7810937500000001,1.0,2634.648486858608,0.2661872086131168,1.326076825416318,0.9387939781527338,0.2878589375,0.6609499487449493
0.028,1.7804,1.0,2644.805945912512,0.27030331821756476,1.325669634629747,0.9404664547602588,0.2878298,0.6617962024238748
0.0285,1.77969375,1.0,2654.218153149938,0.2743963386810751,1.3252638477624898,0.9420619055150719,0.2878001375,0.662638486411798
0.029,1.778975,1.0,2662.92692306701,0.278466400471007,1.324859042545784,0.9435849770565787,0.28776995,0.6634776864675909
0.029500000000000002,1.7782437500000001,1.0,2670.966111466612,0.2825136301246598,1.3244548754023804,0.945039978642322,0.2877392375,0.6643145211340109
0.03,1.7775,1.0,2678.380971390416,0.2865381608870533,1.3240509027410936,0.9464308913004372,0.287708,0.6651499120940125
0.0305,1.77674375,1.0,2685.203163099631,0.2905401196910562,1.3236468101813565,0.9477614218615874,0.2876762375,0.665984509755845
0.031,1.775975,1.0,2691.4599602920816,0.29451963116126606,1.3232423270234335,0.9490350164225152,0.28764395,0.6668188712387618
0.0315,1.7751937500000001,1.0,2697.1789643602747,0.29847681992228076,1.3228371825675884,0.9502548774671533,0.2876111375,0.667653550866778
0.032,1.7744,1.0,2702.388073667119,0.30241181059869787,1.3224311061140857,0.9514239840987381,0.2875778,0.6684891001595894
0.0325,1.77359375,1.0,2707.115454445817,0.30632472781511527,1.3220238269631894,0.9525451103571982,0.2875439375,0.6693260678188196
0.033,1.772775,1.0,2711.389513324643,0.31021569619613065,1.3216150744151638,0.9536208418235761,0.28750955,0.670164999709594
0.0335,1.7719437500000002,1.0,2715.233932203685,0.3140848367095478,1.3212046227841678,0.954653594838552,0.2874746375,0.6710063466265321
0.034,1.7711000000000001,1.0,2718.673532365499,0.31793227242636213,1.3207922376264154,0.9556456253311518,0.2874392,0.6718505748681041
0.0345,1.7702437500000001,1.0,2721.741376958446,0.3217581336013854,1.3203776109393186,0.9565990354972074,0.2874032375,0.6726982984974956
0.035,1.7693750000000001,1.0,2724.454289113916,0.3255625381765164,1.3199605839117554,0.9575158048074753,0.28736675,0.6735498237973486
0.035500000000000004,1.76849375,1.0,2726.829199108403,0.32934560409365393,1.3195409977326034,0.9583977864708666,0.2873297375,0.6744054552552691
0.036000000000000004,1.7676,1.0,2728.883133217723,0.33310744929469666,1.3191186935907409,0.9592467169362832,0.2872922,0.6752654955387081
0.0365,1.76669375,1.0,2730.633203130548,0.3368481917215433,1.3186935126750456,0.9600642245757858,0.2872541375,0.6761302454682414
0.037,1.765775,1.0,2732.0965959210876,0.3405679493160927,1.3182652961743957,0.9608518376280283,0.28721555,0.6770000039892353
0.0375,1.76484375,1.0,2733.290564581033,0.3442668400202436,1.317833885277669,0.961610991472522,0.2871764375,0.6778750681419055
0.038,1.7639,1.0,2734.23241911042,0.34794498177589467,1.3173991211737435,0.9623430352978841,0.28713679999999997,0.6787557330297682
0.0385,1.76294375,1.0,2734.939518168269,0.35160249252494474,1.316960845051497,0.9630492382206596,0.28709663750000003,0.6796422917864827
0.039,1.761975,1.0,2735.4205832659577,0.355239483915394,1.3165189768942143,0.9637308009771728,0.28705595,0.6805348764854587
0.0395,1.7609937500000001,1.0,2735.694985671756,0.3588560768970204,1.316073340281946,0.964388847640862,0.2870147375,0.6814338123820574
0.04,1.76,1.0,2735.7801868359934,0.36245238897304083,1.3156237763963656,0.9650244387557259,0.286973,0.682339387032197
0.0405,1.7589937500000001,1.0,2735.6855833702816,0.36602853117401446,1.3151701998421141,0.9656385800373212,0.2869307375,0.6832517383019192
0.041,1.757975,1.0,2735.4205895964756,0.36958461453050045,1.3147125252238316,0.9662322208085059,0.28688795,0.6841710027654309
0.0415,1.75694375,1.0,2734.994634536382,0.3731207500730579,1.3142506671461587,0.9668062577451921,0.2868446375,0.6850973156830171
0.042,1.7559,1.0,2734.4171590637748,0.376637048832246,1.3137845402137358,0.9673615383359441,0.28680079999999997,0.6860308109784898
0.0425,1.75484375,1.0,2733.6976132177006,0.380133621838624,1.3133140590312031,0.9678988640799987,0.2867564375,0.6869716212161727
0.043000000000000003,1.753775,1.0,2732.8454536769705,0.3836105801227509,1.3128391382032014,0.968418993445955,0.28671155,0.6879198775774179
0.043500000000000004,1.75269375,1.0,2731.8701413977183,0.3870680347151859,1.3123596923343708,0.9689226446112815,0.28666613750000003,0.688875709836662
0.044,1.7516,1.0,2730.781139410898,0.3905060966464881,1.311875636029352,0.9694104980009197,0.2866202,0.6898392463370127
0.0445,1.75049375,1.0,2729.5837582203653,0.3939248686108394,1.3113869216374177,0.9698832003446574,0.2865737375,0.6908105390088416
0.045,1.7493750000000001,1.0,2728.2903645027723,0.3973244689982439,1.3108934373746879,0.9703413624544776,0.28652675,0.6917897659354306
0.0455,1.74824375,1.0,2726.907420125934,0.4007050045882079,1.3103951250997807,0.9707855663925903,0.2864792375,0.6927769971756743
0.046,1.7471,1.0,2725.4402860161294,0.4040665799049521,1.3098919366693118,0.9712163652980919,0.2864312,0.6937722818473956
0.0465,1.7459437500000001,1.0,2723.894321504976,0.4074092994726974,1.309383823939897,0.9716342846978708,0.28638263750000004,0.6947756679984913
0.047,1.744775,1.0,2722.274883534305,0.41073326781566455,1.3088707387681515,0.9720398241437456,0.28633355,0.6957872025918888
0.0475,1.74359375,1.0,2720.5873259127015,0.4140385894580743,1.3083526330106914,0.972433458737597,0.28628393750000003,0.6968069314903504
0.048,1.7424,1.0,2718.8369986226344,0.41732536892414757,1.307829458524132,0.9728156405531361,0.2862338,0.6978348994411344
0.0485,1.74119375,1.0,2717.0292471800626,0.4205937107381051,1.3073011671650887,0.9731867999622085,0.2861831375,0.6988711500605045
0.049,1.739975,1.0,2715.1694120440548,0.42384371942416765,1.3067677107901776,0.9735473468728748,0.28613195,0.699915725818093
0.0495,1.73874375,1.0,2713.262290320412,0.4270754962226159,1.3062290461586448,0.9738976718293705,0.2860802375,0.7009686584463222
0.05,1.7375,1.0,2711.309899072493,0.4302891229297929,1.3056851553354716,0.9742381466021199,0.286028,0.7020299292331907
0.0505,1.73624375,1.0,2709.322499930771,0.43348473961956524,1.3051359451521731,0.9745691275094742,0.2859752375,0.7030996651023278
0.051000000000000004,1.734975,1.0,2707.302356513774,0.4366624429182043,1.3045813953076801,0.9748909543372987,0.28592195,0.7041778495931974
0.051500000000000004,1.73369375,1.0,2705.251729770329,0.43982232945198135,1.3040214855009242,0.9752039514733996,0.2858681375,0.7052644654139392
0.052000000000000005,1.7324,1.0,2703.1728778464862,0.44296449584716774,1.3034561954308366,0.975508428737668,0.2858138,0.7063594944344449
0.0525,1.73109375,1.0,2701.068055962084,0.44608903873003464,1.3028855047963481,0.9758046821604728,0.28575893750000003,0.707462917679405
0.053,1.729775,1.0,2698.9395162956253,0.4491960547268535,1.30230939329639,0.976092994712949,0.28570355000000003,0.7085747153213283
0.0535,1.72844375,1.0,2696.789507879044,0.45228564046389547,1.301727840629894,0.9763736369925392,0.2856476375,0.7096948666735372
0.054,1.7271,1.0,2694.6202765013873,0.4553578925674319,1.3011408264957909,0.9766468678668928,0.2855912,0.7108233501831377
0.0545,1.7257437500000001,1.0,2692.4340646213986,0.4584129076637341,1.300548330593012,0.9769129350789789,0.2855342375,0.7119601434239593
0.055,1.724375,1.0,2690.23311128921,0.46145078237907333,1.2999503326204882,0.9771720758160582,0.28547675,0.7131052230894723
0.0555,1.72299375,1.0,2688.019652077857,0.4644716133397208,1.2993468122771512,0.9774245172449576,0.2854187375,0.7142585649856761
0.056,1.7216,1.0,2685.795919022982,0.467475497171948,1.298737749261932,0.9776704770158999,0.2853602,0.7154201440239637
0.0565,1.72019375,1.0,2683.564140572531,0.470462530502026,1.298123123273762,0.9779101637369865,0.28530113749999997,0.7165899342139583
0.057,1.718775,1.0,2681.3265415449573,0.4734328099562262,1.2975029140115721,0.9781437774212602,0.28524155,0.7177679086563238
0.0575,1.71734375,1.0,2679.08534309667,0.4763864321608199,1.2968771011742937,0.9783715099081505,0.2851814375,0.7189540395355491
0.058,1.7159,1.0,2676.8459658173633,0.4793234842300759,1.2962456350607576,0.9785935427773509,0.2851208,0.7201483536589555
0.0585,1.71444375,1.0,2674.6050565270734,0.4822440667774577,1.2956085464511051,0.9788100559684172,0.2850596375,0.721350724697273
0.059000000000000004,1.7129750000000001,1.0,2672.363502054538,0.4851482704607656,1.2949658272271694,0.9790212192525541,0.28499795,0.7225610993883663
0.059500000000000004,1.71149375,1.0,2670.1225303130386,0.48803618517040676,1.2943174661225707,0.979227195459227,0.2849357375,0.7237794296402724
0.06,1.71,1.0,2667.88336715877,0.49090790079678814,1.29366345187093,0.9794281410376561,0.284873,0.7250056665664859
0.0605,1.7084937500000001,1.0,2665.6472363919165,0.4937635072303169,1.293003773205868,0.9796242063542593,0.2848097375,0.7262397604819015
0.061,1.7069750000000001,1.0,2663.415359759696,0.49660309436140015,1.292338418861005,0.9798155359740001,0.28474595,0.7274816608987488
0.0615,1.7054437500000001,1.0,2661.1889569626414,0.49942675208044485,1.2916673775699616,0.9800022689266319,0.2846816375,0.7287313165225173
0.062,1.7039,1.0,2658.9692456639223,0.502234570277858,1.290990638066359,0.9801845389587525,0.2846168,0.729988675247874
0.0625,1.70234375,1.0,2656.757441500769,0.5050266388440469,1.2903081890838173,0.9803624747725312,0.2845514375,0.7312536841545746
0.063,1.7007750000000001,1.0,2654.5531340673238,0.5078030474664558,1.28962003432473,0.980536201007971,0.28448555,0.7325262618550454
0.0635,1.69919375,1.0,2652.35717718652,0.5105638832403224,1.2889261658405997,0.9807058368903097,0.28441913750000003,0.7338063478719715
0.064,1.6976,1.0,2650.1721928047987,0.5133092328646315,1.2882265593596904,0.9808714963946277,0.2843522,0.735093910968351
0.0645,1.69599375,1.0,2647.9933999535488,0.5160391831975846,1.2875212588880967,0.9810332927682035,0.2842847375,0.736388793646059
0.065,1.694375,1.0,2645.824533245318,0.5187538207702893,1.2868102298867066,0.9811913312151733,0.28421675,0.7376909822459647
0.0655,1.69274375,1.0,2643.667571075939,0.5214532313066842,1.2860934539805207,0.9813457138829196,0.2841482375,0.7390004323644634
0.066,1.6911005184640155,1.0,2641.5441480087934,0.5241375002602565,1.2853709652924872,0.981496541821352,0.28407922177548867,0.7403170030868433
0.0665,1.6894541186862846,1.0,2639.8666502579713,0.5268067126759697,1.2846429319668506,0.9816439190138165,0.28401007298482395,0.7416403102082744
0.067,1.6878077189085536,1.0,2638.74633348134,0.5294609528464996,1.2839097523750773,0.9817879569325972,0.2839409241941593,0.7429695551859767
0.0675,1.6861613191308225,1.0,2638.144277439403,0.5321003036858862,1.2831717830819145,0.9819287611724212,0.2838717754034945,0.7443040218947996
0.068,1.6845149193530915,1.0,2638.004370750728,0.5347248513126789,1.2824295412458089,0.982066441661687,0.28380262661282984,0.7456427111979654
0.0685,1.6828685195753605,1.0,2638.2929296119123,0.5373346779261639,1.2816833379462524,0.9822010946824205,0.2837334778221651,0.7469850035824532
0.069,1.6812221197976296,1.0,2638.9789194347536,0.5399298652580926,1.2809334607222456,0.9823328121980889,0.2836643290315004,0.7483303273170361
0.0695,1.6795757200198986,1.0,2640.031384106092,0.5425104950402163,1.2801801971127886,0.9824616831591861,0.28359518024083574,0.749678115898721
0.07,1.6779293202421677,1.0,2641.419423482169,0.5450766490042864,1.2794238346568823,0.982587793630311,0.283526031450171,0.7510278081174852
0.07050000000000001,1.6762829204644367,1.0,2643.1121727169693,0.5476284088820542,1.2786646608935266,0.9827112269111183,0.28345688265950636,0.7523788481157393
0.07100000000000001,1.6746365206867058,1.0,2645.091299169637,0.5501658525535659,1.27790284779725,0.9828320581117378,0.28338773386884164,0.7537308902620488
0.07150000000000001,1.6729901209089748,1.0,2647.3167176304028,0.5526890661977477,1.277138768299936,0.9829503696133728,0.2833185850781769,0.7550832369425842
0.07200000000000001,1.6713437211312439,1.0,2649.77072245833,0.5551981285148342,1.2763725885992687,0.9830662314306916,0.28324943628751226,0.7564355620884546
0.0725,1.669697321353513,1.0,2652.437766226687,0.5576931174785512,1.2756044549702463,0.9831797104428939,0.28318028749684754,0.7577875778078873
0.073,1.668050921575782,1.0,2655.3022963075405,0.5601741110626253,1.274834513687867,0.9832908714450831,0.2831111387061828,0.7591389989985768
0.0735,1.666404521798051,1.0,2658.348748772262,0.5626411872407822,1.2740629110271289,0.9833997772304971,0.28304198991551816,0.7604895433652298
0.074,1.6647581220203198,1.0,2661.561542765665,0.565094423986748,1.2732897932630303,0.9835064886690205,0.28297284112485344,0.7618389314357468
0.0745,1.6631117222425889,1.0,2664.9250753558395,0.5675338992742489,1.2725153066705694,0.9836110647821668,0.2829036923341887,0.763186886576038
