Time [s],Phi [rad],STIM [ ],Fsee [N],Gamma [ ],Lcerel [ ],q [ ],Lmtc [m],fisomrel [ ]
0.0,1.8,1.0,17.96612279875355,1.045557874358609e-05,1.3793398622173265,0.005000029125252632,0.288653,0.541139250423915
0.0005,1.79999375,1.0,18.275703895508776,0.0056196062400104465,1.3793025033427369,0.012941781433819043,0.2886527375,0.5412296267791235
0.001,1.799975,1.0,21.61771898876473,0.011197294000986917,1.3789383697858917,0.035610959128553984,0.28865195,0.5421100507143203
0.0015,1.79994375,1.0,31.069208972411253,0.016743695344529623,1.3780462060319976,0.070604969523197,0.2886506375,0.5442636036505499
0.002,1.7999,1.0,53.58351432146207,0.022258985761840933,1.3763680586069988,0.11472170361862932,0.2886488,0.5483006519783121
0.0025,1.79984375,1.0,97.12154209495066,0.027743339760040203,1.373935041758247,0.16457887964349022,0.28864643749999996,0.5541217619427873
0.003,1.7997750000000001,1.0,160.96207730840615,0.033196930869873145,1.3712141973838905,0.21728456410044977,0.28864354999999997,0.5605867973872257
0.0035,1.79969375,1.0,237.68804430413903,0.03861993164530853,1.3685845890683632,0.2706169738373335,0.2886401375,0.5667901808077355
0.004,1.7996,1.0,321.4719983093121,0.044012513674319236,1.366155953954247,0.3229197555194168,0.2886362,0.5724802850250491
0.0045000000000000005,1.7994937500000001,1.0,409.27333947852253,0.04937484758406684,1.3639226829791873,0.3730382597228322,0.2886317375,0.577679466878922
0.005,1.799375,1.0,499.4193396241435,0.054707103031998335,1.361858218344212,0.42025097065379086,0.28862675,0.5824573654870937
0.0055,1.79924375,1.0,590.7964097553007,0.060009448753256,1.359938717957082,0.46417694783202934,0.2886212375,0.5868753804700642
0.006,1.7991000000000001,1.0,682.5242023427691,0.06528205250396266,1.3581463039746786,0.5046829486063998,0.2886152,0.5909796713943786
0.006500000000000001,1.79894375,1.0,773.8677660444428,0.07052508082821217,1.3564674839324413,0.541803703417399,0.2886086375,0.5948052707234526
0.007,1.798775,1.0,864.2967782054336,0.07573870053902122,1.3548902178447104,0.5756792218814708,0.28860155,0.5983830780552742
0.0075,1.79859375,1.0,953.2633080280552,0.08092307578531314,1.353406470147553,0.6065120497936748,0.2885939375,0.6017342693171133
0.008,1.7984,1.0,1040.3641141290468,0.08607837044166078,1.352008563019424,0.6345341213450564,0.2885858,0.604878735845026
0.0085,1.79819375,1.0,1125.3242127114434,0.09120474812210122,1.3506891001451233,0.6599862756498301,0.2885771375,0.607835315814425
0.009000000000000001,1.797975,1.0,1207.8872776407984,0.09630237088128142,1.3494422113543925,0.6831060390598278,0.28856795,0.6106190718231892
0.0095,1.79774375,1.0,1287.875800526285,0.1013714000795505,1.3482623408887024,0.7041191848056482,0.2885582375,0.6132440749959223
0.01,1.7975,1.0,1365.1585183649076,0.10641199592511696,1.3471444949245641,0.7232357328158009,0.288548,0.6157228942715858
0.0105,1.79724375,1.0,1439.6569457873968,0.11142431809550428,1.3460839783452863,0.7406479969423462,0.2885372375,0.6180672191731487
0.011,1.796975,1.0,1511.315212645552,0.11640852517687779,1.3450766391699822,0.756530374959194,0.28852595000000003,0.6202873504437179
0.0115,1.79669375,1.0,1580.1083206339686,0.12136477463236535,1.3441186346824503,0.7710397819340278,0.2885141375,0.6223927463784641
0.012,1.7964,1.0,1646.03792303955,0.12629322282281635,1.343206388376794,0.7843166971172852,0.28850180000000003,0.6243921395961648
0.0125,1.79609375,1.0,1709.1650213826526,0.13119402762323623,1.3423361376375247,0.7964862971315145,0.2884889375,0.6262945435823398
0.013000000000000001,1.7957750000000001,1.0,1769.5002421861618,0.13606734272764695,1.341505144012259,0.807660374675666,0.28847555,0.6281066218532088
0.0135,1.79544375,1.0,1827.0836059536107,0.14091332176863894,1.3407106830950908,0.817938286003067,0.2884616375,0.6298349184466729
0.014,1.7951000000000001,1.0,1881.9830729402456,0.1457321183788028,1.3399500304801135,0.8274082938998334,0.2884472,0.6314858953334499
0.0145,1.79474375,1.0,1934.2693392463857,0.15052388512858222,1.3392207072825328,0.8361489024521473,0.2884322375,0.6330654073684253
0.015,1.794375,1.0,1984.0409486805654,0.15528877489499146,1.338520172379924,0.8442298724119471,0.28841675,0.6345793778439621
0.0155,1.79399375,1.0,2031.3620660927934,0.16002693746622548,1.3378464610105991,0.8517134520872062,0.2884007375,0.6360324259649672
0.016,1.7936,1.0,2076.3036747254605,0.16473852216144055,1.3371977045452343,0.8586551028253461,0.2883842,0.6374289159739313
0.0165,1.7931937500000001,1.0,2118.951051676452,0.16942367829979296,1.3365720343545062,0.8651042728860674,0.2883671375,0.6387731686558326
0.017,1.792775,1.0,2159.3852880812483,0.17408255404440098,1.3359677580998615,0.871105160622986,0.28834955,0.6400690864711511
0.0175,1.7923437500000001,1.0,2197.7128160322213,0.1787152983439426,1.3353830412432826,0.8766972441054898,0.2883314375,0.6413208407092048
0.018000000000000002,1.7919,1.0,2234.005792553493,0.1833220567296772,1.3348165019471934,0.8819159961072002,0.2883128,0.6425316008413426
0.0185,1.79144375,1.0,2268.3384502247004,0.1879029742931984,1.33426682155429,0.8867932456087563,0.2882936375,0.6437043750254859
0.019,1.790975,1.0,2300.7925442396368,0.19245819612609993,1.3337326814072687,0.8913575833383237,0.28827395,0.6448421471961558
0.0195,1.79049375,1.0,2331.4478831978513,0.19698786617809014,1.3332128496971531,0.8956347535216739,0.2882537375,0.6459476938670359
0.02,1.79,1.0,2360.3935252102233,0.20149212956872273,1.332706063489541,0.8996479502096468,0.288233,0.6470238371087168
0.0205,1.78949375,1.0,2387.69988023753,0.2059711282299333,1.3322112956066774,0.9034181612962129,0.2882117375,0.6480728796917501
0.021,1.788975,1.0,2413.432820676771,0.21042500281757937,1.3317276070295883,0.9069643797968544,0.28818995000000003,0.6490969219847675
0.021500000000000002,1.78844375,1.0,2437.662228051861,0.21485389398751847,1.3312540587392994,0.9103038038316542,0.2881676375,0.6500980502829745
0.022,1.7879,1.0,2460.4616545940717,0.21925794239560817,1.3307897117168366,0.9134520310036832,0.2881448,0.6510783374435336
0.0225,1.78734375,1.0,2481.892911127395,0.22363728605901712,1.3303337708157363,0.9164232566616174,0.28812143749999997,0.6520395403656141
0.023,1.786775,1.0,2502.039841495278,0.22799206756371623,1.3298852583699514,0.9192303617532775,0.28809755,0.6529837892544337
0.0235,1.78619375,1.0,2520.9551740576485,0.2323224231722109,1.3294435180322701,0.9218851395644705,0.28807313749999996,0.6539125268702848
0.024,1.7856,1.0,2538.6904416164325,0.23662848852002832,1.3290079245728321,0.9243983553357917,0.2880482,0.654827122347824
0.0245,1.78499375,1.0,2555.29906391894,0.24091039924269567,1.3285778527617766,0.9267798451062651,0.2880227375,0.6557289370996819
0.025,1.784375,1.0,2570.8361885267905,0.2451682909757402,1.3281526773692436,0.92903860866715,0.28799675,0.656619325049098
0.025500000000000002,1.78374375,1.0,2585.3585403519555,0.2494022993546891,1.3277317731653726,0.9311828920863128,0.2879702375,0.6574996328376299
0.026000000000000002,1.7831000000000001,1.0,2598.9153802285346,0.2536125562235585,1.3273145978219119,0.9332202728297254,0.2879432,0.6583710269536993
0.0265,1.78244375,1.0,2611.566301061733,0.25779920012661595,1.326900524297282,0.9351577018195439,0.2879156375,0.659234844432915
0.027,1.781775,1.0,2623.3508793042,0.2619623616804405,1.3264891221566328,0.9370016001082779,0.28788755,0.6600920061013753
0.0275,1.7810937500000001,1.0,2634.308447516975,0.2661021710039673,1.3260799714923805,0.9387578827294288,0.2878589375,0.6609434062229856
0.028,1.7804,1.0,2644.479146065102,0.2702187582161316,1.3256726523969418,0.940432003994762,0.2878298,0.6617899345686886
0.0285,1.77969375,1.0,2653.9038515549178,0.2743122534358685,1.3252667449627327,0.9420289994272508,0.2878001375,0.6626324764711372
0.029,1.778975,1.0,2662.6241091804363,0.27838278678211337,1.3248618292821697,0.9435535233714539,0.28776995,0.6634719128681201
0.029500000000000002,1.7782437500000001,1.0,2670.676106178924,0.28243048555132316,1.3244575402408838,0.9450098892518309,0.2877392375,0.6643090069541941
0.03,1.7775,1.0,2678.0935676743147,0.2864554773501835,1.3240535400149693,0.9464020966858151,0.287708,0.665144461746705
0.0305,1.77674375,1.0,2684.9267820237255,0.29045789847971293,1.3236493430827436,0.9477338384202266,0.2876762375,0.6659792816393767
0.031,1.775975,1.0,2691.200372239349,0.294437872455542,1.3232447032540604,0.9490085691780684,0.28764395,0.6668139726345486
0.0315,1.7751937500000001,1.0,2696.939272620311,0.2983955227933013,1.322839374338774,0.9502294993581917,0.2876111375,0.6676490381905258
0.032,1.7744,1.0,2702.168701028363,0.30233097300862144,1.3224331101467386,0.9513996153330284,0.2875778,0.668484979212695
0.0325,1.77359375,1.0,2706.914132507642,0.3062443466171331,1.3220256644878081,0.9525216978250741,0.2875439375,0.6693222940407706
0.033,1.772775,1.0,2711.201274247879,0.3101357671344669,1.3216167911718368,0.9535983385645783,0.28750955,0.6701614784321783
0.0335,1.7719437500000002,1.0,2715.0560418920995,0.3140053580762534,1.3212062440086787,0.9546319554075625,0.2874746375,0.6710030255415727
0.034,1.7711000000000001,1.0,2718.5045371870497,0.3178532429581232,1.320793776808188,0.9556248060728529,0.2874392,0.6718474258964873
0.0345,1.7702437500000001,1.0,2721.5730269786723,0.321679545295707,1.320379143380219,0.9565790006388997,0.2874032375,0.6726951673691234
0.035,1.7693750000000001,1.0,2724.2792540845435,0.32548438008704367,1.319962176412201,0.957496519299068,0.28736675,0.6735465741886723
0.035500000000000004,1.76849375,1.0,2726.6543227217667,0.3292678784857657,1.3195425880966334,0.9583792071394953,0.2873297375,0.6744022142618153
0.036000000000000004,1.7676,1.0,2728.7143596954356,0.3330301581581318,1.3191202278753864,0.9592288040258167,0.2872922,0.6752623729616118
0.0365,1.76669375,1.0,2730.4745273295816,0.33677133572939494,1.3186949546997586,0.9600469422293014,0.2872541375,0.6761273145692565
0.037,1.765775,1.0,2731.9500593670446,0.34049152782480824,1.318266627521049,0.9608351536168313,0.28721555,0.6769973016785007
0.0375,1.76484375,1.0,2733.156252645992,0.3441908510696246,1.3178351052905568,0.9615948769468691,0.2871764375,0.6778725951688159
0.038,1.7639,1.0,2734.1084592169022,0.3478694220890971,1.3174002469595807,0.9623274645575401,0.28713679999999997,0.678753454177287
0.0385,1.76294375,1.0,2734.822078901539,0.35152735750847874,1.3169619114794198,0.9630341885035939,0.28709663750000003,0.6796401360692362
0.039,1.761975,1.0,2735.3125522916034,0.35516477395302254,1.3165199578013729,0.9637162461931652,0.28705595,0.6805328964075802
0.0395,1.7609937500000001,1.0,2735.5953541901968,0.35878178804798144,1.316074244876739,0.9643747655700805,0.2870147375,0.6814319889209157
0.04,1.76,1.0,2735.675421985518,0.3623785012440945,1.3156247275847395,0.9650108156629622,0.286973,0.682337472375826
0.0405,1.7589937500000001,1.0,2735.578193590697,0.3659550469178261,1.3151711748800212,0.9656253943083477,0.2869307375,0.6832497784590149
0.041,1.757975,1.0,2735.3154073976175,0.3695115393240837,1.31471348026423,0.9662194507332613,0.28688795,0.6841690859055362
0.0415,1.75694375,1.0,2734.895245770971,0.37304808750626384,1.3142515696527455,0.9667938833727192,0.2868446375,0.6850955069221483
0.042,1.7559,1.0,2734.3259026360547,0.37656480050776303,1.3137853689609476,0.967349541375743,0.28680079999999997,0.6860291525065115
0.0425,1.75484375,1.0,2733.61558119244,0.3800617873719779,1.3133148041042162,0.9678872278099506,0.2867564375,0.6869701324270938
0.043000000000000003,1.753775,1.0,2732.7724917482187,0.3835391571423048,1.3128398009979314,0.9684077026263525,0.28671155,0.6879185552027254
0.043500000000000004,1.75269375,1.0,2731.804849677937,0.38699701886214044,1.3123602855574727,0.9689116854045413,0.28666613750000003,0.6888745280818052
0.044,1.7516,1.0,2730.720873499597,0.3904354815748812,1.3118761836982205,0.9693998578965807,0.2866202,0.6898381570211538
0.0445,1.75049375,1.0,2729.5287830760653,0.39385465432392386,1.3113874213355543,0.9698728663862102,0.2865737375,0.6908095466645217
0.045,1.7493750000000001,1.0,2728.2367979360106,0.3972546461526647,1.310893924384854,0.9703313238784671,0.28652675,0.6917888003207419
0.0455,1.74824375,1.0,2726.8531357175766,0.40063556610450035,1.3103956187615,0.9707758121334593,0.2864792375,0.6927760199415356
0.046,1.7471,1.0,2725.3860107337778,0.4039975232228274,1.3098924303808717,0.9712068835567812,0.2864312,0.6937713060989688
0.0465,1.7459437500000001,1.0,2723.8383218206827,0.40734061301467156,1.309384333481984,0.9716250646836425,0.28638263750000004,0.6947746626145044
0.047,1.744775,1.0,2722.219376726181,0.41066495334599734,1.3088712439757313,0.9720308547780199,0.28633355,0.695786207413534
0.0475,1.74359375,1.0,2720.5369049988653,0.4139706563998753,1.3083530920699677,0.9724247288967983,0.28628393750000003,0.6968060287337053
0.048,1.7424,1.0,2718.7946658643286,0.4172578231792403,1.3078298440682217,0.9728071401723135,0.2862338,0.6978341425412447
0.0485,1.74119375,1.0,2716.9964158974994,0.4205265546870274,1.3073014662740206,0.9731785199931647,0.2861831375,0.6988705638578987
0.049,1.739975,1.0,2715.1459086239083,0.42377695192617126,1.3067679249908926,0.9735392792444055,0.28613195,0.6999153067499431
0.0495,1.73874375,1.0,2713.2468941478965,0.427009115899607,1.306229186522366,0.9738898094660421,0.2860802375,0.7009683843171235
0.05,1.7375,1.0,2711.3031188052787,0.4302231476102695,1.3056852171719688,0.9742304839359104,0.286028,0.7020298086815251
0.0505,1.73624375,1.0,2709.31832484102,0.4334191480610935,1.3051359832432288,0.9745616586825092,0.2859752375,0.7030995909763649
0.051000000000000004,1.734975,1.0,2707.2962501125426,0.4365972182550141,1.304581451039674,0.9748836734329014,0.28592195,0.7041777413347151
0.051500000000000004,1.73369375,1.0,2705.2406278178146,0.4397574591949661,1.3040215868648326,0.9751968525003919,0.2858681375,0.7052642688781539
0.052000000000000005,1.7324,1.0,2703.155186248777,0.4428999718838844,1.3034563570222328,0.9755015056163003,0.2858138,0.7063591817053417
0.0525,1.73109375,1.0,2701.0436485702458,0.446024857324704,1.3028857278154022,0.97579792870981,0.28575893750000003,0.7074624868805296
0.053,1.729775,1.0,2698.909732623158,0.44913221652035973,1.302309665547869,0.9760864046395574,0.28570355000000003,0.7085741904219885
0.0535,1.72844375,1.0,2696.751892661479,0.4522221270865403,1.3017281846065307,0.9763672044751576,0.2856476375,0.7096942047641815
0.054,1.7271,1.0,2694.576716600347,0.4552947108056801,1.3011412249947867,0.976640587449549,0.2855912,0.7108225848489773
0.0545,1.7257437500000001,1.0,2692.388217314707,0.4583500729298719,1.300548750188217,0.9769068013807636,0.2855342375,0.7119593391591225
0.055,1.724375,1.0,2690.1878525964507,0.4613883060740134,1.2999507469980716,0.9771660836823076,0.28547675,0.7131044304059275
0.0555,1.72299375,1.0,2687.977077979697,0.46440950285300253,1.2993472022356005,0.977418661747691,0.2854187375,0.714257820515684
0.056,1.7216,1.0,2685.757346708215,0.4674137558817371,1.2987381027120533,0.9776647534537966,0.2853602,0.7154194706250088
0.0565,1.72019375,1.0,2683.5301097071274,0.47040115777511504,1.2981234352386801,0.9779045676349621,0.28530113749999997,0.716589341076175
0.057,1.718775,1.0,2681.2968155587278,0.47337180114803423,1.2975031866267306,0.9781383045297021,0.28524155,0.7177673914124385
0.0575,1.71734375,1.0,2679.0589104812475,0.47632577861539244,1.2968773436874548,0.978366156201853,0.2851814375,0.7189535803733447
0.058,1.7159,1.0,2676.817838312484,0.47926318279208757,1.2962458932321026,0.9785883069378066,0.2851208,0.7201478658900309
0.0585,1.71444375,1.0,2674.5750404969967,0.48218410629301756,1.2956088220719235,0.9788049336213637,0.2850596375,0.7213502050805162
0.059000000000000004,1.7129750000000001,1.0,2672.331956076471,0.4850886417330801,1.2949661170181679,0.9790162060876373,0.28499795,0.7225605542449761
0.059500000000000004,1.71149375,1.0,2670.0900216850205,0.4879768817271732,1.2943177648820854,0.9792222874573336,0.2849357375,0.7237788688610125
0.06,1.71,1.0,2667.8506715475874,0.4908489188901946,1.2936637524749257,0.9794233344526393,0.284873,0.725005103578908
0.0605,1.7084937500000001,1.0,2665.615337482469,0.49370484583704227,1.293004066607939,0.9796194976958665,0.2848097375,0.7262392122168702
0.061,1.7069750000000001,1.0,2663.385448907662,0.4965447551826141,1.292338694092375,0.9798109219919183,0.28474595,0.7274811477562655
0.0615,1.7054437500000001,1.0,2661.1627787769116,0.4993687392169398,1.29166761855503,0.9799977464018683,0.2846816375,0.7287308682603237
0.062,1.7039,1.0,2658.946947050065,0.5021768847816503,1.2909908434233528,0.9801801053146113,0.2846168,0.7299882941446614
0.0625,1.70234375,1.0,2656.7369857075128,0.5049692789721687,1.2903083775478963,0.9803581283586629,0.2845514375,0.7312533352216458
0.063,1.7007750000000001,1.0,2654.5344494407586,0.5077460098589854,1.28962020654206,0.9805319391932585,0.28448555,0.7325259437580818
0.0635,1.69919375,1.0,2652.3405378664806,0.5105071652604859,1.2889263192696618,0.9807016570310159,0.28441913750000003,0.7338060651571602
0.064,1.6976,1.0,2650.155547631479,0.5132528330836423,1.288226712905983,0.9808673971167227,0.2843522,0.735093628722615
0.0645,1.69599375,1.0,2647.979776248778,0.5159831001120139,1.2875213846139846,0.9810292703970188,0.2842847375,0.7363885631047742
0.065,1.694375,1.0,2645.813045569469,0.5186980522687593,1.2868103359437468,0.9811873839476214,0.28421675,0.7376907882520252
0.0655,1.69274375,1.0,2643.6551777578015,0.5213977754770373,1.2860935684453496,0.981341840985811,0.2841482375,0.7390002235146877
0.066,1.6911017645306763,1.0,2641.5910326932885,0.5240823552397191,1.2853710948332024,0.9814927415558352,0.2840792741102884,0.7403167673268476
0.0665,1.689458406312584,1.0,2640.0492551199886,0.526751877110394,1.2846431805910514,0.9816401944936044,0.2840102530651285,0.7416398588743944
0.067,1.6878150480944913,1.0,2639.0536321204536,0.5294064251318898,1.2839102215568956,0.9817843110931386,0.2839412320199686,0.742968705661717
0.0675,1.686171689876399,1.0,2638.561677007779,0.5320460829705005,1.2831726076609036,0.9819251985707109,0.28387221097480875,0.7443025327503954
0.068,1.6845283316583066,1.0,2638.531071329768,0.5346709342925189,1.2824307288332442,0.9820629605487708,0.28380318992964887,0.7456405721005182
0.0685,1.682884973440214,1.0,2638.9331568141743,0.5372810597304843,1.2816848499241467,0.9821976910809112,0.283734168884489,0.7469822873826881
0.069,1.6812416152221217,1.0,2639.7105518286926,0.5398765471914359,1.2809355022187117,0.9823294941252111,0.2836651478393291,0.7483266696209192
0.0695,1.679598257004029,1.0,2640.8373897352367,0.5424574775074128,1.2801829262807418,0.9824584562389534,0.28359612679416923,0.7496732392243635
0.07,1.6779548987859367,1.0,2642.2897864220463,0.5450239310632562,1.2794273448267766,0.9825846603023779,0.28352710574900936,0.7510215528158728
0.07050000000000001,1.6763115405678444,1.0,2644.0438944324724,0.5475759882438074,1.2786689805733562,0.9827081865167527,0.2834580847038495,0.7523711711294847
0.07100000000000001,1.6746681823497518,1.0,2646.075888673897,0.5501137294339074,1.27790805623702,0.9828291125148659,0.28338906365868954,0.7537216590515349
0.07150000000000001,1.6730248241316594,1.0,2648.361953226549,0.5526372350183972,1.2771447945343077,0.9829475134663005,0.2833200426135297,0.755072585658598
0.07200000000000001,1.6713814659135668,1.0,2650.8782692509226,0.5551465853821183,1.2763794181817594,0.9830634621777719,0.2832510215683698,0.756423524252271
0.0725,1.6697381076954745,1.0,2653.6028948802223,0.5576418601168341,1.2756121324644372,0.9831770283564638,0.2831820005232099,0.75777408303063
0.073,1.6680947494773821,1.0,2656.518833510929,0.5601231378647986,1.2748430969223976,0.9832882774501205,0.28311297947805003,0.7591239543179387
0.0735,1.6664513912592895,1.0,2659.604261213804,0.5625904999025598,1.274072515396402,0.9833972750129754,0.28304395843289015,0.76047275607235
0.074,1.6648080330411972,1.0,2662.8474981037293,0.5650440228504832,1.2733004980619533,0.9835040801955384,0.2829749373877303,0.7618202734664804
0.0745,1.6631646748231046,1.0,2666.236849564291,0.567483783328934,1.2725271550945538,0.9836087503419308,0.2829059163425704,0.7631662938012405
