Time [s],Phi [rad],STIM [ ],Fsee [N],Gamma [ ],Lcerel [ ],q [ ],Lmtc [m],fisomrel [ ]
0.0,1.8,1.0,18.301446460681305,0.0005882911393660186,1.379302467350365,0.0050893030615941194,0.288653,0.5412297138454247
0.0005,1.79999375,1.0,18.79040564351258,0.006194200600149261,1.3792457253565107,0.014623647681821932,0.2886527375,0.5413669636441776
0.001,1.799975,1.0,22.56125129480671,0.011768665341124954,1.378843029572027,0.03868546593310338,0.28865195,0.542340430308317
0.0015,1.79994375,1.0,32.96231841659916,0.017311861743189823,1.37788730429846,0.07477183518985535,0.2886506375,0.5446466366391679
0.002,1.7999,1.0,57.356357096530985,0.022823965196007573,1.3761274616853287,0.11962975328611802,0.2886488,0.5488779737441059
0.0025,1.79984375,1.0,103.21309213514061,0.02830515010591452,1.3736459721837833,0.16990126679516052,0.28864643749999996,0.5548108656595518
0.003,1.7997750000000001,1.0,168.7189935580788,0.033755589904216676,1.3709272683267244,0.22276439353131675,0.28864354999999997,0.5612658214657978
0.0035,1.79969375,1.0,246.3602300718624,0.03917545704455989,1.3683198585333782,0.2760595266321283,0.2886401375,0.5674122506694905
0.004,1.7996,1.0,330.6460501305129,0.0445649230155737,1.365914679579107,0.3281840991916743,0.2886362,0.5730435180756359
0.0045000000000000005,1.7994937500000001,1.0,418.7403726018056,0.04992415834383829,1.363701727586766,0.3780316285264999,0.2886317375,0.5781921344081693
0.005,1.799375,1.0,509.04864160479957,0.05525333257680427,1.3616545745991533,0.4249201013525505,0.28862675,0.5829271960188311
0.0055,1.79924375,1.0,600.500387229983,0.060552614413679186,1.359749898923376,0.4684980228935524,0.2886212375,0.5873087060734079
0.006,1.7991000000000001,1.0,692.2174237212514,0.06582217142042454,1.3579707289796232,0.5086529804071636,0.2886152,0.591380603296547
0.006500000000000001,1.79894375,1.0,783.5112413352384,0.0710621703905185,1.3563033717309925,0.5454327828627947,0.2886086375,0.5951782758071626
0.007,1.798775,1.0,873.7948222576746,0.0762727771268948,1.3547372141753855,0.5789862864773636,0.28860155,0.5987293012725978
0.0075,1.79859375,1.0,962.5770033624574,0.08145415634118815,1.3532635656054395,0.6095198303741418,0.2885939375,0.6020562921420005
0.008,1.7984,1.0,1049.4979088285181,0.08660647239283337,1.3518743805279283,0.6372668264164466,0.2885858,0.6051799117604806
0.0085,1.79819375,1.0,1134.2325765268192,0.09172988787884209,1.3505632396214313,0.6624687672842291,0.2885771375,0.608116757098619
0.009000000000000001,1.797975,1.0,1216.543893017016,0.09682456486279631,1.349324139533702,0.6853621510928102,0.28856795,0.6108821605198941
0.0095,1.79774375,1.0,1296.2733026372857,0.10189066504175617,1.3481513993240466,0.7061711774852693,0.2885582375,0.6134904437139932
0.01,1.7975,1.0,1373.286797371975,0.10692834839903677,1.3470401792861497,0.7251041723254203,0.288548,0.6159538072737152
0.0105,1.79724375,1.0,1447.4972765214516,0.1119377741190192,1.345985983740011,0.7423516776630036,0.2885372375,0.6182834791309211
0.011,1.796975,1.0,1518.864934049882,0.11691910072578897,1.3449845307326147,0.758086175081839,0.28852595000000003,0.6204900304693802
0.0115,1.79669375,1.0,1587.3876596279194,0.12187248668968727,1.344031771333137,0.7724627361355896,0.2885141375,0.6225833555911486
0.012,1.7964,1.0,1653.0518177914607,0.126798087870931,1.3431243787564522,0.7856203360456935,0.28850180000000003,0.6245716221396644
0.0125,1.79609375,1.0,1715.8813362547255,0.13169605997625553,1.3422590649672246,0.7976828641136647,0.2884889375,0.6264627947951567
0.013000000000000001,1.7957750000000001,1.0,1775.918556445575,0.13656655792956088,1.341432752148167,0.8087606192267899,0.28847555,0.6282642721955624
0.0135,1.79544375,1.0,1833.2407477827715,0.14140973717824187,1.3406423357103254,0.8189516147081156,0.2884616375,0.6299834155670088
0.014,1.7951000000000001,1.0,1887.8971500841071,0.14622575020253095,1.339885342182999,0.8283431547385511,0.2884472,0.6316261293658982
0.0145,1.79474375,1.0,1939.9444859501762,0.15101474869618267,1.3391594739646915,0.8370128661744096,0.2884322375,0.6331978674106944
0.015,1.794375,1.0,1989.4603698732874,0.15577688435295153,1.3384624334539055,0.8450297532042067,0.28841675,0.6347040214938158
0.0155,1.79399375,1.0,2036.5238377795274,0.16051230787095194,1.3377921088424947,0.8524552678319216,0.2884007375,0.6361495255221309
0.016,1.7936,1.0,2081.238288633917,0.1652211704611206,1.3371463075996923,0.8593441161744171,0.2883842,0.6375394364537426
0.0165,1.7931937500000001,1.0,2123.675382009256,0.16990362019682978,1.336523323549932,0.8657452274193012,0.2883671375,0.6388777190909047
0.017,1.792775,1.0,2163.909414814808,0.17455980456555326,1.3359215487586293,0.8717023188462123,0.28834955,0.6401680901773081
0.0175,1.7923437500000001,1.0,2202.025562540361,0.17918987105476472,1.3353393752911997,0.877254482899885,0.2883314375,0.6414142327146298
0.018000000000000002,1.7919,1.0,2238.1071181169923,0.18379396603168774,1.3347753139867902,0.8824367617537764,0.2883128,0.6426195444676214
0.0185,1.79144375,1.0,2272.251276515077,0.1883722368820617,1.3342278240465482,0.8872805758024294,0.2882936375,0.6437875052076201
0.019,1.790975,1.0,2304.531461263203,0.19292482764829488,1.333695680008361,0.8918142318110598,0.28827395,0.6449208965043289
0.0195,1.79049375,1.0,2335.019014690075,0.1974518814766709,1.33317774104519,0.8960632216903958,0.2882537375,0.6460222986990574
0.02,1.79,1.0,2363.7910446480273,0.20195354151347336,1.3326728663299967,0.9000505215909879,0.288233,0.6470942729840056
0.0205,1.78949375,1.0,2390.9266298527323,0.20642995033018735,1.332179947152981,0.903796880940742,0.2882117375,0.6481392943540906
0.021,1.788975,1.0,2416.501833416578,0.21088124997235239,1.3316979498080386,0.9073210784850558,0.28818995000000003,0.649159662286811
0.021500000000000002,1.78844375,1.0,2440.5957717701326,0.21530758317212234,1.3312258513704436,0.9106401245033108,0.2881676375,0.650157638341597
0.022,1.7879,1.0,2463.266714750354,0.21970908830694902,1.3307628646075944,0.9137694948129477,0.2881448,0.6511349725656193
0.0225,1.78734375,1.0,2484.575951497117,0.22408590375428428,1.330308202286889,0.9167232483956117,0.28812143749999997,0.6520934040242461
0.023,1.786775,1.0,2504.5875397554596,0.22843816789157997,1.3298610771757258,0.919514176721784,0.28809755,0.6530346612387432
0.0235,1.78619375,1.0,2523.368068918444,0.23276601909628786,1.3294207020415028,0.9221539355726895,0.28807313749999996,0.6539604625844498
0.024,1.7856,1.0,2540.956152183004,0.2370695926652746,1.3289865749568517,0.9246532120491641,0.2880482,0.6548719180426015
0.0245,1.78499375,1.0,2557.4616798655006,0.24134902930212795,1.3285575406979924,0.9270216583514977,0.2880227375,0.6557715001609921
0.025,1.784375,1.0,2572.9264903088847,0.24560446315471823,1.3281331037599962,0.9292682203044075,0.28799675,0.6566602876812233
0.025500000000000002,1.78374375,1.0,2587.3814267466782,0.24983602724439058,1.3277128839658425,0.9314011139460647,0.2879702375,0.6575391125088974
0.026000000000000002,1.7831000000000001,1.0,2600.8584519537235,0.25404385459249007,1.32729650113851,0.9334278774987752,0.2879432,0.6584088021125296
0.0265,1.782447201380059,1.0,2613.558362437603,0.2582280782203618,1.3268835751009784,0.9353554364213934,0.28791578245796245,0.6592701796211831
0.027,1.7817939903251805,1.0,2625.937101180043,0.26238883114935097,1.3264737256762265,0.9371901614278033,0.28788834759365756,0.6601240639128956
0.0275,1.781140779270302,1.0,2638.050329321847,0.26652624569139455,1.3260666014427867,0.9389379243481352,0.28786091272935266,0.6609712098965272
0.028,1.7804875682154235,1.0,2649.886810111464,0.27064045340780224,1.3256622873117554,0.9406042039993142,0.28783347786504776,0.6618114624453945
0.0285,1.7798343571605453,1.0,2661.4419525138146,0.2747315845043228,1.3252608067357972,0.9421940480922628,0.2878060430007429,0.6626447946478904
0.029,1.7791811461056668,1.0,2672.7210529706363,0.2787997673363908,1.3248620926288728,0.943712108088192,0.287778608136438,0.6634713672601712
0.029500000000000002,1.7785279350507883,1.0,2683.729521369235,0.2828451302594408,1.3244660779049435,0.945162687883547,0.2877511732721331,0.6642913402072166
0.03,1.7778747239959098,1.0,2694.4728769773096,0.2868678016289077,1.3240726954779707,0.9465497742271833,0.2877237384078282,0.6651048725945232
0.0305,1.7772215129410314,1.0,2704.9539936752813,0.2908678888498305,1.3236819033788572,0.9478770603046804,0.2876963035435233,0.6659120708706638
0.031,1.7765683018861531,1.0,2715.183473273626,0.29484554663091433,1.3232935899456557,0.9491479815261756,0.2876688686792184,0.6667131846302622
0.0315,1.7759150908312746,1.0,2725.168620973753,0.29880090523142816,1.3229076747289286,0.9503657259921386,0.2876414338149135,0.6675083979628714
0.032,1.7752618797763962,1.0,2734.915467114401,0.30273408533048046,1.3225240898000885,0.951533257936224,0.28761399895060863,0.6682978682991851
0.0325,1.7746086687215177,1.0,2744.430132232866,0.3066452076071797,1.322142767230548,0.952653337634146,0.28758656408630373,0.6690817522992507
0.033,1.7739554576666392,1.0,2753.718823606264,0.3105343927406344,1.3217636390917196,0.9537285379171462,0.28755912922199883,0.6698602058624159
0.0335,1.773302246611761,1.0,2762.7878318956496,0.31440176140995296,1.3213866374550163,0.9547612591604947,0.287531694357694,0.6706333841369831
0.034,1.7726490355568825,1.0,2771.643527891857,0.31824743429424396,1.3210116943918504,0.9557537429040437,0.2875042594933891,0.6714014415295704
0.0345,1.771995824502004,1.0,2780.292359364299,0.32207153207261574,1.3206387419736347,0.9567080842441409,0.2874768246290842,0.6721645317141738
0.035,1.7713426134471255,1.0,2788.7408480116824,0.3258741754241769,1.3202677122717819,0.9576262431206524,0.2874493897647793,0.6729228076409413
0.035500000000000004,1.770689402392247,1.0,2796.995586514888,0.3296554850280359,1.3198985373577048,0.9585100546091717,0.2874219549004744,0.6736764215446466
0.036000000000000004,1.7700361913373688,1.0,2805.063235692566,0.33341558156330114,1.3195311493028157,0.9593612383164462,0.2873945200361695,0.6744255249528754
0.0365,1.7693829802824903,1.0,2812.950521758692,0.33715458570908113,1.3191654801785273,0.9601814069664361,0.2873670851718646,0.6751702686939098
0.037,1.7687297692276118,1.0,2820.6642336827736,0.34087261814448444,1.3188014620562525,0.9609720742550558,0.2873396503075597,0.6759108029043234
0.0375,1.7680765581727333,1.0,2828.2086213758025,0.34456978895838997,1.3184390502178756,0.961734662053308,0.2873122154432548,0.6766472298990349
0.038,1.7674233471178549,1.0,2835.582996547405,0.3482461873295373,1.3180782443783652,0.9624705070190256,0.2872847805789499,0.6773795613940594
0.0385,1.7667701360629766,1.0,2842.8074743972647,0.3519019885355249,1.3177188591175577,0.9631808667664155,0.287257345714645,0.6781081841869819
0.039,1.7661169250080981,1.0,2849.8858774856717,0.3555373022532798,1.3173608550196716,0.963866925481418,0.2872299108503401,0.6788331878226499
0.0395,1.7654637139532197,1.0,2856.8220633306214,0.3591522381597292,1.3170041926689242,0.9645297988921406,0.2872024759860352,0.679554661448736
0.04,1.7648105028983412,1.0,2863.6199232178956,0.36274690593180026,1.3166488326495336,0.9651705389601516,0.2871750411217303,0.6802726938191571
0.0405,1.7641572918434627,1.0,2870.2833810457882,0.3663214152464202,1.3162947355457177,0.9657901382024211,0.2871476062574254,0.6809873732973994
0.041,1.7635040807885844,1.0,2876.816392204314,0.36987587578051623,1.3159418619416947,0.9663895336765821,0.2871201713931205,0.6816987878597421
0.0415,1.762850869733706,1.0,2883.2229424885236,0.3734103972110155,1.3155901724216819,0.9669696106589865,0.2870927365288156,0.6824070250983837
0.042,1.7621976586788275,1.0,2889.5070470466685,0.37692508921484513,1.3152396275698977,0.9675312060421859,0.2870653016645107,0.6831121722244651
0.0425,1.761544447623949,1.0,2895.672749362816,0.3804200614689324,1.3148901879705597,0.9680751114759076,0.2870378668002059,0.683814316071
0.043000000000000003,1.7608912365690705,1.0,2901.7241202731266,0.3838954236502044,1.3145418142078857,0.9686020762733207,0.287010431935901,0.6845135430957012
0.043500000000000004,1.7602380255141923,1.0,2907.6652570179335,0.3873512854355884,1.314194466866094,0.9691128101023314,0.2869829970715961,0.6852099393837083
0.044,1.7595848144593138,1.0,2913.50028232705,0.3907877565020115,1.3138481065294023,0.9696079854798114,0.2869555622072912,0.6859035906502198
0.0445,1.7589316034044353,1.0,2919.2333435401656,0.39420494652640087,1.3135026937820284,0.970088240085015,0.2869281273429863,0.6865945822430221
0.045,1.7582783923495569,1.0,2924.8686117614807,0.3976029651856838,1.3131581892081903,0.970554178906953,0.2869006924786814,0.6872829991449212
0.0455,1.7576251812946784,1.0,2930.4102810488966,0.40098192215678735,1.3128145533921056,0.9710063762391526,0.2868732576143765,0.6879689259760762
0.046,1.7569719702398001,1.0,2935.862567637269,0.40434192711663874,1.3124717469179927,0.9714453775340368,0.2868458227500716,0.6886524469962305
0.0465,1.7563187591849216,1.0,2941.229709196964,0.40768308974216516,1.3121297303700692,0.9718717011280585,0.2868183878857667,0.6893336461068492
0.047,1.7556655481300432,1.0,2946.512438721844,0.4110054979038595,1.3117884951745147,0.972285839211447,0.2867909530214618,0.6900125455255474
0.0475,1.7550123370751647,1.0,2951.7146894523653,0.4143092680147661,1.3114480048513366,0.9726882617605273,0.2867635181571569,0.6906892228128885
0.048,1.7543591260202862,1.0,2956.841816358882,0.4175945224859305,1.3111082106661331,0.9730794159336749,0.28673608329285205,0.6913637795156791
0.0485,1.753705914965408,1.0,2961.895802081406,0.42086136066123114,1.3107690935090077,0.9734597266850794,0.28670864842854715,0.6920362580344057
0.049,1.7530527039105295,1.0,2966.8786398442444,0.4241098818845467,1.3104306342700645,0.9738295989013257,0.28668121356424225,0.6927067005952982
0.0495,1.752399492855651,1.0,2971.792333173061,0.4273401854997555,1.310092813839407,0.9741894185319677,0.28665377869993736,0.6933751492511444
0.05,1.7517462818007725,1.0,2976.6388956200262,0.4305523708507363,1.309755613107139,0.974539553646506,0.28662634383563246,0.6940416458820804
0.0505,1.751093070745894,1.0,2981.420350497384,0.4337465372813675,1.3094190129633645,0.9748803554231876,0.28659890897132756,0.6947062321963562
0.051000000000000004,1.7504398596910158,1.0,2986.1387306187917,0.4369227841355276,1.3090829942981872,0.9752121590745901,0.28657147410702266,0.6953689497310803
0.051500000000000004,1.7497866486361373,1.0,2990.79607804901,0.4400812107570953,1.3087475380017108,0.9755352847145649,0.28654403924271776,0.6960298398529405
0.052000000000000005,1.7491334375812588,1.0,2995.394443861614,0.4432219164899489,1.308412624964039,0.9758500381707365,0.28651660437841286,0.6966889437588998
0.0525,1.7484802265263804,1.0,2999.9358879046335,0.4463450006779671,1.3080782360752758,0.9761567117464275,0.28648916951410797,0.6973463024768706
0.053,1.7478270154715019,1.0,3004.4224785744213,0.4494505626650284,1.307744352225525,0.9764555849355643,0.28646173464980307,0.6980019568663649
0.0535,1.7471738044166236,1.0,3008.8562925978326,0.4525387017950114,1.3074109543048902,0.9767469250938549,0.28643429978549817,0.6986559476191223
0.054,1.7465205933617451,1.0,3013.2394148220465,0.45560951741179445,1.3070780232034753,0.9770309880692574,0.28640686492119327,0.6993083152597126
0.0545,1.7458673823068667,1.0,3017.5739380129044,0.45866310885925626,1.306745539811384,0.9773080187945381,0.2863794300568884,0.699959100146118
0.055,1.7452141712519882,1.0,3021.861962661096,0.46169957548127527,1.3064134850187203,0.9775782518444991,0.2863519951925835,0.7006083424702885
0.0555,1.7445609601971097,1.0,3026.1026144166776,0.46471897993216865,1.3060818654615063,0.9778419100428326,0.2863245603282786,0.7012560320012895
0.056,1.7439077491422315,1.0,3030.2995805766027,0.46772144975961044,1.3057506484159673,0.9780992107155019,0.28629712546397373,0.7019022353099985
0.0565,1.743254538087353,1.0,3034.455598305414,0.47070709791389065,1.305419809449646,0.9783503613200298,0.28626969059966884,0.7025470025374423
0.057,1.7426013270324745,1.0,3038.571614812008,0.4736760139385334,1.3050893396259158,0.9785955596101547,0.28624225573536394,0.7031903534649956
0.0575,1.741948115977596,1.0,3042.6485810377476,0.4766282873770627,1.3047592300081507,0.9788349953520346,0.28621482087105904,0.7038323077960429
0.058,1.7412949049227175,1.0,3046.6874515840987,0.4795640077730026,1.3044294716597247,0.9790688507108266,0.28618738600675414,0.7044728851561891
0.0585,1.7406416938678393,1.0,3050.6891846423187,0.48248326466987723,1.3041000556440114,0.9792973006155812,0.28615995114244924,0.7051121050934603
0.059000000000000004,1.7399884828129608,1.0,3054.654741924745,0.48538614761121057,1.3037709730243845,0.9795205131038297,0.28613251627814434,0.7057499870785034
0.059500000000000004,1.7393352717580823,1.0,3058.585088597569,0.48827274614052674,1.3034422148642182,0.9797386496471473,0.28610508141383945,0.7063865505047757
0.06,1.7386820607032039,1.0,3062.4811932161883,0.4911431498013497,1.3031137722268857,0.9799518654588812,0.28607764654953455,0.7070218146887361
0.0605,1.7380288496483254,1.0,3066.3440276612096,0.49399744813720364,1.3027856361757615,0.9801603097851537,0.28605021168522965,0.7076557988700236
0.061,1.7373756385934471,1.0,3070.1745670772348,0.4968357306916126,1.3024577977742189,0.9803641261801671,0.2860227768209248,0.7082885222116382
0.0615,1.7367224275385686,1.0,3073.973789812724,0.49965808700810055,1.3021302480856318,0.9805634527667777,0.2859953419566199,0.7089200038001102
0.062,1.7360692164836902,1.0,3077.7426773622155,0.5024646066301917,1.3018029781733744,0.9807584224832253,0.285967907092315,0.7095502626456687
0.0625,1.7354160054288117,1.0,3081.482214309763,0.5052553791014099,1.30147597910082,0.9809491633168588,0.2859404722280101,0.7101793176824043
0.063,1.7347627943739332,1.0,3085.193388274458,0.5080304939652793,1.3011492419313426,0.9811357985256328,0.2859130373637052,0.7108071877684237
0.0635,1.734109583319055,1.0,3088.8771898575765,0.5107900407653242,1.3008227577283162,0.9813184468481034,0.2858856024994003,0.7114338916860037
0.064,1.7334563722641765,1.0,3092.534612591789,0.5135341090450682,1.3004965175551144,0.9814972227025967,0.2858581676350954,0.7120594481417373
0.0645,1.732803161209298,1.0,3096.166652891705,0.5162627883480359,1.300170512475111,0.9816722363761899,0.2858307327707905,0.7126838757666747
0.065,1.7321499501544195,1.0,3099.774106649804,0.5189761628707129,1.299844735286205,0.9818435939211614,0.2858032979064856,0.7133071897995715
0.0655,1.731496739099541,1.0,3103.3562818293603,0.5216742844681859,1.2995191914899913,0.9820113960466049,0.2857758630421807,0.7139293811517281
0.066,1.7308435280446628,1.0,3106.91570176163,0.5243572920576138,1.2991938591845322,0.9821757444628141,0.2857484281778758,0.7145504930684512
0.0665,1.7301903169897843,1.0,3110.452811674279,0.5270252658565041,1.2988687342154563,0.9823367342244208,0.2857209933135709,0.7151705347846011
0.067,1.7295371059349058,1.0,3113.968058194802,0.529678286082364,1.2985438124283915,0.9824944570934115,0.285693558449266,0.7157895154997495
0.0675,1.7288838948800274,1.0,3117.4618893315055,0.5323164329527008,1.2982190896689654,0.9826490016764019,0.28566612358496113,0.7164074443782321
0.068,1.7282306838251489,1.0,3120.934754454988,0.5349397866850217,1.2978945617828066,0.9828004535552681,0.28563868872065623,0.7170243305492017
0.0685,1.7275774727702706,1.0,3124.387104280207,0.5375484274968342,1.2975702246155427,0.9829488954114921,0.28561125385635133,0.717640183106682
0.069,1.7269242617153922,1.0,3127.819390848337,0.5401424356056455,1.2972460740128018,0.9830944071445699,0.28558381899204643,0.7182550111096173
0.0695,1.7262710506605137,1.0,3131.232067509744,0.5427218912289627,1.296922105820212,0.9832370659847997,0.2855563841277416,0.7188688235819223
0.07,1.7256178396056352,1.0,3134.6255889066397,0.5452868745842935,1.2965983158834014,0.9833769466007608,0.2855289492634367,0.7194816295125321
0.07050000000000001,1.7249646285507567,1.0,3138.0004109569672,0.5478374658891448,1.2962747000479977,0.983514121201758,0.2855015143991318,0.7200934378554495
