Time [s],Phi [rad],STIM [ ],Fsee [N],Gamma [ ],Lcerel [ ],q [ ],Lmtc [m],fisomrel [ ]
0.0,1.8,1.0,17.965196896583283,1.0060481641832981e-05,1.37933996595366,0.005000026973867671,0.288653,0.5411389994587884
0.0005,1.79999375,1.0,18.274730537696062,0.0056192133590911705,1.37930261146836,0.012940686386251201,0.2886527375,0.5412293652209259
0.001,1.799975,1.0,21.61650165392404,0.011196903323818713,1.3789384941223837,0.035608906374055956,0.28865195,0.5421097502304215
0.0015,1.79994375,1.0,31.067372579044847,0.01674330685875158,1.3780463624887864,0.07060216157226189,0.2886506375,0.5442632264317511
0.002,1.7999,1.0,53.58041487526703,0.02225859945516097,1.3763682596838904,0.11471837853180637,0.2886488,0.5483001693320141
0.0025,1.79984375,1.0,97.11686622336921,0.027742955620235203,1.3739352670770295,0.16457526096523695,0.28864643749999996,0.5541212246046895
0.003,1.7997750000000001,1.0,160.95627409512147,0.033196548884788686,1.371214414603006,0.21728082895808792,0.28864354999999997,0.5605862831343991
0.0035,1.79969375,1.0,237.6816495586857,0.038619551802858365,1.3685847860428113,0.2706132570942239,0.2886401375,0.5667897177862724
0.004,1.7996,1.0,321.4653041775603,0.044012135962484884,1.3661561312557102,0.32291615538326796,0.2886362,0.5724798709944232
0.0045000000000000005,1.7994937500000001,1.0,409.26648821046405,0.04937447199089704,1.3639228438041384,0.3730348412867284,0.2886317375,0.5776790936145046
0.005,1.799375,1.0,499.412415824344,0.054706729545612454,1.3618583654740333,0.4202477716837465,0.28862675,0.5824570259453475
0.0055,1.79924375,1.0,590.7894707650761,0.06000907736182884,1.359938853527834,0.46417398558576484,0.2886212375,0.5868750692636111
0.006,1.7991000000000001,1.0,682.5173000138747,0.06528168319574593,1.3581464294404026,0.5046802258604868,0.2886152,0.590979384818529
0.006500000000000001,1.79894375,1.0,773.8635277779533,0.07052471363557203,1.356467556283161,0.5418011856679851,0.2886086375,0.5948051062420647
0.007,1.798775,1.0,864.2920982756275,0.07573833537503824,1.3548902934401956,0.5756769319728055,0.28860155,0.5983829069576909
0.0075,1.79859375,1.0,953.2570215767975,0.0809227126191477,1.3534065668388104,0.60650998265635,0.2885939375,0.6017340513877724
0.008,1.7984,1.0,1040.3591859108717,0.08607800932653936,1.3520086355773961,0.6345322323578217,0.2885858,0.6048785729558034
0.0085,1.79819375,1.0,1125.319214077861,0.09120438905677633,1.3506891709071611,0.6599845613196397,0.2885771375,0.6078351575524488
0.009000000000000001,1.797975,1.0,1207.8846039747687,0.09630201385477434,1.3494422478870758,0.6831044645150155,0.28856795,0.6106189904069754
0.0095,1.79774375,1.0,1287.8743412294714,0.10137104494119412,1.3482623601992303,0.7041177443193192,0.2885582375,0.6132440321060637
0.01,1.7975,1.0,1365.1620631175776,0.10641164287931058,1.3471444493647975,0.7232343887471946,0.288548,0.6157229951377919
0.0105,1.79724375,1.0,1439.6584182859021,0.11142396713167227,1.3460839599158259,0.7406467845626965,0.2885372375,0.6180672598500672
0.011,1.796975,1.0,1511.3096399545946,0.11640817600282176,1.3450767072430323,0.756529308689445,0.28852595000000003,0.6202872006323552
0.0115,1.79669375,1.0,1580.092443760385,0.12136442688219083,1.344118824357421,0.7710388628336643,0.2885141375,0.6223923301111814
0.012,1.7964,1.0,1646.0474092675233,0.12629287822310442,1.3432062773416675,0.7843157299919126,0.28850180000000003,0.6243923826316148
0.0125,1.79609375,1.0,1709.1727698834911,0.13119368484046448,1.3423360486329001,0.7964854169350436,0.2884889375,0.6262947379031015
0.013000000000000001,1.7957750000000001,1.0,1769.4946460353897,0.13606700124265794,1.3415052071882136,0.8076596245234288,0.28847555,0.6281064842580845
0.0135,1.79544375,1.0,1827.071106290314,0.14091298193807167,1.3407108219647037,0.8179376253040042,0.2884616375,0.6298346166968622
0.014,1.7951000000000001,1.0,1881.9708612033319,0.14573178040801385,1.3399501641574136,0.8274076846511889,0.2884472,0.6314856055145011
0.0145,1.79474375,1.0,1934.2760249314033,0.1505235500863025,1.3392206350929654,0.8361482697379289,0.2884322375,0.6330655635431288
0.015,1.794375,1.0,1984.0458175349647,0.1552884416025185,1.3385201204714117,0.8442292928338971,0.28841675,0.6345794899107811
0.0155,1.79399375,1.0,2031.3545785121248,0.16002660537972688,1.3378465399030819,0.8517129564658662,0.2884007375,0.6360322559805973
0.016,1.7936,1.0,2076.2879017851583,0.16473819135150058,1.3371978689276756,0.8586546698802663,0.2883842,0.6374285624701344
0.0165,1.7931937500000001,1.0,2118.9386107481005,0.16942334938535442,1.3365721626999163,0.865103861092494,0.2883671375,0.6387728931616743
0.017,1.792775,1.0,2159.3952665376023,0.1740822284398032,1.3359676561268676,0.8711047126063783,0.28834955,0.6400693049637081
0.0175,1.7923437500000001,1.0,2197.7268794610018,0.17871497464526842,1.3353828987834495,0.8766968140182855,0.2883314375,0.6413211454196763
0.018000000000000002,1.7919,1.0,2234.0119338293844,0.1833217341321716,1.3348164402445823,0.8819156144511479,0.2883128,0.6425317325954911
0.0185,1.79144375,1.0,2268.3375946436704,0.18790265303093417,1.3342668300851863,0.886792906143981,0.2882936375,0.6437043568392895
0.019,1.790975,1.0,2300.783732577361,0.19245787576750095,1.333732768645511,0.8913572845602733,0.28827395,0.6448419615185009
0.0195,1.79049375,1.0,2331.448022734346,0.19698754900101553,1.3332128483248114,0.8956344535391472,0.2882537375,0.6459476967833746
0.02,1.79,1.0,2360.3992231406946,0.2014918150107223,1.3327060077950739,0.8996476564045958,0.288233,0.647023955284006
0.0205,1.78949375,1.0,2387.703948241898,0.20597081516905136,1.3322112560719512,0.9034178881938417,0.2882117375,0.6480729634537514
0.021,1.788975,1.0,2413.4333232874915,0.21042469084843293,1.331727602171096,0.9069641296379295,0.28818995000000003,0.649096932263441
0.021500000000000002,1.78844375,1.0,2437.662605573809,0.21485358342129715,1.3312540551081609,0.9103035680518999,0.2881676375,0.6500980579540802
0.022,1.7879,1.0,2460.460115717419,0.21925763238236343,1.3307897264495574,0.9134518114889687,0.2881448,0.6510783063629688
0.0225,1.78734375,1.0,2481.90421690414,0.2236369797754078,1.330333663046261,0.9164230261035847,0.28812143749999997,0.6520397674057377
0.023,1.786775,1.0,2502.0556781908917,0.22799176380519678,1.329885108019703,0.9192301354419454,0.28809755,0.6529841055702453
0.0235,1.78619375,1.0,2520.9679540152088,0.23232212076114014,1.3294433971580522,0.9218849300212716,0.28807313749999996,0.653912780832149
0.024,1.7856,1.0,2538.696629758178,0.2366281869326477,1.3290078662494778,0.9243981672495247,0.2880482,0.6548272447256561
0.0245,1.78499375,1.0,2555.299242710274,0.24091009860912924,1.3285778510821493,0.9267796761781131,0.2880227375,0.6557289406193779
0.025,1.784375,1.0,2570.8351128186077,0.24516799207999457,1.3281526874442355,0.9290384503640282,0.28799675,0.6566193039640493
0.025500000000000002,1.78374375,1.0,2585.3546223518533,0.24940200011232913,1.3277318097578317,0.9311827451477374,0.2879702375,0.6574995563547719
0.026000000000000002,1.7831000000000001,1.0,2598.9208184763834,0.2536122617368616,1.3273145471636743,0.9332201204113424,0.2879432,0.6583711327010169
0.0265,1.78244375,1.0,2611.575732269234,0.25779890867524136,1.3269004366570016,0.9351575513045696,0.2879156375,0.659235027147518
0.027,1.781775,1.0,2623.3598809400546,0.26196207173211883,1.3264890386962727,0.9370014570164269,0.28788755,0.6600921798826014
0.0275,1.7810937500000001,1.0,2634.3146894123315,0.2661018817121444,1.3260799137399468,0.938757749510031,0.2878589375,0.6609435263244543
0.028,1.7804,1.0,2644.4824110167638,0.2702184694199684,1.3256726222464827,0.9404318803107388,0.2878298,0.6617899971910068
0.0285,1.77969375,1.0,2653.9060524682927,0.2743119656602412,1.3252667246743397,0.9420288824117085,0.2878001375,0.6626325185574851
0.029,1.778975,1.0,2662.625853863394,0.2783824997488351,1.324861813225743,0.9435534117514449,0.28776995,0.6634719461341916
0.029500000000000002,1.7782437500000001,1.0,2670.6763096387212,0.2824301993456009,1.3244575383712547,0.945009784119936,0.2877392375,0.6643090108229139
0.03,1.7775,1.0,2678.106857622208,0.2864551993828302,1.324053418060634,0.9464019823327693,0.287708,0.665144713785778
0.0305,1.77674375,1.0,2684.944085779034,0.290457624512489,1.3236491844982134,0.9477337246345725,0.2876762375,0.6659796089720709
0.031,1.775975,1.0,2691.214941264397,0.29443759938654324,1.3232445698883253,0.9490084627570691,0.28764395,0.6668142475692334
0.0315,1.7751937500000001,1.0,2696.9466983731377,0.2983952486569589,1.3228393064353017,0.9502294043449765,0.2876111375,0.6676491779986397
0.032,1.7744,1.0,2702.166928079098,0.3023306969757018,1.3224331263434754,0.9513995332334304,0.2875778,0.6684849459067999
0.0325,1.77359375,1.0,2706.9034691653424,0.306244068994738,1.322025761817179,0.9525216278058904,0.2875439375,0.6693220941519948
0.033,1.772775,1.0,2711.1844009434526,0.31013548936603347,1.3216169450607442,0.953598277634845,0.28750955,0.6701611627863336
0.0335,1.7719437500000002,1.0,2715.0379920625724,0.31400508268750005,1.3212064085109148,0.9546318985960579,0.2874746375,0.6710026885571408
0.034,1.7711000000000001,1.0,2718.4897270766805,0.3178529668816044,1.3207939116986476,0.9556247478443904,0.2874392,0.6718471499269143
0.0345,1.7702437500000001,1.0,2721.5658379674665,0.3216792725770005,1.3203792088207522,0.9565789376961092,0.2874032375,0.6726950336587655
0.035,1.7693750000000001,1.0,2724.2840576347826,0.3254841181590504,1.319962132707947,0.9574964493648932,0.28736675,0.6735466633704789
0.035500000000000004,1.76849375,1.0,2726.6622293476953,0.32926762201311616,1.3195425161909504,0.9583791376661187,0.2873297375,0.6744023607983297
0.036000000000000004,1.7676,1.0,2728.718294927132,0.33302990252456,1.319120192100481,0.9592287405309492,0.2872922,0.6752624457708933
0.0365,1.76669375,1.0,2730.4702835483517,0.336771078078744,1.318694993267257,0.9600468877004859,0.2872541375,0.6761272361810684
0.037,1.765775,1.0,2731.9363011625883,0.3404912670610304,1.3182667525219967,0.9608351086790549,0.28721555,0.6769970479563207
0.0375,1.76484375,1.0,2733.134520539041,0.34419058785678125,1.3178353026954186,0.9615948400173285,0.2871764375,0.6778721950271417
0.038,1.7639,1.0,2734.083171925475,0.3478691588513587,1.317400476618241,0.9623274319885399,0.28713679999999997,0.6787529892937292
0.0385,1.76294375,1.0,2734.7813172837073,0.35152707148102347,1.3169622816278146,0.9630341657514739,0.28709663750000003,0.6796393878357461
0.039,1.761975,1.0,2735.2679062253414,0.35516447752753827,1.3165203631874887,0.9637162256645475,0.28705595,0.6805320780856514
0.0395,1.7609937500000001,1.0,2735.5565672150315,0.3587814937698948,1.3160745970439363,0.9643747415453068,0.2870147375,0.6814312790290604
0.04,1.76,1.0,2735.6562198961856,0.3623782302184003,1.31562490192767,0.9650107809884203,0.286973,0.6823371214386119
0.0405,1.7589937500000001,1.0,2735.57580478813,0.36595479688336197,1.3151711965692028,0.9656253510491714,0.2869307375,0.6832497348633193
0.041,1.757975,1.0,2735.32428026675,0.3695113037750869,1.3147133996990474,0.9662194023088284,0.28688795,0.6841692476079962
0.0415,1.75694375,1.0,2734.910619691902,0.37304786090388226,1.3142514300477166,0.9667938326261812,0.2868446375,0.6850957867122611
0.042,1.7559,1.0,2734.343808681194,0.37656457828005524,1.3137852063457227,0.9673494906024656,0.28680079999999997,0.6860294779291206
0.0425,1.75484375,1.0,2733.632842530269,0.380061565913913,1.313314647323579,0.9678871787842998,0.2867564375,0.6869704457031292
0.043000000000000003,1.753775,1.0,2732.786723779,0.38353893381576265,1.312839671711798,0.9684076566269081,0.28671155,0.6879188131481327
0.043500000000000004,1.75269375,1.0,2731.8144599251086,0.38699679199591147,1.3123601982408923,0.9689116432378208,0.28666613750000003,0.6888747020245869
0.044,1.7516,1.0,2730.725061283197,0.3904352504646665,1.311876145641375,0.9693998199193482,0.2866202,0.6898382327164536
0.0445,1.75049375,1.0,2729.527538991079,0.393854419232335,1.3113874326437585,0.9698728325264524,0.2865737375,0.6908095242076812
0.045,1.7493750000000001,1.0,2728.230903161882,0.3972544083092241,1.3108939779785553,0.9703312936551012,0.28652675,0.6917886940582576
0.0455,1.74824375,1.0,2726.844161182725,0.400635327705641,1.310395700376279,0.9707757846748433,0.2864792375,0.6927758583798447
0.046,1.7471,1.0,2725.374295542272,0.40399728385209116,1.309892536947991,0.9712068584938887,0.2864312,0.6937710954844962
0.0465,1.7459437500000001,1.0,2723.8219395273204,0.40734037443208915,1.3093844825457426,0.971625043472355,0.28638263750000004,0.6947743684945891
0.047,1.744775,1.0,2722.2024746767056,0.41066472315273644,1.3088713978145234,0.9720308355740123,0.28633355,0.6957859043753265
0.0475,1.74359375,1.0,2720.5196446448094,0.4139704315472969,1.3083532492185461,0.9724247111240732,0.28628393750000003,0.6968057196950421
0.048,1.7424,1.0,2718.7771908659024,0.4172576011490342,1.3078300032220234,0.9728071233663212,0.2862338,0.6978338300903351
0.0485,1.74119375,1.0,2716.978852135311,0.4205263334912123,1.307301626289168,0.9731785037923784,0.2861831375,0.698870250255206
0.049,1.739975,1.0,2715.128364213722,0.42377673010709493,1.3067680848841925,0.9735392633825881,0.28613195,0.6999149939301176
0.0495,1.73874375,1.0,2713.229459457989,0.4270088925299459,1.3062293454713099,0.9738897937651432,0.2860802375,0.7009680738909858
0.05,1.7375,1.0,2711.2858664758287,0.43022292229302894,1.3056853745147328,0.9742304682995424,0.286028,0.7020295019380982
0.0505,1.73624375,1.0,2709.3013098059773,0.433418920929608,1.3051361384786737,0.9745616430899494,0.2859752375,0.7030992888849608
0.051000000000000004,1.734975,1.0,2707.279509622987,0.4365969899729467,1.3045816038273457,0.9748836579335813,0.28592195,0.7041774445470722
0.051500000000000004,1.73369375,1.0,2705.2241814672175,0.43975723095630903,1.3040217370249614,0.9751968372088292,0.2858681375,0.7052639777306289
0.052000000000000005,1.7324,1.0,2703.1390359994352,0.4428997454129587,1.3034565045357334,0.9755014907074379,0.2858138,0.7063588962211558
0.0525,1.73109375,1.0,2701.0277787808777,0.4460246348761594,1.3028858728238744,0.9757979144147301,0.28575893750000003,0.7074622067720657
0.053,1.729775,1.0,2698.892648061729,0.44913197953216905,1.3023098217179085,0.9760863898669468,0.28570355000000003,0.708573889326806
0.0535,1.72844375,1.0,2696.7397412826913,0.45222190428627856,1.3017282957267091,0.9763671886988665,0.2856476375,0.7096939909370394
0.054,1.7271,1.0,2694.5709666625694,0.4552945066511042,1.301141277597177,0.9766405702888706,0.2855912,0.7108224838237884
0.0545,1.7257437500000001,1.0,2692.387846440851,0.4583498803437187,1.3005487535824742,0.9769067827049507,0.2855342375,0.7119593326531288
0.055,1.724375,1.0,2690.191900559642,0.46138811908119487,1.2999507099357634,0.9771660634524298,0.28547675,0.7131045013043096
0.0555,1.72299375,1.0,2687.984646623318,0.46440931658060536,1.2993471329102064,0.9774186400093277,0.2854187375,0.714257952864921
0.056,1.7216,1.0,2685.7675998621894,0.46741356655902294,1.2987380087589657,0.9776647303303028,0.2853602,0.7154196496260463
0.0565,1.72019375,1.0,2683.5422731006947,0.4704009627335203,1.2981233237352032,0.9779045433212613,0.28530113749999997,0.7165895530774082
0.057,1.718775,1.0,2681.3101767296766,0.4733715988211702,1.2975030640920815,0.9781382792865612,0.28524155,0.7177676239024964
0.0575,1.71734375,1.0,2679.072818682333,0.47632556853904534,1.2968772160827624,0.9783661303506066,0.2851814375,0.7189538219736888
0.058,1.7159,1.0,2676.83170441543,0.4792629656042185,1.296245765960408,0.9785882808554902,0.2851208,0.7201481063473569
0.0585,1.71444375,1.0,2674.588336893598,0.4821838837337623,1.2956086999781813,0.978804907736226,0.2850596375,0.7213504352589593
0.059000000000000004,1.7129750000000001,1.0,2672.344216578629,0.48508841664474955,1.2949660043892437,0.9790161808750019,0.28499795,0.7225607661181271
0.059500000000000004,1.71149375,1.0,2670.1008414225166,0.487976658054253,1.2943176654467576,0.9792222634357822,0.2849357375,0.7237790555037323
0.06,1.71,1.0,2667.859706864673,0.4908487016793453,1.2936636694038854,0.9794233121804922,0.284873,0.725005259158946
0.0605,1.7084937500000001,1.0,2665.6213243404613,0.4937045828387416,1.2930040115414543,0.9796194735493946,0.2848097375,0.7262393151167581
0.061,1.7069750000000001,1.0,2663.389779692339,0.496544468672724,1.2923386542415989,0.9798108971317432,0.28474595,0.7274812220542439
0.0615,1.7054437500000001,1.0,2661.1654058777017,0.4993684446979269,1.2916675943710216,0.9799977220952738,0.2846816375,0.7287309132456032
0.062,1.7039,1.0,2658.9485045323127,0.5021765954512359,1.2909908290798382,0.9801800822676616,0.2846168,0.7299883207634834
0.0625,1.70234375,1.0,2656.739376799114,0.5049690054695366,1.2903083555181643,0.98035810643927,0.2845514375,0.7312533760087345
0.063,1.7007750000000001,1.0,2654.53832333261,0.5077457592897148,1.2896201708361157,0.9805319185886839,0.28448555,0.7325260097093724
0.0635,1.69919375,1.0,2652.3456443028153,0.510506941448656,1.2889262721838082,0.9807016380965196,0.28441913750000003,0.7338061519195408
0.064,1.6976,1.0,2650.1616393992554,0.5132526364832459,1.2882266567113574,0.9808673799481991,0.2843522,0.7350937320184736
0.0645,1.69599375,1.0,2647.986607835886,0.5159829289303701,1.287521321568879,0.9810292549263375,0.2842847375,0.7363886787094556
0.065,1.694375,1.0,2645.8208483553917,0.5186979033269143,1.286810263906489,0.9811873697933456,0.28421675,0.7376909200187824
0.0655,1.69274375,1.0,2643.664659233949,0.5213976442097643,1.2860934808743025,0.9813418274648114,0.2841482375,0.739000383294723
0.066,1.6911,1.0,2641.518338286367,0.5240822361158054,1.2853709696224356,0.9814927271741898,0.2840792,0.7403169952064763
0.0665,1.6894437500000001,1.0,2639.3821828713094,0.5267517635819235,1.284642727301004,0.9816401646292954,0.2840096375,0.7416406817431325
0.067,1.687775,1.0,2637.2564898961487,0.5294063111450042,1.2839087510601233,0.9817842321610603,0.28393955,0.7429713682126307
0.0675,1.68609375,1.0,2635.1415558231947,0.5320459633419332,1.2831690380499094,0.9819250188649904,0.2838689375,0.7443089792407173
0.068,1.6844000000000001,1.0,2633.0376766749737,0.5346708047095959,1.2824235854204777,0.9820626107357285,0.2837978,0.7456534387699048
0.0685,1.68269375,1.0,2630.945148039945,0.5372809197848782,1.2816723903219442,0.9821970907951036,0.2837261375,0.7470046700584256
0.069,1.680975,1.0,2628.864265079074,0.5398763931046658,1.2809154499044246,0.9823285392140256,0.28365395,0.7483625956791923
0.0695,1.67924375,1.0,2626.7953225315587,0.5424573092058441,1.2801527613180343,0.9824570334285615,0.28358123749999997,0.7497271375187515
0.07,1.6775,1.0,2624.7386147216644,0.5450237526252989,1.2793843217128893,0.982582648250506,0.283508,0.7510982167762398
0.07050000000000001,1.67574375,1.0,2622.695488344486,0.5475758071929736,1.2786101184768333,0.9827054554779103,0.2834342375,0.7524757713084341
0.07100000000000001,1.673975,1.0,2620.6641901972703,0.5501135491705059,1.2778301677348944,0.9828255253607758,0.28335995,0.7538596871696442
0.07150000000000001,1.67219375,1.0,2618.641985524731,0.5526370567614777,1.2770444947466588,0.9829429263612374,0.2832851375,0.7552498339622722
0.07200000000000001,1.6704,1.0,2616.630663123755,0.5551464092802064,1.276253082816351,0.9830577228586879,0.2832098,0.7566461550843825
0.0725,1.66859375,1.0,2614.6320090787744,0.557641686041009,1.2754559152481961,0.9831699771170582,0.2831339375,0.758048592968044
0.073,1.6667750000000001,1.0,2612.6486759785,0.5601229661182338,1.2746529672711746,0.9832797489903853,0.28305755,0.759457103217918
0.0735,1.66494375,1.0,2610.6775491286944,0.5625903284597944,1.2738442676797508,0.983387098764995,0.2829806375,0.7608715467440721
0.074,1.6631,1.0,2608.7152876183413,0.5650438511752777,1.273029847416011,0.9834920848470077,0.2829032,0.7622917806759876
0.0745,1.6612437500000001,1.0,2606.7635545786716,0.5674836113818749,1.2722096909257086,0.9835947616840575,0.2828252375,0.7637177428766908
0.075,1.659375,1.0,2604.824010686836,0.5699096861967771,1.2713837826545964,0.9836951819876718,0.28274675,0.765149370255366
0.0755,1.65749375,1.0,2602.8989651449765,0.5723221525000701,1.2705521009893945,0.9837933965206335,0.2826677375,0.766586609216277
