Time [s],Phi [rad],STIM [ ],Fsee [N],Gamma [ ],Lcerel [ ],q [ ],Lmtc [m],fisomrel [ ]
0.0,1.8,1.0,17.977649750248315,0.0001070103351136052,1.3793385709831323,0.005002995377325654,0.288653,0.541142374248964
0.0005,1.79999375,1.0,18.319116473090872,0.005715619400580695,1.379297683773597,0.01321202869519291,0.2886527375,0.5412412853443379
0.001,1.799975,1.0,21.732874007373333,0.011292768603644664,1.378926623836982,0.03611588215577589,0.28865195,0.5421384366948545
0.0015,1.79994375,1.0,31.33807538124863,0.016838634410192718,1.3780233488709823,0.07129498112846565,0.2886506375,0.5443187108047436
0.002,1.7999,1.0,54.158895996860196,0.022353392294333873,1.3763308308725701,0.11553816640539118,0.2886488,0.5483900055317634
0.0025,1.79984375,1.0,98.08531991659673,0.02783721674659134,1.3738887148745411,0.1654666757104708,0.28864643749999996,0.5542322349791585
0.003,1.7997750000000001,1.0,162.21389444171808,0.0332902812807422,1.3711674319950127,0.2182001872188875,0.28864354999999997,0.5606975045479198
0.0035,1.79969375,1.0,239.10120441641354,0.03871275843412594,1.3685411249378139,0.2715274810597398,0.2886401375,0.5668923444820493
0.004,1.7996,1.0,322.9746897689817,0.044104819778216287,1.3661162001228777,0.323801248592607,0.2886362,0.5725731122690847
0.0045000000000000005,1.7994937500000001,1.0,410.828859706143,0.04946663592386903,1.3638862038681947,0.3738749404163024,0.2886317375,0.5777641282984524
0.005,1.799375,1.0,501.0061313481536,0.05479837651293989,1.3618245260899877,0.421033688333593,0.28862675,0.5825351158155478
0.0055,1.79924375,1.0,592.3967318951314,0.06010021026043653,1.3599074728464338,0.4649015864846524,0.2886212375,0.5869471013689207
0.006,1.7991000000000001,1.0,684.1257135809163,0.0653723049102447,1.3581172099500922,0.5053488660778691,0.2886152,0.5910461222498775
0.006500000000000001,1.79894375,1.0,775.4791036851288,0.07061482726737899,1.3564399914056224,0.5424123495977948,0.2886086375,0.5948677695368616
0.007,1.798775,1.0,865.8678651446389,0.07582794324385708,1.354864851439687,0.5762340862110231,0.28860155,0.5984404885608701
0.0075,1.79859375,1.0,954.8018005315018,0.08101181776371782,1.3533828163322905,0.6070167529823981,0.2885939375,0.6017875801054166
0.008,1.7984,1.0,1041.8755068445391,0.08616661465771026,1.3519863189431185,0.6349926572807416,0.2885858,0.6049286711634989
0.0085,1.79819375,1.0,1126.805446850278,0.09129249756856773,1.350668138304374,0.660402768904611,0.2885771375,0.6078821963588792
0.009000000000000001,1.797975,1.0,1209.3337841495795,0.09638962822750924,1.3494224523707068,0.6834844894831387,0.28856795,0.6106631051633966
0.0095,1.79774375,1.0,1289.2741637403165,0.1014581678250431,1.3482438417061906,0.7044634159647251,0.2885582375,0.6132851617146482
0.01,1.7975,1.0,1366.514323373473,0.10649827692816824,1.3471270734351755,0.7235491406460358,0.288548,0.6157614632918696
0.0105,1.79724375,1.0,1440.9721093294759,0.11151011533574105,1.3460675218071712,0.7409337062126697,0.2885372375,0.618103540657663
0.011,1.796975,1.0,1512.581901224928,0.11649384102687893,1.3450611692262138,0.7567912660459313,0.28852595000000003,0.6203213950645353
0.0115,1.79669375,1.0,1581.3236422390062,0.12144961148055525,1.3441041185245861,0.7712784113114448,0.2885141375,0.6224246033623011
0.012,1.7964,1.0,1647.2238898505802,0.1263775845607928,1.3431925092613117,0.7845352261282883,0.28850180000000003,0.6244225178154479
0.0125,1.79609375,1.0,1710.303300652991,0.13127791615267817,1.3423230647382098,0.7966868517408295,0.2884889375,0.6263230846563757
0.013000000000000001,1.7957750000000001,1.0,1770.582637957729,0.13615076035191126,1.341492926528987,0.8078447968450825,0.28847555,0.6281332306462625
0.0135,1.79544375,1.0,1828.1140881172096,0.14099627125419192,1.3406992362073498,0.8181081608003888,0.2884616375,0.629859790968522
0.014,1.7951000000000001,1.0,1882.9685798882895,0.14581460233249577,1.339939243934898,0.8275650196007238,0.2884472,0.6315092807173784
0.0145,1.79474375,1.0,1935.2287266575827,0.1506059071273841,1.3392103494454028,0.8362936801108872,0.2884322375,0.6330878151439021
0.015,1.794375,1.0,1984.963245207113,0.15537033701014136,1.3385103405994503,0.8443638808508155,0.28841675,0.6346006036583041
0.0155,1.79399375,1.0,2032.2376408254688,0.16010804179212226,1.3378372365678783,0.851837735136723,0.2884007375,0.636052300982715
0.016,1.7936,1.0,2077.1335604987576,0.16481917128468151,1.3371890565215245,0.8587705555720275,0.2883842,0.6374475132720796
0.0165,1.7931937500000001,1.0,2119.73949020415,0.1695038745728632,1.336563901287307,0.8652116842472003,0.2883671375,0.6387906261169257
0.017,1.792775,1.0,2160.1506766515377,0.17416230107508043,1.3359599370365236,0.8712051955619489,0.28834955,0.6400858440893339
0.0175,1.7923437500000001,1.0,2198.4506390408023,0.17879459842069892,1.3353755678531218,0.876790563709817,0.2883314375,0.6413368255331509
0.018000000000000002,1.7919,1.0,2234.7095195993043,0.18340091194858768,1.3348094320145614,0.8820031980942868,0.2883128,0.6425466971750218
0.0185,1.79144375,1.0,2269.0058181949457,0.18798138699761574,1.334260167798301,0.8868748553962483,0.2882936375,0.6437185593860065
0.019,1.790975,1.0,2301.4256919653217,0.19253616890665226,1.3337264134818008,0.8914340625946126,0.28827395,0.6448554877059125
0.0195,1.79049375,1.0,2332.047037955478,0.19706540121384689,1.3332069573865084,0.8957065225048435,0.2882537375,0.6459602153993163
0.02,1.79,1.0,2360.9653673951593,0.20156922987619683,1.3327004743486213,0.8997153740054936,0.288233,0.6470356963271761
0.0205,1.78949375,1.0,2388.2476043092124,0.20604779632708306,1.3322059728767208,0.9034815774554248,0.2882117375,0.6480841568400237
0.021,1.788975,1.0,2413.9583262208316,0.210501241093113,1.3317225275007079,0.9070240966529736,0.28818995000000003,0.6491076682032593
0.021500000000000002,1.78844375,1.0,2438.166081498002,0.21492970470089393,1.3312492127504838,0.9103601036418443,0.2881676375,0.6501082877939564
0.022,1.7879,1.0,2460.9430561543622,0.2193333276770332,1.3307851031559494,0.913505172710838,0.2881448,0.6510880597261093
0.0225,1.78734375,1.0,2482.3567505189208,0.22371224882267252,1.3303293495848305,0.9164734653516489,0.28812143749999997,0.6520488546009657
0.023,1.786775,1.0,2502.4792417778935,0.22806660907441992,1.3298810869728654,0.9192778632597038,0.28809755,0.6529925652346964
0.0235,1.78619375,1.0,2521.3707947791563,0.2323965463826543,1.3294395872036515,0.921930127288528,0.28807313749999996,0.6539207856603562
0.024,1.7856,1.0,2539.0833568170806,0.2367021961376426,1.3290042214805775,0.9244410050444264,0.2880482,0.6548348923723186
0.0245,1.78499375,1.0,2555.670764306933,0.2409836937296516,1.3285743610070315,0.9268203167311861,0.2880227375,0.6557362541097607
0.025,1.784375,1.0,2571.1885829498287,0.24524117454894817,1.3281493769864023,0.9290770478992111,0.28799675,0.6566262320900382
0.025500000000000002,1.78374375,1.0,2585.6939566638434,0.24947477398579923,1.3277286406220783,0.9312194317905261,0.2879702375,0.6575061802168516
0.026000000000000002,1.7831000000000001,1.0,2599.2335457487393,0.25368462415591486,1.3273116341431344,0.9332550391632715,0.2879432,0.6583772135030325
0.0265,1.78244375,1.0,2611.86741957606,0.2578708627866911,1.3268977262065635,0.9351908097035677,0.2879156375,0.6592406779367941
0.027,1.781775,1.0,2623.640650844972,0.2620336223404058,1.3264864355571642,0.937033148270637,0.28788755,0.6600976001185513
0.0275,1.7810937500000001,1.0,2634.5905533592286,0.2661730325328159,1.3260773614081698,0.9387879648523022,0.2878589375,0.6609488341106053
0.028,1.7804,1.0,2644.755226812115,0.27028922307967823,1.325670102972814,0.9404607091658228,0.2878298,0.6617952296864693
0.0285,1.77969375,1.0,2654.1734887081147,0.27438232369674986,1.3252642594643302,0.942056412542788,0.2878001375,0.6626376323824008
0.029,1.778975,1.0,2662.8848098460967,0.27845246409978763,1.3248594300959518,0.9435797254973799,0.28776995,0.6634768835386908
0.029500000000000002,1.7782437500000001,1.0,2670.9292533634452,0.28249977400454857,1.3244552140809123,0.9450349514698767,0.2877392375,0.664313820330706
0.03,1.7775,1.0,2678.317264091909,0.28652437955960774,1.3240514873197766,0.9464261129415271,0.287708,0.6651487039727062
0.0305,1.77674375,1.0,2685.124649103523,0.2905264121141417,1.3236475297116113,0.9477568636211057,0.2876762375,0.665983024590471
0.031,1.7759759193349345,1.0,2691.428339779858,0.2945059997790732,1.3232430316503134,0.9490306477656054,0.28764398861206725,0.6668174186527885
0.0315,1.7752057134326977,1.0,2697.670122894858,0.2984632661893446,1.3228380944974438,0.9502507160423883,0.28761163996417327,0.6676516732820776
0.032,1.774435507530461,1.0,2703.9561165622667,0.30239833497989804,1.3224328196145627,0.9514200915281664,0.28757929131627935,0.668485576643504
0.0325,1.773665301628224,1.0,2710.2753377935965,0.3063113297856757,1.3220273083632306,0.9525415884286161,0.28754694266838543,0.6693189179474899
0.033,1.7728950957259872,1.0,2716.6167522537658,0.3102023742416199,1.321621662105008,0.9536178290450237,0.28751459402049145,0.6701514874515688
0.0335,1.7721248898237505,1.0,2722.969273843921,0.3140715919826728,1.3212159822014555,0.9546512591706803,0.28748224537259753,0.6709830764615887
0.034,1.7713546839215137,1.0,2729.3217645115083,0.3179191066437767,1.3208103700141334,0.955644162078912,0.28744989672470356,0.6718134773322539
0.0345,1.7705844780192768,1.0,2735.66752709486,0.32174503741822025,1.3204048861127378,0.9565986656244908,0.28741754807680964,0.6726425668210572
0.035,1.76981427211704,1.0,2741.9943165870527,0.3255495107489414,1.3199996410996482,0.9575167671435546,0.28738519942891566,0.6734701202043889
0.035500000000000004,1.7690440662148033,1.0,2748.2961485064307,0.32933264675348356,1.319594688358847,0.9584003285660985,0.28735285078102174,0.6742960305255469
0.036000000000000004,1.7682738603125663,1.0,2754.5693577493585,0.3330945630795771,1.319190060048086,0.9592510915182424,0.28732050213312776,0.6751202345870514
0.0365,1.7675036544103295,1.0,2760.8102636715385,0.336835377374952,1.3187857883251162,0.9600706890955011,0.28728815348523384,0.675942669521474
0.037,1.7667334485080928,1.0,2767.015170330163,0.34055520728733873,1.3183819053476893,0.9608606538553768,0.2872558048373399,0.6767632727907367
0.0375,1.7659632426058558,1.0,2773.1803667498807,0.34425417046446743,1.3179784432735568,0.9616224251358819,0.28722345618944595,0.6775819821853488
0.038,1.765193036703619,1.0,2779.302127211667,0.34793238455406833,1.31757543426047,0.9623573557636672,0.28719110754155197,0.6783987358235776
0.0385,1.7644228308013823,1.0,2785.376711563985,0.3515899672038717,1.3171729104661805,0.9630667182087973,0.28715875889365805,0.6792134721505494
0.039,1.7636526248991455,1.0,2791.405566778345,0.35522701940905965,1.3167708572984622,0.9637517026444075,0.28712641024576413,0.6800262243826445
0.0395,1.7628824189969086,1.0,2797.381001795808,0.35884367994742283,1.3163693422888012,0.9644134450684175,0.28709406159787015,0.6808368598844112
0.04,1.7621122130946718,1.0,2803.3021994877417,0.36244006206546836,1.3159683710427437,0.9650530057865754,0.28706171294997623,0.6816453714942445
0.0405,1.761342007192435,1.0,2809.1691552356933,0.3660162760636817,1.3155679418797348,0.965671383860068,0.28702936430208226,0.6824517667659067
0.041,1.760571801290198,1.0,2814.981867163885,0.3695724322425484,1.3151680531192196,0.9662695224140588,0.28699701565418834,0.6832560532303598
0.0415,1.7598015953879613,1.0,2820.740336118646,0.3731086409025541,1.3147687030806434,0.9668483123545276,0.28696466700629436,0.6840582383958219
0.042,1.7590313894857246,1.0,2826.444565648747,0.3766250123441843,1.3143698900834515,0.9674085958011223,0.28693231835840044,0.6848583297478272
0.0425,1.7582611835834876,1.0,2832.094561984885,0.3801216568679245,1.3139716124470888,0.9679511692604178,0.28689996971050646,0.6856563347492828
0.043000000000000003,1.7574909776812508,1.0,2837.690334020109,0.3835986847742603,1.3135738684910008,0.9684767865616701,0.28686762106261254,0.6864522608405248
0.043500000000000004,1.756720771779014,1.0,2843.2318932897015,0.3870562063636773,1.3131766565346323,0.9689861615750687,0.2868352724147186,0.6872461154393781
0.044,1.7559505658767773,1.0,2848.7192539511916,0.39049433193666094,1.312779974897429,0.969479970730628,0.28680292376682465,0.688037905941211
0.0445,1.7551803599745404,1.0,2854.152432765065,0.3939131717936969,1.3123838218988353,0.9699588553541841,0.28677057511893067,0.6888276397189947
0.045,1.7544101540723036,1.0,2859.5314490743995,0.3973128362352707,1.3119881958582973,0.9704234238354555,0.28673822647103675,0.6896153241233569
0.0455,1.7536399481700669,1.0,2864.856950491188,0.400693409507936,1.311593089543816,0.9708742495617717,0.28670587782314283,0.6904009775144755
0.046,1.7528697422678299,1.0,2870.1298062529836,0.40405502297783114,1.3111984938018215,0.9713118835574106,0.28667352917524885,0.6911846219881304
0.0465,1.7520995363655931,1.0,2875.3506719894917,0.4073977965055518,1.3108044014196347,0.9717368478863571,0.2866411805273549,0.6919662756957352
0.047,1.7513293304633564,1.0,2880.520430446681,0.41072183117813804,1.3104108032162551,0.9721496362206953,0.28660883187946096,0.692745960607906
0.0475,1.7505591245611194,1.0,2885.639969741365,0.4140272280826297,1.310017690010682,0.9725507181894996,0.28657648323156704,0.6935236985983442
0.048,1.7497889186588826,1.0,2890.7101832615385,0.4173140883060668,1.3096250526219146,0.9729405407748333,0.28654413458367306,0.6942995114441218
0.0485,1.7490187127566459,1.0,2895.731969568726,0.4205825129354892,1.3092328818689527,0.9733195296141645,0.28651178593577914,0.6950734208259641
0.049,1.7482485068544091,1.0,2900.706232301619,0.42383260305793685,1.3088411685707957,0.9736880902162878,0.28647943728788516,0.6958454483285248
0.0495,1.7474783009521722,1.0,2905.6338800827357,0.42706445976044966,1.3084499035464427,0.9740466090972374,0.28644708863999124,0.6966156154406574
0.05,1.7467080950499354,1.0,2910.515826425457,0.4302781841300676,1.3080590776148933,0.9743954548421364,0.28641473999209727,0.6973839435556798
0.0505,1.7459378891476987,1.0,2915.352989644391,0.4334738772538305,1.307668681595147,0.9747349790984421,0.28638239134420335,0.6981504539716328
0.051000000000000004,1.7451676832454617,1.0,2920.1462927663515,0.43665164021877834,1.3072787063062032,0.9750655175055943,0.28635004269630937,0.6989151678915373
0.051500000000000004,1.744397477343225,1.0,2924.8966634442513,0.4398115741119511,1.3068891425670612,0.9753873905656687,0.28631769404841545,0.6996781064236415
0.052000000000000005,1.7436272714409882,1.0,2929.605033872163,0.4429537800203886,1.3064999811967206,0.9757009044592708,0.28628534540052153,0.7004392905816643
0.0525,1.7428570655387512,1.0,2934.2723407022713,0.4460783590311308,1.306111213014181,0.9760063518105632,0.28625299675262755,0.7011987412850342
0.053,1.7420868596365144,1.0,2938.8995249644813,0.44918541223121766,1.3057228288384413,0.9763040124050131,0.2862206481047336,0.7019564793591235
0.0535,1.7413166537342777,1.0,2943.487531986911,0.4522750407076891,1.3053348194885013,0.976594153863169,0.28618829945683966,0.702712525535473
0.054,1.740546447832041,1.0,2948.03564518366,0.45534729184174594,1.304947190355761,0.9768770278466319,0.28615595080894574,0.7034668721113753
0.0545,1.739776241929804,1.0,2952.5461710645004,0.458402301611267,1.3045599204028175,0.9771528824438185,0.28612360216105176,0.7042195627685888
0.055,1.7390060360275672,1.0,2957.021185654261,0.46144020431832966,1.3041729906771256,0.9774219551002641,0.28609125351315784,0.7049706369340986
0.0555,1.7382358301253305,1.0,2961.461329132445,0.46446109005984315,1.3037863948201927,0.9776844698036098,0.28605890486526386,0.7057201094456316
0.056,1.7374656242230935,1.0,2965.8672446154546,0.467465048932717,1.303400126473527,0.9779406412540403,0.28602655621736994,0.7064679950760452
0.0565,1.7366954183208567,1.0,2970.239578109427,0.4704521710338605,1.3030141792786367,0.9781906753254807,0.28599420756947597,0.7072143085334637
0.057,1.73592521241862,1.0,2974.5789784653643,0.473422546460183,1.3026285468770293,0.9784347695002562,0.28596185892158205,0.7079590644614084
0.0575,1.735155006516383,1.0,2978.8860973332116,0.476376265308594,1.302243222910213,0.9786731132789548,0.28592951027368807,0.7087022774389264
0.058,1.7343848006141462,1.0,2983.1615891189895,0.47931341767600283,1.3018582010196955,0.9789058885670872,0.28589716162579415,0.7094439619807178
0.0585,1.7336145947119095,1.0,2987.406110941004,0.4822340936593189,1.301473474846985,0.9791332700400368,0.28586481297790023,0.7101841325372586
0.059000000000000004,1.7328443888096725,1.0,2991.6203225879844,0.48513838335545156,1.301089038033589,0.9793554254876814,0.28583246433000625,0.7109228034949233
0.059500000000000004,1.7320741829074358,1.0,2995.804886477979,0.4880263768613102,1.300704884221016,0.9795725161399698,0.2858001156821123,0.7116599891761013
0.06,1.731303977005199,1.0,2999.960467617941,0.49089816427380417,1.3003210070507738,0.9797846969746448,0.28576776703421836,0.7123957038393147
0.0605,1.7305337711029622,1.0,3004.0877335639384,0.49375383568984293,1.29993740016437,0.9799921170082263,0.28573541838632444,0.7131299616793323
0.061,1.7297635652007253,1.0,3008.1873543830116,0.49659348120633584,1.2995540572033126,0.9801949195712852,0.28570306973843046,0.7138627768272785
0.0615,1.7289933592984885,1.0,3012.26000261545,0.4994171909201923,1.29917097180911,0.9803932425689704,0.2856707210905365,0.714594163350742
0.062,1.7282231533962518,1.0,3016.306353237965,0.5022250549283217,1.2987881376232695,0.9805872187276845,0.28563837244264256,0.7153241352538845
0.0625,1.7274529474940148,1.0,3020.3270836276197,0.5050171633276334,1.2984055482872996,0.9807769758287465,0.28560602379474864,0.7160527064775386
0.063,1.726682741591778,1.0,3024.3228735273087,0.5077936062150368,1.2980231974427077,0.9809626369298171,0.28557367514685467,0.716779890899314
0.0635,1.7259125356895413,1.0,3028.294405011347,0.5105544736874412,1.2976410787310022,0.9811443205748167,0.28554132649896075,0.7175057023336906
0.064,1.7251423297873045,1.0,3032.2423624523262,0.5132998558417562,1.2972591857936908,0.9813221409930135,0.28550897785106677,0.7182301545321175
0.0645,1.7243721238850676,1.0,3036.167432489188,0.516029842774891,1.2968775122722813,0.9814962082879167,0.28547662920317285,0.7189532611831042
0.065,1.7236019179828308,1.0,3040.0703039950754,0.518744524583755,1.296496051808282,0.981666628616567,0.2854442805552789,0.7196750359123105
0.0655,1.722831712080594,1.0,3043.9501433281853,0.5214439283801006,1.2961148111669691,0.9818335006975512,0.28541193190738495,0.7203954674985658
0.066,1.722061506178357,1.0,3047.808729711182,0.5241282010612445,1.2957337746235253,0.9819969268310438,0.285379583259491,0.7211145872031949
0.0665,1.7212913002761203,1.0,3051.6468422413154,0.5267974416785249,1.2953529350929966,0.9821570028900932,0.28534723461159706,0.7218324098595412
0.067,1.7205210943738836,1.0,3055.4648096953206,0.5294517294816796,1.2949722893792641,0.9823138202888526,0.28531488596370314,0.7225489429156751
0.0675,1.7197508884716466,1.0,3059.2629620325906,0.5320911437204462,1.294591834286209,0.9824674672995712,0.28528253731580916,0.7232641937879042
0.068,1.7189806825694098,1.0,3063.0416303816564,0.5347157636445625,1.2942115666177125,0.982618029182638,0.2852501886679152,0.7239781698608141
0.0685,1.718210476667173,1.0,3066.8011470266556,0.5373256685037661,1.2938314831776558,0.9827655883103723,0.28521784002002126,0.7246908784873054
0.069,1.717440270764936,1.0,3070.541845394199,0.5399209375477947,1.2934515807699198,0.9829102242849032,0.28518549137212734,0.7254023269886327
0.0695,1.7166700648626994,1.0,3074.2640600402874,0.542501650026386,1.293071856198386,0.9830520140504565,0.28515314272423337,0.7261125226544405
0.07,1.7158998589604626,1.0,3077.9681266380176,0.5450678851892777,1.2926923062669355,0.9831910320003545,0.28512079407633945,0.7268214727428011
0.07050000000000001,1.7151296530582258,1.0,3081.654381964533,0.5476197222862077,1.2923129277794494,0.9833273500790073,0.28508844542844547,0.7275291844802501
0.07100000000000001,1.7143594471559889,1.0,3085.323163889216,0.5501572405669135,1.291933717539809,0.983461037879166,0.28505609678055155,0.728235665061821
