Time [s],Phi [rad],STIM [ ],Fsee [N],Gamma [ ],Lcerel [ ],q [ ],Lmtc [m],fisomrel [ ]
0.0,1.8,1.0,18.576446748556172,0.0007953264144967654,1.379272054614368,0.005162807157304773,0.288653,0.5413032799381247
0.0005,1.79999375,1.0,19.12334488146393,0.006400074571104756,1.37920941143342,0.015263722315555676,0.2886527375,0.5414547904346916
0.001,1.799975,1.0,23.048455274312428,0.011973384522033441,1.3787945799092638,0.03981750448067283,0.28865195,0.542457481605116
0.0015,1.79994375,1.0,33.80961895272966,0.017515432611149066,1.3778176654453016,0.07628626183041284,0.2886506375,0.5448144505021115
0.002,1.7999,1.0,58.90200007485191,0.023026394192412782,1.3760311876742255,0.121400727904557,0.2886488,0.5491088835979319
0.0025,1.79984375,1.0,105.57514277394351,0.028506443635972666,1.3735361865491211,0.1718136083465742,0.28864643749999996,0.5550724404921563
0.003,1.7997750000000001,1.0,171.65080655531375,0.0339557543361894,1.3708205430818874,0.22472777432364138,0.28864354999999997,0.5615182551927747
0.0035,1.79969375,1.0,249.59435266719026,0.0393744987122617,1.368222328087606,0.2780056570180988,0.2886401375,0.5676413172759676
0.004,1.7996,1.0,334.04240037322063,0.04476284821674976,1.3658262073037548,0.3300637238626499,0.2886362,0.5732499555157852
0.0045000000000000005,1.7994937500000001,1.0,422.21958654848186,0.050120973320142724,1.3636211532421667,0.3798126929318666,0.2886317375,0.5783790080192498
0.005,1.799375,1.0,512.5842186057946,0.05544904363408307,1.3615802870724196,0.42658409495954125,0.28862675,0.5830985204101614
0.0055,1.79924375,1.0,604.0329870974658,0.06074722761526177,1.3596815411556105,0.47003737707082727,0.2886212375,0.5874655259946585
0.006,1.7991000000000001,1.0,695.7458763339883,0.06601569304582824,1.3579071229884638,0.51006665897692,0.2886152,0.5915258013843132
0.006500000000000001,1.79894375,1.0,787.0002198109385,0.07125460647625495,1.356244245475055,0.5467248958272893,0.2886086375,0.59531261978925
0.007,1.798775,1.0,877.2343254043834,0.07646413381670059,1.3546820125826353,0.5801634959341848,0.28860155,0.5988541771375362
0.0075,1.79859375,1.0,965.961749482132,0.08164443979697832,1.3532118031991751,0.6105902793482808,0.2885939375,0.6021729020433265
0.008,1.7984,1.0,1052.792365263811,0.08679568822106434,1.3518261257926323,0.6382395491146103,0.2885858,0.6052881926331215
0.0085,1.79819375,1.0,1137.4468633498118,0.09191804252057201,1.3505179484463337,0.6633524191079866,0.2885771375,0.6082180096204508
0.009000000000000001,1.797975,1.0,1219.673357648123,0.09701166429906859,1.349281558666111,0.6861652087040259,0.28856795,0.6109770177798852
0.0095,1.79774375,1.0,1299.297348703709,0.10207671466270798,1.3481115359160303,0.7069017085727922,0.2885582375,0.613578949496755
0.01,1.7975,1.0,1376.211675838823,0.10711335441832878,1.3470027179277788,0.7257694268964684,0.288548,0.6160367147663723
0.0105,1.79724375,1.0,1450.3278202095607,0.11212174268707512,1.345950670610644,0.7429582734478991,0.2885372375,0.6183613951021864
0.011,1.796975,1.0,1521.5933661071924,0.11710203757097941,1.3449512995316015,0.7586401633540281,0.28852595000000003,0.6205631407890922
0.0115,1.79669375,1.0,1589.9931867890898,0.12205439658188917,1.3440007283548887,0.7729696138150255,0.2885141375,0.6226514633013587
0.012,1.7964,1.0,1655.5593795629864,0.12697897754177617,1.3430951014458776,0.7860847811397987,0.28850180000000003,0.6246356867469482
0.0125,1.79609375,1.0,1718.3032517600975,0.13187593558760002,1.3422313094341343,0.7981091159570256,0.2884889375,0.6265233764126207
0.013000000000000001,1.7957750000000001,1.0,1778.2520403181234,0.13674542510626092,1.3414064653271482,0.8091525228662882,0.28847555,0.6283215096709909
0.0135,1.79544375,1.0,1835.4638980555371,0.14158760044921326,1.3406176858285541,0.8193126695209251,0.2884616375,0.6300369646071442
0.014,1.7951000000000001,1.0,1890.011893495647,0.14640261490200193,1.3398622356745993,0.8286763732823484,0.2884472,0.63167621416538
0.0145,1.79474375,1.0,1941.9713806332009,0.15119062178367315,1.3391376260236665,0.837320860330326,0.2884322375,0.6332451231346676
0.015,1.794375,1.0,1991.4028469910802,0.15595177150598577,1.3384417573039784,0.845314911394952,0.28841675,0.6347486508705198
0.0155,1.79399375,1.0,2038.3848310926799,0.1606862144806988,1.3377725299437575,0.8527197197491994,0.2884007375,0.6361917028552087
0.016,1.7936,1.0,2083.001460563816,0.1653941001922676,1.3371279578904913,0.8595898225969872,0.2883842,0.6375788903335049
0.0165,1.7931937500000001,1.0,2125.350149885996,0.17007557903626058,1.336506068654323,0.8659738601834344,0.2883671375,0.6389147505064159
0.017,1.792775,1.0,2165.5200236968526,0.17473079988222395,1.335905109692585,0.8719153313487532,0.28834955,0.6402033076607542
0.0175,1.7923437500000001,1.0,2203.57730106037,0.17935990850178662,1.3353236746188413,0.8774532306551227,0.2883314375,0.6414478100769052
0.018000000000000002,1.7919,1.0,2239.597398857764,0.1839630506665775,1.3347603570466573,0.8826224816533543,0.2883128,0.6426514775191152
0.0185,1.79144375,1.0,2273.664168900594,0.18854037214822544,1.334213750589598,0.8874544118529548,0.2882936375,0.643817502923578
0.019,1.790975,1.0,2305.8655385762836,0.19309201823953503,1.3336824848618354,0.8919771773274253,0.28827395,0.6449489773483132
0.0195,1.79049375,1.0,2336.2853291159463,0.1976181333148224,1.333165298052309,0.8962161429056548,0.2882537375,0.6460487377988398
0.02,1.79,1.0,2365.009965846624,0.20211886203278487,1.3326609620676313,0.90019418070249,0.288233,0.6471195290696364
0.0205,1.78949375,1.0,2392.102116632476,0.2065943452506383,1.3321685323444066,0.9039320026092246,0.2882117375,0.6481634761484787
0.021,1.788975,1.0,2417.628783673288,0.21104472382559847,1.331687064319239,0.9074483372837063,0.28818995000000003,0.6491826892961897
0.021500000000000002,1.78844375,1.0,2441.6609458261555,0.2154701386148812,1.3312156134287318,0.9107601472671618,0.2881676375,0.6501792647354236
0.022,1.7879,1.0,2464.27021240354,0.21987072996656373,1.3307532638877795,0.9138828254932054,0.2881448,0.6511552245777452
0.0225,1.78734375,1.0,2485.5220277811354,0.22424663692769994,1.330299189770686,0.9168303742599472,0.28812143749999997,0.6521123891480498
0.023,1.786775,1.0,2505.4972829893495,0.2285980008879068,1.3298524454293208,0.9196155126158773,0.28809755,0.6530528196565593
0.0235,1.78619375,1.0,2524.2466801431706,0.2329249576229356,1.3294123967281153,0.9222498869983536,0.28807313749999996,0.6539779109752513
0.024,1.7856,1.0,2541.822968452222,0.2372276429085377,1.3289784095315007,0.9247441253875421,0.2880482,0.6548890499429981
0.0245,1.78499375,1.0,2558.2807751697846,0.24150619252046446,1.3285498497039085,0.9271079403836658,0.2880227375,0.6557876156235303
0.025,1.784375,1.0,2573.6764454581103,0.24576074223446717,1.3281260831097699,0.9293502206031504,0.28799675,0.6566749795377564
0.025500000000000002,1.78374375,1.0,2588.062366673631,0.249991426595384,1.3277065271829573,0.9314791198750986,0.2879702375,0.6575523980921099
0.026000000000000002,1.7831000000000001,1.0,2601.4911426668687,0.2541983803112666,1.327290610070047,0.9335021223750657,0.2879432,0.6584210987244147
0.0265,1.78244375,1.0,2614.0217205288536,0.25838173891196714,1.3268777124477227,0.9354260977906204,0.2879156375,0.6592824014826018
0.027,1.781775,1.0,2625.6922132512495,0.2625416327797751,1.3264674188613292,0.9372573959391906,0.28788755,0.6601371952232826
0.0275,1.7810937500000001,1.0,2636.5416009806318,0.2666781922969797,1.3260593138562111,0.9390018658304493,0.2878589375,0.6609863643100027
0.028,1.7804,1.0,2646.609656946026,0.2707915478458704,1.3256529819777132,0.9406649017795445,0.2878298,0.6618307886767322
0.0285,1.77969375,1.0,2655.9368772142097,0.27488182980873643,1.32524800777118,0.9422514847164699,0.2878001375,0.6626713438803524
0.029,1.778975,1.0,2664.5644142710967,0.2789491685678673,1.3248439757819563,0.943766219244244,0.28776995,0.6635089011421293
0.029500000000000002,1.7782437500000001,1.0,2672.5298273838534,0.28299369130038865,1.3244405090175502,0.9452133710164552,0.2877392375,0.6643442477947479
0.03,1.7775,1.0,2679.8720264026138,0.2870155301156352,1.3240372227933233,0.9465968929819321,0.287708,0.6651781831772647
0.0305,1.77674375,1.0,2686.620781622031,0.2910148109149592,1.3236338204289466,0.9479204608944707,0.2876762375,0.6660113210285853
0.031,1.775975,1.0,2692.8052295846765,0.29499165873696254,1.3232300144626548,0.9491874884760028,0.28764395,0.6668442530308418
0.0315,1.7751937500000001,1.0,2698.454840807284,0.29894619862024735,1.3228255174326817,0.950401148541021,0.2876111375,0.6676775679028103
0.032,1.7744,1.0,2703.599387289814,0.30287855560341553,1.3224200418772618,0.951564392971959,0.2875778,0.6685118513898749
0.0325,1.77359375,1.0,2708.2689118571843,0.30678885472506917,1.322013300334629,0.9526799708068159,0.2875439375,0.6693476862487244
0.033,1.772775,1.0,2712.482929066613,0.3106772137446375,1.3216051035471699,0.9537504540299017,0.28750955,0.6701854508048921
0.0335,1.7719437500000002,1.0,2716.271195757357,0.31454376015957014,1.3211951706168807,0.954778234581323,0.2874746375,0.6710257090956406
0.034,1.7711000000000001,1.0,2719.6718554934237,0.31838862735396606,1.3207831460306618,0.9557655394656229,0.2874392,0.671869174817191
0.0345,1.7702437500000001,1.0,2722.701493158916,0.32221193327191633,1.320368872186547,0.9567144680656677,0.2874032375,0.6727161534882651
0.035,1.7693750000000001,1.0,2725.3768113211363,0.32601379585751195,1.31995219148257,0.9576269843745667,0.28736675,0.6735669488695818
0.035500000000000004,1.76849375,1.0,2727.71461863959,0.3297943330548439,1.3195329463167653,0.958504927292556,0.2873297375,0.6744218629404566
0.036000000000000004,1.7676,1.0,2729.7318188259937,0.33355366280800336,1.3191109790871665,0.9593500200277737,0.2872922,0.6752811958738202
0.0365,1.76669375,1.0,2731.445400154821,0.33729190306108114,1.3186861321918075,0.9601638786881448,0.2872541375,0.6761452460096486
0.037,1.765775,1.0,2732.8724255242896,0.3410091717581684,1.3182582480287224,0.9609480201422805,0.28721555,0.677014309826812
0.0375,1.76484375,1.0,2734.0300230687094,0.34470558684335617,1.317827168995945,0.9617038692190262,0.2871764375,0.6778886819133385
0.038,1.7639,1.0,2734.935377320881,0.34838126626073546,1.3173927374915095,0.9624327653079988,0.28713679999999997,0.6787686549350949
0.0385,1.76294375,1.0,2735.6057209255887,0.35203632795439727,1.3169547959134498,0.9631359684169825,0.28709663750000003,0.6796545196028807
0.039,1.761975,1.0,2736.0582170107114,0.35567088960572857,1.316513187657484,0.9638146647772818,0.28705595,0.6805465626240379
0.0395,1.7609937500000001,1.0,2736.3048347351114,0.3592850574856363,1.3160678035729185,0.9644699740652131,0.2870147375,0.6814449730375989
0.04,1.76,1.0,2736.363675007654,0.3628789604115297,1.3156184790828143,0.9651029511196817,0.286973,0.6823500499408519
0.0405,1.7589937500000001,1.0,2736.2439981592856,0.36645270885710496,1.3151651300629974,0.9657145947238144,0.2869307375,0.6832619285471108
0.041,1.757975,1.0,2735.9550818002426,0.3700064132960584,1.3147076723892945,0.9663058477349833,0.28688795,0.684180742791175
0.0415,1.75694375,1.0,2735.506217875828,0.3735401842020863,1.3142460219375323,0.9668776007944563,0.2868446375,0.6851066253075128
0.042,1.7559,1.0,2734.9067098790647,0.37705413204888494,1.3137800945835367,0.9674306957540245,0.28680079999999997,0.6860397074079935
0.0425,1.75484375,1.0,2734.1658702203226,0.3805483673101506,1.3133098062031343,0.9679659288438968,0.2867564375,0.686980119059166
0.043000000000000003,1.753775,1.0,2733.29301775332,0.3840230004595796,1.3128350726721514,0.9684840536038251,0.28671155,0.6879279888590872
0.043500000000000004,1.75269375,1.0,2732.297475459083,0.38747814197086816,1.3123558098664145,0.9689857835973753,0.28666613750000003,0.6888834440136999
0.044,1.7516,1.0,2731.1885682854986,0.39091390231771256,1.3118719336617501,0.9694717949274038,0.2866202,0.6898466103127581
0.0445,1.75049375,1.0,2729.9756211451486,0.3943303919738092,1.3113833599339844,0.9699427285691268,0.2865737375,0.6908176121053022
0.045,1.7493750000000001,1.0,2728.658054396293,0.3977276898765964,1.3108900945843005,0.9703991948838431,0.28652675,0.6917963937798619
0.0455,1.74824375,1.0,2727.255968493588,0.4011059454097853,1.310391955522411,0.9708417690356081,0.2864792375,0.6927832715145843
0.046,1.7471,1.0,2725.775140957948,0.4044652653948332,1.3098888907919284,0.9712710008484144,0.2864312,0.6937783015425647
0.0465,1.7459437500000001,1.0,2724.2198013387642,0.4078057517401639,1.309380862496996,0.9716874130930409,0.28638263750000004,0.6947815112264504
0.047,1.744775,1.0,2722.59417763789,0.4111275063542013,1.3088678327417576,0.9720915027428404,0.28633355,0.6957929269687808
0.0475,1.74359375,1.0,2720.902495753274,0.41443063114536927,1.3083497636303567,0.9724837424861624,0.28628393750000003,0.6968125741999462
0.048,1.7424,1.0,2719.148978953347,0.4177152280220917,1.3078266172669373,0.9728645821364447,0.2862338,0.697840477366054
0.0485,1.74119375,1.0,2717.3378473845646,0.4209813988927924,1.3072983557556426,0.9732344499477877,0.2861831375,0.6988766599167046
0.049,1.739975,1.0,2715.47331760977,0.42422924566589526,1.3067649412006166,0.9735937538431616,0.28613195,0.6999211442926729
0.0495,1.73874375,1.0,2713.559602178893,0.42745887024982415,1.3062263357060027,0.9739428825617893,0.2860802375,0.7009739519135031
0.05,1.7375,1.0,2711.6009092315494,0.43067037455300294,1.3056825013759448,0.9742822067317188,0.286028,0.702035103165005
0.0505,1.73624375,1.0,2709.601442131063,0.4338638604838555,1.3051334003145862,0.9746120798730836,0.2859752375,0.703104617386666
0.051000000000000004,1.734975,1.0,2707.5653991308413,0.43703942995080575,1.3045789946260709,0.974932839337118,0.28592195,0.7041825128589665
0.051500000000000004,1.73369375,1.0,2705.496973072146,0.44019718486227744,1.3040192464145424,0.975244807185569,0.2858681375,0.7052688067906052
0.052000000000000005,1.7324,1.0,2703.4003511138885,0.44333722712669454,1.303454117784144,0.9755482910147854,0.2858138,0.706363515305634
0.0525,1.73109375,1.0,2701.279714494404,0.4464596586524808,1.30288357083902,0.9758435847284117,0.28575893750000003,0.7074666534304985
0.053,1.729775,1.0,2699.136220312303,0.4495645668712472,1.3023075952697691,0.9761309694887851,0.28570355000000003,0.7085781818948006
0.0535,1.72844375,1.0,2696.9711104005655,0.4526520485677372,1.3017261799787223,0.9764107151028498,0.2856476375,0.7096980622303817
0.054,1.7271,1.0,2694.791659382942,0.45572222800044104,1.3011392586652266,0.9766830790585931,0.2855912,0.710826361258156
0.0545,1.7257437500000001,1.0,2692.599261789631,0.4587751978556848,1.300546818735797,0.9769483078676819,0.2855342375,0.7119630412876021
0.055,1.724375,1.0,2690.3953100242575,0.4618110508197948,1.2999488475969474,0.9772066375611248,0.28547675,0.713108063856069
0.0555,1.72299375,1.0,2688.1811943303624,0.46482987957909705,1.299345332655193,0.9774582942196793,0.2854187375,0.7142613897243364
0.056,1.7216,1.0,2685.9583027614403,0.46783177681991783,1.2987362613170477,0.9777034944731722,0.2853602,0.7154229788721703
0.0565,1.72019375,1.0,2683.728021154171,0.47081683522858336,1.2981216209890265,0.9779424459707984,0.28530113749999997,0.7165927904938624
0.057,1.718775,1.0,2681.491733105748,0.4737851474914198,1.2975013990776436,0.9781753478243077,0.28524155,0.7177707829937647
0.0575,1.71734375,1.0,2679.250819953915,0.4767368062947534,1.2968755829894134,0.9784023910258479,0.2851814375,0.718956913981811
0.058,1.7159,1.0,2677.006660761167,0.47967190432491025,1.2962441601308508,0.978623758842104,0.2851208,0.720151140269027
0.0585,1.71444375,1.0,2674.760632302564,0.48259053426821663,1.29560711790847,0.9788396271862584,0.2850596375,0.7213534178630354
0.059000000000000004,1.7129750000000001,1.0,2672.5141090562843,0.4854927888109987,1.2949644437287857,0.9790501649691846,0.28499795,0.722563701963546
0.059500000000000004,1.71149375,1.0,2670.2684631984694,0.48837876063958263,1.2943161249983124,0.9792555344311868,0.2849357375,0.7237819469578373
0.06,1.71,1.0,2668.025064601266,0.49124854244029464,1.2936621491235645,0.979455891455508,0.284873,0.7250081064162289
0.0605,1.7084937500000001,1.0,2665.7852808344114,0.49410222689946093,1.2930025035110564,0.9796513858647403,0.2848097375,0.7262421330875428
0.061,1.7069750000000001,1.0,2663.55047717024,0.4969399067034077,1.2923371755673028,0.9798421617011941,0.28474595,0.7274839788945536
0.0615,1.7054437500000001,1.0,2661.321710833748,0.4997616605692378,1.2916661555134212,0.9800283565509832,0.2846816375,0.7287335896939439
0.062,1.7039,1.0,2659.0993344065405,0.5025675656430421,1.2909894400434436,0.9802101030122728,0.2846168,0.7299908985433774
0.0625,1.70234375,1.0,2656.884503247232,0.5053577510613938,1.2903070184500343,0.9803875322630439,0.2845514375,0.7312558515263121
0.063,1.7007750000000001,1.0,2654.6775631753426,0.5081323004545515,1.2896188874695895,0.980560767500358,0.28448555,0.7325283801686138
0.0635,1.69919375,1.0,2652.4788594483703,0.510891297452774,1.288925043838506,0.9807299273586928,0.28441913750000003,0.7338084153154253
0.064,1.6976,1.0,2650.2887367661656,0.5136348256863195,1.288225484293181,0.9808951261108299,0.2843522,0.7350958871299784
0.0645,1.69599375,1.0,2648.1075392765824,0.5163629687854466,1.2875202055700106,0.9810564738584636,0.2842847375,0.7363907250924071
0.065,1.694375,1.0,2645.9356105802285,0.5190758103804142,1.2868092044053918,0.9812140767131323,0.28421675,0.7376928579985529
0.0655,1.69274375,1.0,2643.773293736102,0.5217734341014806,1.2860924775357214,0.9813680369680287,0.2841482375,0.7390022139587779
0.066,1.6911,1.0,2641.6209312673986,0.5244559235789042,1.2853700216973958,0.9815184532612067,0.2840792,0.7403187203967725
0.0665,1.6894437500000001,1.0,2639.478865167361,0.527123362442944,1.2846418336268117,0.9816654207306795,0.2840096375,0.7416423040483624
0.067,1.687775,1.0,2637.3474369052337,0.5297758343238581,1.283907910060366,0.981809031161862,0.28393955,0.7429728909603159
0.0675,1.68609375,1.0,2635.2269874332314,0.5324134228519054,1.2831682477344553,0.9819493731277861,0.2838689375,0.7443104064891524
0.068,1.6844000000000001,1.0,2633.1178571926775,0.5350362116573442,1.2824228433854763,0.9820865321224951,0.2837978,0.745654775299945
0.0685,1.68269375,1.0,2631.0203861210553,0.5376442843704332,1.2816716937498258,0.9822205906879887,0.2837261375,0.7470059213651286
0.069,1.680975,1.0,2628.9349136593287,0.5402377246214309,1.2809147955639004,0.9823516285350763,0.28365395,0.7483637679633037
0.0695,1.67924375,1.0,2626.8617787589824,0.542816616040596,1.2801521455640967,0.982479722658467,0.28358123749999997,0.7497282376780394
0.07,1.6775,1.0,2624.8013198898807,0.5453810422581867,1.2793837404868116,0.9826049474464125,0.283508,0.7510992523966771
0.07050000000000001,1.67574375,1.0,2622.753875048036,0.547931086904462,1.2786095770684418,0.9827273747851923,0.2834342375,0.7524767333091327
0.07100000000000001,1.673975,1.0,2620.719716604971,0.5504668204522675,1.2778296526498172,0.9828470733837662,0.28335995,0.7538605998357205
0.07150000000000001,1.67219375,1.0,2618.698329736957,0.5529882884981324,1.2770439718735709,0.9829641085113499,0.2832851375,0.7552507578077681
0.07200000000000001,1.6704,1.0,2616.6895424217846,0.5554956380004634,1.2762525362078954,0.9830785492146019,0.2832098,0.7566471181081169
0.0725,1.66859375,1.0,2614.6931544443682,0.5579889432705097,1.2754553473858163,0.9831904579606459,0.2831339375,0.7580495905502527
0.073,1.6667750000000001,1.0,2612.70896595297,0.5604682786195205,1.2746524071403593,0.983299895188996,0.28305755,0.7594580843495099
0.0735,1.66494375,1.0,2610.736777455055,0.562933718358745,1.27384371720455,0.9834069193891603,0.2829806375,0.7608725081237068
0.074,1.6631,1.0,2608.776389813075,0.565385336799432,1.2730292793114142,0.9835115871747736,0.2829032,0.7622927698937811
0.0745,1.6612437500000001,1.0,2606.8276042408124,0.5678232082528311,1.272209095193977,0.9836139533544437,0.2828252375,0.7637187770844271
0.075,1.659375,1.0,2604.890222299364,0.5702474070301912,1.2713831665852646,0.9837140709994701,0.28274675,0.7651504365247275
0.0755,1.65749375,1.0,2602.9640458930976,0.5726580074427614,1.2705514952183021,0.9838119915085967,0.2826677375,0.7665876544487916
