Time [s],Phi [rad],STIM [ ],Fsee [N],Gamma [ ],Lcerel [ ],q [ ],Lmtc [m],fisomrel [ ]
0.0,1.8,1.0,18.49721568142957,0.0007418428232976884,1.3792807936876974,0.0051417306930572676,0.288653,0.5412821413891273
0.0005,1.79999375,1.0,19.029480084843854,0.0063468909805594696,1.3792196171169693,0.015096492299874392,0.2886527375,0.5414301083981481
0.001,1.799975,1.0,22.914715681457647,0.011920499249264143,1.3788078281387066,0.039523547389613334,0.28865195,0.542425476214401
0.0015,1.79994375,1.0,33.58175190525376,0.017462843983076997,1.3778363070105923,0.07589398065459428,0.2886506375,0.5447695315835377
0.002,1.7999,1.0,58.492573643918426,0.022974100544946637,1.376056565528555,0.12094262417168404,0.2886488,0.5490480214377156
0.0025,1.79984375,1.0,104.9518698974162,0.02845444331492172,1.3735650353101023,0.17131940007495394,0.28864643749999996,0.5550037129903126
0.003,1.7997750000000001,1.0,170.88260511059002,0.03390404569604132,1.3708484188150374,0.22422063305475576,0.28864354999999997,0.5614523286428145
0.0035,1.79969375,1.0,248.75162397886558,0.03932308011635069,1.3682476808234512,0.27750312924283804,0.2886401375,0.5675817779596608
0.004,1.7996,1.0,333.15827336044737,0.044711718038617884,1.365849194652939,0.32957851304544533,0.2886362,0.5731963226141453
0.0045000000000000005,1.7994937500000001,1.0,421.3208558703131,0.050070129964061114,1.3636419348454303,0.37935293590790975,0.2886317375,0.5783308138452545
0.005,1.799375,1.0,511.6602498676002,0.055398485391481345,1.3615996761828386,0.4261547689168407,0.28862675,0.5830538079861807
0.0055,1.79924375,1.0,603.1276482964372,0.06069695305889265,1.359699040871895,0.46964003867041115,0.2886212375,0.5874253826397922
0.006,1.7991000000000001,1.0,694.8396204814213,0.0659657004464519,1.3579234442744772,0.5097018114023517,0.2886152,0.5914885460417577
0.006500000000000001,1.79894375,1.0,786.1055537166644,0.07120489430925386,1.356259394490553,0.5463914248464715,0.2886086375,0.5952782010115578
0.007,1.798775,1.0,876.3512087604836,0.07641470049212412,1.3546961756389653,0.5798597011314197,0.28860155,0.5988221396272075
0.0075,1.79859375,1.0,965.0855334127921,0.08159528364036185,1.3532251943267273,0.6103141072857007,0.2885939375,0.6021427362654521
0.008,1.7984,1.0,1051.9472876449527,0.08674680804938284,1.3518384966498114,0.6379885252206834,0.2885858,0.6052604345510226
0.0085,1.79819375,1.0,1136.6188348863445,0.09186943637536876,1.3505296097242379,0.6631244089675775,0.2885771375,0.6081919410286145
0.009000000000000001,1.797975,1.0,1218.8620780049837,0.09696333061325593,1.349292592042279,0.6859580309779484,0.28856795,0.6109524398736803
0.0095,1.79774375,1.0,1298.5192728035513,0.10202865241877475,1.3481217881875394,0.7067131985112061,0.2885582375,0.6135561881030294
0.01,1.7975,1.0,1375.4582006196947,0.10706556177244464,1.3470123645037453,0.7255977645394359,0.288548,0.616015366331377
0.0105,1.79724375,1.0,1449.5926924217795,0.11207421783695598,1.3459598385592861,0.7428017806441971,0.2885372375,0.6183411674235736
0.011,1.796975,1.0,1520.8838979788104,0.11705477910152885,1.344959937698651,0.7584972438044277,0.28852595000000003,0.6205441370629555
0.0115,1.79669375,1.0,1589.3303094791274,0.12200740402297523,1.3440086236464408,0.7728387667711668,0.2885141375,0.6226341417630148
0.012,1.7964,1.0,1654.9185467209056,0.12693224842350034,1.3431025814491964,0.7859649000952872,0.28850180000000003,0.624619319524546
0.0125,1.79609375,1.0,1717.6730979586112,0.131829467991483,1.3422385292123276,0.7979991437940824,0.2884889375,0.626507618375583
0.013000000000000001,1.7957750000000001,1.0,1777.6366467962596,0.1366992176176298,1.3414133960928731,0.8090514463295988,0.28847555,0.6283064189041165
0.0135,1.79544375,1.0,1834.8869242693029,0.14154165275185696,1.3406240817728219,0.8192195068378513,0.2884616375,0.6300230705243047
0.014,1.7951000000000001,1.0,1889.4733816264713,0.14635692584874124,1.3398681184372718,0.8285903503961647,0.2884472,0.6316634632331268
0.0145,1.79474375,1.0,1941.4527829614935,0.1511451885626693,1.3391432149131934,0.8372413568198942,0.2884322375,0.6332330350074729
0.015,1.794375,1.0,1990.9026986583947,0.15590659254802786,1.338447080027557,0.8452413119843412,0.28841675,0.6347371620561877
0.0155,1.79399375,1.0,2037.9031095865255,0.16064128849267667,1.3377775971197121,0.8526514715135599,0.2884007375,0.6361807872577598
0.016,1.7936,1.0,2082.5560052491924,0.16534942758022333,1.3371325931062699,0.8595263761424207,0.2883842,0.6375689243158236
0.0165,1.7931937500000001,1.0,2124.9338954621985,0.17003115791395176,1.3365103566294854,0.8659148015431293,0.2883671375,0.6389055480902315
0.017,1.792775,1.0,2165.110949831118,0.17468662692305909,1.3359092844238305,0.8718603324356923,0.28834955,0.6401943642789227
0.0175,1.7923437500000001,1.0,2203.1721724978843,0.1793159820367425,1.3353277732237767,0.8774019443031909,0.2883314375,0.6414390449769878
0.018000000000000002,1.7919,1.0,2239.201991894679,0.18391936960564242,1.3347643249938528,0.8825745723688001,0.2883128,0.6426430060950578
0.0185,1.79144375,1.0,2273.2954877858883,0.18849693697921083,1.3342174225054302,0.8874095510537696,0.2882936375,0.6438096763196007
0.019,1.790975,1.0,2305.526794657942,0.19304882831317774,1.3336858349624185,0.8919351036770828,0.28827395,0.6449418480402856
0.0195,1.79049375,1.0,2335.9670098613055,0.19757518666288892,1.333168425587034,0.896176650311801,0.2882537375,0.6460420924485237
0.02,1.79,1.0,2364.692972523268,0.2020761550836902,1.3326640576014916,0.9001571033609298,0.288233,0.6471129616712739
0.0205,1.78949375,1.0,2391.7850726576853,0.206551876358909,1.3321716107895236,0.9038971523009844,0.2882117375,0.648156954673129
0.021,1.788975,1.0,2417.31432672441,0.21100249162327636,1.331690101480754,0.9074155352295924,0.28818995000000003,0.649176264603594
0.021500000000000002,1.78844375,1.0,2441.368258951832,0.215428144672177,1.3312184263719262,0.9107291997044604,0.2881676375,0.6501733228051814
0.022,1.7879,1.0,2464.0037268031297,0.2198289737017142,1.3307558132333122,0.9138535845782111,0.2881448,0.6511498469782218
0.0225,1.78734375,1.0,2485.2805646117986,0.22420511690799136,1.3303014898351844,0.916802715757167,0.28812143749999997,0.6521075440454642
0.023,1.786775,1.0,2505.261338384017,0.22855671248711185,1.3298546839478151,0.9195893550655517,0.28809755,0.6530481105793591
0.0235,1.78619375,1.0,2524.011113823331,0.23288389863517894,1.329414623341477,0.9222251316663304,0.28807313749999996,0.6539732331913037
0.024,1.7856,1.0,2541.588565499702,0.23718681148480406,1.3289806174743035,0.9247206719958804,0.2880482,0.6548844174943431
0.0245,1.78499375,1.0,2558.05846819722,0.2414655899448008,1.3285519369602723,0.9270856820270201,0.2880227375,0.655783242090731
0.025,1.784375,1.0,2573.4748670476283,0.2457203697078972,1.3281279700707715,0.9293290631150286,0.28799675,0.6566710307947541
0.025500000000000002,1.78374375,1.0,2587.8829451498673,0.2499512836507021,1.3277082020567117,0.9314589873816564,0.2879702375,0.6575488976554764
0.026000000000000002,1.7831000000000001,1.0,2601.3291680815123,0.2541584646498242,1.3272921181690032,0.9334829536406585,0.2879432,0.658417950843263
0.0265,1.78244375,1.0,2613.8611744881423,0.25834204558187235,1.3268792036585566,0.9354078519560619,0.2879156375,0.6592792927791706
0.027,1.781775,1.0,2625.527672548057,0.2625021593234552,1.326468943776282,0.9372400212232697,0.28788755,0.6601340202474453
0.0275,1.7810937500000001,1.0,2636.372454426801,0.2666389370873608,1.3260608782287493,0.9389853081119266,0.2878589375,0.6609831112522218
0.028,1.7804,1.0,2646.4371144098773,0.27075251039920173,1.3256545747206487,0.9406491090962436,0.2878298,0.6618274807509994
0.0285,1.77969375,1.0,2655.7751193915547,0.274843013434925,1.3252494983344274,0.942236393379084,0.2878001375,0.6626682520191431
0.029,1.778975,1.0,2664.4178501448478,0.2789105732707285,1.324845324148356,0.9437517816413472,0.28776995,0.663506107713487
0.029500000000000002,1.7782437500000001,1.0,2672.3972115548004,0.28295531698280996,1.324441727240705,0.9451995501078415,0.2877392375,0.6643417271207526
0.03,1.7775,1.0,2679.7455866214077,0.2869773716473672,1.3240383826897455,0.946583660630001,0.287708,0.6651757861728764
0.0305,1.77674375,1.0,2686.495792803948,0.2909768643405981,1.3236349655737478,0.9479077877843023,0.2876762375,0.6660089574556093
0.031,1.775975,1.0,2692.681040705316,0.29495392213870036,1.3232311509709829,0.9491753433148503,0.28764395,0.6668419102103753
0.0315,1.7751937500000001,1.0,2698.334895097506,0.2989086721178719,1.3228266139597213,0.9503894982092155,0.2876111375,0.667675310329404
0.032,1.7744,1.0,2703.4849124333696,0.3028412366340631,1.3224210873938154,0.9515532082677772,0.2875778,0.6685097015426966
0.0325,1.77359375,1.0,2708.1657827503586,0.3067517462039202,1.3220142414153504,0.952669221079586,0.2875439375,0.6693457535895933
0.033,1.772775,1.0,2712.3999900657163,0.3106403229100438,1.3216058597982197,0.9537401087062486,0.28750955,0.670183899692117
0.0335,1.7719437500000002,1.0,2716.2091081932035,0.31450708797436555,1.3211957363451976,0.9547682718207657,0.2874746375,0.6710245502349054
0.034,1.7711000000000001,1.0,2719.6148794432474,0.3183521626188173,1.3207836648590585,0.9557559523264528,0.2874392,0.6718681133915536
0.0345,1.7702437500000001,1.0,2722.6391972493648,0.3221756680653308,1.320369439142577,0.9567052457288419,0.2874032375,0.6727149951003526
0.035,1.7693750000000001,1.0,2725.3040897374563,0.32597772553583787,1.3199528529985276,0.9576181124053874,0.28736675,0.6735655990373169
0.035500000000000004,1.76849375,1.0,2727.631704237639,0.32975845625227024,1.3195337002296843,0.9584963878826945,0.2873297375,0.6744203265864995
0.036000000000000004,1.7676,1.0,2729.6352286615947,0.33351797313504516,1.3191118570257465,0.959341798794065,0.2872922,0.6752794091376898
0.0365,1.76669375,1.0,2731.3409750682613,0.3372564026980673,1.3186870810473765,0.9601559555293292,0.2872541375,0.6761433175175474
0.037,1.765775,1.0,2732.773874789138,0.3409738707373147,1.318259143272853,0.9609403707456262,0.28721555,0.6770124927398904
0.0375,1.76484375,1.0,2733.946442959148,0.344670491409566,1.3178279280837142,0.9616964738909293,0.2871764375,0.6778871432717264
0.038,1.7639,1.0,2734.871244167261,0.34834637887159964,1.3173933198614973,0.9624256086826438,0.28713679999999997,0.6787674761074529
0.0385,1.76294375,1.0,2735.560886535216,0.3520016472801942,1.3169552029877403,0.9631290391864255,0.28709663750000003,0.6796536967442613
0.039,1.761975,1.0,2736.028016092128,0.3556364107921281,1.3165134618439804,0.9638079554003829,0.28705595,0.6805460091566937
0.0395,1.7609937500000001,1.0,2736.2853114463387,0.35925078356417994,1.316067980811756,0.9644634783898116,0.2870147375,0.6814446157703428
0.04,1.76,1.0,2736.3454787528804,0.36284487975312835,1.315618644272604,0.9650966650130578,0.286973,0.6823497174347047
0.0405,1.7589937500000001,1.0,2736.221246977886,0.3664188135157518,1.3151653366080625,0.9657085122750724,0.2869307375,0.6832615133951745
0.041,1.757975,1.0,2735.925363458757,0.36997269900882873,1.314707942199669,0.9662999613415963,0.28688795,0.6841802012641893
0.0415,1.75694375,1.0,2735.470589761296,0.3735066503891378,1.3142463454289615,0.9668719012437068,0.2868446375,0.6851059769915238
0.042,1.7559,1.0,2734.8668764428216,0.3770207772237981,1.313780456297666,0.9674251736808938,0.28680079999999997,0.6860389835638664
0.0425,1.75484375,1.0,2734.1228049121682,0.38051518875297535,1.3133101973179058,0.967960575723643,0.2867564375,0.6869793375529814
0.043000000000000003,1.753775,1.0,2733.2544258052003,0.3839900077693608,1.3128354232161348,0.9684788583505466,0.28671155,0.6879272894808095
0.043500000000000004,1.75269375,1.0,2732.2680612729905,0.3874453408433623,1.3123560770940643,0.9689807372048418,0.28666613750000003,0.6888829116785936
0.044,1.7516,1.0,2731.17003688272,0.39088129454538745,1.3118721020534057,0.9694668903677538,0.2866202,0.6898462753851726
0.0445,1.75049375,1.0,2729.966680300597,0.3942979754458442,1.3113834411958698,0.9699379606977726,0.2865737375,0.690817450730288
0.045,1.7493750000000001,1.0,2728.6643200450144,0.3976954901151403,1.310890037623168,0.9703945580020574,0.28652675,0.6917965067176823
0.0455,1.74824375,1.0,2727.2692843125637,0.4010739451236835,1.3103918344370116,0.9708372610535463,0.2864792375,0.6927835112079936
0.046,1.7471,1.0,2725.787899875473,0.4044334470418815,1.3098887747391115,0.9712666194661196,0.2864312,0.6937785309014421
0.0465,1.7459437500000001,1.0,2724.226491050719,0.40777410244014217,1.309380801631179,0.9716831554390796,0.28638263750000004,0.6947816313203097
0.047,1.744775,1.0,2722.591378740887,0.4110960178888732,1.3088678582149251,0.9720873653812103,0.28633355,0.6957928767912147
0.0475,1.74359375,1.0,2720.8888795474368,0.41439929995848235,1.3083498875920614,0.9724797214237945,0.28628393750000003,0.6968123304271783
0.048,1.7424,1.0,2719.1251672236885,0.41768405382452556,1.307826834118607,0.9728606727438758,0.2862338,0.6978400516470524
0.0485,1.74119375,1.0,2717.305051652157,0.4209503620815194,1.307298654523728,0.973230645054131,0.2861831375,0.6988760743874569
0.049,1.739975,1.0,2715.4371195729286,0.42419836355037804,1.306765271076885,0.9735900483625695,0.28613195,0.6999204989194048
0.0495,1.73874375,1.0,2713.524368835612,0.4274281566750491,1.3062266569040974,0.9739392719174171,0.2860802375,0.7009733246216205
0.05,1.7375,1.0,2711.5697943280575,0.43063983989948024,1.3056827851313848,0.9742786868439914,0.286028,0.7020345499818865
0.0505,1.73624375,1.0,2709.5763877373934,0.43383351166761924,1.3051336288847668,0.9746086471480986,0.2859752375,0.703104172588053
0.051000000000000004,1.734975,1.0,2707.547137327274,0.4370092704234137,1.3045791612902624,0.9749294906552275,0.28592195,0.7041821891190061
0.051500000000000004,1.73369375,1.0,2705.48502773065,0.4401672146108113,1.3040193554738915,0.9752415398901798,0.2858681375,0.7052685953355855
0.052000000000000005,1.7324,1.0,2703.393039759135,0.4433074426737599,1.3034541845616732,0.9755451029014046,0.2858138,0.7063633860714604
0.0525,1.73109375,1.0,2701.274150228192,0.44643005305620687,1.302883621679627,0.9758404740339662,0.28575893750000003,0.7074665552239562
0.053,1.729775,1.0,2699.131331797876,0.44953514420210017,1.3023076399537723,0.976127934654763,0.28570355000000003,0.7085780957448354
0.0535,1.72844375,1.0,2696.967552830468,0.45262281455538744,1.3017262125101288,0.976407753833331,0.2856476375,0.7096979996310351
0.054,1.7271,1.0,2694.785777263338,0.4556931625600163,1.3011393124747157,0.9766801889813104,0.2855912,0.7108262579153557
0.0545,1.7257437500000001,1.0,2692.5889644982817,0.45874628665993444,1.3005469129735523,0.9769454864534098,0.2855342375,0.7119628606571046
0.055,1.724375,1.0,2690.3800693063417,0.4617822852990896,1.2999489871326584,0.9772038821124964,0.28547675,0.7131077969326924
0.0555,1.72299375,1.0,2688.1620417494296,0.4648012569214295,1.2993455080780534,0.9774556018612273,0.2854187375,0.7142610548261865
0.056,1.7216,1.0,2685.932524401805,0.46780325815674717,1.2987364975247553,0.9777008611037815,0.2853602,0.7154225288477101
0.0565,1.72019375,1.0,2683.696818729157,0.4707884228008587,1.2981219070164922,0.9779398693803332,0.28530113749999997,0.7165922466736288
0.057,1.718775,1.0,2681.458558416514,0.47375686463104943,1.2975017033113676,0.9781728265910697,0.28524155,0.7177702057615912
0.0575,1.71734375,1.0,2679.2185299968965,0.4767086724395853,1.296875879233348,0.9783999237095695,0.2851814375,0.7189563530912839
0.058,1.7159,1.0,2676.9775187007817,0.47964393501873226,1.2962444276064,0.9786213439944481,0.2851208,0.7201506349239681
0.0585,1.71444375,1.0,2674.736308452727,0.4825627411607562,1.29560734125449,0.9788372633603705,0.2850596375,0.7213529967999093
0.059000000000000004,1.7129750000000001,1.0,2672.4956818689125,0.485465179657923,1.2949646130015846,0.9790478507283819,0.28499795,0.7225633835357954
0.059500000000000004,1.71149375,1.0,2670.2564202562153,0.48835133930249863,1.2943162356716504,0.9792532683568568,0.2849357375,0.7237817392221604
0.06,1.71,1.0,2668.0193036122587,0.491221308886749,1.2936622020886537,0.9794536721542896,0.284873,0.7250080072207996
0.0605,1.7084937500000001,1.0,2665.785110626545,0.4940751772029399,1.2930025050765612,0.9796492119750483,0.2848097375,0.7262421301621802
0.061,1.7069750000000001,1.0,2663.5546186829165,0.49691303304333745,1.2923371374593393,0.9798400318991471,0.28474595,0.7274840499428551
0.0615,1.7054437500000001,1.0,2661.328603862681,0.49973496520020744,1.2916660920609546,0.9800262704970144,0.2846816375,0.7287337077228659
0.062,1.7039,1.0,2659.107840949875,0.5025410624658158,1.2909893617053736,0.98020806108017,0.2846168,0.7299910439231482
0.0625,1.70234375,1.0,2656.8931034362477,0.5053314136324284,1.2903069392165627,0.9803855319386595,0.2845514375,0.7312559982229304
0.063,1.7007750000000001,1.0,2654.685163528781,0.5081061074923112,1.2896188174184886,0.9805588065660399,0.28448555,0.7325285095571306
0.0635,1.69919375,1.0,2652.4847921575374,0.5108652328377302,1.2889249891351178,0.980728003872659,0.28441913750000003,0.7338085161137502
0.064,1.6976,1.0,2650.292758984589,0.5136088784609513,1.2882254471904164,0.9808932383879138,0.2843522,0.7350959553312643
0.0645,1.69599375,1.0,2648.1098324148275,0.5163371331542402,1.2875201844083515,0.9810546204521385,0.2842847375,0.7363907638960063
0.065,1.694375,1.0,2645.936779607017,0.519050085709863,1.2868091936128894,0.9812122563987248,0.28421675,0.737692877739554
0.0655,1.69274375,1.0,2643.7743664865957,0.5217478249200856,1.2860924676279966,0.9813662487270346,0.2841482375,0.7390022320361089
0.066,1.6911,1.0,2641.6219804064576,0.524430438194744,1.2853700120037947,0.981516696796401,0.2840792,0.7403187380387566
0.0665,1.6894437500000001,1.0,2639.478263018468,0.5270980063328022,1.284641839192671,0.9816636963257795,0.2840096375,0.7416422939445586
0.067,1.687775,1.0,2637.3467119315133,0.5297506134222612,1.2839079167642427,0.9818073377176106,0.28393955,0.7429728788220277
0.0675,1.68609375,1.0,2635.227407157329,0.5323883420268971,1.28316824385168,0.9819477096165968,0.2838689375,0.7443104135011336
0.068,1.6844000000000001,1.0,2633.1204286302154,0.5350112747104866,1.2824228195881537,0.9820848975876834,0.2837978,0.7456548181628737
0.0685,1.68269375,1.0,2631.0258562090075,0.5376194940368062,1.2816716431068338,0.9822189842430108,0.2837261375,0.7470060123389555
0.069,1.680975,1.0,2628.943769679671,0.5402130825696322,1.2809147135408907,0.9823500493627805,0.28365395,0.7483639149114775
0.0695,1.67924375,1.0,2626.8742487567224,0.5427921228727411,1.2801520300234945,0.9824781700103581,0.28358123749999997,0.7497284441126117
0.07,1.6775,1.0,2624.8161139899016,0.5453566961761696,1.2793836033585095,0.9826034211008348,0.283508,0.7510994967296397
0.07050000000000001,1.67574375,1.0,2622.769091915165,0.5479068849327972,1.278609435966423,0.9827258747250578,0.2834342375,0.7524769840257386
0.07100000000000001,1.673975,1.0,2620.7348121793816,0.55044277076561,1.2778295126181989,0.9828455997074883,0.28335995,0.7538608479538714
0.07150000000000001,1.67219375,1.0,2618.7131209222143,0.5529644326645781,1.2770438346126192,0.9829626631784473,0.2832851375,0.7552510003288766
0.07200000000000001,1.6704,1.0,2616.7038645797,0.5554719496196716,1.276252403248466,0.983077130057759,0.2832098,0.7566473523579305
0.0725,1.66859375,1.0,2614.70688988121,0.5579654006208605,1.2754552198245215,0.9831890631408028,0.2831339375,0.7580498146410222
0.073,1.6667750000000001,1.0,2612.7220438462887,0.5604448646581153,1.2746522856395681,0.983298523180657,0.28305755,0.7594582971714321
0.0735,1.66494375,1.0,2610.749173781563,0.5629104207214058,1.273843601992388,0.9834055689665409,0.2829806375,0.7608727093362073
0.074,1.6631,1.0,2608.7899217107943,0.5653621461792898,1.2730291534979579,0.9835102565677333,0.2829032,0.762292988967438
0.0745,1.6612468366264381,1.0,2606.9841067277302,0.5678001204997369,1.2722090335412308,0.983612645162057,0.2828253671383104,0.7637188841152713
0.075,1.6593931210251625,1.0,2605.7240769667187,0.570224421078172,1.2713835923007981,0.9837128032109355,0.28274751108305685,0.7651496997127366
