Time [s],Phi [rad],STIM [ ],Fsee [N],Gamma [ ],Lcerel [ ],q [ ],Lmtc [m],fisomrel [ ]
0.0,1.8,1.0,18.019395797910622,0.000233271281822608,1.3793338981057546,0.005014146270138541,0.288653,0.5411536790430262
0.0005,1.79999375,1.0,18.401402164564153,0.00584117212324486,1.3792885642412474,0.013571974681134105,0.2886527375,0.5412633451397104
0.001,1.799975,1.0,21.90884389745118,0.011417617074819269,1.3789087346459241,0.036781525772546404,0.28865195,0.5421816671206144
0.0015,1.79994375,1.0,31.718165564958788,0.0169627825801965,1.3779912028692738,0.07220111114308056,0.2886506375,0.5443962071219373
0.002,1.7999,1.0,54.94429651179671,0.022476844091175847,1.376280332469856,0.11660807349775186,0.2886488,0.548511197054766
0.0025,1.79984375,1.0,99.37760541701573,0.027959976076539845,1.3738269530113216,0.16662859290837873,0.28864643749999996,0.5543794936296912
0.003,1.7997750000000001,1.0,163.87746885384811,0.03341235202788794,1.3711055625283437,0.2193975588811725,0.28864354999999997,0.560843945983806
0.0035,1.79969375,1.0,240.97098163661738,0.03883414446083844,1.3684838136996293,0.2727174791585073,0.2886401375,0.5670270377594926
0.004,1.7996,1.0,324.9581676613542,0.04422552492526487,1.3660638683742252,0.3249528381745783,0.2886362,0.5726952942311796
0.0045000000000000005,1.7994937500000001,1.0,412.8789232334394,0.049586664010663396,1.3638382323518323,0.3749676466451474,0.2886317375,0.57787544859405
0.005,1.799375,1.0,503.09488528017255,0.05491773133800497,1.361780256939521,0.42205569151601396,0.28862675,0.5826372630381831
0.0055,1.79924375,1.0,594.5017908488759,0.06021889559777941,1.3598664373194476,0.4658476011121065,0.2886212375,0.5870412860044902
0.006,1.7991000000000001,1.0,686.2308982836394,0.06549032451713171,1.3580790176415851,0.5062181254002157,0.2886152,0.5911333454235885
0.006500000000000001,1.79894375,1.0,777.56900582763,0.07073218487150636,1.3564043761577915,0.5432070830438452,0.2886086375,0.5949487265802789
0.007,1.798775,1.0,867.9285107831233,0.07594464258010906,1.3548316155949582,0.5769583248115763,0.28860155,0.598515703361836
0.0075,1.79859375,1.0,956.818645857522,0.08112786241390371,1.3533518368471484,0.6076755084472735,0.2885939375,0.6018573960355427
0.008,1.7984,1.0,1043.8632737578746,0.08628200865260054,1.3519570883300212,0.6355910901892773,0.2885858,0.6049942856321866
0.0085,1.79819375,1.0,1128.7408567405844,0.09140724411838272,1.3506407698987164,0.6609464336088652,0.2885771375,0.6079434007807252
0.009000000000000001,1.797975,1.0,1211.2055117235939,0.09650373089806473,1.3493969024840453,0.6839786386582916,0.28856795,0.6107200399698806
0.0095,1.79774375,1.0,1291.0997533155387,0.10157163074499602,1.348219705765581,0.7049127780525413,0.2885582375,0.6133387644022075
0.01,1.7975,1.0,1368.284199764485,0.10661110357939467,1.3471043443128288,0.7239582770138978,0.288548,0.6158117798442642
0.0105,1.79724375,1.0,1442.6687057151184,0.11162230874429847,1.3460463035186667,0.7413068175250481,0.2885372375,0.6181503693273813
0.011,1.796975,1.0,1514.2183725286156,0.11660540508240208,1.3450411927490282,0.7571319620497017,0.28852595000000003,0.6203653549308927
0.0115,1.79669375,1.0,1582.916916571049,0.12156055053421105,1.3440850964358708,0.7715899213810236,0.2885141375,0.6224663469729512
0.012,1.7964,1.0,1648.753212744496,0.12648790124489748,1.3431746192965734,0.784820634533282,0.28850180000000003,0.6244616730569257
0.0125,1.79609375,1.0,1711.752666216488,0.13138761300525403,1.3423064253723858,0.7969488788746059,0.2884889375,0.6263594105509545
0.013000000000000001,1.7957750000000001,1.0,1771.9701131852687,0.136259841549245,1.3414772709382694,0.8080857085906069,0.28847555,0.6281673259966574
0.0135,1.79544375,1.0,1829.460460446055,0.1411047415053401,1.3406842851823664,0.8183299670017041,0.2884616375,0.6298922762429211
0.014,1.7951000000000001,1.0,1884.2680104905664,0.14592246508476978,1.339925025754345,0.8277696181984525,0.2884472,0.6315401048020024
0.0145,1.79474375,1.0,1936.460899106299,0.15071316449876443,1.3391970503038746,0.8364828116893855,0.2884322375,0.6331165850291798
0.015,1.794375,1.0,1986.1229921820486,0.15547699148354818,1.3384979808129283,0.8445390365755467,0.28841675,0.6346272863060283
0.0155,1.79399375,1.0,2033.3428169477766,0.16021409749763652,1.337825596042203,0.8520001654242711,0.2884007375,0.6360773809270737
0.016,1.7936,1.0,2078.206787583571,0.16492463317665684,1.3371778752626304,0.8589213633469226,0.2883842,0.6374715575043943
0.0165,1.7931937500000001,1.0,2120.780825511884,0.16960874626219102,1.3365531618037103,0.8653519259002295,0.2883671375,0.6388136775507831
0.017,1.792775,1.0,2161.1430122724237,0.174266584495821,1.3359497989949423,0.8713358649121534,0.28834955,0.640107565546103
0.0175,1.7923437500000001,1.0,2199.3825675168937,0.17889829561912865,1.3353661301658257,0.8769125329769292,0.2883314375,0.6413570112806073
0.018000000000000002,1.7919,1.0,2235.583163839079,0.1835040258384711,1.3348006565722317,0.882117212531531,0.2883128,0.6425654348176103
0.0185,1.79144375,1.0,2269.844092147108,0.1880839230937932,1.3342518114710733,0.8869815328333146,0.2882936375,0.6437363728581189
0.019,1.790975,1.0,2302.2367883423035,0.1926381312833073,1.3337183851908863,0.8915339956059684,0.28827395,0.644872574571388
0.0195,1.79049375,1.0,2332.8316842966283,0.19716679345484103,1.3331992420272627,0.8958002628889613,0.2882537375,0.6459766106902347
0.02,1.79,1.0,2361.70499644304,0.20167005265622204,1.3326932462757952,0.8998034617480186,0.288233,0.6470510327884984
0.0205,1.78949375,1.0,2388.9382382744543,0.206148051935278,1.3321992622320766,0.9035644688293362,0.2882117375,0.6480983742744387
0.021,1.788975,1.0,2414.6012128043017,0.2106009320991577,1.331716314120297,0.9071021936080166,0.28818995000000003,0.6491208129669785
0.021500000000000002,1.78844375,1.0,2438.783153008563,0.2150288372364545,1.3312432785289479,0.9104337307657289,0.2881676375,0.6501208240733223
0.022,1.7879,1.0,2461.543510581355,0.2194319060847623,1.330779355508016,0.9135746493081156,0.2881448,0.6511001848523645
0.0225,1.78734375,1.0,2482.940589959889,0.2238102767276678,1.3303237851228882,0.9165390991442582,0.28812143749999997,0.65206057711125
0.023,1.786775,1.0,2503.035424606692,0.22816408724875775,1.3298758074389503,0.9193399530883005,0.28809755,0.653003672405933
0.0235,1.78619375,1.0,2521.891547564161,0.2324934757316188,1.329434662521589,0.921988939796861,0.28807313749999996,0.6539311324275727
0.024,1.7856,1.0,2539.568595576867,0.2367985790176548,1.3289996486655435,0.9244967712404527,0.2880482,0.654844487174582
0.0245,1.78499375,1.0,2556.1283234787984,0.24107953444176888,1.3285700630432289,0.926873235751249,0.2880227375,0.6557452604329357
0.025,1.784375,1.0,2571.6348763908377,0.2453364794127621,1.3281451975081244,0.9291272893769891,0.28799675,0.6566349788021493
0.025500000000000002,1.78374375,1.0,2586.1318885161368,0.24956954672373838,1.3277245509643336,0.9312671713754533,0.2879702375,0.6575147279822255
0.026000000000000002,1.7831000000000001,1.0,2599.6642661868873,0.2537788691678018,1.3273076223159606,0.9333004411939317,0.2879432,0.6583855879268894
0.0265,1.78244375,1.0,2612.278081056548,0.25796457953805624,1.3268939104671091,0.9352340437341075,0.2879156375,0.6592486329704135
0.027,1.781775,1.0,2624.0204688595554,0.2621268106276058,1.326482914321883,0.9370743675557328,0.28788755,0.6601049319384247
0.0275,1.7810937500000001,1.0,2634.938633851771,0.2662656947900839,1.3260741411094918,0.9388272979300148,0.2878589375,0.6609555309301889
0.028,1.7804,1.0,2645.0738855668433,0.2703813614501629,1.3256671605342116,0.9404982701730923,0.2878298,0.6618013410382144
0.0285,1.77969375,1.0,2654.4760781200466,0.2744739459524599,1.325261470364402,0.9420922945594229,0.2878001375,0.6626434180369494
0.029,1.778975,1.0,2663.17773825758,0.2785435755236527,1.3248567344630948,0.9436140226216644,0.28776995,0.6634824683481324
0.029500000000000002,1.7782437500000001,1.0,2671.211931399763,0.282590377390419,1.3244526166933235,0.9450677587301777,0.2877392375,0.6643191949006866
0.03,1.7775,1.0,2678.612213710618,0.28661447877943647,1.3240487809181198,0.9464574904463172,0.287708,0.6651542971475777
0.0305,1.77674375,1.0,2685.4125866720847,0.2906160069173829,1.323644891000517,0.9477869158612833,0.2876762375,0.6659884710754576
0.031,1.775975,1.0,2691.6474541636067,0.294595089030936,1.323240610803547,0.9490594682526687,0.28764395,0.6668224092071104
0.0315,1.7751937500000001,1.0,2697.3476894522964,0.2985518497676682,1.3228356397826941,0.9502783419797275,0.2876111375,0.6676567273153653
0.032,1.7744,1.0,2702.539618389921,0.30248641252956,1.3224297217566126,0.9514465137465513,0.2875778,0.6684919468365862
0.0325,1.77359375,1.0,2707.2646540642095,0.3063989123686129,1.3220224652184145,0.9525667426651311,0.2875439375,0.669328864459997
0.033,1.772775,1.0,2711.5431996009056,0.31028946986801326,1.321613672827211,0.9536416190730277,0.28750955,0.6701678745235705
0.0335,1.7719437500000002,1.0,2715.3958424428074,0.3141582056109473,1.3212031472421129,0.9546735595750795,0.2874746375,0.6710093692658214
0.034,1.7711000000000001,1.0,2718.8433368017063,0.3180052401806014,1.320790691122231,0.9556648207638321,0.2874392,0.6718537388052341
0.0345,1.7702437500000001,1.0,2721.9065869738356,0.3218306941601618,1.3203761071266762,0.9566175117021207,0.2874032375,0.6727013711172083
0.035,1.7693750000000001,1.0,2724.606631518876,0.32563468813281476,1.3199591979145595,0.9575336052924979,0.28736675,0.6735526520085195
0.035500000000000004,1.76849375,1.0,2726.9646283024013,0.3294173426817466,1.319539766144992,0.958414948644409,0.2873297375,0.6744079650892981
0.036000000000000004,1.7676,1.0,2729.001840401594,0.3331787783901436,1.319117614477084,0.959263272537893,0.2872922,0.675267691742523
0.0365,1.76669375,1.0,2730.73962287449,0.336919115841192,1.3186925455699468,0.9600802000718797,0.2872541375,0.6761322110910313
0.037,1.765775,1.0,2732.190152453995,0.3406384686923062,1.318264446192346,0.9608672614318648,0.28721555,0.6770017292406865
0.0375,1.76484375,1.0,2733.376175500512,0.34433696102980926,1.317833107652627,0.9616258867328626,0.2871764375,0.677876644387352
0.038,1.7639,1.0,2734.318393792239,0.3480147137389237,1.3173983403790968,0.9623574213932085,0.28713679999999997,0.6787573135350607
0.0385,1.76294375,1.0,2735.028513292195,0.35167184022484965,1.3169600369308663,0.9630631372425738,0.28709663750000003,0.6796439253468873
0.039,1.761975,1.0,2735.518276722495,0.3553084538927874,1.3165180898670474,0.9637442315101616,0.28705595,0.6805366670501138
0.0395,1.7609937500000001,1.0,2735.7994586691693,0.3589246681479374,1.3160723917467512,0.9644018320015884,0.2870147375,0.6814357244116336
0.04,1.76,1.0,2735.8838609414706,0.36252059639549966,1.3156228351290893,0.9650370018631836,0.286973,0.682341281712614
0.0405,1.7589937500000001,1.0,2735.7833081883414,0.3660963520406746,1.3151693125731732,0.9656507439706218,0.2869307375,0.6832535217224283
0.041,1.757975,1.0,2735.509643770125,0.3696520484886625,1.3147117166381141,0.966244004975154,0.28688795,0.6841726256718474
0.0415,1.75694375,1.0,2735.0747258864467,0.37318779914466355,1.3142499398830236,0.9668176790374587,0.2868446375,0.6850987732254976
0.042,1.7559,1.0,2734.4904239599296,0.3767037174138781,1.313783874867013,0.9673726112762167,0.28680079999999997,0.6860321424535802
0.0425,1.75484375,1.0,2733.7643984710116,0.3801999110578644,1.3133134524484382,0.9679096031996327,0.2867564375,0.686972833274363
0.043000000000000003,1.753775,1.0,2732.9077249549623,0.38367649463905507,1.3128385725305964,0.9684294118699792,0.28671155,0.687921006176718
0.043500000000000004,1.75269375,1.0,2731.932672793216,0.38713358322110963,1.312359124197483,0.9689327533364633,0.28666613750000003,0.6888768416153743
0.044,1.7516,1.0,2730.8457138334757,0.39057128335453783,1.3118750492134221,0.9694203088708255,0.2866202,0.6898404135144309
0.0445,1.75049375,1.0,2729.6533219933694,0.3939897015898495,1.311386289342738,0.9698927243243396,0.2865737375,0.6908117946727064
0.045,1.7493750000000001,1.0,2728.361971982386,0.3973889444775543,1.3108927863497544,0.9703506123132998,0.28652675,0.6917910567464477
0.0455,1.74824375,1.0,2726.9781380998506,0.4007691185681621,1.3103944819987952,0.9707945542490736,0.2864792375,0.6927782702318228
0.046,1.7471,1.0,2725.5082931078027,0.4041303304121826,1.3098913180541845,0.9712251022251805,0.2864312,0.6937735044471949
0.0465,1.7459437500000001,1.0,2723.958907178994,0.40747268656012564,1.309383236280246,0.9716427807727416,0.28638263750000004,0.6947768275151833
0.047,1.744775,1.0,2722.3364469201197,0.41079629356250097,1.3088701784413044,0.9720480884946539,0.28633355,0.6957883063445052
0.0475,1.74359375,1.0,2720.6473744708583,0.4141012579698184,1.3083520863016829,0.9724414995879372,0.28628393750000003,0.6968080066116056
0.048,1.7424,1.0,2718.894647350537,0.4173876779861427,1.307828933495221,0.9728234664576026,0.2862338,0.6978359301760041
0.0485,1.74119375,1.0,2717.0837173244236,0.4206556603486787,1.3073006709196004,0.9731944192889227,0.2861831375,0.6988721226159549
0.049,1.739975,1.0,2715.2246115066105,0.42390532193031294,1.3067672077281307,0.9735547661630726,0.28613195,0.6999167100213198
0.0495,1.73874375,1.0,2713.3203700020968,0.42713676195225997,1.3062285166617813,0.9739048981247177,0.2860802375,0.7009696925482307
0.05,1.7375,1.0,2711.374029930244,0.4303500796357343,1.3056845704615216,0.9742451879928293,0.286028,0.702031069457127
0.0505,1.73624375,1.0,2709.388625180327,0.4335453742019505,1.3051353418683216,0.9745759913708517,0.2859752375,0.7031008391036433
0.051000000000000004,1.734975,1.0,2707.3671861847015,0.4367227448721231,1.30458080362315,0.9748976475921622,0.28592195,0.7041789989294518
0.051500000000000004,1.73369375,1.0,2705.31273970714,0.4398822908674666,1.3040209284669775,0.9752104806055105,0.2858681375,0.7052655454530516
0.052000000000000005,1.7324,1.0,2703.2283086486573,0.4430241114091957,1.3034556891407727,0.9755147998047354,0.2858138,0.706360474260519
0.0525,1.73109375,1.0,2701.1169118694143,0.44614830571852476,1.3028850583855058,0.9758109008067304,0.28575893750000003,0.7074637799962014
0.053,1.729775,1.0,2698.981564027133,0.44925497301666845,1.3023090089421459,0.9760990661812997,0.28570355000000003,0.7085754563533724
0.0535,1.72844375,1.0,2696.8252754318873,0.45234421252484125,1.3017275135516628,0.9763795661362701,0.2856476375,0.7096954960648314
0.054,1.7271,1.0,2694.6510519175936,0.4554161234642578,1.3011405449550262,0.9766526591609631,0.2855912,0.7108238908934625
0.0545,1.7257437500000001,1.0,2692.4618947297226,0.4584708050561325,1.3005480758932055,0.9769185926308861,0.2855342375,0.7119606316227423
0.055,1.724375,1.0,2690.256875667374,0.4615083550875218,1.2999501150410169,0.9771776053872316,0.28547675,0.7131056393076555
0.0555,1.72299375,1.0,2688.0415632753366,0.4645288676297641,1.299346611582228,0.9774299223085787,0.2854187375,0.7142589481321386
0.056,1.7216,1.0,2685.819063495064,0.46753243750627344,1.2987375371831522,0.9776757602466706,0.2853602,0.7154205480795433
0.0565,1.72019375,1.0,2683.589679803039,0.4705191594544835,1.2981228891539522,0.9779153285285761,0.28530113749999997,0.7165903793447076
0.057,1.718775,1.0,2681.353392030507,0.473489128108813,1.2975026677687493,0.9781488280244724,0.28524155,0.7177683758624909
0.0575,1.7173457188964192,1.0,2679.207321891075,0.4764424377093749,1.2968768712414644,0.9783764512514762,0.2851815201936496,0.7189544748784404
0.058,1.7159152347648954,1.0,2677.5833037772013,0.47937918193051104,1.29624574802473,0.9785983969703976,0.2851214398601256,0.7201481402336358
0.0585,1.7144847506333718,1.0,2676.4977802654257,0.48229945314679407,1.2956096861397772,0.978814863663484,0.2850613595266016,0.7213485760852756
0.059000000000000004,1.7130542665018482,1.0,2675.9081566814643,0.4852033437327966,1.2949690736078376,0.9790260419668495,0.2850012791930776,0.7225549923945602
0.059500000000000004,1.7116237823703244,1.0,2675.773918317449,0.4880909456726937,1.2943242808656268,0.979232114058912,0.2849411988595536,0.7237666380514403
0.06,1.7101932982388008,1.0,2676.055715779552,0.49096235089708395,1.2936756688223108,0.9794332545328148,0.2848811185260296,0.7249827855285984
0.0605,1.7087628141072773,1.0,2676.721783112897,0.4938176498184625,1.2930235296534887,0.9796296274587173,0.28482103819250565,0.7262028414203159
0.061,1.7073323299757537,1.0,2677.742026439737,0.4966569325074732,1.2923681408476917,0.9798213898479473,0.28476095785898164,0.7274262443152562
0.0615,1.7059018458442299,1.0,2679.0892172992817,0.49948028803566263,1.2917097540752578,0.9800086913435532,0.28470087752545764,0.7286524852594153
0.062,1.7044713617127063,1.0,2680.738524074273,0.5022878048236059,1.2910485993500993,0.9801916748053202,0.2846407971919337,0.7298810995419176
0.0625,1.7030408775811827,1.0,2682.6504588598946,0.5050795772063864,1.2903850412755202,0.980370485231557,0.2845807168584097,0.7311113769241531
0.063,1.701610393449659,1.0,2684.8083257303406,0.5078556915895897,1.2897192354375637,0.9805452509490612,0.2845206365248857,0.732342999417964
0.0635,1.7001799093181353,1.0,2687.1954366760947,0.5106162343788012,1.289051337422272,0.9807160955999868,0.2844605561913617,0.7335756515765173
0.064,1.6987494251866118,1.0,2689.7951041186734,0.5133612919796064,1.2883815028156884,0.9808831383514891,0.2844004758578377,0.7348090205158326
0.0645,1.697318941055088,1.0,2692.5906339616936,0.5160909507975908,1.2877098872038553,0.9810464940945499,0.28434039552431367,0.7360427959347733
0.065,1.6958884569235644,1.0,2695.565319178868,0.5188052972383398,1.2870366461728155,0.9812062736326194,0.28428031519078967,0.7372766701334882
0.0655,1.6944579727920408,1.0,2698.7024339387067,0.5215044177074389,1.2863619353086118,0.9813625838606566,0.2842202348572657,0.738510338030314
0.066,1.693027488660517,1.0,2701.985228265665,0.5241883986104736,1.2856859101972868,0.9815155279351264,0.2841601545237417,0.7397434971771294
0.0665,1.6915970045289934,1.0,2705.4040532157787,0.5268573221070615,1.2850086613280671,0.9816652019738898,0.2841000741902177,0.7409759660968851
0.067,1.6901665203974698,1.0,2708.940823480648,0.5295112779994685,1.2843303560308312,0.9818117030106823,0.28403999385669376,0.7422074255082294
0.0675,1.688736036265946,1.0,2712.5862398392974,0.5321503494039512,1.283651081163199,0.9819551204618038,0.28397991352316976,0.7434377045757281
0.068,1.6873055521344225,1.0,2716.3325685024706,0.5347746183064503,1.2829709091463193,0.9820955399457257,0.28391983318964575,0.7446666600028875
0.0685,1.6858750680028989,1.0,2720.1720594023523,0.5373841666929063,1.2822899124013414,0.9822330441950242,0.28385975285612175,0.7458941497335556
0.069,1.684444583871375,1.0,2724.096944810434,0.53997907654926,1.2816081633494139,0.982367713175457,0.28379967252259775,0.7471200329558987
0.0695,1.6830140997398515,1.0,2728.0994380713037,0.5425594298614519,1.2809257344116862,0.9824996241993613,0.28373959218907374,0.7483441701060418
0.07,1.681583615608328,1.0,2732.171732452886,0.5451253086154226,1.2802426980093071,0.9826288520336752,0.28367951185554974,0.7495664228713785
0.07050000000000001,1.6801531314768041,1.0,2736.3060001128683,0.5476767947971128,1.2795591265634256,0.9827554690028784,0.2836194315220258,0.7507866541935414
0.07100000000000001,1.6787226473452805,1.0,2740.4988408251274,0.5502139633059905,1.278875052130839,0.9828795428088708,0.2835593511885018,0.7520048000606564
0.07150000000000001,1.677292163213757,1.0,2744.741383871388,0.5527369003659397,1.2781905562726443,0.983001141902767,0.2834992708549778,0.7532207091859588
0.07200000000000001,1.6758616790822332,1.0,2749.0249133919247,0.5552456923666282,1.2775057189075163,0.9831203324854012,0.2834391905214538,0.7544342346097658
0.0725,1.6744311949507096,1.0,2753.346442098972,0.5577404161085765,1.2768205678688107,0.9832371757581624,0.28337911018792983,0.7556453227193533
0.073,1.673000710819186,1.0,2757.7029737415755,0.5602211483923053,1.2761351309898836,0.9833517309905823,0.2833190298544058,0.756853920386479
0.0735,1.6715702266876624,1.0,2762.091502920774,0.5626879660183349,1.275449436104091,0.9834640555947308,0.2832589495208818,0.7580599749679157
