Time [s],Phi [rad],STIM [ ],Fsee [N],Gamma [ ],Lcerel [ ],q [ ],Lmtc [m],fisomrel [ ]
0.0,1.8,1.0,18.022811848499305,0.00023893684280580372,1.3793335159670934,0.005014838932929693,0.288653,0.541154603520545
0.0005,1.79999375,1.0,18.40653209801225,0.005846805904911646,1.3792879963784916,0.013588298050568496,0.2886527375,0.54126471876017
0.001,1.799975,1.0,21.918131822379866,0.011423219255425995,1.378907792430253,0.03681153096068491,0.28865195,0.5421839439911743
0.0015,1.79994375,1.0,31.736692593462934,0.01696835333700072,1.3779896408884011,0.07224186235869927,0.2886506375,0.5443999725161275
0.002,1.7999,1.0,54.98114269915344,0.02248238360043585,1.3762779722860115,0.11665612970308642,0.2886488,0.5485168608811467
0.0025,1.79984375,1.0,99.43715273472286,0.027965484513535727,1.3738241167889735,0.16668074422885118,0.28864643749999996,0.554386255443061
0.003,1.7997750000000001,1.0,163.9534772519911,0.03341782956690664,1.371102743243314,0.21945127765264674,0.28864354999999997,0.5608506184862466
0.0035,1.79969375,1.0,241.05604549369207,0.038839591275192355,1.368481211672898,0.2727708504700567,0.2886401375,0.5670331525640083
0.004,1.7996,1.0,325.0481792479814,0.044230941187296015,1.3660614973172205,0.32500447500579543,0.2886362,0.5727008296615899
0.0045000000000000005,1.7994937500000001,1.0,412.9718016833783,0.049592049891753864,1.3638360618180072,0.37501663492308,0.2886317375,0.5778804850789645
0.005,1.799375,1.0,503.1893790812684,0.054923087008568204,1.361778256408202,0.4221015047789761,0.28862675,0.5826418787954123
0.0055,1.79924375,1.0,594.5969519799189,0.06022422122725588,1.3598645839883563,0.4658900042305149,0.2886212375,0.5870455395117578
0.006,1.7991000000000001,1.0,686.3260025755367,0.06549562027404904,1.3580772936413779,0.506257085818681,0.2886152,0.5911372824568446
0.006500000000000001,1.79894375,1.0,777.6634033950957,0.07073745092320062,1.35640276860394,0.5432427014931083,0.2886086375,0.594952380521194
0.007,1.798775,1.0,868.0217424046999,0.07594987909380391,1.3548301128095264,0.5769907811458566,0.28860155,0.5985191040930447
0.0075,1.79859375,1.0,956.910232473501,0.08113306955431576,1.3533504308184559,0.6077050264797896,0.2885939375,0.6018605645421291
0.008,1.7984,1.0,1043.9529111437503,0.08628718658507326,1.351955770845782,0.6356179104068097,0.2885858,0.6049972428837738
0.0085,1.79819375,1.0,1128.828300426887,0.09141239300799676,1.3506395339219646,0.6609707979401809,0.2885771375,0.6079461647034039
0.009000000000000001,1.797975,1.0,1211.2906561875793,0.09650885090458093,1.3493957406950932,0.6840007797472699,0.28856795,0.610722628775916
0.0095,1.79774375,1.0,1291.1823326261938,0.10157672203105861,1.348218614396143,0.7049329158653093,0.2885582375,0.6133411880995864
0.01,1.7975,1.0,1368.3640880368969,0.10661616631174828,1.3471033187177868,0.7239766135447816,0.288548,0.6158140501756969
0.0105,1.79724375,1.0,1442.7457064072125,0.11162734308832059,1.3460453408143787,0.7413235372892555,0.2885372375,0.6181524939434329
0.011,1.796975,1.0,1514.292062961633,0.11661041116713973,1.3450402934607197,0.7571472328843798,0.28852595000000003,0.6203673338282538
0.0115,1.79669375,1.0,1582.988194292483,0.12156552854576474,1.3440842456755295,0.7716038867760225,0.2885141375,0.6224682138963706
0.012,1.7964,1.0,1648.8220810016937,0.12649285134313093,1.3431738138734233,0.784833427707659,0.28850180000000003,0.6244634358149523
0.0125,1.79609375,1.0,1711.8188264386167,0.13139253537006249,1.342305665991555,0.7969606201497691,0.2884889375,0.6263610683357077
0.013000000000000001,1.7957750000000001,1.0,1772.0325028295233,0.13626473624167812,1.3414765671081172,0.8080965082160113,0.28847555,0.6281688587884423
0.0135,1.79544375,1.0,1829.5207662464525,0.14110960874180672,1.3406836156348996,0.8183399112943319,0.2884616375,0.6298937309883037
0.014,1.7951000000000001,1.0,1884.3268681545387,0.14592730504507545,1.3399243818584292,0.8277787885039228,0.2884472,0.6315415006956786
0.0145,1.79474375,1.0,1936.5178181131262,0.15071797732611136,1.339196436065233,0.8364912847636126,0.2884322375,0.6331179137775647
0.015,1.794375,1.0,1986.1774792195151,0.15548177736963087,1.3384974002162786,0.8445468807454585,0.28841675,0.6346285396901163
0.0155,1.79399375,1.0,2033.3934159887085,0.16021885644967715,1.3378250631717268,0.8520074445300342,0.2884007375,0.6360785289955957
0.016,1.7936,1.0,2078.2548376511195,0.16492936541661535,1.3371773747275846,0.8589281252372019,0.2883842,0.6374726338386927
0.0165,1.7931937500000001,1.0,2120.8271615904373,0.16961345197820818,1.3365526839924415,0.8653582149860404,0.2883671375,0.6388147031169764
0.017,1.792775,1.0,2161.187937849976,0.17427126384221822,1.3359493400748879,0.8713417225344723,0.28834955,0.6401085487986204
0.0175,1.7923437500000001,1.0,2199.425830938687,0.17890294871640813,1.3353656920835133,0.8769179977287466,0.2883314375,0.6413579482568437
0.018000000000000002,1.7919,1.0,2235.624844558882,0.18350865283575415,1.3348002379472428,0.8821223181292718,0.2883128,0.6425663286685894
0.0185,1.79144375,1.0,2269.88401928613,0.1880885240878945,1.3342514134962065,0.8869863101659436,0.2882936375,0.6437372212238139
0.019,1.790975,1.0,2302.2756263977863,0.19264270647711026,1.333718000804472,0.8915384704611612,0.28827395,0.6448733926628394
0.0195,1.79049375,1.0,2332.8697419822533,0.19717134301782563,1.3331988678423448,0.8958044593584424,0.2882537375,0.6459774058309301
0.02,1.79,1.0,2361.7422154928677,0.20167457672446484,1.3326928825801303,0.899807402404441,0.288233,0.6470518044659554
0.0205,1.78949375,1.0,2388.974183863039,0.20615255061145218,1.3321989129881335,0.903568174881029,0.2882117375,0.6480991141884646
0.021,1.788975,1.0,2414.6360336326134,0.21060540554949017,1.3317159776070204,0.9071056830409377,0.28818995000000003,0.6491215248731464
0.021500000000000002,1.78844375,1.0,2438.8163591249095,0.21503328552065892,1.3312429592153656,0.9104370211266753,0.2881676375,0.6501214986296162
0.022,1.7879,1.0,2461.5755332553586,0.2194363294180709,1.3307790490014366,0.9135777548000421,0.2881448,0.6511008314467641
0.0225,1.78734375,1.0,2482.971589216639,0.2238146752885739,1.3303234896931975,0.9165420331863474,0.28812143749999997,0.6520611994799365
0.023,1.786775,1.0,2503.065283824468,0.22816846117901574,1.3298755240186126,0.9193427283925113,0.28809755,0.6530042686653243
0.0235,1.78619375,1.0,2521.9198688827923,0.23249782513624417,1.3294343947056466,0.9219915684352942,0.28807313749999996,0.653931695104988
0.024,1.7856,1.0,2539.5953354136095,0.23680290414213775,1.328999396686158,0.9244992637024508,0.2880482,0.6548450158805614
0.0245,1.78499375,1.0,2556.151831349941,0.24108383512936965,1.328569842238508,0.9268756040931038,0.2880227375,0.6557457231229656
0.025,1.784375,1.0,2571.6565035905755,0.2453407559149991,1.32814499498151,0.9291295399719696,0.28799675,0.6566354026421708
0.025500000000000002,1.78374375,1.0,2586.1525489369615,0.24957379925306453,1.3277243580340783,0.9312693107510833,0.2879702375,0.6575151312217834
0.026000000000000002,1.7831000000000001,1.0,2599.684429858335,0.25378309789760434,1.327307434515127,0.9333024760117725,0.2879432,0.6583859799461922
0.0265,1.78244375,1.0,2612.2977686547883,0.257968784602657,1.3268937275435702,0.9352359807714843,0.2879156375,0.6592490143261165
0.027,1.781775,1.0,2624.03924709459,0.2621309921222609,1.326482740238322,0.9370762136892778,0.28788755,0.6601052944084069
0.0275,1.7810937500000001,1.0,2634.9562908821918,0.2662698530752645,1.3260739777595203,0.9388290593005648,0.2878589375,0.6609558706252674
0.028,1.7804,1.0,2645.0912349959794,0.27038549628690345,1.325667000337738,0.940499950798849,0.2878298,0.6618016737596294
0.0285,1.77969375,1.0,2654.4928717530324,0.2744780574880144,1.325261315574744,0.9420938997250374,0.2878001375,0.6626437391281469
0.029,1.778975,1.0,2663.193833272761,0.2785476639093538,1.3248565863552588,0.9436155570799368,0.28776995,0.6634827751964549
0.029500000000000002,1.7782437500000001,1.0,2671.2272911682917,0.2825944427816782,1.3244524755640028,0.9450692267497051,0.2877392375,0.6643194869272646
0.03,1.7775,1.0,2678.6269084700607,0.2866185213357441,1.3240486460856964,0.9464588958543897,0.287708,0.6651545757972803
0.0305,1.77674375,1.0,2685.4267940698082,0.29062002680230803,1.3236447608050597,0.947788262082539,0.2876762375,0.6659887398068741
0.031,1.775975,1.0,2691.6614596835434,0.29459908641212645,1.3232404826068132,0.9490607583439651,0.28764395,0.666822673482508
0.0315,1.7751937500000001,1.0,2697.3605603421984,0.2985558236942604,1.3228355220961068,0.9502795798211807,0.2876111375,0.6676569696203258
0.032,1.7744,1.0,2702.551532800924,0.30249036304529975,1.3224296129203945,0.9514477020267789,0.2875778,0.6684921706377697
0.0325,1.77359375,1.0,2707.275637446889,0.30640284047213684,1.322022364974574,0.952567884336988,0.2875439375,0.669329070332214
0.033,1.772775,1.0,2711.553115025083,0.3102933763430079,1.3216135824018989,0.953642716993517,0.28750955,0.6701680599955899
0.0335,1.7719437500000002,1.0,2715.404390106578,0.3141620910261491,1.3212030693456223,0.9546746165160626,0.2874746375,0.6710095288359419
0.034,1.7711000000000001,1.0,2718.850053663599,0.3180091048897967,1.3207906299489975,0.9556658394214973,0.2874392,0.6718538639570324
0.0345,1.7702437500000001,1.0,2721.9108464957544,0.321834538302187,1.3203760683552783,0.9566184947053682,0.2874032375,0.672701450335504
0.035,1.7693750000000001,1.0,2724.6076435065947,0.3256385116315561,1.3199591887077178,0.9575345552103814,0.28736675,0.6735526707955964
0.035500000000000004,1.76849375,1.0,2726.9614388304326,0.32942114524614036,1.3195397951495693,0.9584158679927517,0.2873297375,0.6744079059814135
0.036000000000000004,1.7676,1.0,2728.9933318098324,0.33318255951417586,1.3191176918240866,0.9592641637851823,0.2872922,0.6752675343267454
0.0365,1.76669375,1.0,2730.7245138237877,0.3369228748038989,1.3186926828745227,0.9600810656445347,0.2872541375,0.6761319320224455
0.037,1.765775,1.0,2732.1762559659646,0.3406422114835457,1.318264572444131,0.9608680968628083,0.28721555,0.6770014729813598
0.0375,1.76484375,1.0,2733.3595414186657,0.3443406774825586,1.3178332587431312,0.9616266947555844,0.2871764375,0.6778763381273019
0.038,1.7639,1.0,2734.300623822775,0.3480184060871378,1.3173985017592869,0.9623582023842632,0.28713679999999997,0.6787569868653061
0.0385,1.76294375,1.0,2735.0109985980384,0.351675510481072,1.3169601959720878,0.9630638916727802,0.28709663750000003,0.6796436038563001
0.039,1.761975,1.0,2735.5020322240985,0.35531210362044346,1.3165182373611033,0.9637449600351757,0.28705595,0.680536369317029
0.0395,1.7609937500000001,1.0,2735.7851226394046,0.35892829846133484,1.3160725219059035,0.9644025354535153,0.2870147375,0.6814354620409507
0.04,1.76,1.0,2735.8716947656003,0.3625242079598285,1.3156229455860582,0.9650376812425964,0.286973,0.6823410593736612
0.0405,1.7589937500000001,1.0,2735.773196272957,0.3660999450720069,1.3151694043811373,0.9656514004389786,0.2869307375,0.6832533371876249
0.041,1.757975,1.0,2735.501093585027,0.3696556227539525,1.3147117942707103,0.9662446398476152,0.28688795,0.6841724698562186
0.0415,1.75694375,1.0,2735.066868123153,0.37319135396174774,1.3142500112343471,0.9668182937760874,0.2868446375,0.6850986302270814
0.042,1.7559,1.0,2734.48201279155,0.3767072516514752,1.3137839512516176,0.9673732074835576,0.28680079999999997,0.6860319895947782
0.0425,1.75484375,1.0,2733.758028701719,0.3802034287792172,1.3133135103020919,0.9679101803689432,0.2867564375,0.686972717672771
0.043000000000000003,1.753775,1.0,2732.8976784446772,0.38367998143791426,1.312838663792711,0.9684299727008807,0.28671155,0.6879208240956352
0.043500000000000004,1.75269375,1.0,2731.918306838277,0.3871370377788701,1.312359254720605,0.9689332988010061,0.28666613750000003,0.688876581602003
0.044,1.7516,1.0,2730.8308995600187,0.39057471357975476,1.31187518383657,0.9694208380574194,0.2866202,0.6898401457490613
0.0445,1.75049375,1.0,2729.641009233492,0.3939931137208409,1.3113864012580552,0.9698932367265288,0.2865737375,0.6908115724220583
0.045,1.7493750000000001,1.0,2728.3541897058176,0.39739234308240096,1.3108928571025091,0.9703511078164161,0.28652675,0.6917909164624962
0.0455,1.74824375,1.0,2726.97599504298,0.4007725065447075,1.310394501487381,0.970795033117336,0.2864792375,0.692778231653062
0.046,1.7471,1.0,2725.511978580382,0.40413370898803297,1.30989128453012,0.9712255650892585,0.2864312,0.6937735707023986
0.0465,1.7459437500000001,1.0,2723.9676920282586,0.40747605529264996,1.309383156348175,0.9716432286177922,0.28638263750000004,0.6947769852297216
0.047,1.744775,1.0,2722.348684632072,0.410799650338831,1.308870067058995,0.9720485226488376,0.28633355,0.6957885257492727
0.0475,1.74359375,1.0,2720.6605023892116,0.4141045990068486,1.308351966780029,0.972441921711417,0.28628393750000003,0.6968082416546171
0.048,1.7424,1.0,2718.9086873189826,0.4173910061769752,1.3078288056287262,0.9728238773373037,0.2862338,0.6978361812027805
0.0485,1.74119375,1.0,2717.0987767897973,0.42065897672948344,1.3073005337225354,0.9731948193853456,0.2861831375,0.6988723914982299
0.049,1.739975,1.0,2715.2363028997665,0.42390861554464576,1.3067671011789057,0.973555157277702,0.28613195,0.6999169184766934
0.0495,1.73874375,1.0,2713.326791913639,0.4271400275027347,1.306228458115286,0.9739052811546072,0.2860802375,0.7009698068888217
0.05,1.7375,1.0,2711.3733955813673,0.43035331113285763,1.3056845762467546,0.9742455636638755,0.286028,0.7020310581787057
0.0505,1.73624375,1.0,2709.376344061502,0.4335485589572742,1.305135453912721,0.9745763613274535,0.2859752375,0.7031006210633858
0.051000000000000004,1.734975,1.0,2707.3484232055926,0.43672589715598636,1.3045809748675368,0.9748980106358381,0.28592195,0.704178666290628
0.051500000000000004,1.73369375,1.0,2705.2916943585897,0.43988542218393856,1.3040211206148613,0.9752108358043563,0.2858681375,0.7052651728956759
0.052000000000000005,1.7324,1.0,2703.20821629302,0.4430272304960749,1.3034558726583545,0.9755151464911009,0.2858138,0.7063601190980757
0.0525,1.73109375,1.0,2701.1000451025657,0.4461514185473398,1.3028852125016754,0.9758112385746441,0.28575893750000003,0.7074634822953283
0.053,1.729775,1.0,2698.9692341024743,0.44925808279267754,1.3023091216484837,0.976099394883688,0.28570355000000003,0.7085752390565125
0.0535,1.72844375,1.0,2696.8178337378463,0.45234731968703246,1.301727581602439,0.9763798858820273,0.2856476375,0.7096953651158915
0.054,1.7271,1.0,2694.647891499677,0.45541922568534887,1.3011405738672004,0.9766529703119032,0.2855912,0.7108238353664963
0.0545,1.7257437500000001,1.0,2692.461451847988,0.458473897242571,1.3005480799464277,0.9769188957986182,0.2855342375,0.7119606238536853
0.055,1.724375,1.0,2690.2605561429054,0.4615114308136432,1.2999500813437803,0.9771778994190452,0.28547675,0.7131057037686849
0.0555,1.72299375,1.0,2688.047242583454,0.46453192285350975,1.2993465595629177,0.9774302082364694,0.2854187375,0.7142590474421064
0.056,1.7216,1.0,2685.8235461535455,0.46753546981711497,1.2987374961074996,0.9776760398040227,0.2853602,0.7154206263374416
0.0565,1.72019375,1.0,2683.5914985758095,0.4705221681594032,1.2981228724811849,0.9779156026387935,0.28530113749999997,0.7165904110445382
0.057,1.718775,1.0,2681.3531282730805,0.4734921143353187,1.2975026701876335,0.9781490966685493,0.28524155,0.7177683712730489
0.0575,1.71734375,1.0,2679.110512722352,0.4764454038180786,1.2968768702498847,0.9783767135387086,0.2851814375,0.7189544767558453
0.058,1.7159,1.0,2676.8684061014374,0.4793821029653054,1.296245429091157,0.9785986332117007,0.2851208,0.7201487428016464
0.0585,1.71444375,1.0,2674.6267455874417,0.4823023453760372,1.2956083472932667,0.9788150366944378,0.2850596375,0.7213511001611717
0.059000000000000004,1.7129750000000001,1.0,2672.3862614157574,0.4852062191711436,1.2949656181537816,0.9790260934666679,0.28499795,0.7225614926886399
0.059500000000000004,1.71149375,1.0,2670.1476825989953,0.48809381247149397,1.2943172349702694,0.9792319663205786,0.2849357375,0.723779863518671
0.06,1.71,1.0,2667.9117369272544,0.4909652133979579,1.2936631910402971,0.9794328116748781,0.284873,0.725006155063871
0.0605,1.7084937500000001,1.0,2665.6791509702643,0.49382051007140493,1.2930034796614327,0.9796287798717654,0.2848097375,0.726240309012412
0.061,1.7069750000000001,1.0,2663.450650080266,0.4966597906127046,1.2923380941312437,0.9798200154578482,0.28474595,0.7274822663256126
0.0615,1.7054437500000001,1.0,2661.2269583954608,0.49948314314272646,1.2916670277472972,0.9800066574499882,0.2846816375,0.7287319672355146
0.062,1.7039,1.0,2659.008798845275,0.50229065578234,1.2909902738071615,0.9801888395869921,0.2846168,0.7299893512424529
0.0625,1.70234375,1.0,2656.7968931558025,0.5050824166524147,1.2903078256084033,0.9803666905680063,0.2845514375,0.7312543571126304
0.063,1.7007750000000001,1.0,2654.591961856669,0.5078585138738202,1.2896196764485908,0.9805403342784029,0.28448555,0.7325269228756811
0.0635,1.69919375,1.0,2652.3947242891477,0.510619035567426,1.2889258196252913,0.9807098900039104,0.28441913750000003,0.7338069858222374
0.064,1.6976,1.0,2650.205898614338,0.5133640698541015,1.2882262484360723,0.9808754726336772,0.2843522,0.7350944825014909
0.0645,1.69599375,1.0,2648.0262018235626,0.5160937048547164,1.2875209561785015,0.9810371928529177,0.2842847375,0.7363893487187507
0.065,1.694375,1.0,2645.856349748925,0.5188080286901402,1.2868099361501462,0.9811951573257491,0.28421675,0.7376915195330009
0.0655,1.69274375,1.0,2643.6970570748285,0.5215071294812423,1.2860931816485741,0.9813494688687828,0.2841482375,0.7390009292544515
0.066,1.6911,1.0,2641.5450957859507,0.5241910696640332,1.28537072239026,0.9815002266339976,0.2840792,0.7403174451609094
0.0665,1.6894437500000001,1.0,2639.398917608489,0.5268599306058175,1.28464257261378,0.9816475268200331,0.2840096375,0.7416409625504112
0.067,1.687775,1.0,2637.26599758109,0.5295138452611531,1.2839086631405474,0.9817914616688719,0.28393955,0.7429715274035306
0.0675,1.68609375,1.0,2635.146216749915,0.5321528925234745,1.2831689949320209,0.9819321199043322,0.2838689375,0.7443090571083838
0.068,1.6844000000000001,1.0,2633.0394564143935,0.5347771512862166,1.2824235689496588,0.9820695871708113,0.2837978,0.7456534684366625
0.0685,1.68269375,1.0,2630.945598124907,0.537386700442814,1.2816723861549206,0.9822039461600497,0.2837261375,0.7470046775439836
0.069,1.680975,1.0,2628.864523680689,0.5399816188867015,1.2809154475092648,0.9823352767318215,0.28365395,0.7483625999702472
0.0695,1.67924375,1.0,2626.796115127004,0.5425619855113136,1.2801527539741504,0.9824636560288836,0.28358123749999997,0.7497271506399845
0.07,1.6775,1.0,2624.7402547534107,0.5451278792100853,1.279384306511036,0.9825891585864922,0.283508,0.7510982438627153
0.07050000000000001,1.67574375,1.0,2622.696825090822,0.5476793788764512,1.2786101060813806,0.9827118564367779,0.2834342375,0.7524757933332967
0.07100000000000001,1.673975,1.0,2620.665708909387,0.5502165634038461,1.2778301536466432,0.9828318192082546,0.28335995,0.7538597121322789
0.07150000000000001,1.67219375,1.0,2618.646789216529,0.5527395116857045,1.2770444501682823,0.9829491142207205,0.2832851375,0.7552499127262569
0.07200000000000001,1.6704,1.0,2616.6399492542573,0.5552483026154612,1.2762529966077567,0.9830638065757887,0.2832098,0.7566463069682231
0.0725,1.66859375,1.0,2614.6450724970796,0.5577430150865509,1.2754557939265256,0.9831759592432838,0.2831339375,0.7580488060979191
0.073,1.6667750000000001,1.0,2612.6620426498457,0.5602237279924085,1.2746528430860475,0.9832856331437115,0.28305755,0.7594573207421905
0.0735,1.66494375,1.0,2610.690743645471,0.5626905202264686,1.2738441450477815,0.9833928872270085,0.2829806375,0.7608717609153367
0.074,1.6631,1.0,2608.7310596426255,0.5651434706821659,1.2730297007731863,0.9834977785477617,0.2829032,0.7622920360194654
0.0745,1.6612437500000001,1.0,2606.782875023828,0.567582658252935,1.2722095112237206,0.9836003623370756,0.2828252375,0.7637180548448441
0.075,1.659375,1.0,2604.8460743931687,0.5700081618322108,1.2713835773608435,0.9837006920712604,0.28274675,0.7651497255702522
0.0755,1.65749375,1.0,2602.920542574188,0.572420060313428,1.2705519001460137,0.9837988195374974,0.2826677375,0.7665869557633336
