Time [s],Phi [rad],STIM [ ],Fsee [N],Gamma [ ],Lcerel [ ],q [ ],Lmtc [m],fisomrel [ ]
0.0,1.8,1.0,18.02768127285298,0.00025212126394798446,1.3793329713084554,0.00501651467287063,0.288653,0.5411559211680438
0.0005,1.79999375,1.0,18.415677249840574,0.005859916371879028,1.3792869842436437,0.013626349366173972,0.2886527375,0.5412671670387819
0.001,1.799975,1.0,21.937127756572913,0.011436256183041175,1.3789058660048368,0.036881426295668304,0.28865195,0.5421885991936374
0.0015,1.79994375,1.0,31.777236282180056,0.016981317137763796,1.3779862243117573,0.07233676665537551,0.2886506375,0.5444082086433095
0.002,1.7999,1.0,55.06430215210455,0.022495274684517855,1.376272648409229,0.11676802824813337,0.2886488,0.5485296366680639
0.0025,1.79984375,1.0,99.57318413632439,0.0279783032888366,1.3738176408349518,0.16680216137302287,0.28864643749999996,0.5544016945171906
0.003,1.7997750000000001,1.0,164.1279867973804,0.03343057643901053,1.3710962728492486,0.21957632932364332,0.28864354999999997,0.5608659320070026
0.0035,1.79969375,1.0,241.25186414601004,0.03885226664741673,1.368475223501121,0.27289508168638055,0.2886401375,0.5670472246996139
0.004,1.7996,1.0,325.2557417432541,0.04424354546070154,1.3660560310220622,0.3251246604400624,0.2886362,0.5727135910471143
0.0045000000000000005,1.7994937500000001,1.0,413.1862362147005,0.04960458346516927,1.3638310514971776,0.3751306498047379,0.2886317375,0.57789211086243
0.005,1.799375,1.0,503.407776761675,0.054935550278611085,1.3617736334224981,0.4222081254878082,0.28862675,0.5826525451539666
0.0055,1.79924375,1.0,594.817003149518,0.06023661458815281,1.3598602989023396,0.465988686121274,0.2886212375,0.5870553739602002
0.006,1.7991000000000001,1.0,686.5461388422253,0.06550794411806687,1.3580733035859558,0.5063477525830761,0.2886152,0.5911463943209182
0.006500000000000001,1.79894375,1.0,777.8819572244496,0.070749705638428,1.356399047091652,0.5433255899929242,0.2886086375,0.5949608393882729
0.007,1.798775,1.0,868.237903301033,0.07596206507303238,1.3548266288574413,0.5770663077020917,0.28860155,0.5985269880537742
0.0075,1.79859375,1.0,957.1226242992209,0.0811451871760657,1.353347170459026,0.6077737149785474,0.2885939375,0.6018679117621173
0.008,1.7984,1.0,1044.1609527339124,0.08629923623481614,1.3519527132825118,0.6356803195344138,0.2885858,0.6050041059090501
0.0085,1.79819375,1.0,1129.0315363283453,0.09142437507946169,1.3506366614598109,0.6610274900610104,0.2885771375,0.6079525881387691
0.009000000000000001,1.797975,1.0,1211.4894368569096,0.0965207657535016,1.3493930285087388,0.6840522919410266,0.28856795,0.6107286722879199
0.0095,1.79774375,1.0,1291.3747207051363,0.10158857003210311,1.3482160719276954,0.7049797702726012,0.2885582375,0.6133468343470856
0.01,1.7975,1.0,1368.5497641933246,0.10662794789138177,1.347100935147572,0.7240192800688015,0.288548,0.6158193265933706
0.0105,1.79724375,1.0,1442.9248316217684,0.11163905861741176,1.346043101393479,0.7413624409433602,0.2885372375,0.6181574361542805
0.011,1.796975,1.0,1514.4601021394485,0.11662206084312109,1.3450382428602374,0.7571827846990122,0.28852595000000003,0.6203718461859689
0.0115,1.79669375,1.0,1583.1502487431949,0.12157711293194522,1.344082311488847,0.7716364021159403,0.2885141375,0.6224724582923855
0.012,1.7964,1.0,1648.9797917741394,0.12650437085425628,1.3431719694889617,0.7848632080915862,0.28850180000000003,0.6244674724396275
0.0125,1.79609375,1.0,1711.9725830878476,0.13140399049453513,1.342303901243821,0.7969879412903668,0.2884889375,0.6263649208968766
0.013000000000000001,1.7957750000000001,1.0,1772.168738111024,0.13627612676262382,1.3414750302535121,0.808121677704158,0.28847555,0.6281722057186321
0.0135,1.79544375,1.0,1829.64974388521,0.14112093523493635,1.3406821836927454,0.818363098450149,0.2884616375,0.6298968422013473
0.014,1.7951000000000001,1.0,1884.4568215271827,0.14593856812309772,1.3399229602194414,0.827800154584923,0.2884472,0.6315445826391968
0.0145,1.79474375,1.0,1936.6489020370632,0.15072917736146055,1.3391950215138961,0.8365110055033014,0.2884322375,0.6331209737888635
0.015,1.794375,1.0,1986.3061421459274,0.15549291488437744,1.3384960292564057,0.8445651263678282,0.28841675,0.6346314992909649
0.0155,1.79399375,1.0,2033.5108334445667,0.16022993128267338,1.3378238266462517,0.8520243833266871,0.2884007375,0.6360811930806228
0.016,1.7936,1.0,2078.36331762069,0.1649403779237223,1.3371762447186808,0.8589438701984773,0.2883842,0.6374750637672458
0.0165,1.7931937500000001,1.0,2120.92920403815,0.1696244026055358,1.3365516317631594,0.8653728667953101,0.2883671375,0.6388169615993455
0.017,1.792775,1.0,2161.2851513943983,0.1742821530432851,1.3359483470434343,0.8713553741476285,0.28834955,0.6401106763991844
0.0175,1.7923437500000001,1.0,2199.518886589692,0.17891377695214136,1.3353647498232524,0.8769307352120361,0.2883314375,0.6413599635713882
0.018000000000000002,1.7919,1.0,2235.7097145318744,0.1835194203639107,1.3347993855582034,0.8821342313302203,0.2883128,0.642568148692122
0.0185,1.79144375,1.0,2269.9645480292247,0.1880992314327364,1.3342506108343721,0.886997459172315,0.2882936375,0.6437389322603607
0.019,1.790975,1.0,2302.3512683998415,0.1926533537024649,1.3337172521728493,0.8915489201110489,0.28827395,0.6448749859764124
0.0195,1.79049375,1.0,2332.9403605196926,0.1971819303518009,1.3331981735257183,0.8958142672273183,0.2882537375,0.6459788812472107
0.02,1.79,1.0,2361.8080932894068,0.2016851045594492,1.332692238845063,0.8998166196257296,0.288233,0.6470531703197051
0.0205,1.78949375,1.0,2389.035717007049,0.2061630194487856,1.3321983151440178,0.903576847521436,0.2882117375,0.648100380789145
0.021,1.788975,1.0,2414.69429889034,0.21061581591202794,1.3317154145289791,0.9071138513713434,0.28818995000000003,0.6491227160837614
0.021500000000000002,1.78844375,1.0,2438.870236505837,0.21504363780337943,1.3312424411293073,0.9104447261180847,0.2881676375,0.650122593095336
0.022,1.7879,1.0,2461.6212840712315,0.2194466234576438,1.3307786110987396,0.9135850384139107,0.2881448,0.6511017552282805
0.0225,1.78734375,1.0,2483.008220544877,0.22382491120962494,1.3303231405910123,0.9165489284328676,0.28812143749999997,0.6520619349173798
0.023,1.786775,1.0,2503.094599426152,0.2281786393941267,1.3298752457598624,0.9193492603307288,0.28809755,0.6530048540652755
0.0235,1.78619375,1.0,2521.946512178637,0.23250794634595282,1.3294341427590266,0.9219977550582678,0.28807313749999996,0.6539322244407694
0.024,1.7856,1.0,2539.6214114578256,0.23681296760168052,1.328999150963213,0.924505125067634,0.2880482,0.6548455314588167
0.0245,1.78499375,1.0,2556.1866026766447,0.24109384350782032,1.3285695156402684,0.9268811485437368,0.2880227375,0.6557464074997431
0.025,1.784375,1.0,2571.6918711997037,0.2453507086925747,1.3281446637854912,0.9291348016940771,0.28799675,0.6566360957560808
0.025500000000000002,1.78374375,1.0,2586.183285343377,0.24958369617418455,1.3277240710141123,0.9312743166334643,0.2879702375,0.6575157311158708
0.026000000000000002,1.7831000000000001,1.0,2599.708219739225,0.25379293897089084,1.3273072129413628,0.9333072463859412,0.2879432,0.6583864424635122
0.0265,1.78244375,1.0,2612.3152432314596,0.25797857010093433,1.3268935651824736,0.9352405300727643,0.2879156375,0.6592493528134308
0.027,1.781775,1.0,2624.054012871699,0.262140722582556,1.3264826033526753,0.9370805510476983,0.28788755,0.6601055794262107
0.0275,1.7810937500000001,1.0,2634.9674872495466,0.26627952731396465,1.3260738741791762,0.938833198669503,0.2878589375,0.660956086026093
0.028,1.7804,1.0,2645.0983228195123,0.27039511643232117,1.3256669348922585,0.9405039060070314,0.2878298,0.6618018096871221
0.0285,1.77969375,1.0,2654.5004751776632,0.2744876242526143,1.3252612454928985,0.9420976761099467,0.2878001375,0.6626438845038534
0.029,1.778975,1.0,2663.20513798861,0.2785571778094514,1.324856482328473,0.9436191613742932,0.28776995,0.6634829907180183
0.029500000000000002,1.7782437500000001,1.0,2671.244031916977,0.28260390413743985,1.3244523217463595,0.9450726669512443,0.2877392375,0.6643198052085357
0.03,1.7775,1.0,2678.6493586328893,0.2866279302711871,1.3240484400939354,0.9464621811081281,0.287708,0.6651550015072932
0.0305,1.77674375,1.0,2685.4537571408882,0.29062938324530047,1.3236445137185777,0.9477914025743788,0.2876762375,0.6659892498082441
0.031,1.775975,1.0,2691.690262430136,0.2946083900943874,1.3232402189676638,0.9490637652045656,0.28764395,0.6668232169698239
0.0315,1.7751937500000001,1.0,2697.392266447983,0.2985650778530552,1.3228352321885708,0.9502824602508291,0.2876111375,0.6676575665106874
0.032,1.7744,1.0,2702.5870064484793,0.3024995697388246,1.3224292888757803,0.951450462559452,0.2875778,0.668492836974039
0.0325,1.77359375,1.0,2707.30665207205,0.3064119945945107,1.3220220819094046,0.9525705388461337,0.2875439375,0.6693296516668773
0.033,1.772775,1.0,2711.577492484922,0.31030247678199113,1.3216133600884208,0.9536452731725561,0.28750955,0.6701685159841703
0.0335,1.7719437500000002,1.0,2715.4211195511257,0.314171137271094,1.3212029168873576,0.9546770805111177,0.2874746375,0.6710098411449403
0.034,1.7711000000000001,1.0,2718.8592954076908,0.31801809703164746,1.3207905457807434,0.9556682159476191,0.2874392,0.6718540361533571
0.0345,1.7702437500000001,1.0,2721.9139349707298,0.3218434770334796,1.3203760402431068,0.9566207871529437,0.2874032375,0.672701507774704
0.035,1.7693750000000001,1.0,2724.607089386863,0.3256473982464185,1.319959193748977,0.9575367657425768,0.28736675,0.6735526605086244
0.035500000000000004,1.76849375,1.0,2726.9609304306264,0.32942998164029225,1.319539799772882,0.9584179976347752,0.2873297375,0.6744078965596509
0.036000000000000004,1.7676,1.0,2728.997735847281,0.333191348184929,1.3191176517893506,0.9592662125060708,0.2872922,0.6752676158050089
0.0365,1.76669375,1.0,2730.724433255717,0.3369316067137836,1.318692683606692,0.9600830439268501,0.2872541375,0.6761319305343271
0.037,1.765775,1.0,2732.1779425759337,0.3406508931872334,1.3182645571209968,0.9608700039135685,0.28721555,0.6770015040834687
0.0375,1.76484375,1.0,2733.3722976975637,0.34434932323907025,1.3178331428754018,0.9616285286994587,0.2871764375,0.6778765729908943
0.038,1.7639,1.0,2734.319706885903,0.3480270108942624,1.3173983284540938,0.962359969593641,0.28713679999999997,0.6787573376739389
0.0385,1.76294375,1.0,2735.0324216551653,0.351684070177778,1.31696000144126,0.9630655977200231,0.28709663750000003,0.6796439970865961
0.039,1.761975,1.0,2735.5227313127484,0.3553206151145853,1.316518049421087,0.9637466096445686,0.28705595,0.6805367486947393
0.0395,1.7609937500000001,1.0,2735.8029577847747,0.3589367597296525,1.316072359977762,0.9644041325492071,0.2870147375,0.681435788450536
0.04,1.76,1.0,2735.8854507203073,0.3625326180479479,1.3156228206954714,0.9650392289933747,0.286973,0.6823413107660532
0.0405,1.7589937500000001,1.0,2735.782582877169,0.3661083040944397,1.3151693191584026,0.9656529013000847,0.2869307375,0.6832535084860617
0.041,1.757975,1.0,2735.5067457869627,0.369663931894096,1.3147117429507422,0.9662460955997834,0.28688795,0.6841725728600319
0.0415,1.75694375,1.0,2735.07034570061,0.3731996154718852,1.3142499796566773,0.9668197055619923,0.2868446375,0.6850986935133223
0.042,1.7559,1.0,2734.484549099976,0.37671546618863705,1.3137839282185488,0.9673745763498262,0.28680079999999997,0.6860320356879356
0.0425,1.75484375,1.0,2733.7578993707734,0.38021159069473687,1.3133135114767456,0.9679115084893647,0.2867564375,0.6869727153256098
0.043000000000000003,1.753775,1.0,2732.905283601415,0.38368811259942787,1.312838594707743,0.968431257577122,0.28671155,0.6879209619301164
0.043500000000000004,1.75269375,1.0,2731.9333042975486,0.38714513864223116,1.3123591184599037,0.9689345424352711,0.28666613750000003,0.688876853045127
0.044,1.7516,1.0,2730.8485674427384,0.3905827755626677,1.3118750232815908,0.9694220441233471,0.2866202,0.6898404650928164
0.0445,1.75049375,1.0,2729.657681107397,0.3940011301002585,1.3113862497211672,0.9698944082920297,0.2865737375,0.6908118733564632
0.045,1.7493750000000001,1.0,2728.3672541347964,0.3974003089945246,1.3108927383269957,0.9703522473678668,0.28652675,0.6917911519628258
0.0455,1.74824375,1.0,2726.9838949060777,0.40078041898498706,1.3103944296474395,0.9707961425826239,0.2864792375,0.6927783738642881
0.046,1.7471,1.0,2725.5142101833826,0.4041415668111668,1.3098912642308616,0.9712266458597039,0.2864312,0.6937736108207856
0.0465,1.7459437500000001,1.0,2723.9648040315283,0.4074838592125849,1.3093831826256246,0.9716442815689845,0.28638263750000004,0.6947769333815033
0.047,1.744775,1.0,2722.3422768176756,0.4108074029287624,1.3088701253800916,0.972049548160425,0.28633355,0.6957884108663472
0.0475,1.74359375,1.0,2720.653224290255,0.41411230469922017,1.3083520330426255,0.9724429196858814,0.28628393750000003,0.6968081113471927
0.048,1.7424,1.0,2718.8979406481017,0.41739865557976796,1.3078289035020745,0.9728248492831855,0.2862338,0.6978359890583882
0.0485,1.74119375,1.0,2717.0828349058693,0.4206665667708731,1.307300678958758,0.9731957670020941,0.2861831375,0.698872106860607
0.049,1.739975,1.0,2715.2204149618005,0.42391616239735513,1.3067672459732949,0.9735560801598439,0.28613195,0.6999166351975766
0.0495,1.73874375,1.0,2713.313576005858,0.42714754086967077,1.306228578600528,0.9739061797153029,0.2860802375,0.7009695715825899
0.05,1.7375,1.0,2711.365210399865,0.43036080059827686,1.3056846508953008,0.9742464384098293,0.286028,0.70203091264993
0.0505,1.73624375,1.0,2709.378207448475,0.43355603999363007,1.3051354369124557,0.9745772117767477,0.2859752375,0.7031006541461887
0.051000000000000004,1.734975,1.0,2707.355453185428,0.4367333574661872,1.304580910706836,0.9748988390861824,0.28592195,0.7041787909215382
0.051500000000000004,1.73369375,1.0,2705.2998301745347,0.43989285142640505,1.3040210463332842,0.9752116442299221,0.2858681375,0.7052653169209664
0.052000000000000005,1.7324,1.0,2703.214217325423,0.4430346202847404,1.3034558178466435,0.9755159365506192,0.2858138,0.7063602251754615
0.0525,1.73109375,1.0,2701.101489724696,0.44615876245165,1.302885199301757,0.9758120116192756,0.28575893750000003,0.70746350779316
0.053,1.729775,1.0,2698.9645184815636,0.4492653763375906,1.3023091647534673,0.9761001519646673,0.28570355000000003,0.7085751559504496
0.0535,1.72844375,1.0,2696.8061705886207,0.452354560353019,1.3017276882566173,0.9763806277580609,0.2856476375,0.7096951598830279
0.054,1.7271,1.0,2694.6293087974577,0.45542641290839203,1.30114074386605,0.9766536974563227,0.2855912,0.7108235088769198
0.0545,1.7257437500000001,1.0,2692.436791509159,0.4584810324141664,1.3005483056366085,0.9769196084062802,0.2855342375,0.7119601912594509
0.055,1.724375,1.0,2690.2314726798927,0.4615185172807989,1.2999503476231355,0.9771785974129776,0.28547675,0.713105194390179
0.0555,1.72299375,1.0,2688.016201741358,0.46453896591874627,1.299346843880474,0.9774308912742611,0.2854187375,0.7142585046517829
0.056,1.7216,1.0,2685.7934480328336,0.4675424712300174,1.2987377719043078,0.9776767069733141,0.2853602,0.7154201008853627
0.0565,1.72019375,1.0,2683.5639431274953,0.47052911159547156,1.2981231250837582,0.977916252083345,0.28530113749999997,0.7165899307726209
0.057,1.718775,1.0,2681.33098307286,0.4734990143972869,1.2975028732787277,0.9781497287242475,0.28524155,0.717767985940374
0.0575,1.71734375,1.0,2679.0954631891027,0.4764522693772951,1.2968770083250922,0.9783773286077911,0.2851814375,0.7189542153314513
0.058,1.7159,1.0,2676.858277319926,0.47938896627732774,1.2962455220587272,0.9785992356929408,0.2851208,0.7201485671560974
0.0585,1.71444375,1.0,2674.620317827506,0.4823091948392164,1.2956084063155078,0.9788156265590799,0.2850596375,0.7213509888890487
0.059000000000000004,1.7129750000000001,1.0,2672.3824755885203,0.4852130448047928,1.2949656529313096,0.9790266707584049,0.28499795,0.7225614272666014
0.059500000000000004,1.71149375,1.0,2670.145639992607,0.48810060591588855,1.2943172537420082,0.9792325311488066,0.2849357375,0.7237798282836809
0.06,1.71,1.0,2667.9106989412135,0.4909719679143352,1.293663200583479,0.9794333642084644,0.284873,0.7250061371909038
0.0605,1.7084937500000001,1.0,2665.678538848819,0.4938272205419645,1.2930034852915973,0.9796293203332892,0.2848097375,0.7262402984916351
0.061,1.7069750000000001,1.0,2663.4500446450643,0.496666453540608,1.2923380997022387,0.9798205441182773,0.28474595,0.7274822559390433
0.0615,1.7054437500000001,1.0,2661.226099778537,0.4994897566520974,1.2916670356512785,0.9800071746237564,0.2846816375,0.72873195253315
0.062,1.7039,1.0,2659.0075862225094,0.5022972196182642,1.290990284974592,0.9801893456274526,0.2846168,0.7299893305178755
0.0625,1.70234375,1.0,2656.795384480899,0.5050889321809402,1.2903078395080552,0.9803671858632221,0.2845514375,0.7312543313780782
0.063,1.7007750000000001,1.0,2654.590373597222,0.5078649840819569,1.289619691087543,0.9805408192472581,0.28448555,0.7325268958365949
0.0635,1.69919375,1.0,2652.3934311641556,0.510625465063146,1.2889258315489311,0.980710365092513,0.28441913750000003,0.7338069638512713
0.064,1.6976,1.0,2650.2054333342526,0.5133704648663391,1.288226252728095,0.9808759383120302,0.2843522,0.7350944746119908
0.0645,1.69599375,1.0,2648.026038913531,0.5161000278479569,1.2875209576818998,0.9810376469175607,0.2842847375,0.736389345962
0.065,1.694375,1.0,2645.856632304999,0.5188142827009182,1.286809933541538,0.9811956002332116,0.28421675,0.7376915243045236
0.0655,1.69274375,1.0,2643.697929072278,0.5215133347208769,1.2860931735948506,0.9813499022576302,0.2841482375,0.7390009439490646
0.066,1.6911,1.0,2641.550023655344,0.5241972643669479,1.2853706768581947,0.981500651813179,0.2840792,0.740317528027729
0.0665,1.6894437500000001,1.0,2639.413010376559,0.5268661520982462,1.2846424423479275,0.9816479442183768,0.2840096375,0.7416411990248941
0.067,1.687775,1.0,2637.2869834423923,0.5295200783738867,1.2839084690804057,0.981791871435364,0.28393955,0.7429718787768506
0.0675,1.68609375,1.0,2635.1720369458985,0.5321591236529843,1.2831687560719869,0.9819325222101537,0.2838689375,0.7443094884714401
0.068,1.6844000000000001,1.0,2633.0682648686443,0.5347833683946543,1.2824233023390277,0.9820699822060596,0.2837978,0.7456539486476983
0.0685,1.68269375,1.0,2630.9757610824904,0.5373928930580113,1.2816721068978856,0.9822043341306866,0.2837261375,0.7470051791954915
0.069,1.680975,1.0,2628.894619352072,0.5399877781021706,1.2809151687649176,0.9823356578568303,0.28365395,0.748363099355159
0.0695,1.67924375,1.0,2626.8249333367557,0.5425681039862468,1.2801524869564804,0.9824640305376169,0.28358123749999997,0.7497276277171526
0.07,1.6775,1.0,2624.7667965926794,0.5451339511693551,1.2793840604889317,0.9825895267162014,0.283508,0.751098682221674
0.07050000000000001,1.67574375,1.0,2622.720302575106,0.5476854001106106,1.2786098883786283,0.9827122184303084,0.2834342375,0.7524761801583172
0.07100000000000001,1.673975,1.0,2620.6855446404093,0.550222531269128,1.2778299696419273,0.9828321753118952,0.28335995,0.7538600381657071
0.07150000000000001,1.67219375,1.0,2618.6626160484698,0.5527454251040224,1.2770443032951857,0.9829494646821939,0.2832851375,0.7552501722311389
0.07200000000000001,1.6704,1.0,2616.651609964771,0.5552541620744087,1.2762528883547608,0.9830641516423788,0.2832098,0.7566464976902171
0.0725,1.66859375,1.0,2614.652619462642,0.557748822639402,1.2754557238370094,0.9831762991600821,0.2831339375,0.7580489292264961
0.073,1.6667750000000001,1.0,2612.6657375256223,0.5602294872581172,1.274652808758289,0.9832859681519781,0.28305755,0.7594573808711186
0.0735,1.66494375,1.0,2610.691057049653,0.5626962363896691,1.2738441421349562,0.9833932175626405,0.2829806375,0.760871766002455
0.074,1.6631,1.0,2608.7286708453516,0.565149150493173,1.2730297229833685,0.9834981044398576,0.2829032,0.7622919973457433
0.0745,1.6612437500000001,1.0,2606.778671640412,0.5675883100277437,1.272209550319883,0.9836006840065912,0.2828252375,0.7637179869727269
0.075,1.659375,1.0,2604.8407026666755,0.5700137765933846,1.271383627342479,0.9837010088562347,0.28274675,0.7651496390638982
0.0755,1.65749375,1.0,2602.913566539796,0.5724256046036875,1.270551965079067,0.9837991298731599,0.2826677375,0.7665868437240283
