Time [s],Phi [rad],STIM [ ],Fsee [N],Gamma [ ],Lcerel [ ],q [ ],Lmtc [m],fisomrel [ ]
0.0,1.8,1.0,17.97231523056029,6.290366216748984e-05,1.3793391684976526,0.005001039380008372,0.288653,0.5411409287101707
0.0005,1.79999375,1.0,18.299117239579118,0.005671760131178851,1.379299903334403,0.013088034300080643,0.2886527375,0.5412359162325016
0.001,1.799975,1.0,21.680002522669277,0.01124915535006313,1.3789320129176068,0.03588477347116601,0.28865195,0.5421254132213351
0.0015,1.79994375,1.0,31.21472318205262,0.01679526579246359,1.3780338231975824,0.07097944019769524,0.2886506375,0.5442934582864127
0.002,1.7999,1.0,53.89518939490898,0.02231026694029491,1.3763478682641828,0.11516498633895778,0.2886488,0.5483491136894303
0.0025,1.79984375,1.0,97.64423284857945,0.027794333291662192,1.3739098886729941,0.16506101501212303,0.28864643749999996,0.554181744746649
0.003,1.7997750000000001,1.0,161.6415310707612,0.03324763836809552,1.3711887918740882,0.21778189513427548,0.28864354999999997,0.5606469412852515
0.0035,1.79969375,1.0,238.4553565552547,0.038670354714527996,1.3685609730996702,0.27111158608351954,0.2886401375,0.5668456923081129
0.004,1.7996,1.0,322.288056574838,0.044062653909971425,1.3661343535629595,0.3233986494657308,0.2886362,0.5725307243017658
0.0045000000000000005,1.7994937500000001,1.0,410.1181568746282,0.04942470657273239,1.3639028622533014,0.37349283822176593,0.2886317375,0.5777254682520879
0.005,1.799375,1.0,500.2811686419454,0.05475668235176334,1.3618399125501417,0.4206762510833175,0.28862675,0.5824996099671742
0.0055,1.79924375,1.0,591.6657097117258,0.060058749971306356,1.3599217402731325,0.4645706841544616,0.2886212375,0.5869143522919635
0.006,1.7991000000000001,1.0,683.3944315686816,0.06533107718087793,1.3581304906332603,0.5050447841433889,0.2886152,0.591015789792029
0.006500000000000001,1.79894375,1.0,774.7547702263155,0.07057383080880192,1.3564523463934939,0.5421343016936521,0.2886086375,0.5948396835158567
0.007,1.798775,1.0,865.1466499727317,0.07578717668163361,1.3548764931525854,0.5759807618187794,0.28860155,0.5984141409685044
0.0075,1.79859375,1.0,954.091646502383,0.08097127985367646,1.353393732346574,0.6067863679880784,0.2885939375,0.6017629781191266
0.008,1.7984,1.0,1041.1929127759163,0.08612630443360095,1.3519963630916059,0.6347832166113452,0.2885858,0.6049061236297271
0.0085,1.79819375,1.0,1126.125872058797,0.09125241319436167,1.3506777536669483,0.6602126175537503,0.2885771375,0.6078606922292829
0.009000000000000001,1.797975,1.0,1208.6624441331958,0.09634976839509107,1.3494316212679456,0.6833117641230401,0.28856795,0.610642672379002
0.0095,1.79774375,1.0,1288.6401153287916,0.1014185319806829,1.348252228395643,0.7043062016925855,0.2885582375,0.6132665351322348
0.01,1.7975,1.0,1365.9047417367074,0.10645886359479545,1.3471349052173667,0.723405969249227,0.288548,0.615744124935363
0.0105,1.79724375,1.0,1440.3694928091963,0.1114709227005885,1.3460750613677792,0.740803257116222,0.2885372375,0.6180869001890557
0.011,1.796975,1.0,1511.9952785880098,0.11645486798473817,1.3450683327855106,0.7566721828235705,0.28852595000000003,0.6203056304484315
0.0115,1.79669375,1.0,1580.7767571279835,0.12141085793260616,1.3441106499902764,0.7711694024455672,0.2885141375,0.6224102696532828
0.012,1.7964,1.0,1646.6974882374004,0.1263390484692098,1.3431986690097253,0.7844353621901886,0.28850180000000003,0.6244090356822483
0.0125,1.79609375,1.0,1709.7802874329464,0.13123959541812302,1.342329070895252,0.796595286395873,0.2884889375,0.6263099720025305
0.013000000000000001,1.7957750000000001,1.0,1770.0651548798776,0.13611265376063955,1.341498767124977,0.8077606857431474,0.28847555,0.628120510370283
0.0135,1.79544375,1.0,1827.6309947557058,0.14095837908748965,1.34070460214342,0.8180306414030449,0.2884616375,0.6298481316272129
0.014,1.7951000000000001,1.0,1882.5248209263843,0.14577692387974345,1.3399441006045967,0.8274934266673054,0.2884472,0.6314987514800123
0.0145,1.79474375,1.0,1934.8028364421882,0.15056843992565191,1.3392149471682213,0.8362275214597571,0.2884322375,0.6330778686787655
0.015,1.794375,1.0,1984.5424072565113,0.15533307901346602,1.338514826494008,0.8443026838845554,0.28841675,0.6345909191445522
0.0155,1.79399375,1.0,2031.8223836547863,0.16007099194221547,1.3378416111790756,0.8517810322038722,0.2884007375,0.6360428754972139
0.016,1.7936,1.0,2076.7459521980386,0.16478232996451841,1.3371930954717186,0.8587178606130484,0.2883842,0.6374388276983434
0.0165,1.7931937500000001,1.0,2119.384584073282,0.16946724123321577,1.3365675621025734,0.8651626179871226,0.2883671375,0.638782768304625
0.017,1.792775,1.0,2159.8125807025563,0.17412587333011484,1.3359633916727023,0.8711594798498907,0.28834955,0.6400784421421379
0.0175,1.7923437500000001,1.0,2198.1152560598753,0.1787583738370228,1.3353789647831673,0.876747942938015,0.2883314375,0.6413295598883004
0.018000000000000002,1.7919,1.0,2234.3752206862864,0.1833648891879416,1.3348127903807268,0.8819634091062415,0.2883128,0.6425395261398965
0.0185,1.79144375,1.0,2268.6913083560225,0.1879455668554367,1.3342633033853342,0.8868376107129728,0.2882936375,0.6437118750316456
0.019,1.790975,1.0,2301.1364772237184,0.19250055088089496,1.3337292764924937,0.8913991365527453,0.28827395,0.64484939417027
0.0195,1.79049375,1.0,2331.782297779909,0.19702998452748635,1.3332095608464736,0.8956737270627759,0.2882537375,0.6459546829097584
0.02,1.79,1.0,2360.7061749444997,0.20153401105838095,1.3327030075915425,0.8996845789025442,0.288233,0.6470303212357846
0.0205,1.78949375,1.0,2387.9862323816737,0.20601277302244575,1.3322085127878804,0.9034526402711276,0.2882117375,0.6480787756099002
0.021,1.788975,1.0,2413.7012616033294,0.2104664129432607,1.3317250122144433,0.9069968593932334,0.28818995000000003,0.6491024115794881
0.021500000000000002,1.78844375,1.0,2437.929135850108,0.21489507307439848,1.331251491596725,0.9103344053463415,0.2881676375,0.6501034735808189
0.022,1.7879,1.0,2460.7278925956384,0.21929889196402552,1.3307871629073533,0.9134808943209188,0.2881448,0.6510837144633421
0.0225,1.78734375,1.0,2482.1586156598414,0.22367800816030828,1.3303312381189554,0.9164505107617187,0.28812143749999997,0.6520448760293305
0.023,1.786775,1.0,2502.285182862718,0.22803256021141324,1.3298829292041587,0.9192561584515524,0.28809755,0.6529886894760332
0.0235,1.78619375,1.0,2521.17402744699,0.23236268666550686,1.3294414481355907,0.9219095938685828,0.28807313749999996,0.6539168757982299
0.024,1.7856,1.0,2538.8805497777776,0.23666852276564537,1.3290061328322291,0.9244215652618059,0.2880482,0.65483088188387
0.0245,1.78499375,1.0,2555.480687570996,0.24095020950055307,1.3285761465568278,0.9268018655468017,0.2880227375,0.6557325124804403
0.025,1.784375,1.0,2571.0197657430863,0.24520788034188165,1.3281509580314768,0.9290595048876871,0.28799675,0.6566229232877041
0.025500000000000002,1.78374375,1.0,2585.543915077411,0.24944166860529587,1.327730041875757,0.9312027395389523,0.2879702375,0.657503251441692
0.026000000000000002,1.7831000000000001,1.0,2599.10057720463,0.25365170760646055,1.3273128727092496,0.9332391443207166,0.2879432,0.6583746280574572
0.0265,1.78244375,1.0,2611.738392138201,0.25783813066104044,1.3268989251515364,0.9351756780630058,0.2879156375,0.6592381783634254
0.027,1.781775,1.0,2623.5070919307104,0.26200107108470033,1.326487673822198,0.9370187419665602,0.28788755,0.6600950218181443
0.0275,1.7810937500000001,1.0,2634.4469363818766,0.2661406582691981,1.326078690155833,0.9387742446997818,0.2878589375,0.6609460708745416
0.028,1.7804,1.0,2644.6136972975028,0.2702570286907701,1.325671409888178,0.9404476177133535,0.2878298,0.6617925152469588
0.0285,1.77969375,1.0,2654.0445000864715,0.2743503118139834,1.3252654484576187,0.9420438988385292,0.2878001375,0.6626351659428067
0.029,1.778975,1.0,2662.772212126785,0.27842063519964233,1.3248604663002104,0.9435677501036103,0.28776995,0.6634747367194194
0.029500000000000002,1.7782437500000001,1.0,2670.8302449903717,0.2824681264085514,1.3244561238520076,0.9450234854435061,0.2877392375,0.6643119378027127
0.03,1.7775,1.0,2678.2525058482706,0.286492913001515,1.3240520815490657,0.9464151011470597,0.287708,0.6651474759047119
0.0305,1.77674375,1.0,2685.073351432655,0.2904951225393376,1.3236479998274393,0.9477463032793765,0.2876762375,0.6659820542337305
0.031,1.775975,1.0,2691.327544554602,0.2944748825828238,1.3232435391231836,0.9490205324125728,0.28764395,0.6668163724971903
0.0315,1.7751937500000001,1.0,2697.047512150393,0.2984323194946033,1.322838384570942,0.9502409886646553,0.2876111375,0.6676510760447214
0.032,1.7744,1.0,2702.263346568438,0.3023675594361283,1.3224322455223145,0.9514106518635475,0.2875778,0.6684867571665749
0.0325,1.77359375,1.0,2707.0018942703423,0.30628072673488205,1.3220248634519531,0.9525323000025937,0.2875439375,0.6693239391541803
0.033,1.772775,1.0,2711.2870290065825,0.3101719440335469,1.3216160090736244,0.9536085252405115,0.28750955,0.6701630826133749
0.0335,1.7719437500000002,1.0,2715.142824207164,0.31404133397480527,1.3212054531010948,0.9546417458364915,0.2874746375,0.6710046457210471
0.034,1.7711000000000001,1.0,2718.5935323506906,0.3178890192013395,1.320792966248131,0.9556342198883503,0.2874392,0.6718490842019307
0.0345,1.7702437500000001,1.0,2721.664615347294,0.32171511819797544,1.32037830967206,0.9565880557117702,0.2874032375,0.6726968708280407
0.035,1.7693753959004483,1.0,2724.3996865424924,0.32551975459355587,1.3199612594841148,0.95750522845172,0.28736676662781885,0.6735484452466166
0.035500000000000004,1.7685035419314734,1.0,2727.2138165671618,0.32930305625543754,1.3195419222794955,0.9583876231717213,0.2873301487611219,0.674403571128587
0.036000000000000004,1.7676316879624983,1.0,2730.262497841214,0.33306513985122194,1.3191204665474257,0.9592370094024504,0.28729353089442494,0.6752618872147749
0.0365,1.7667598339935233,1.0,2733.5275707666488,0.33680612204851035,1.3186970607771298,0.9600550460990277,0.287256913027728,0.6761230339668955
0.037,1.7658879800245482,1.0,2736.9908582309013,0.34052611951490425,1.3182718734578314,0.9608432898019699,0.28722029516103104,0.6769866535894202
0.0375,1.7650161260555732,1.0,2740.634158636545,0.344225248918005,1.3178450730787548,0.9616032021091463,0.2871836772943341,0.6778523900496207
0.038,1.764144272086598,1.0,2744.4392395610316,0.34790362692541393,1.3174168281291236,0.9623361565238335,0.28714705942763713,0.6787198890958113
0.0385,1.7632724181176231,1.0,2748.3878320453623,0.35156137020473255,1.3169873070981621,0.9630434447371786,0.2871104415609402,0.6795887982737738
0.039,1.762400564148648,1.0,2752.4616255124033,0.35519859542356214,1.3165566784750942,0.9637262823973961,0.2870738236942432,0.6804587669413771
0.0395,1.7615287101796728,1.0,2756.642263314756,0.35881541924950405,1.3161251107491436,0.9643858144126866,0.28703720582754627,0.681329446281383
0.04,1.760656856210698,1.0,2760.918361067716,0.36241195318087216,1.3156927089449626,0.9650231131862195,0.2870005879608493,0.6822006170886197
0.0405,1.7597850022417227,1.0,2765.274762860389,0.36598831606540105,1.315259611866789,0.96563919453717,0.28696397009415237,0.6830719933852092
0.041,1.7589131482727478,1.0,2769.7001709328156,0.36954462219408085,1.3148259231012387,0.9662350133118914,0.2869273522274554,0.6839433614268271
0.0415,1.7580412943037727,1.0,2774.1877035901066,0.37308098176637455,1.3143917061119363,0.9668114672089867,0.28689073436075846,0.684814589056205
0.042,1.7571694403347977,1.0,2778.730458369246,0.37659750498174493,1.3139570243625067,0.9673694046863928,0.2868541164940615,0.6856855448132665
0.0425,1.7562975863658226,1.0,2783.3215113406163,0.38009430203965505,1.3135219413165744,0.9679096281695644,0.28681749862736455,0.686556097937138
0.043000000000000003,1.7554257323968476,1.0,2787.9539164986277,0.38357148313956774,1.3130865204377642,0.968432897019284,0.2867808807606676,0.6874261183679001
0.043500000000000004,1.7545538784278725,1.0,2792.6207052417058,0.38702915848094593,1.3126508251897004,0.9689399302793661,0.28674426289397065,0.6882954767480848
0.044,1.7536820244588975,1.0,2797.3148859414864,0.3904674382632525,1.312214919036008,0.9694314092226147,0.2867076450272737,0.6891640444239127
0.0445,1.7528101704899224,1.0,2802.029443601632,0.3938864326859504,1.3117788654403115,0.9699079797117157,0.28667102716057674,0.6900316934462759
0.045,1.7519383165209472,1.0,2806.7613860313627,0.3972862454573997,1.3113426915954989,0.9703702506789172,0.2866344092938798,0.6908983685907847
0.0455,1.7510664625519723,1.0,2811.50290065456,0.40066699242669196,1.3109064677755666,0.9708188050771843,0.28659779142718284,0.6917639295131395
0.046,1.7501946085829971,1.0,2816.2509240175273,0.4040287790608108,1.3104702215202841,0.971254191847124,0.2865611735604859,0.6926283212664085
0.0465,1.7493227546140222,1.0,2821.002953642795,0.4073717096849765,1.3100339752609849,0.9716769320692968,0.28652455569378893,0.6934914993108132
0.047,1.748450900645047,1.0,2825.756478598178,0.4106958886244092,1.309597751429003,0.9720875211485906,0.286487937827092,0.6943534193562032
0.0475,1.7475790466760721,1.0,2830.5089795023487,0.41400142020432934,1.3091615724556718,0.9724864303225691,0.286451319960395,0.6952140373620421
0.048,1.746707192707097,1.0,2835.2579285414376,0.417288408749957,1.308725460772325,0.9728741080675822,0.28641470209369807,0.6960733095373584
0.0485,1.745835338738122,1.0,2840.0007894971563,0.4205569585865125,1.3082894388102964,0.9732509814104612,0.2863780842270011,0.696931192340665
0.049,1.7449634847691469,1.0,2844.735017785638,0.42380717403921603,1.3078535290009194,0.9736174571529477,0.28634146636030416,0.6977876424798471
0.0495,1.7440916308001717,1.0,2849.4583110554754,0.42703915828571687,1.3074177515465957,0.9739739227289665,0.2863048484936072,0.6986426212820012
0.05,1.7432197768311968,1.0,2854.1695833524836,0.4302530113317504,1.3069821157712966,0.9743207464848928,0.28626823062691026,0.6994961115962316
0.0505,1.7423479228622216,1.0,2858.866186808263,0.43344884179946874,1.3065466448416312,0.9746582817286549,0.2862316127602133,0.700348069312305
0.051000000000000004,1.7414760688932467,1.0,2863.547405039802,0.43662674845297905,1.3061113447089607,0.9749868634278268,0.28619499489351635,0.7011984841851779
0.051500000000000004,1.7406042149242715,1.0,2868.21251966003,0.43978683005638874,1.3056762213246471,0.9753068114479427,0.2861583770268194,0.7020473460353487
0.052000000000000005,1.7397323609552966,1.0,2872.860810301019,0.442929185373805,1.305241280640052,0.9756184313664398,0.28612175916012245,0.7028946447487916
0.0525,1.7388605069863214,1.0,2877.491554637391,0.4460539131693352,1.304806528606537,0.9759220152358723,0.2860851412934255,0.7037403702768891
0.053,1.7379886530173465,1.0,2882.104028411125,0.4491611122070866,1.3043719711754633,0.9762178422999684,0.28604852342672854,0.7045845126363613
0.0535,1.7371167990483714,1.0,2886.697505456704,0.4522508812511666,1.303937614298193,0.9765061796658315,0.2860119055600316,0.7054270619091927
0.054,1.7362449450793962,1.0,2891.271257727055,0.4553233190656823,1.3035034639260878,0.9767872829353189,0.28597528769333463,0.7062680082425571
0.0545,1.7353730911104213,1.0,2895.825696843785,0.4583785010598479,1.3030695159368813,0.9770613939196076,0.2859386698266377,0.7071073613194658
0.055,1.734501237141446,1.0,2900.3602042375705,0.46141652987184884,1.3026357753077438,0.9773287474097347,0.28590205195994073,0.7079451132139057
0.0555,1.7336293831724712,1.0,2904.8728307220467,0.4644375390326389,1.302202258726798,0.9775895719254323,0.2858654340932438,0.7087812334834867
0.056,1.732757529203496,1.0,2909.36369095636,0.4674416190214593,1.3017689646626887,0.977844081357725,0.2858288162265468,0.709615726933702
0.0565,1.731885675234521,1.0,2913.832900467623,0.4704288603175512,1.3013358915840594,0.9780924808041179,0.28579219835984987,0.7104485983521684
0.057,1.731013821265546,1.0,2918.280575643649,0.47339935340015565,1.3009030379595545,0.9783349670018187,0.2857555804931529,0.7112798525086443
0.0575,1.730141967296571,1.0,2922.7068337250766,0.4763531887485138,1.3004704022578184,0.9785717287362294,0.28571896262645596,0.7121094941550536
0.058,1.7292701133275958,1.0,2927.1117927982104,0.4792904568418668,1.300037982947495,0.9788029472263126,0.285682344759759,0.7129375280255059
0.0585,1.728398259358621,1.0,2931.495571787719,0.4822112481594557,1.2996057784972286,0.9790287964883064,0.28564572689306206,0.7137639588363189
0.059000000000000004,1.7275264053896457,1.0,2935.8582904489713,0.48511565318052174,1.299173787375663,0.9792494436791761,0.2856091090263651,0.7145887912860382
0.059500000000000004,1.7266545514206706,1.0,2940.2000693609743,0.488003762384306,1.2987420080514431,0.979465049421077,0.28557249115966815,0.7154120300554576
0.06,1.7257826974516957,1.0,2944.521029919427,0.4908756662500495,1.2983104389932125,0.9796757681080204,0.2855358732929712,0.716233679807643
0.0605,1.7249108434827205,1.0,2948.821294328942,0.4937314552569936,1.2978790786696155,0.9798817481958504,0.28549925542627425,0.7170537451879497
0.061,1.7240389895137456,1.0,2953.1009855965126,0.49657121988437924,1.2974479255492963,0.9800831324765605,0.2854626375595773,0.7178722308240442
0.0615,1.7231671355447704,1.0,2957.3602275240764,0.4993950506114476,1.297016978100899,0.9802800583379102,0.28542601969288034,0.7186891413259249
0.062,1.7222952815757955,1.0,2961.5991447017786,0.5022030379174399,1.296586234793068,0.9804726580092351,0.2853894018261834,0.7195044812859414
0.0625,1.7214234276068203,1.0,2965.8178625006403,0.5049952722815971,1.2961556940944472,0.9806610587942836,0.28535278395948643,0.7203182552788145
0.063,1.7205515736378454,1.0,2970.016507066269,0.5077718441831605,1.2957253544736809,0.980845383291857,0.28531616609278954,0.7211304678616576
0.0635,1.7196797196688702,1.0,2974.1952053110435,0.5105328441013711,1.2952952143994134,0.9810257496049802,0.2852795482260925,0.7219411235739939
0.064,1.7188078656998953,1.0,2978.354084908656,0.51327836251547,1.2948652723402887,0.9812022715392744,0.28524293035939563,0.7227502269377786
0.0645,1.7179360117309201,1.0,2982.493181492967,0.5160084315210929,1.2944355275718384,0.9813750547114497,0.2852063124926987,0.7235577809422613
0.065,1.717064157761945,1.0,2986.6132211766244,0.51872320251259,1.2940059733739024,0.9815442090449837,0.28516969462600167,0.7243637998101536
0.0655,1.71619230379297,1.0,2990.7144823421527,0.5214227675473251,1.2935766069349157,0.9817098365849191,0.28513307675930477,0.7251682903717538
0.066,1.715320449823995,1.0,2994.7971916809715,0.5241072071082452,1.293147425901631,0.981872035011944,0.28509645889260776,0.7259712585690301
0.0665,1.71444859585502,1.0,2998.8615768555633,0.5267766016782975,1.2927184279207993,0.982030898598705,0.28505984102591087,0.726772710317525
0.067,1.7135767418860448,1.0,3002.9078664882773,0.5294310317404292,1.2922896106391732,0.9821865183529841,0.2850232231592139,0.7275726515063792
0.0675,1.7127048879170699,1.0,3006.9362901530812,0.532070577777587,1.2918609717035046,0.9823389821538889,0.28498660529251696,0.7283710879983614
0.068,1.7118330339480947,1.0,3010.947078365539,0.5346953202727184,1.2914325087605452,0.9824883748814428,0.28494998742582,0.729168025629894
0.0685,1.7109611799791198,1.0,3014.9404625737407,0.5373053397087701,1.2910042194570472,0.9826347785399383,0.28491336955912305,0.72996347021108
0.069,1.7100893260101446,1.0,3018.916675149214,0.5399007165686895,1.2905761014397628,0.9827782723753968,0.2848767516924261,0.7307574275257294
0.0695,1.7092174720411695,1.0,3022.8759493778944,0.5424815313354235,1.2901481523554434,0.9829189329874511,0.28484013382572915,0.7315499033313851
0.07,1.7083456180721945,1.0,3026.81851945128,0.5450478644919193,1.2897203698508415,0.9830568344359556,0.2848035159590322,0.7323409033593483
0.07050000000000001,1.7074737641032194,1.0,3030.74462045751,0.5475997965211239,1.2892927515727086,0.9831920483426038,0.28476689809233524,0.7331304333147037
0.07100000000000001,1.7066019101342444,1.0,3034.654488373009,0.5501374079059844,1.2888652951677972,0.983324643987821,0.2847302802256383,0.7339184988763436
