Time [s],Phi [rad],STIM [ ],Fsee [N],Gamma [ ],Lcerel [ ],q [ ],Lmtc [m],fisomrel [ ]
0.0,1.8,1.0,18.7463691412543,0.0009004009391054445,1.3792533750426443,0.005208443685897683,0.288653,0.5413484614756485
0.0005,1.79999375,1.0,19.321542025858328,0.006504559710696947,1.3791879439113623,0.015596070224096294,0.2886527375,0.541506706608015
0.001,1.799975,1.0,23.324966319309183,0.01207728358294003,1.3787673100925408,0.040398094760542166,0.28865195,0.5425233571596333
0.0015,1.79994375,1.0,34.27361055612289,0.01761874888017116,1.3777798999708961,0.07705909767452385,0.2886506375,0.5449054438073333
0.002,1.7999,1.0,59.72603565551504,0.02312913093898316,1.3759803767271308,0.12230195446841867,0.2886488,0.5492307280488673
0.0025,1.79984375,1.0,106.80567565881111,0.028608604111159074,1.3734794791436338,0.17278524888997077,0.28864643749999996,0.5552075212327807
0.003,1.7997750000000001,1.0,173.16419057345286,0.034057341771638217,1.3707658087915253,0.22572426118365846,0.28864354999999997,0.5616476882371367
0.0035,1.79969375,1.0,251.25781366900483,0.039475516322054795,1.368172409668824,0.27899258655308273,0.2886401375,0.5677585355824353
0.004,1.7996,1.0,335.7834230138561,0.04486329919732711,1.3657810293851993,0.3310163930225293,0.2886362,0.5733553524933164
0.0045000000000000005,1.7994937500000001,1.0,424.0091645370723,0.05022086087387223,1.3635798380897028,0.380714898755152,0.2886317375,0.5784748129294179
0.005,1.799375,1.0,514.3905660603189,0.05554837085928935,1.3615424320118839,0.42742686588401735,0.28862675,0.5831858094863914
0.0055,1.79924375,1.0,605.8544953317734,0.0608459977276218,1.3596463720644005,0.4708166264444649,0.2886212375,0.5875461959850599
0.006,1.7991000000000001,1.0,697.5562132716387,0.06611390910142684,1.357874551377715,0.5107822664018588,0.2886152,0.5916001450133903
0.006500000000000001,1.79894375,1.0,788.7972644260336,0.07135227165647536,1.3562138428485293,0.5473788153816805,0.2886086375,0.5953816905710563
0.007,1.798775,1.0,879.0007083010017,0.07656125112679704,1.354653705444541,0.5807592710869639,0.28860155,0.5989182054032425
0.0075,1.79859375,1.0,967.6939265624803,0.08174101238769779,1.3531853483593628,0.6111320575066215,0.2885939375,0.6022324926794502
0.008,1.7984,1.0,1054.4855339925316,0.08689171917891216,1.3518013548950547,0.6387317964019719,0.2885858,0.6053437713456753
0.0085,1.79819375,1.0,1139.089342583702,0.09201353472186913,1.3504948296610904,0.6637996689956616,0.2885771375,0.6082696887144237
0.009000000000000001,1.797975,1.0,1221.2657016998182,0.09710662083436077,1.3492599135041183,0.6865717241532916,0.28856795,0.6110252322037493
0.0095,1.79774375,1.0,1300.8448452998655,0.10217113877830612,1.3480911545378202,0.7072714595662919,0.2885582375,0.6136241968511714
0.01,1.7975,1.0,1377.7001018542542,0.10720724864602095,1.3469836696975195,0.7261062047688129,0.288548,0.6160788678674831
0.0105,1.79724375,1.0,1451.7635604406532,0.1122151101872013,1.3459327718600087,0.7432653962858031,0.2885372375,0.618400884417255
0.011,1.796975,1.0,1522.9824053371249,0.11719488156872608,1.3449343930395297,0.7589206335068986,0.28852595000000003,0.6206003332221023
0.0115,1.79669375,1.0,1591.3361007309209,0.12214672015391612,1.3439847384361614,0.7732261580051283,0.2885141375,0.6226865424840742
0.012,1.7964,1.0,1656.836783748551,0.12707078258508478,1.3430801954985467,0.7863199361060484,0.28850180000000003,0.6246683018388998
0.0125,1.79609375,1.0,1719.5249814365127,0.13196722567863722,1.342217315641985,0.7983250008425273,0.2884889375,0.6265539186058483
0.013000000000000001,1.7957750000000001,1.0,1779.4246742631065,0.13683620342456687,1.3413932620541535,0.8093510408827774,0.28847555,0.6283502570919135
0.0135,1.79544375,1.0,1836.5876574653553,0.14167786964138973,1.3406052314707853,0.8194955414284083,0.2884616375,0.6300640187969797
0.014,1.7951000000000001,1.0,1891.082541579429,0.14649237743563176,1.3398505422865494,0.8288451473137954,0.2884472,0.6317015590163848
0.0145,1.79474375,1.0,1942.9936266188452,0.15127988046096702,1.3391266115376035,0.8374768794363064,0.2884322375,0.6332689456218858
0.015,1.794375,1.0,1992.3897534202742,0.15604052996867387,1.3384312563199698,0.845459342864432,0.28841675,0.6347713161533384
0.0155,1.79399375,1.0,2039.3362052527063,0.16077447557797087,1.3377625243014195,0.8528536499106456,0.2884007375,0.6362132563059089
0.016,1.7936,1.0,2083.9140765712173,0.16548186690807654,1.3371184631497226,0.8597142304873818,0.2883842,0.6375993042205648
0.0165,1.7931937500000001,1.0,2126.21435924549,0.1701628531352493,1.3364971674871609,0.8660896381620452,0.2883671375,0.6389338529117271
0.017,1.792775,1.0,2166.327976993528,0.17481758292577337,1.3358968654259271,0.872023270915986,0.28834955,0.6402209687405505
0.0175,1.7923437500000001,1.0,2204.3462737412747,0.17944620463050587,1.3353158961115965,0.8775539715778214,0.2883314375,0.6414644445627455
0.018000000000000002,1.7919,1.0,2240.3373200020005,0.18404886330353515,1.3347529328071708,0.8827166181798716,0.2883128,0.6426673277327737
0.0185,1.79144375,1.0,2274.377316002968,0.18862570399894965,1.3342066487756519,0.8875424976227131,0.2882936375,0.64383264003236
0.019,1.790975,1.0,2306.5499154815975,0.19317687177083784,1.3336757172800418,0.892059721039419,0.28827395,0.6449633791379135
0.0195,1.79049375,1.0,2336.935141464259,0.19770251033271863,1.333158914209251,0.8962936113458069,0.2882537375,0.646062301922554
0.02,1.79,1.0,2365.624098831185,0.2022027648839614,1.3326549654670434,0.9002669846606018,0.288233,0.6471322511164546
0.0205,1.78949375,1.0,2392.6898782763124,0.20667777768676393,1.332162825814643,0.9040004915050053,0.2882117375,0.648175564881477
0.021,1.788975,1.0,2418.195035547196,0.21112768895395478,1.331681595711234,0.9075128367350883,0.28818995000000003,0.6491942572271987
0.021500000000000002,1.78844375,1.0,2442.205987238928,0.21555263889836251,1.3312103756160003,0.9108209615651199,0.2881676375,0.6501903287127169
0.022,1.7879,1.0,2464.7926895946084,0.2199527677328157,1.3307482659881262,0.9139402341863817,0.2881448,0.6511657670467083
0.0225,1.78734375,1.0,2486.0235352024592,0.22432821474957784,1.3302944130040084,0.9168846261327519,0.28812143749999997,0.6521224513339845
0.023,1.786775,1.0,2505.965852095251,0.2286791190858174,1.3298480002042268,0.9196668578859486,0.28809755,0.6530621707948738
0.0235,1.78619375,1.0,2524.6907575189634,0.23300562046882772,1.3294081995149192,0.9222985197914667,0.28807313749999996,0.6539867286107754
0.024,1.7856,1.0,2542.247950690068,0.23730785395469955,1.3289744066995715,0.9247902279784965,0.2880482,0.6548974481398755
0.0245,1.78499375,1.0,2558.688953741124,0.2415859545995237,1.3285460175216703,0.9271516843608082,0.2880227375,0.6557956453145737
0.025,1.784375,1.0,2574.0669596545695,0.24584005745939083,1.3281224277447017,0.9293917678970268,0.28799675,0.6566826288613618
0.025500000000000002,1.78374375,1.0,2588.436688291187,0.25007029759039173,1.3277030331321522,0.9315186156309111,0.2879702375,0.6575597004974093
0.026000000000000002,1.7831000000000001,1.0,2601.8477545113183,0.25427680846771533,1.3272872899247987,0.9335397038742053,0.2879432,0.6584280288701554
0.0265,1.78244375,1.0,2614.3513043165326,0.25845972451577487,1.3268746512954468,0.9354619023157262,0.2879156375,0.6592887829734697
0.027,1.781775,1.0,2626.002520188937,0.26261918045556487,1.3264645431577062,0.9372915273048188,0.28788755,0.6601431825919329
0.0275,1.7810937500000001,1.0,2636.8380518534113,0.26675530583738016,1.326056572215188,0.9390344226516316,0.2878589375,0.6609920654186285
0.028,1.7804,1.0,2646.8953156750613,0.2708682302115156,1.3256503451715027,0.9406959779485584,0.2878298,0.6618362649543403
0.0285,1.77969375,1.0,2656.2124285117743,0.2749580831282663,1.325245468730261,0.9422811698274263,0.2878001375,0.662676610556227
0.029,1.778975,1.0,2664.828144996834,0.2790249941379271,1.3248415495950738,0.9437945989721053,0.28776995,0.6635139274766301
0.029500000000000002,1.7782437500000001,1.0,2672.781798250675,0.2830690927907928,1.3244381944695518,0.945240523369432,0.2877392375,0.6643490368920195
0.03,1.7775,1.0,2680.1067143627374,0.28709050596222646,1.3240350699538266,0.9466228952709349,0.287708,0.6651826321429168
0.0305,1.77674375,1.0,2686.8429958982742,0.2910893641456522,1.3236317845724133,0.9479453741447507,0.2876762375,0.6660155230053415
0.031,1.775975,1.0,2693.0220026434126,0.2950657939058568,1.3232280307376267,0.9492113672911068,0.28764395,0.6668483423006244
0.0315,1.7751937500000001,1.0,2698.669666757324,0.2990199192877339,1.3228235535845558,0.9504240473975849,0.2876111375,0.667681611132141
0.032,1.7744,1.0,2703.812203988531,0.30295186433617716,1.3224180982482898,0.9515863662294602,0.2875778,0.6685158479654214
0.0325,1.77359375,1.0,2708.4760865830353,0.3068617530960802,1.3220114098639177,0.9527010727151839,0.2875439375,0.6693515686143239
0.033,1.772775,1.0,2712.6880176324657,0.31074970961233667,1.3216032335665289,0.9537707293433939,0.28750955,0.6701892862230634
0.0335,1.7719437500000002,1.0,2716.474906862659,0.3146158579298402,1.321193314491212,0.954797727047124,0.2874746375,0.6710295112440987
0.034,1.7711000000000001,1.0,2719.8554004719817,0.31846031376535083,1.3207814746925948,0.9557843051272142,0.2874392,0.6718725940498858
0.0345,1.7702437500000001,1.0,2722.8657127086567,0.32228321113320896,1.3203673776529863,0.9567325440666897,0.2874032375,0.6727192070655257
0.035,1.7693750000000001,1.0,2725.524218783812,0.3260846692872846,1.319950850609408,0.9576444041663308,0.28736675,0.6735696849308556
0.035500000000000004,1.76849375,1.0,2727.8477266737377,0.3298648059270009,1.3195317360339025,0.9585217221325039,0.2873297375,0.6744243292957923
0.036000000000000004,1.7676,1.0,2729.853138251235,0.3336237387517813,1.319109876398513,0.9593662191476826,0.2872922,0.6752834400029522
0.0365,1.76669375,1.0,2731.5574388816726,0.33736158546104894,1.318685114175282,0.9601795094475746,0.2872541375,0.6761473150608657
0.037,1.765775,1.0,2732.9776875691173,0.3410784637542273,1.3182572918362525,0.9609631081687048,0.28721555,0.6770162506156072
0.0375,1.76484375,1.0,2734.1310076526343,0.34477449133073956,1.3178262518534671,0.9617184385359392,0.2871764375,0.6778905409208433
0.038,1.7639,1.0,2735.034578052662,0.3484497858900091,1.3173918366989688,0.9624468384521495,0.28713679999999997,0.6787704783062983
0.0385,1.76294375,1.0,2735.705625067879,0.3521044651314591,1.3169538888448002,0.9631495665457649,0.28709663750000003,0.6796563531446366
0.039,1.761975,1.0,2736.155205123178,0.3557386393113478,1.3165123071371903,0.9638278114864405,0.28705595,0.6805483400213423
0.0395,1.7609937500000001,1.0,2736.3993979178886,0.3593524286786731,1.3160669451061897,0.9644826909129464,0.2870147375,0.6814467034797221
0.04,1.76,1.0,2736.4562612379095,0.3629459553353004,1.3156176385722085,0.9651152572024027,0.286973,0.6823517417796645
0.0405,1.7589937500000001,1.0,2736.3349616702485,0.36651932964881073,1.315164304265481,0.965726508119966,0.2869307375,0.6832635883828294
0.041,1.757975,1.0,2736.0446830010997,0.3700726619867853,1.3147068589162418,0.9663173855737207,0.28688795,0.6841823754817369
0.0415,1.75694375,1.0,2735.594623306594,0.37360606271680535,1.3142452192547251,0.966888779319024,0.2868446375,0.685108233978156
0.042,1.7559,1.0,2734.9939921976124,0.37711964220645205,1.3137793020111654,0.967441530380291,0.28680079999999997,0.6860412934610518
0.0425,1.75484375,1.0,2734.2520082179117,0.3806135108233066,1.3133090239157974,0.9679764342144651,0.2867564375,0.686981682184089
0.043000000000000003,1.753775,1.0,2733.377896395877,0.3840877789349501,1.312834301698855,0.9684942436380971,0.28671155,0.6879295270426968
0.043500000000000004,1.75269375,1.0,2732.380885950968,0.3875425569089639,1.3123550520905731,0.9689956715379138,0.28666613750000003,0.6888849535506867
0.044,1.7516,1.0,2731.270208152287,0.390977955112929,1.3118711918211858,0.9694813933829001,0.2866202,0.6898480858164322
0.0445,1.75049375,1.0,2730.0550943327194,0.3943940839144267,1.3113826376209279,0.9699520495542593,0.2865737375,0.690819046518603
0.045,1.7493750000000001,1.0,2728.7423469275127,0.39779104829937006,1.3108893282847653,0.9704082484212165,0.28652675,0.691797913133442
0.0455,1.74824375,1.0,2727.3389325254843,0.4011689563097846,1.310391201106265,0.9708505677280771,0.2864792375,0.6927847649101089
0.046,1.7471,1.0,2725.8552448730525,0.40452792460337855,1.3098881621856369,0.9712795549789869,0.2864312,0.6937797415089555
0.0465,1.7459437500000001,1.0,2724.2958568081704,0.4078680562755963,1.3093801705167043,0.9716957323917417,0.28638263750000004,0.6947828765658641
0.047,1.744775,1.0,2722.6653393286338,0.41118945442188204,1.3088671850932896,0.9720995964128373,0.28633355,0.6957942027185829
0.0475,1.74359375,1.0,2720.968260981104,0.4144922221376801,1.3083491649092163,0.9724916192284222,0.28628393750000003,0.6968137515937147
0.048,1.7424,1.0,2719.2091872872156,0.41777646251843487,1.3078260689583066,0.9728722501730079,0.2862338,0.6978415537936093
0.0485,1.74119375,1.0,2717.392680207816,0.42104227865959054,1.307297856234384,0.9732419170437439,0.2861831375,0.6988776388831374
0.049,1.739975,1.0,2715.5232976433085,0.42428977365659143,1.306764485731271,0.9736010273274,0.28613195,0.6999220353763674
0.0495,1.73874375,1.0,2713.605592972325,0.4275190506048819,1.3062259164427905,0.9739499693466,0.2860802375,0.7009747707231284
0.05,1.7375,1.0,2711.6441146270904,0.4307302125999062,1.3056821073627658,0.9742891133313076,0.286028,0.7020358712954673
0.0505,1.73624375,1.0,2709.6434057063616,0.4339233627371086,1.3051330174850193,0.9746188124210692,0.2859752375,0.7031053623740016
0.051000000000000004,1.734975,1.0,2707.6088011196184,0.4370986036121186,1.3045785985252065,0.9749394030720077,0.28592195,0.7041832822717509
0.051500000000000004,1.7336990864317092,1.0,2705.7971150623125,0.44025603493479043,1.3040189162392832,0.9752512135393699,0.2858683616301318,0.7052694469664913
0.052000000000000005,1.7324231367906961,1.0,2704.522595562479,0.4433957566423158,1.3034543178201161,0.9755545753164753,0.28581477174520925,0.7063631281770663
0.0525,1.7311471871496833,1.0,2703.749356747343,0.44651786699859863,1.3028851438325109,0.9758498045295072,0.2857611818602867,0.7074636149411965
0.053,1.7298712375086702,1.0,2703.439895440048,0.4496224642675431,1.3023117348412736,0.976137203359442,0.28570759197536416,0.7085702008203427
0.0535,1.7285952878676574,1.0,2703.5568429486207,0.4527096467130532,1.3017344314112105,0.9764170607866265,0.2856540020904416,0.7096821839953875
0.054,1.7273193382266443,1.0,2704.064301589911,0.4557795121751796,1.301153561621333,0.9766896524857602,0.28560041220551907,0.7107988913354145
0.0545,1.7260433885856314,1.0,2704.932466035551,0.45883215706447594,1.300569398621397,0.9769552388671209,0.2855468223205965,0.7119197596057771
0.055,1.7247674389446184,1.0,2706.1218998646,0.46186768144665874,1.2999823040025267,0.9772140749274186,0.285493232435674,0.7130440602210959
0.0555,1.7234914893036055,1.0,2707.611294854581,0.46488617974131397,1.2993924741618321,0.9774663946478329,0.28543964255075144,0.7141713852527318
0.056,1.7222155396625924,1.0,2709.379371334401,0.46788774636802755,1.298800105496423,0.9777124222751628,0.2853860526658289,0.7153013295769337
0.0565,1.7209395900215796,1.0,2711.404866701774,0.4708724757463853,1.2982053944034098,0.9779523728118686,0.28533246278090635,0.7164334909078662
0.057,1.7196636403805665,1.0,2713.66652479584,0.47384046229597326,1.297608537279902,0.97818645247767,0.2852788728959838,0.7175674698281798
0.0575,1.7183876907395537,1.0,2716.1430861245535,0.47679180043637726,1.2970097305230097,0.9784148591445525,0.28522528301106126,0.718702869817121
0.058,1.7171117410985406,1.0,2718.81568604801,0.47972658335386004,1.2964091486072582,0.9786377814080032,0.2851716931261387,0.7198393387178582
0.0585,1.7158357914575277,1.0,2721.6662745039666,0.48264490491684725,1.2958069584533067,0.9788554000047206,0.28511810324121617,0.7209765412327924
0.059000000000000004,1.7145598418165147,1.0,2724.677540301259,0.4855468588938268,1.2952033200781654,0.9790678881598592,0.2850645133562936,0.7221141575727941
0.059500000000000004,1.7132838921755018,1.0,2727.838183279578,0.4884325356736129,1.2945983386272868,0.9792754090552801,0.2850109234713711,0.7232519734631456
0.06,1.7120079425344887,1.0,2731.1368891219945,0.4913020256450198,1.293992119246124,0.9794781195546746,0.28495733358644854,0.7243897762154747
0.0605,1.7107319928934759,1.0,2734.5623263464995,0.4941554191968617,1.2933847670801295,0.9796761704998291,0.284903743701526,0.72552735473641
0.061,1.7094560432524628,1.0,2738.1031435427217,0.4969928067179529,1.2927763872747564,0.9798697069908304,0.28485015381660345,0.7266644995355289
0.0615,1.70818009361145,1.0,2741.7479668535375,0.49981427859710753,1.2921670849754576,0.9800588686511972,0.2847965639316809,0.7278010027326012
0.062,1.7069041439704369,1.0,2745.491552123675,0.5026199184742218,1.2915569095494461,0.9802437864483059,0.28474297404675836,0.7289367617792606
0.0625,1.705628194329424,1.0,2749.3185714171527,0.5054098229981536,1.2909460016037744,0.9804245921988685,0.2846893841618358,0.7300715055828333
0.063,1.704352244688411,1.0,2753.218574127905,0.508184083792581,1.2903344572492907,0.9806014102045113,0.28463579427691327,0.7312050476204075
0.0635,1.703076295047398,1.0,2757.186647803836,0.5109427861770763,1.2897223222652896,0.9807743572012279,0.2845822043919907,0.7323372958584429
0.064,1.701800345406385,1.0,2761.217867862501,0.5136860154712118,1.2891096424310646,0.9809435456969413,0.2845286145070682,0.7334681589712435
0.0645,1.7005243957653722,1.0,2765.307297014855,0.5164138569945599,1.2884964635259104,0.9811090841568443,0.28447502462214563,0.7345975463426118
0.065,1.699248446124359,1.0,2769.4499847355955,0.5191263960666928,1.2878828313291204,0.9812710771793302,0.2844214347372231,0.7357253680673763
0.0655,1.6979724964833462,1.0,2773.64096677951,0.5218237180071829,1.287268791619989,0.9814296256630501,0.28436784485230054,0.7368515349527786
0.066,1.6966965468423332,1.0,2777.8752647450183,0.5245059081356023,1.28665439017781,0.981584826965611,0.284314254967378,0.7379759585197316
0.0665,1.6954205972013203,1.0,2782.1478856833814,0.5271730517715235,1.2860396727818777,0.9817367750543822,0.28426066508245545,0.7390985510039424
0.067,1.6941446475603072,1.0,2786.453821755178,0.5298252342345188,1.285424685211486,0.9818855606498624,0.2842070751975329,0.7402192253569011
0.0675,1.6928686979192942,1.0,2790.788049932445,0.5324625408441604,1.2848094732459288,0.9820312713620203,0.28415348531261037,0.7413378952467367
0.068,1.6915927482782813,1.0,2795.1502177099,0.5350850434491721,1.2841940405740349,0.98217398894547,0.2840998954276878,0.7424545513463132
0.0685,1.6903167986372685,1.0,2799.533491469011,0.5376928387223645,1.2835784490453712,0.9823137967361167,0.2840463055427653,0.743569079199687
0.069,1.6890408489962554,1.0,2803.9333289958436,0.5402860151219876,1.2829627397681804,0.9824507737768814,0.28399271565784273,0.7446814027515466
0.0695,1.6877648993552423,1.0,2808.3481529802616,0.5428646516514801,1.2823469271539543,0.9825849946451457,0.2839391257729202,0.7457914946642846
0.07,1.6864889497142295,1.0,2812.7763811318896,0.545428827314281,1.2817310256141847,0.9827165314560068,0.28388553588799764,0.7468993278264655
0.07050000000000001,1.6852130000732164,1.0,2817.2164261493276,0.5479786211138289,1.2811150495603638,0.9828454539607676,0.2838319460030751,0.7480048753529152
0.07100000000000001,1.6839370504322035,1.0,2821.666695694074,0.5505141120535624,1.2804990134039835,0.9829718296408574,0.28377835611815255,0.7491081105847955
0.07150000000000001,1.6826611007911905,1.0,2826.1255923690514,0.5530353791369204,1.2798829315565354,0.983095723797417,0.28372476623323,0.7502090070896674
0.07200000000000001,1.6813851511501776,1.0,2830.5915137016063,0.5555425013673415,1.279266818429512,0.983217199636781,0.28367117634830746,0.7513075386615371
0.0725,1.6801092015091648,1.0,2835.062852131378,0.5580355577482645,1.2786506884344044,0.9833363183520666,0.2836175864633849,0.7524036793208944
0.073,1.6788332518681517,1.0,2839.537995002438,0.5605146272831283,1.2780345559827053,0.9834531392010754,0.2835639965784624,0.7534974033147319
