Time [s],Phi [rad],STIM [ ],Fsee [N],Gamma [ ],Lcerel [ ],q [ ],Lmtc [m],fisomrel [ ]
0.0,1.8,1.0,17.970207438990137,5.135191941378745e-05,1.3793394046138399,0.00500069379575827,0.288653,0.5411403574847498
0.0005,1.79999375,1.0,18.293263126521246,0.005660273184563786,1.3793005532667497,0.01305571228717654,0.2886527375,0.5412343440418927
0.001,1.799975,1.0,21.665606408174213,0.011237732836135581,1.3789334814215592,0.03582437693567497,0.28865195,0.542121864342273
0.0015,1.79994375,1.0,31.18194609278292,0.016783907349803524,1.3780366099094747,0.07089690131378665,0.2886506375,0.5442867396943611
0.002,1.7999,1.0,53.825734374361765,0.022298972209526365,1.3763523625015677,0.11506731887878166,0.2886488,0.5483383266565326
0.0025,1.79984375,1.0,97.5283207111026,0.027783101915395708,1.3739154608119404,0.1649548116488617,0.28864643749999996,0.5541684571613338
0.003,1.7997750000000001,1.0,161.49120024955212,0.03323646999097109,1.3711944082988028,0.2176723602326482,0.28864354999999997,0.5606336455602733
0.0035,1.79969375,1.0,238.2857795909451,0.0386592489831752,1.3685661889836873,0.2710026610123437,0.2886401375,0.5668334322003854
0.004,1.7996,1.0,322.10782355471974,0.04405161047299409,1.3661391218277292,0.3232931937847828,0.2886362,0.5725195901378166
0.0045000000000000005,1.7994937500000001,1.0,409.93165220597587,0.04941372508068553,1.363907236184733,0.3733927424275607,0.2886317375,0.5777153171313422
0.005,1.799375,1.0,500.09096597493135,0.05474576245706261,1.3618439512184568,0.420582610276919,0.28862675,0.5824902900721143
0.0055,1.79924375,1.0,591.4739277208025,0.060047891328782625,1.3599254847590188,0.4644839910221393,0.2886212375,0.5869057570822238
0.006,1.7991000000000001,1.0,683.2025213070114,0.06532027944680527,1.3581339770584484,0.5049651159668922,0.2886152,0.5910078267739118
0.006500000000000001,1.79894375,1.0,774.564077173033,0.07056309363711355,1.35645560001363,0.5420614593677939,0.2886086375,0.594832287050137
0.007,1.798775,1.0,864.9631673307099,0.0757764997890381,1.3548794556673696,0.5759143313117471,0.28860155,0.5984074360498453
0.0075,1.79859375,1.0,953.9058032045002,0.08096066277137061,1.3533965896764693,0.6067260006341002,0.2885939375,0.6017565382813815
0.008,1.7984,1.0,1041.014237899195,0.08611574690703647,1.3519989927776446,0.6347283370679015,0.2885858,0.6049002202918486
0.0085,1.79819375,1.0,1125.9573480917152,0.0912419149251891,1.3506801385760596,0.66016271601246,0.2885771375,0.6078553584447565
0.009000000000000001,1.797975,1.0,1208.4977823401905,0.09633932904982591,1.3494338705426365,0.6832664214298213,0.28856795,0.6106376598137498
0.0095,1.79774375,1.0,1288.4770558153145,0.10140815112218861,1.3482543855510605,0.7042649866798736,0.2885582375,0.6132617440830783
0.01,1.7975,1.0,1365.7462121129397,0.10644854094143019,1.3471369422603938,0.7233684476663043,0.288548,0.6157396151725256
0.0105,1.79724375,1.0,1440.2163621493971,0.11146065794689317,1.3460769774940178,0.7407690478099487,0.2885372375,0.6180826710733581
0.011,1.796975,1.0,1511.852043423085,0.11644466095812045,1.3450700821169395,0.75664092099663,0.28852595000000003,0.6203017807009206
0.0115,1.79669375,1.0,1580.6403895483088,0.1214007081035795,1.3441122788084496,0.7711408027653025,0.2885141375,0.62240669506778
0.012,1.7964,1.0,1646.565561215521,0.126328955448636,1.343200212923081,0.784409165493788,0.28850180000000003,0.62440565640801
0.0125,1.79609375,1.0,1709.6521387639184,0.1312295589822403,1.3423305426636143,0.7965712525200389,0.2884889375,0.6263067587998576
0.013000000000000001,1.7957750000000001,1.0,1769.9483026288806,0.13610267378280982,1.3415000861013084,0.8077385634678454,0.28847555,0.6281176377321395
0.0135,1.79544375,1.0,1827.523064211372,0.14094845527215744,1.3407058010736206,0.8180102514716455,0.2884616375,0.6298455265139749
0.014,1.7951000000000001,1.0,1882.4163348938193,0.14576705556282854,1.339945288004766,0.8274746373189277,0.2884472,0.6314961771790712
0.0145,1.79474375,1.0,1934.6916733707355,0.1505586267673685,1.3392161473189592,0.8362101858427231,0.2884322375,0.633075272315313
0.015,1.794375,1.0,1984.431343269109,0.15532332075721897,1.3385160104526284,0.8442866531467645,0.28841675,0.6345883630970537
0.0155,1.79399375,1.0,2031.7209756958262,0.16006128849675955,1.3378426795497744,0.8517661508630923,0.2884007375,0.63604057357981
0.016,1.7936,1.0,2076.6557256460696,0.16477268126034128,1.33719403570316,0.8587040178561501,0.2883842,0.6374368057596176
0.0165,1.7931937500000001,1.0,2119.3000850543344,0.16945764672810387,1.3365684337452552,0.8651497363439771,0.2883671375,0.6387808973414086
0.017,1.792775,1.0,2159.7306858125808,0.1741163325801871,1.3359642285085302,0.8711474826359824,0.28834955,0.6400766491156508
0.0175,1.7923437500000001,1.0,2198.03528339024,0.17874888649673065,1.3353797748254557,0.8767367543345728,0.2883314375,0.6413278272896259
0.018000000000000002,1.7919,1.0,2234.298406000113,0.183355454791943,1.3348135620963957,0.8819529556842648,0.2883128,0.6425378783046014
0.0185,1.79144375,1.0,2268.6185938136286,0.18793618527468992,1.3342640283626694,0.8868278277550137,0.2882936375,0.643710329536864
0.019,1.790975,1.0,2301.0696906400394,0.19249122217140419,1.333729937655536,0.8913899638551579,0.28827395,0.6448479869656634
0.0195,1.79049375,1.0,2331.721236111416,0.19702070847045935,1.3332101613490677,0.8956651151033925,0.2882537375,0.6459534068039805
0.02,1.79,1.0,2360.6485496079176,0.20152478716022895,1.3327035708173358,0.8996764875605137,0.288233,0.6470291261651595
0.0205,1.78949375,1.0,2387.932244923163,0.20600360122908648,1.3322090374344127,0.9034450280234321,0.2882117375,0.648077664052618
0.021,1.788975,1.0,2413.643655281548,0.21045729167855617,1.33172556903897,0.9069897033962692,0.28818995000000003,0.6491012335643226
0.021500000000000002,1.78844375,1.0,2437.870399675125,0.21488600232658783,1.3312520565143386,0.910327665779817,0.2881676375,0.6501022801499408
0.022,1.7879,1.0,2460.67449113894,0.21928987235996256,1.3307876741311275,0.9134745276514223,0.2881448,0.6510826359786958
0.0225,1.78734375,1.0,2482.1136118507766,0.22366903979601327,1.3303316670859269,0.9164444837097104,0.28812143749999997,0.6520439723221696
0.023,1.786775,1.0,2502.2481706081503,0.2280236426520728,1.3298832805753271,0.9192504468541838,0.28809755,0.6529879502450893
0.0235,1.78619375,1.0,2521.1410745092257,0.23235381894547402,1.3294417597959183,0.9219041816710224,0.28807313749999996,0.6539162209903332
0.024,1.7856,1.0,2538.853286300637,0.23665970591216287,1.329006389782248,0.9244164292845298,0.2880482,0.6548303427374093
0.0245,1.78499375,1.0,2555.4418016794525,0.24094143985179511,1.3285765118527204,0.9267970137046876,0.2880227375,0.6557317469984028
0.025,1.784375,1.0,2570.978359737072,0.24519915925919095,1.3281513458242928,0.929054904040528,0.28799675,0.6566221117146218
0.025500000000000002,1.78374375,1.0,2585.505866367451,0.24943299685698458,1.3277303972230021,0.9311983641428009,0.2879702375,0.6575025087246595
0.026000000000000002,1.7831000000000001,1.0,2599.068492443783,0.2536430853678103,1.3273131715748854,0.9332349756676552,0.2879432,0.6583740041887425
0.0265,1.78244375,1.0,2611.7115684031196,0.2578295575143022,1.326899174405979,0.9351717036004515,0.2879156375,0.6592376587139328
0.027,1.781775,1.0,2623.481484252253,0.26199254601909466,1.3264879112423205,0.9370149546876155,0.28788755,0.6600945274637331
0.0275,1.7810937500000001,1.0,2634.425594994145,0.2661321836048219,1.3260788876099465,0.9387706296201611,0.2878589375,0.6609456602521042
0.028,1.7804,1.0,2644.5866085912303,0.27024859906732807,1.3256716600353704,0.940444175613598,0.2878298,0.6617919956945348
0.0285,1.77969375,1.0,2654.0124554756608,0.27434192799060314,1.325265743843403,0.9420406185658211,0.2878001375,0.6626345531951459
0.029,1.778975,1.0,2662.7362961020026,0.27841229790391425,1.3248607968296118,0.9435646209336084,0.28776995,0.6634740519235641
0.029500000000000002,1.7782437500000001,1.0,2670.791398101721,0.2824598360438655,1.3244564808140642,0.9450204974930686,0.2877392375,0.6643111991637525
0.03,1.7775,1.0,2678.211522934982,0.28648466964706115,1.3240524576168289,0.9464122453093345,0.287708,0.6651466987005528
0.0305,1.77674375,1.0,2685.030880100383,0.2904869259501055,1.323648389057974,0.9477435711644413,0.2876762375,0.6659812508296502
0.031,1.775975,1.0,2691.284083880086,0.2944667321896027,1.3232439369575677,0.9490179162931202,0.28764395,0.6668155523602424
0.0315,1.7751937500000001,1.0,2696.9998360547474,0.298424211445995,1.3228388205299757,0.9502384845762093,0.2876111375,0.6676501784400961
0.032,1.7744,1.0,2702.2056497136246,0.30235948829202364,1.3224327726040903,0.9514082585506339,0.2875778,0.6684856733126243
0.0325,1.77359375,1.0,2706.9454332562805,0.3062726995837855,1.3220253787921712,0.9525300014287339,0.2875439375,0.6693228807836693
0.033,1.772775,1.0,2711.239173513612,0.31016396559568327,1.3216164455224615,0.9536063098305101,0.28750955,0.6701621874027346
0.0335,1.7719437500000002,1.0,2715.1070402987007,0.31403340660211965,1.3212057792232046,0.9546396061482746,0.2874746375,0.6710039776582077
0.034,1.7711000000000001,1.0,2718.569369201038,0.31788114287749725,1.3207931863226432,0.9556321523115567,0.2874392,0.6718486339571618
0.0345,1.7702437500000001,1.0,2721.6466452121376,0.3217072946962187,1.3203784732490207,0.956586062309725,0.2874032375,0.6726965366027633
0.035,1.7693750000000001,1.0,2724.359487181684,0.32551198233268686,1.31996144643058,0.9575033135974977,0.28736675,0.6735480637692955
0.035500000000000004,1.76849375,1.0,2726.728633104221,0.32929532606130424,1.3195419122955645,0.958385757494679,0.2873297375,0.6744035914747888
0.036000000000000004,1.7676,1.0,2728.7749262371963,0.3330574461564736,1.319119677272217,0.9592351286792691,0.2872922,0.6752634935512631
0.0365,1.76669375,1.0,2730.5193020490833,0.3367984628925975,1.3186945477887804,0.9600530538623612,0.2872541375,0.6761281416125791
0.037,1.765775,1.0,2731.982775998731,0.34051849654407884,1.3182663302734983,0.960841059723755,0.28721555,0.6769979050198996
0.0375,1.76484375,1.0,2733.172733874934,0.34421765863287357,1.317834955582875,0.9616005904845878,0.2871764375,0.6778728986276527
0.038,1.7639,1.0,2734.1158795730744,0.34789607551810886,1.3174001795682604,0.9623329898620757,0.28713679999999997,0.6787535905932273
0.0385,1.76294375,1.0,2734.8300646123266,0.3515538649868757,1.3169618389630424,0.9630395277206865,0.28709663750000003,0.6796402826567806
0.039,1.761975,1.0,2735.3263355122835,0.3551911398967148,1.3165198326504484,0.963721404221576,0.28705595,0.6805331490399622
0.0395,1.7609937500000001,1.0,2735.61576980616,0.35880801310516713,1.3160740595137064,0.9643797499058367,0.2870147375,0.6814323625718304
0.04,1.76,1.0,2735.7094717158266,0.36240459746977344,1.3156244184360437,0.9650156304740363,0.286973,0.682338094664889
0.0405,1.7589937500000001,1.0,2735.6185680544486,0.3659810058480746,1.3151708083006883,0.9656300511887829,0.2869307375,0.683250515290468
0.041,1.757975,1.0,2735.3542043554003,0.3695373510976113,1.314713127990868,0.966223960933706,0.28688795,0.6841697929534554
0.0415,1.75694375,1.0,2734.927541227607,0.3730737460759246,1.31425127638981,0.9667982559589844,0.2868446375,0.6850960946663752
0.042,1.7559,1.0,2734.3497509383697,0.3765903036405552,1.3137851523807424,0.9673537833406219,0.28680079999999997,0.6860295859228133
0.0425,1.75484375,1.0,2733.6320142222644,0.38008713664904387,1.313314654846893,0.9678913441780789,0.2867564375,0.6869704306701923
0.043000000000000003,1.753775,1.0,2732.7798865042814,0.38356435133975214,1.3128397338226963,0.9684116996615545,0.28671155,0.6879186892275018
0.043500000000000004,1.75269375,1.0,2731.805961240869,0.38702206359510055,1.3123602754580501,0.9689155669293958,0.28666613750000003,0.6888745482008005
0.044,1.7516,1.0,2730.7218878349627,0.3904603865054305,1.3118761744803575,0.9694036256547796,0.2866202,0.6898381753555407
0.0445,1.75049375,1.0,2729.5337368250953,0.3938794260711802,1.3113873763081056,0.9698765230386467,0.2865737375,0.6908096360840377
0.045,1.7493750000000001,1.0,2728.247579735588,0.39727928829278775,1.3108938263597818,0.9703348729682584,0.28652675,0.6917889946791258
0.0455,1.74824375,1.0,2726.869487962754,0.40066007917069146,1.3103954700538731,0.9707792580526559,0.2864792375,0.6927763143177141
0.046,1.7471,1.0,2725.405531726956,0.4040219047053294,1.3098922528088666,0.9712102315147353,0.2864312,0.6937716570441503
0.0465,1.7459437500000001,1.0,2723.861779090153,0.4073648708971398,1.3093841200432497,0.9716283189513153,0.28638263750000004,0.6947750837533931
0.047,1.744775,1.0,2722.2442950400314,0.41068908374656093,1.3088710171755094,0.9720340199715838,0.28633355,0.6957866541739994
0.0475,1.74359375,1.0,2720.5591406404756,0.4139946492540309,1.308352889624133,0.9724278097234001,0.28628393750000003,0.696806426850916
0.048,1.7424,1.0,2718.812372246917,0.4172816734199879,1.3078296828076075,0.9728101403161101,0.2862338,0.6978344591280861
0.0485,1.74119375,1.0,2717.0074508090647,0.4205502542517702,1.3073013657404144,0.9731814428032162,0.2861831375,0.6988707608867221
0.049,1.739975,1.0,2715.149856855787,0.423800498736148,1.3067678890082308,0.9735421275835802,0.28613195,0.6999153771474291
0.0495,1.73874375,1.0,2713.2472967450426,0.42703252105384243,1.306229182851966,0.9738925851844196,0.2860802375,0.7009683914853861
0.05,1.7375,1.0,2711.302726706366,0.4302464200401164,1.30568522074794,0.9742331889892032,0.286028,0.7020298017100869
0.0505,1.73624375,1.0,2709.319099853337,0.43344229453023253,1.3051359761724715,0.9745642951363995,0.2859752375,0.7030996047362019
0.051000000000000004,1.734975,1.0,2707.2993659624667,0.4366202433594537,1.3045814226018806,0.9748862434667446,0.28592195,0.7041777965746641
0.051500000000000004,1.73369375,1.0,2705.24647126777,0.43978036536304277,1.3040215335124865,0.9751993584103587,0.2858681375,0.705264372323712
0.052000000000000005,1.7324,1.0,2703.1633582706813,0.4429227593762624,1.3034562823806086,0.9755039498180337,0.2858138,0.7063593261598862
0.0525,1.73109375,1.0,2701.0529655659893,0.44604752423437544,1.3028856426825663,0.9758003137406533,0.28575893750000003,0.707462651328982
0.053,1.729775,1.0,2698.9182276829806,0.44915475877264466,1.3023095878946795,0.9760887331604138,0.28570355000000003,0.7085743401369549
0.0535,1.72844375,1.0,2696.7620749424073,0.45224456182633294,1.3017280914932674,0.9763694786772047,0.2856476375,0.7096943839407859
0.054,1.7271,1.0,2694.5874333291513,0.45531703223070297,1.3011411269546493,0.9766428091532674,0.2855912,0.7108227731392978
0.0545,1.7257437500000001,1.0,2692.3972243799944,0.4583722688210176,1.3005486677551448,0.9769089723189951,0.2855342375,0.7119594971639274
0.055,1.724375,1.0,2690.1943599078877,0.4614103671639539,1.2999506874184963,0.9771682050305545,0.28547675,0.7131045443787358
0.0555,1.72299375,1.0,2687.982120593275,0.46443139912886716,1.2993471560475023,0.9774207316937267,0.2854187375,0.7142579086934704
0.056,1.7216,1.0,2685.762583442216,0.46743550230878694,1.2987380547260814,0.9776667741316203,0.2853602,0.7154195620487143
0.0565,1.72019375,1.0,2683.5368476778544,0.47042276727482224,1.2981233734707585,0.9779065410675712,0.28530113749999997,0.7165894585153529
0.057,1.718775,1.0,2681.3060107486235,0.47339328459808194,1.2975031022980583,0.9781402326401821,0.28524155,0.7177675514127266
0.0575,1.71734375,1.0,2679.071168314652,0.476347144849675,1.2968772312245063,0.9783680408236309,0.2851814375,0.7189537933050736
0.058,1.7159,1.0,2676.833414237095,0.47928443860071035,1.296245750266627,0.9785901498241336,0.2851208,0.7201481359979698
0.0585,1.71444375,1.0,2674.593840568932,0.482205256422297,1.2956086494409451,0.9788067364540917,0.2850596375,0.7213505305347591
0.059000000000000004,1.7129750000000001,1.0,2672.3535375481933,0.4851096888855438,1.2949659187639861,0.9790179704853442,0.28499795,0.7225609271929768
0.059500000000000004,1.71149375,1.0,2670.1135935938605,0.48799782656155977,1.2943175482522746,0.9792240149828502,0.2849357375,0.7237792754807717
0.06,1.71,1.0,2667.875095303058,0.49086976002145377,1.2936635279223356,0.9794250266200264,0.284873,0.7250055241333151
0.0605,1.7084937500000001,1.0,2665.63912745144,0.4937255798363348,1.293003847790694,0.9796211559768856,0.2848097375,0.7262396211092086
0.061,1.7069750000000001,1.0,2663.4067729950916,0.49656537657731187,1.2923384978738748,0.9798125478220352,0.28474595,0.7274815135868831
0.0615,1.7054437500000001,1.0,2661.1791130746224,0.4993892408154938,1.2916674681884028,0.9799993413795305,0.2846816375,0.7287311479609918
0.062,1.7039,1.0,2658.957227022558,0.5021972631219896,1.290990748750803,0.9801816705814994,0.2846168,0.729988469838798
0.0625,1.70234375,1.0,2656.74219237104,0.5049895340679081,1.2903083295776003,0.9803596643074051,0.2845514375,0.7312534240365542
0.063,1.7007750000000001,1.0,2654.53508486361,0.5077661442243585,1.2896202006853197,0.9805334466107402,0.28448555,0.7325259545758774
0.0635,1.69919375,1.0,2652.3370949183286,0.5105271796164711,1.2889263510167108,0.9807031365433609,0.28441913750000003,0.7338060066587003
0.064,1.6976,1.0,2650.1507839803435,0.5132726726386979,1.2882267568491994,0.980868844222152,0.2843522,0.7350935479470424
0.0645,1.69599375,1.0,2647.9744049621536,0.5160027922824425,1.287521434182806,0.981030687611756,0.2842847375,0.7363884722112957
0.065,1.694375,1.0,2645.8080958283927,0.51871761951845,1.2868103816410408,0.9811887731879068,0.28421675,0.7376907046649253
0.0655,1.69274375,1.0,2643.651994346813,0.5214172353174652,1.2860935978474133,0.9813432035959997,0.2841482375,0.7390001698683755
0.066,1.6911,1.0,2641.5062380908003,0.5241017206502333,1.2853710814254338,0.9814940778147498,0.2840792,0.7403167917285665
0.0665,1.6894437500000001,1.0,2639.370964442372,0.5267711564874993,1.2846428309986122,0.9816414913117175,0.2840096375,0.7416404934983912
0.067,1.687775,1.0,2637.24631059429,0.5294256238000081,1.2839088451904583,0.9817855361911615,0.28393955,0.7429711977762129
0.0675,1.68609375,1.0,2635.132413553373,0.532065203558505,1.2831691226244826,0.9819263013346534,0.2838689375,0.7443088265053596
0.068,1.6844000000000001,1.0,2633.029410142947,0.5346899767337348,1.2824236619241944,0.9820638725348491,0.2837978,0.7456533009736235
0.0685,1.68269375,1.0,2630.9374370055675,0.5373000242964425,1.2816724617131043,0.9821983326228002,0.2837261375,0.7470045418127544
0.069,1.680975,1.0,2628.856630606263,0.5398954272173733,1.280915520614722,0.9823297615891569,0.28365395,0.7483624689979582
0.0695,1.67924375,1.0,2626.78712723508,0.542476266467272,1.2801528372525575,0.9824582366995959,0.28358123749999997,0.7497270018473918
0.07,1.6775,1.0,2624.7290630102216,0.5450426230168838,1.2793844102501206,0.9825838326047863,0.283508,0.7510980590216592
0.07050000000000001,1.67574375,1.0,2622.682573880935,0.5475945778369536,1.2786102382309215,0.982706621445185,0.2834342375,0.7524755585233074
0.07100000000000001,1.673975,1.0,2620.647795630501,0.5501322118982266,1.2778303198184702,0.982826672950939,0.28335995,0.753859417696322
0.07150000000000001,1.67219375,1.0,2618.624863879439,0.5526556061714476,1.2770446536362765,0.9829440545371555,0.2832851375,0.7552495532256237
0.07200000000000001,1.6704,1.0,2616.613914088642,0.5551648416273617,1.2762532383078506,0.98305883139478,0.2832098,0.7566458811365622
0.0725,1.66859375,1.0,2614.615081562214,0.5576599992367139,1.2754560724567026,0.9831710665773152,0.2831339375,0.7580483167944128
0.073,1.6667750000000001,1.0,2612.6285014511423,0.5601411599702494,1.274653154706342,0.9832808210835969,0.28305755,0.7594567749038718
0.0735,1.66494375,1.0,2610.6543087560844,0.5626084047987131,1.2738444836802791,0.9833881539368279,0.2829806375,0.7608711695085502
0.074,1.6631,1.0,2608.692638330939,0.5650618146928499,1.2730300580020237,0.9834931222600654,0.2829032,0.7622914139904706
0.0745,1.6612437500000001,1.0,2606.7437678478536,0.5675014592331427,1.272209874965371,0.9835957806446796,0.2828252375,0.7637174233779882
0.075,1.659375,1.0,2604.8079334769686,0.5699273765441643,1.2713839322469984,0.983696180204212,0.28274675,0.7651491113461626
0.0755,1.65749375,1.0,2602.8837868908076,0.572339710862488,1.270552242269554,0.9837943769864859,0.2826677375,0.7665863654429735
