Time [s],Phi [rad],STIM [ ],Fsee [N],Gamma [ ],Lcerel [ ],q [ ],Lmtc [m],fisomrel [ ]
0.0,1.8,1.0,17.96774941117139,1.0003791162663693e-05,1.379339679981211,0.005000026671900428,0.288653,0.541139691300231
0.0005,1.79999375,1.0,18.277027932843335,0.005619156986599802,1.3793023562664397,0.012940523846640663,0.2886527375,0.5412299825597158
0.001,1.799975,1.0,21.61861771509641,0.011196847267533203,1.3789382779937724,0.03560859418429318,0.28865195,0.5421102725481965
0.0015,1.79994375,1.0,31.069382826000886,0.01674325111689658,1.378046191220283,0.07060172846555249,0.2886506375,0.5442636393617257
0.002,1.7999,1.0,53.58228783529068,0.02225854402597461,1.3763681381747204,0.11471786403323167,0.2886488,0.5483004609913731
0.0025,1.79984375,1.0,97.11847178029717,0.027742900501962237,1.3739351897085679,0.16457470422706424,0.28864643749999996,0.5541214091123003
0.003,1.7997750000000001,1.0,160.95754608088828,0.03319649407568588,1.3712143669911823,0.2172802593817233,0.28864354999999997,0.5605863958524739
0.0035,1.79969375,1.0,237.68261600829638,0.03861949730119204,1.3685847562735316,0.27061269485151107,0.2886401375,0.566789787763971
0.004,1.7996,1.0,321.46601753350825,0.04401208176653021,1.366156112361603,0.32291561420653053,0.2886362,0.5724799151155521
0.0045000000000000005,1.7994937500000001,1.0,409.26699567764035,0.04937441809893725,1.3639228318919348,0.3730343299397218,0.2886317375,0.5776791212619726
0.005,1.799375,1.0,499.4127434083444,0.05470667595592467,1.361858358512894,0.42024729519896353,0.28862675,0.582457042010057
0.0055,1.79924375,1.0,590.7896658505192,0.060009024072767404,1.359938849716335,0.46417354572332575,0.2886212375,0.5868750780130154
0.006,1.7991000000000001,1.0,682.5173643237856,0.06528163020560612,1.358146428271419,0.5046798228828306,0.2886152,0.5909793874886011
0.006500000000000001,1.79894375,1.0,773.8806059374714,0.07052466118709944,1.3564672647460416,0.5418006332963055,0.2886086375,0.5948057690193733
0.007,1.798775,1.0,864.285121212357,0.0757382829100066,1.3548904061419418,0.5756766670544593,0.28860155,0.5983826518762998
0.0075,1.79859375,1.0,953.2426282258635,0.08092266033692648,1.353406788222655,0.6065098128009345,0.2885939375,0.6017335524175621
0.008,1.7984,1.0,1040.3437253328136,0.08607795707944688,1.3520088632040248,0.6345320891261417,0.2885858,0.6048780619445477
0.0085,1.79819375,1.0,1125.3136938584873,0.09120433727845642,1.350689249053094,0.659984353539804,0.2885771375,0.6078349827760747
0.009000000000000001,1.797975,1.0,1207.9000464571184,0.09630196288530354,1.3494420368832252,0.683104118541637,0.28856795,0.6106194606470112
0.0095,1.79774375,1.0,1287.8926589461562,0.10137099439020429,1.3482621178060337,0.7041174069077487,0.2885582375,0.6132445704759449
0.01,1.7975,1.0,1365.1672318048852,0.10641159228337475,1.3471443829331349,0.723234165017966,0.288548,0.6157231422129241
0.0105,1.79724375,1.0,1439.6584671345092,0.11142391654879256,1.3460839593044478,0.7406466108469874,0.2885372375,0.6180672611994813
0.011,1.796975,1.0,1511.3210996832167,0.11640812597245054,1.345076567257175,0.7565290842375042,0.28852595000000003,0.6202875087053712
0.0115,1.79669375,1.0,1580.1203400833629,0.1213643777321455,1.344118491091293,0.7710385676130037,0.2885141375,0.6223930615084554
0.012,1.7964,1.0,1646.0572990583892,0.12629282849488713,1.343206161583228,0.7843155465186249,0.28850180000000003,0.6243926360054438
0.0125,1.79609375,1.0,1709.1738796587892,0.1311936349880771,1.342336035885272,0.7964852890068675,0.2884889375,0.6262947657345591
0.013000000000000001,1.7957750000000001,1.0,1769.5062392815075,0.13606695214023756,1.3415050763100793,0.8076594599964962,0.28847555,0.6281067693062721
0.0135,1.79544375,1.0,1827.0907684603817,0.14091293344618983,1.340710603520798,0.8179374385057708,0.2884616375,0.6298350913536146
0.014,1.7951000000000001,1.0,1881.9915047438835,0.1457317324007553,1.3399499381805773,0.8274075068369942,0.2884472,0.631486095443309
0.0145,1.79474375,1.0,1934.2803357238213,0.15052350135893644,1.3392205885466806,0.8361481648252508,0.2884322375,0.6330656642412107
0.015,1.794375,1.0,1984.054582942265,0.15528839336259156,1.3385200270205844,0.8442291794283979,0.28841675,0.6345796916644861
0.0155,1.79399375,1.0,2031.3739937592225,0.16002655800710888,1.337846335335697,0.8517128145325802,0.2884007375,0.6360326967482134
0.016,1.7936,1.0,2076.311930529753,0.16473814474623066,1.3371976185051357,0.8586545220738799,0.2883842,0.6374291010027582
0.0165,1.7931937500000001,1.0,2118.956170969413,0.16942330303369924,1.3365719815420172,0.8651037422407901,0.2883671375,0.6387732820181125
0.017,1.792775,1.0,2159.3900897154717,0.1740821807181296,1.335967709030417,0.8711046668794212,0.28834955,0.6400691916098632
0.0175,1.7923437500000001,1.0,2197.720360110747,0.1787149272772157,1.3353829648231588,0.8766967756712405,0.2883314375,0.6413210041659052
0.018000000000000002,1.7919,1.0,2234.014318465568,0.1833216878661736,1.3348164162856948,0.881915555593777,0.2883128,0.6425317837551159
0.0185,1.79144375,1.0,2268.346487470417,0.18790260754360782,1.3342667414159557,0.8867928344380307,0.2882936375,0.643704545864664
0.019,1.790975,1.0,2300.798927419793,0.19245783136812294,1.3337326182118714,0.8913572018979926,0.28827395,0.6448422817010501
0.0195,1.79049375,1.0,2331.4524653452654,0.19698750332855988,1.333212804631739,0.8956343996818225,0.2882537375,0.6459477896347273
0.02,1.79,1.0,2360.3960858071046,0.2014917683368036,1.332706038460958,0.8996476220291157,0.288233,0.6470238902156109
0.0205,1.78949375,1.0,2387.7060830155915,0.20597076919046003,1.332211235325258,0.903417844663111,0.2882117375,0.6480730074096495
0.021,1.788975,1.0,2413.445091289577,0.21042464620159798,1.3317274884157193,0.9069640687950643,0.28818995000000003,0.6490971729253789
0.021500000000000002,1.78844375,1.0,2437.679675551924,0.2148535396822861,1.3312538909234228,0.9103034997540395,0.2881676375,0.6500984048089704
0.022,1.7879,1.0,2460.480004658606,0.21925758994459313,1.3307895360394495,0.9134517414805758,0.2881448,0.6510787080574163
0.0225,1.78734375,1.0,2481.914589274624,0.2236369363485543,1.3303335641744618,0.9164229765910747,0.28812143749999997,0.6520399757008825
0.023,1.786775,1.0,2502.0515405000397,0.22799171824285125,1.3298851473020215,0.9192301135627877,0.28809755,0.6529840229257768
0.0235,1.78619375,1.0,2520.961894361951,0.23232207541282054,1.3294434544708684,0.921884912882017,0.28807313749999996,0.6539126604155001
0.024,1.7856,1.0,2538.695719730025,0.23662814304308016,1.3290078748265062,0.9243981430140077,0.2880482,0.654827226728782
0.0245,1.78499375,1.0,2555.304944836613,0.24091005631824808,1.3285777975144384,0.9267796428937993,0.2880227375,0.655729052871686
0.025,1.784375,1.0,2570.843202163487,0.24516795042294234,1.3281526116801687,0.9290384149137221,0.28799675,0.656619462523866
0.025500000000000002,1.78374375,1.0,2585.365681601668,0.24940196054178093,1.3277317064692007,0.9311827074781128,0.2879702375,0.6574997722410258
0.026000000000000002,1.7831000000000001,1.0,2598.922254391042,0.253612220225573,1.3273145337878849,0.9332200979030716,0.2879432,0.6583711606225113
0.0265,1.78244375,1.0,2611.5647593581825,0.2577988641294566,1.3269005386237056,0.9351575467238891,0.2879156375,0.6592348145648316
0.027,1.781775,1.0,2623.3482372367075,0.26196202699338744,1.3264891466530857,0.9370014537293094,0.28788755,0.6600919550948339
0.0275,1.7810937500000001,1.0,2634.309593020134,0.2661018384900678,1.3260799608937366,0.9387577380576062,0.2878589375,0.6609434282638369
0.028,1.7804,1.0,2644.486513329778,0.2702184282922001,1.3256725843633697,0.9404318577365921,0.2878298,0.661790075873992
0.0285,1.77969375,1.0,2653.9173990567424,0.27431192607248656,1.3252666200796959,0.9420288516552288,0.2878001375,0.6626327355291161
0.029,1.778975,1.0,2662.6413014976956,0.2783824615036296,1.3248616710604266,0.9435533772087732,0.28776995,0.6634722406754694
0.029500000000000002,1.7782437500000001,1.0,2670.69786198451,0.28243016425833156,1.324457340323273,0.9450097441105303,0.2877392375,0.6643094206324869
0.03,1.7775,1.0,2678.120639001595,0.2864551612963124,1.3240532915970291,0.9464019519724809,0.287708,0.665144975143912
0.0305,1.77674375,1.0,2684.9501399347364,0.2904575832846115,1.323649129013532,0.9477337033770332,0.2876762375,0.6659797234973921
0.031,1.775975,1.0,2691.2177872354223,0.29443755684692313,1.3232445438361768,0.9490084455042864,0.28764395,0.6668143012759629
0.0315,1.7751937500000001,1.0,2696.949705603086,0.29839520614316495,1.3228392789362502,0.950229387490549,0.2876111375,0.6676492346170984
0.032,1.7744,1.0,2702.1723091286035,0.302330655333255,1.3224330771850388,0.9513995145443505,0.2875778,0.6684850469929426
0.0325,1.77359375,1.0,2706.912273719901,0.3062440285771111,1.3220256814538294,0.9525216063145528,0.2875439375,0.6693222591970562
0.033,1.772775,1.0,2711.196510992841,0.3101354500346512,1.3216168346139083,0.9535982535403682,0.28750955,0.6701613893269449
0.0335,1.7719437500000002,1.0,2715.0521436284794,0.3140050438657932,1.3212062795365624,0.9546318731623435,0.2874746375,0.6710029527623715
0.034,1.7711000000000001,1.0,2718.497206071239,0.3178529258594789,1.320793843579932,0.9556247293043513,0.2874392,0.6718472892895858
0.0345,1.7702437500000001,1.0,2721.569721325323,0.3216792302227015,1.3203791734710943,0.9565789229196813,0.2874032375,0.6726951058864108
0.035,1.7693750000000001,1.0,2724.2879948774544,0.32548407624906206,1.3199620968856682,0.9574964350702051,0.28736675,0.6735467364685148
0.035500000000000004,1.76849375,1.0,2726.668675116645,0.3292675817467547,1.3195424575709005,0.9583791217612534,0.2873297375,0.6744024802600423
0.036000000000000004,1.7676,1.0,2728.7285058286184,0.33302986452397376,1.3191200992740386,0.9592287220305795,0.2872922,0.6752626346917339
0.0365,1.76669375,1.0,2730.4843157879864,0.3367710423889133,1.3186948657423292,0.9600468666491764,0.2872541375,0.6761274953746135
0.037,1.765775,1.0,2731.9530088913357,0.3404912331497677,1.3182666007230197,0.9608350860806919,0.28721555,0.6769973560721109
0.0375,1.76484375,1.0,2733.1515548321004,0.3441905546147311,1.3178351479633568,0.9615948177701797,0.2871764375,0.677872508670635
0.038,1.7639,1.0,2734.0969803163457,0.34786912459199765,1.3174003512105878,0.9623274128254936,0.28713679999999997,0.6787532431485825
0.0385,1.76294375,1.0,2734.8063608202374,0.3515270608897617,1.3169620542119598,0.9630341421480518,0.28709663750000003,0.6796398475437968
0.039,1.7619774610791963,1.0,2735.434371960646,0.3551644743058955,1.3165199631511797,0.9637161879305312,0.28705605336532625,0.6805328856083415
0.0395,1.7610103049927543,1.0,2736.4006722905706,0.358781485066825,1.3160744099855777,0.964374722834427,0.28701543280969566,0.6814316560977964
0.04,1.7600431489063124,1.0,2737.69630202149,0.3623782145424473,1.315625869283534,0.9650108647656267,0.2869748122540651,0.682335174231548
0.0405,1.7590759928198705,1.0,2739.3008117051295,0.3659547733120945,1.3151745287100634,0.9656256404194753,0.28693419169843454,0.6832430371568542
0.041,1.7581088367334285,1.0,2741.193782210842,0.3695112719550986,1.3147205759301794,0.9662200187207752,0.286893571142804,0.6841548440247964
0.0415,1.7571416806469866,1.0,2743.3548134657485,0.37304782105079176,1.314264198608896,0.9667949146810787,0.2868529505871734,0.6850701960226668
0.042,1.7561745245605447,1.0,2745.76351397684,0.37656453117850597,1.3138055844112273,0.9673511929603968,0.2868123300315429,0.6859886964041075
0.0425,1.7552073684741027,1.0,2748.3994911325685,0.3800615129175734,1.3133449210021877,0.9678896711587635,0.2867717094759123,0.686909950517005
0.043000000000000003,1.7542402123876608,1.0,2751.24234228689,0.38353887684732596,1.3128823960467906,0.9684111228606602,0.28673108892028176,0.6878335658291432
0.043500000000000004,1.753273056301219,1.0,2754.271646622536,0.3869967335470959,1.3124181972100504,0.9689162804531638,0.2866904683646512,0.688759151951601
0.044,1.7523059002147772,1.0,2757.4669577964055,0.3904351935962151,1.3119525121569813,0.969405837736707,0.28664984780902064,0.6896863206599122
0.0445,1.7513387441283352,1.0,2760.8077973650743,0.39385436757401576,1.3114855285525968,0.9698804523456172,0.2866092272533901,0.6906146859129765
0.045,1.7503715880418933,1.0,2764.285411701641,0.39725435712419144,1.311017327818059,0.970340738564746,0.2865686066977595,0.6915440746075064
0.0455,1.7494044319554514,1.0,2767.879541408204,0.4006352788079912,1.3105480951181727,0.9707872893658174,0.28652798614212893,0.692474109115033
0.046,1.7484372758690094,1.0,2771.5758637269378,0.4039972424386608,1.3100779616585774,0.9712206627841421,0.2864873655864984,0.6934045207068298
0.0465,1.7474701197825675,1.0,2775.367073019972,0.4073403514812458,1.3096069950950258,0.9716413834608741,0.28644674503086787,0.6943351676920558
0.047,1.7465029636961256,1.0,2779.2458480137266,0.41066470940079186,1.3091352630832702,0.9720499501560736,0.2864061244752373,0.6952659091786904
0.0475,1.7455358076096836,1.0,2783.204850600272,0.4139704196623446,1.3086628332790633,0.972446837271426,0.2863655039196067,0.6961966050769808
0.048,1.7445686515232417,1.0,2787.2367247395478,0.4172575857309496,1.3081897733381576,0.972832496269658,0.28632488336397616,0.6971271161025991
0.0485,1.7436014954367998,1.0,2791.3340954632945,0.4205263110716526,1.3077161509163058,0.973207356998554,0.28628426280834557,0.6980573037795068
0.049,1.7426343393503578,1.0,2795.4895679811348,0.42377669914949917,1.30724203366926,0.9735718289268114,0.28624364225271504,0.6989870304425296
0.0495,1.741667183263916,1.0,2799.6957268868177,0.427008853429535,1.3067674892527734,0.973926302298355,0.28620302169708445,0.699916159239635
0.05,1.740700027177474,1.0,2803.9451354675366,0.43022287737680553,1.306292585322598,0.9742711492111878,0.2861624011414539,0.7008445541339255
0.0505,1.739732871091032,1.0,2808.2303351130104,0.43341887445635663,1.3058173895344865,0.9746067246263479,0.2861217805858233,0.7017720799053322
0.051000000000000004,1.73876571500459,1.0,2812.5495779934245,0.4365969377524227,1.3053419182070136,0.9749333628022535,0.2860811600301928,0.7026987021226447
0.051500000000000004,1.7377985589181482,1.0,2816.893873062994,0.4397571802348333,1.3048662524220485,0.975251389292556,0.2860405394745622,0.7036242606318107
0.052000000000000005,1.7368314028317062,1.0,2821.2594530295464,0.44289970158003367,1.3043904263110433,0.9755611106206166,0.2859999189189317,0.7045486874049149
0.0525,1.7358642467452645,1.0,2825.643831875841,0.44602459859649113,1.3039144624551713,0.9758628187032121,0.28595929836330114,0.7054719372148734
0.053,1.7348970906588224,1.0,2830.044515878666,0.4491319680926733,1.3034383834356067,0.9761567926561259,0.28591867780767055,0.7063939651083728
0.0535,1.7339299345723806,1.0,2834.459003545732,0.4522219068770475,1.3029622118335227,0.9764432994661137,0.28587805725203996,0.7073147264060579
0.054,1.7329627784859387,1.0,2838.8847855634617,0.45529451175808117,1.3024859702300933,0.9767225946220645,0.28583743669640943,0.7082341767026759
0.0545,1.7319956223994968,1.0,2843.3193447561293,0.4583498795442418,1.302009681206492,0.9769949227081625,0.28579681614077884,0.7091522718671972
0.055,1.7310284663130548,1.0,2847.760156056931,0.4613881070439967,1.301533367343893,0.9772605179616392,0.2857561955851483,0.7100689680428984
0.0555,1.730061310226613,1.0,2852.204686489427,0.4644092910658134,1.3010570512234692,0.9775196047975082,0.2857155750295177,0.7109842216474154
0.056,1.729094154140171,1.0,2856.65039516113,0.4674135284181593,1.3005807554263946,0.9777723983024947,0.2856749544738872,0.7118979893727613
0.0565,1.728126998053729,1.0,2861.0947332676224,0.47040091590950195,1.3001045025338431,0.9780191047002079,0.2856343339182566,0.7128102281853143
0.057,1.7271598419672871,1.0,2865.5402504092744,0.4733715183450095,1.2996282698277737,0.9782599163414414,0.28559371336262607,0.7137209818878025
0.0575,1.7261926858808452,1.0,2869.9795633243803,0.476325474313965,1.2991521227091651,0.9784950293306026,0.2855530928069955,0.7146301258883948
0.058,1.7252255297944032,1.0,2874.412115647792,0.4792628730816075,1.298676065907537,0.9787246241382765,0.28551247225136495,0.7155376519578975
0.0585,1.7242583737079613,1.0,2878.8373759177553,0.4821838037284278,1.2982001039178757,0.9789488740372722,0.28547185169573436,0.7164435523704342
0.059000000000000004,1.7232912176215194,1.0,2883.2548111689844,0.48508835533491657,1.2977242412351677,0.97916794547464,0.2854312311401038,0.7173478194545397
0.059500000000000004,1.7223240615350774,1.0,2887.66388694135,0.4879766169815645,1.2972484823543995,0.9793819983944709,0.28539061058447324,0.7182504455931322
0.06,1.7213569054486355,1.0,2892.0640672909853,0.4908486777488624,1.2967728317705574,0.9795911865429946,0.2853499900288427,0.7191514232234837
0.0605,1.7203897493621936,1.0,2896.4548147999712,0.4937046267173011,1.2962972939786277,0.9797956577570816,0.2853093694732121,0.7200507448371897
0.061,1.7194225932757516,1.0,2900.8355905881012,0.4965445529673711,1.295821873473597,0.9799955542371697,0.2852687489175816,0.7209484029801378
0.0615,1.7184554371893097,1.0,2905.205854323669,0.4993685455795632,1.2953465747504516,0.98019101280557,0.285228128361951,0.7218443902524743
0.062,1.7174882811028678,1.0,2909.565064236122,0.5021766936343682,1.2948714023041779,0.9803821651510416,0.28518750780632046,0.7227386993085705
0.0625,1.7165211250164258,1.0,2913.912677127615,0.5049690862122769,1.2943963606297622,0.9805691380604624,0.2851468872506899,0.7236313228569867
0.063,1.7155539689299841,1.0,2918.2481483864944,0.5077458123937797,1.293921454222191,0.9807520536383688,0.28510626669505934,0.7245222536604351
0.0635,1.714586812843542,1.0,2922.5709320001474,0.5105069612593677,1.2934466875764508,0.9809310295150853,0.28506564613942875,0.7254114845357427
0.064,1.7136196567571003,1.0,2926.8804805689774,0.5132526218895314,1.2929720651875278,0.981106179044119,0.2850250255837982,0.7262990083538104
0.0645,1.7126525006706583,1.0,2931.1762453201864,0.5159828833647615,1.2924975915504087,0.9812776114894433,0.28498440502816763,0.7271848180395737
0.065,1.7116853445842164,1.0,2935.457974344411,0.5186978234870114,1.2920232685461832,0.9814454312862284,0.2849437844725371,0.728068911440063
0.0655,1.7107181884977745,1.0,2939.726343651068,0.5213975033796779,1.291549089924508,0.9816097376285392,0.2849031639169065,0.728951301543977
0.066,1.7097510324113325,1.0,2943.9800847949386,0.524082061740398,1.2910750664727952,0.9817706323480094,0.284862543361276,0.7298319696360263
0.0665,1.7087838763248906,1.0,2948.219240750647,0.5267515786845234,1.290601197479003,0.9819282091658846,0.2848219228056454,0.7307109184431425
0.067,1.7078167202384487,1.0,2952.4438548867124,0.5294061343274064,1.2901274822310884,0.9820825585594127,0.28478130225001486,0.7315881506831935
0.0675,1.7068495641520067,1.0,2956.6539709620592,0.5320458087843991,1.2896539200170094,0.9822337678971392,0.28474068169438427,0.732463669064987
0.068,1.7058824080655648,1.0,2960.8496331246524,0.5346706821708538,1.2891805101247231,0.9823819215676474,0.28470006113875373,0.7333374762882809
0.0685,1.7049152519791229,1.0,2965.030885908098,0.5372808346021223,1.2887072518421874,0.9825271011021038,0.28465944058312315,0.7342095750437876
0.069,1.703948095892681,1.0,2969.1977742302,0.539876346193557,1.2882341444573597,0.9826693852909502,0.2846188200274926,0.7350799680131821
0.0695,1.702980939806239,1.0,2973.350343389719,0.5424572970605098,1.2877611872581975,0.9828088502950563,0.284578199471862,0.735948657869109
0.07,1.702013783719797,1.0,2977.4886390645747,0.5450237673183329,1.2872883795326586,0.9829455697516337,0.2845375789162315,0.7368156472751884
0.07050000000000001,1.7010466276333551,1.0,2981.6127073090715,0.5475758370823784,1.2868157205687005,0.9830796148751946,0.2844969583606009,0.7376809388860239
0.07100000000000001,1.7000794715469132,1.0,2985.7225945520936,0.5501135864679985,1.2863432096542806,0.9832110545538122,0.28445633780497037,0.7385445353472089
0.07150000000000001,1.6991123154604713,1.0,2989.818347594038,0.5526370955905452,1.2858708460773567,0.9833399554409403,0.2844157172493398,0.7394064392953325
