Time [s],Phi [rad],STIM [ ],Fsee [N],Gamma [ ],Lcerel [ ],q [ ],Lmtc [m],fisomrel [ ]
0.0,1.8,1.0,18.2771143845143,0.0005666421464028698,1.379305169244073,0.005082876951232864,0.288653,0.5412231778849654
0.0005,1.79999375,1.0,18.759855249061903,0.0061726730409168325,1.3792490735670142,0.014557853224944652,0.2886527375,0.5413588654290863
0.001,1.799975,1.0,22.514621076091775,0.011747258534476696,1.3788476939938246,0.038568013180396085,0.28865195,0.5423291605725813
0.0015,1.79994375,1.0,32.87866886450904,0.017290575011809643,1.3778942276744262,0.07461412376714598,0.2886506375,0.5446299511809598
0.002,1.7999,1.0,57.20036588584137,0.022802797866352364,1.3761372496482271,0.1194449441336818,0.2886488,0.5488544943465156
0.0025,1.79984375,1.0,102.97139292337258,0.028284101508208634,1.3736572766404487,0.1697014594992464,0.28864643749999996,0.5547839273394235
0.003,1.7997750000000001,1.0,168.41692181353588,0.03373465937253301,1.3709383169969922,0.22255908652586118,0.28864354999999997,0.5612396842584151
0.0035,1.79969375,1.0,246.02579922564996,0.039154643916614246,1.3683299802894693,0.27585590557776496,0.2886401375,0.5673884745534412
0.004,1.7996,1.0,330.29421533229805,0.044544226632819164,1.3659238705222008,0.32798735128919426,0.2886362,0.573022069458073
0.0045000000000000005,1.7994937500000001,1.0,418.3786285224977,0.04990357805137852,1.3637101243173337,0.377845150769737,0.2886317375,0.5781726577457578
0.005,1.799375,1.0,508.68171489031073,0.055232867723791386,1.361662299009747,0.4247458281996343,0.28862675,0.5829093797033943
0.0055,1.79924375,1.0,600.1315866732359,0.06053226435199634,1.359757046996664,0.4683368012671157,0.2886212375,0.5872923059191331
0.006,1.7991000000000001,1.0,691.8495499370083,0.06580193550654295,1.3579773698142705,0.5085048970304828,0.2886152,0.591365442285896
0.006500000000000001,1.79894375,1.0,783.1466413076728,0.07104204798431654,1.3563095580454494,0.5452974311497286,0.2886086375,0.5951642182571957
0.007,1.798775,1.0,873.4353590555154,0.07625276759119644,1.3547429895712222,0.5788629649415591,0.28860155,0.5987162351724227
0.0075,1.79859375,1.0,962.2242837375942,0.08143425904355357,1.3532689649252405,0.6094076799340208,0.2885939375,0.602044127616866
0.008,1.7984,1.0,1049.1531672899903,0.0865866867034047,1.3518794344189593,0.6371649258578505,0.2885858,0.6051685702582695
0.0085,1.79819375,1.0,1133.896677291145,0.09171021317068537,1.3505679763390264,0.662376194121409,0.2885771375,0.6081061669820149
0.009000000000000001,1.797975,1.0,1216.2175385251596,0.09680500051377315,1.349328583207907,0.6852780170118342,0.28856795,0.6108722606950141
0.0095,1.79774375,1.0,1295.9570888732574,0.10187121043481794,1.3481555703831856,0.7060946492037339,0.2885582375,0.6134811824335419
0.01,1.7975,1.0,1372.9810780477642,0.10690900291646303,1.3470440971904094,0.7250344830800027,0.288548,0.6159451358587171
0.0105,1.79724375,1.0,1447.2022404714016,0.11191853714907828,1.3459896665195124,0.7422881300697065,0.2885372375,0.6182753528753719
0.011,1.796975,1.0,1518.5807503259794,0.11689997166379501,1.3449879936913536,0.7580281394350675,0.28852595000000003,0.6204824113801486
0.0115,1.79669375,1.0,1587.1143187937407,0.12185346492469065,1.3440350294682533,0.7724096480714844,0.2885141375,0.6225762069476344
0.012,1.7964,1.0,1652.7892055096224,0.12677917279853418,1.3431274461989289,0.785571691509043,0.28850180000000003,0.6245649096460497
0.0125,1.79609375,1.0,1715.6293379834572,0.1316772510026637,1.342261954031876,0.7976382135941092,0.2884889375,0.6264564885914603
0.013000000000000001,1.7957750000000001,1.0,1775.6766370740402,0.13654785446057424,1.3414354783706304,0.8087195643905525,0.28847555,0.6282583358093712
0.0135,1.79544375,1.0,1833.008966881128,0.1413911386306974,1.3406449065145387,0.8189137985161224,0.2884616375,0.6299778305666492
0.014,1.7951000000000001,1.0,1887.6751339747188,0.146207255973538,1.3398877687677786,0.8283082613924568,0.2884472,0.6316208693943274
0.0145,1.79474375,1.0,1939.731929775982,0.1509963581975715,1.3391617657733097,0.8369806144423224,0.2884322375,0.6331929101962073
0.015,1.794375,1.0,1989.2570541625767,0.15575859701127326,1.3384645981740921,0.8449998924110543,0.28841675,0.6346993487973545
0.0155,1.79399375,1.0,2036.329160110332,0.16049412311551725,1.337794157498996,0.852427575942354,0.2884007375,0.6361451121158912
0.016,1.7936,1.0,2081.0522432971134,0.16520308771691655,1.3371482442667684,0.8593183930951017,0.2883842,0.6375352722826387
0.0165,1.7931937500000001,1.0,2123.497588910908,0.16988563887088381,1.3365251557263969,0.8657212956267472,0.2883671375,0.6388737868728456
0.017,1.792775,1.0,2163.739568597656,0.17454192408694202,1.335923282691344,0.8716800193731841,0.28834955,0.6401643754651509
0.0175,1.7923437500000001,1.0,2201.8634410023637,0.1791720908746141,1.3353410159750716,0.8772336731542069,0.2883314375,0.6414107238673685
0.018000000000000002,1.7919,1.0,2237.951826616522,0.1837762855987226,1.3347768728290241,0.8824173156663705,0.2883128,0.6426162162589905
0.0185,1.79144375,1.0,2272.1031520925017,0.18835465565310172,1.3342292997291203,0.8872623768561477,0.2882936375,0.6437843597021106
0.019,1.790975,1.0,2304.390364261965,0.1929073450158799,1.3336970757996667,0.8917971763371374,0.28827395,0.6449179260291822
0.0195,1.79049375,1.0,2334.8849091549523,0.19743449687327702,1.3331790589835735,0.8960472160655757,0.2882537375,0.6460194982615448
0.02,1.79,1.0,2363.6640030561493,0.20193625441151297,1.3326741072237516,0.900035481106825,0.288233,0.6470916402515301
0.0205,1.78949375,1.0,2390.805697513569,0.20641276011387202,1.3321811216507569,0.9037827312318141,0.2882117375,0.6481368061825417
0.021,1.788975,1.0,2416.3882377143614,0.210864156392681,1.3316990471975834,0.907307747828206,0.28818995000000003,0.6491573408425235
0.021500000000000002,1.78844375,1.0,2440.489417145165,0.2152905854979807,1.3312268737227069,0.9106275502470857,0.2881676375,0.6501554787113585
0.022,1.7879,1.0,2463.1672027324134,0.21969218589305448,1.3307638167712017,0.9137576207326314,0.2881448,0.6511329640144992
0.0225,1.78734375,1.0,2484.482576614985,0.22406909604118572,1.330309091888143,0.9167120239947855,0.28812143749999997,0.6520915300256067
0.023,1.786775,1.0,2504.4992862228924,0.22842145440565778,1.3298619146186053,0.9195035566171532,0.28809755,0.6530328995030229
0.0235,1.78619375,1.0,2523.2836079990884,0.23274939944975404,1.329421500507663,0.9221438789515759,0.28807313749999996,0.653958785086989
0.024,1.7856,1.0,2540.8911149358273,0.2370530663569312,1.328987187665094,0.9246436522570378,0.2880482,0.6548706325006767
0.0245,1.78499375,1.0,2557.396017879787,0.24133259604698237,1.3285581572924412,0.9270125944363462,0.2880227375,0.655770208152409
0.025,1.784375,1.0,2572.844101214619,0.2455881220246648,1.328133875101844,0.9292596443516192,0.28799675,0.6566586735033398
0.025500000000000002,1.78374375,1.0,2587.2814436747676,0.24981977749782622,1.327713817408882,0.931392994660886,0.2879702375,0.657537161604904
0.026000000000000002,1.7831000000000001,1.0,2600.7554223215534,0.2540276956743144,1.327297460529134,0.9334201627331188,0.2879432,0.6584067995254461
0.0265,1.78244375,1.0,2613.314600987933,0.258212009761977,1.3268842807781795,0.9353480554233867,0.2879156375,0.6592687084825647
0.027,1.781775,1.0,2625.0086248038488,0.2623728529686618,1.3264737544715972,0.9371830268445902,0.28788755,0.6601240039579697
0.0275,1.7810937500000001,1.0,2635.877491064239,0.2665103547328446,1.3260654562460998,0.9389309432103079,0.2878589375,0.6609735913361696
0.028,1.7804,1.0,2645.9754386683244,0.27062465110618733,1.3256588367122184,0.940597198957909,0.2878298,0.6618186290537139
0.0285,1.77969375,1.0,2655.3412124927318,0.27471587210994286,1.325253496916591,0.9421867943725123,0.2878001375,0.6626599577280904
0.029,1.778975,1.0,2664.007341352538,0.27878414513655947,1.3248491009606673,0.9437043595280923,0.28776995,0.6634982831793564
0.029500000000000002,1.7782437500000001,1.0,2672.0068906173674,0.28282959757848564,1.3244453129458964,0.9451541792171667,0.2877392375,0.6643343077405592
0.03,1.7775,1.0,2679.3734143911997,0.28685235682816956,1.3240417969737281,0.9465402231168546,0.287708,0.6651687302743532
0.0305,1.77674375,1.0,2686.140910194294,0.2908525502780598,1.3236382171456116,0.947866172961185,0.2876762375,0.6660022461824298
0.031,1.775975,1.0,2692.3437761461873,0.2948303053206045,1.3232342375629962,0.9491354470492827,0.28764395,0.6668355474077441
0.0315,1.7751937500000001,1.0,2698.0118272686022,0.29878574759208265,1.3228295675222277,0.9503512274593916,0.2876111375,0.6676692293795008
0.032,1.7744,1.0,2703.173141085368,0.30271900293539017,1.3224239349619549,0.9515164769011786,0.2875778,0.6685038461851056
0.0325,1.77359375,1.0,2707.8649853012093,0.3066301992249177,1.3220169863749927,0.952633945220239,0.2875439375,0.6693401163455606
0.033,1.772775,1.0,2712.109054032564,0.3105194579824735,1.3216085126908315,0.9537062108016084,0.28750955,0.6701784584336458
0.0335,1.7719437500000002,1.0,2715.9272300055018,0.3143869007298657,1.3211983048389628,0.9547356792351341,0.2874746375,0.6710192888028594
0.034,1.7711000000000001,1.0,2719.3415659420093,0.3182326489889025,1.3207861537488772,0.9557245969520911,0.2874392,0.6718630215656942
0.0345,1.7702437500000001,1.0,2722.3742669155004,0.32205682428139215,1.3203718503500659,0.9566750636322521,0.2874032375,0.6727100685691167
0.035,1.7693750000000001,1.0,2725.047673675419,0.32585954812914286,1.31995518557202,0.9575890435051925,0.28736675,0.673560839367265
0.035500000000000004,1.76849375,1.0,2727.384246941333,0.3296409420539628,1.3195359503442299,0.9584683756559469,0.2873297375,0.674415741191358
0.036000000000000004,1.7676,1.0,2729.3997833242593,0.33340111983272575,1.3191139971280301,0.9593147879861963,0.2872922,0.6752750536893226
0.0365,1.76669375,1.0,2731.1228331764287,0.3371402115385502,1.3186890632459762,0.9601298930067268,0.2872541375,0.676139288799114
0.037,1.765775,1.0,2732.5680156020962,0.3408583335866978,1.318261013369114,0.9609152138158238,0.28721555,0.6770086969683184
0.0375,1.76484375,1.0,2733.7489504566825,0.3445556012276396,1.3178297217879462,0.9616721817318269,0.2871764375,0.6778835074878722
0.038,1.7639,1.0,2734.6793093523547,0.3482321297118468,1.3173950627929767,0.9624021421974388,0.28713679999999997,0.6787639480696505
0.0385,1.76294375,1.0,2735.372809134575,0.35188803428979054,1.316956910674708,0.9631063608711976,0.28709663750000003,0.679650244819978
0.039,1.761975,1.0,2735.84320570862,0.35552343021194194,1.3165151397236439,0.9637860292230646,0.28705595,0.6805426222121245
0.0395,1.7609937500000001,1.0,2736.1042882169368,0.3591384327287722,1.3160696242302872,0.9644422696794197,0.2870147375,0.6814413030577968
0.04,1.76,1.0,2736.169873566443,0.36273315709075254,1.3156202384851412,0.965076140358179,0.286973,0.682346508477623
0.0405,1.7589937500000001,1.0,2736.053801306405,0.366307718548354,1.3151668567787094,0.9656886394307063,0.2869307375,0.6832584578706267
0.041,1.757975,1.0,2735.7622152163444,0.36986221611803405,1.3147094234352283,0.9662807123548578,0.28688795,0.6841772283197263
0.0415,1.75694375,1.0,2735.3154750239546,0.37339678305263546,1.3142477538437343,0.966853247153859,0.2868446375,0.6851031543500249
0.042,1.7559,1.0,2734.7237388562094,0.37691153280507106,1.3137817561040197,0.9674070875409286,0.28680079999999997,0.6860363824498645
0.0425,1.75484375,1.0,2733.9944482078936,0.3804065729926706,1.3133113630587796,0.9679430325633174,0.2867564375,0.6869770082214592
0.043000000000000003,1.753775,1.0,2733.1350514014753,0.383882011232764,1.3128365075507085,0.9684618384197402,0.28671155,0.6879251260952663
0.043500000000000004,1.75269375,1.0,2732.1530017770488,0.38733795514268105,1.3123571224225006,0.9689642211852686,0.28666613750000003,0.6888808293110171
0.044,1.7516,1.0,2731.0557559801364,0.3907745123397515,1.3118731405168504,0.9694508593366585,0.2866202,0.6898442098984594
0.0445,1.75049375,1.0,2729.850772351654,0.3941917904413053,1.311384494676453,0.969922396094574,0.2865737375,0.6908153586578125
0.045,1.7493750000000001,1.0,2728.545509416397,0.3975898970646723,1.3108911177440026,0.9703794415976539,0.28652675,0.6917943651399385
0.0455,1.74824375,1.0,2727.1474244720107,0.4009689398271822,1.3103929425621936,0.9708225749220222,0.2864792375,0.6927813176262205
0.046,1.7471,1.0,2725.663972278222,0.40432902634616485,1.3098899019737207,0.9712523459586243,0.2864312,0.6937763031081563
0.0465,1.7459437500000001,1.0,2724.102603845476,0.4076702642389501,1.3093819288212785,0.9716692771596681,0.28638263750000004,0.6947794072666627
0.047,1.744775,1.0,2722.4707653240575,0.4109927611228678,1.3088689559475613,0.9720738651644627,0.28633355,0.6957907144510953
0.0475,1.74359375,1.0,2720.7736386804872,0.4142966167678059,1.308350936755362,0.9724665827719551,0.28628393750000003,0.6968102672260545
0.048,1.7424,1.0,2719.012189908793,0.4175819229934896,1.3078278630076403,0.972847881604998,0.2862338,0.6978380317479255
0.0485,1.74119375,1.0,2717.1998137803384,0.42084881752291753,1.3072996132495882,0.9732181894556136,0.2861831375,0.6988741954612676
0.049,1.739975,1.0,2715.339456779386,0.42409739911876265,1.3067661610984929,0.9735779154832704,0.28613195,0.6999187576686656
0.0495,1.73874375,1.0,2713.4340627816678,0.42732776654369814,1.3062274801716407,0.9739274496105853,0.2860802375,0.7009717167976002
0.05,1.7375,1.0,2711.4865728027457,0.43054001856039703,1.3056835440863181,0.9742671635987398,0.286028,0.702033070391671
0.0505,1.73624375,1.0,2709.499924762003,0.4337342539315323,1.3051343264598123,0.9745974120534355,0.2859752375,0.7031028151017751
0.051000000000000004,1.734975,1.0,2707.477053262786,0.4369105714197771,1.3045798009094094,0.9749185333664561,0.28592195,0.7041809466772466
0.051500000000000004,1.73369375,1.0,2705.420889386802,0.44006906978780447,1.304019941052396,0.9752308505974926,0.2858681375,0.705267459956944
0.052000000000000005,1.7324,1.0,2703.3343605047658,0.4432098477982874,1.303454720506059,0.9755346723005124,0.2858138,0.7063623488602987
0.0525,1.73109375,1.0,2701.2203901025446,0.4463330042138991,1.302884112887685,0.9758302932986148,0.28575893750000003,0.7074656063783168
0.053,1.729775,1.0,2699.0818976221467,0.44943863779731247,1.3023080918145604,0.9761179954110014,0.28570355000000003,0.7085772245645385
0.0535,1.72844375,1.0,2696.9217983186677,0.4525268473112007,1.301726630903972,0.9763980481354101,0.2856476375,0.7096971945259514
0.054,1.7271,1.0,2694.7430031324375,0.4555977315182368,1.3011397037732062,0.9766707092890919,0.2855912,0.7108255064138572
0.0545,1.7257437500000001,1.0,2692.5484185765654,0.45865138918109377,1.3005472840395498,0.9769362256111861,0.2855342375,0.7119621494147008
0.055,1.724375,1.0,2690.3409466399266,0.4616879190624448,1.2999493453202895,0.9771948333291175,0.28547675,0.7131071117408474
0.0555,1.72299375,1.0,2688.123484705862,0.4647074199249628,1.2993458612327118,0.9774467586914494,0.2854187375,0.7142603806213204
0.056,1.7216,1.0,2685.8938005184878,0.4677099874698408,1.2987368523547276,0.9776922209338113,0.2853602,0.7154218528226712
0.0565,1.72019375,1.0,2683.6596157985045,0.47069571386193976,1.2981222480517731,0.9779314245870157,0.28530113749999997,0.7165915982670825
0.057,1.718775,1.0,2681.4228050832926,0.4736646927614846,1.2975020311950602,0.9781645689707802,0.28524155,0.7177695836569304
0.0575,1.71734375,1.0,2679.1835702777007,0.4766170176860366,1.2968761999730056,0.9783918461286832,0.2851814375,0.7189557458213902
0.058,1.7159,1.0,2676.9421129631755,0.47955278215315705,1.2962447525740264,0.9786134403329217,0.2851208,0.7201500209577611
0.0585,1.71444375,1.0,2674.6971922119974,0.4824720790992334,1.2956077004290674,0.978829529147298,0.2850596375,0.7213523196653022
0.059000000000000004,1.7129750000000001,1.0,2672.452237639617,0.48537500173722087,1.2949650120841305,0.9790402807240888,0.28499795,0.7225626328004106
0.059500000000000004,1.71149375,1.0,2670.2095182657313,0.4882616414577686,1.294316666698253,0.9792458569989436,0.2849357375,0.7237809301773896
0.06,1.71,1.0,2667.969941257086,0.49113208910269,1.2936626559161188,0.9794464141936021,0.284873,0.7250071572713368
0.0605,1.7084937500000001,1.0,2665.7344122572626,0.49398643551379834,1.293002971382412,0.979642102458091,0.2848097375,0.7262412588044561
0.061,1.7069750000000001,1.0,2663.4942484900207,0.49682477109910367,1.2923376929561874,0.9798330708149304,0.28474595,0.7274830142763199
0.0615,1.7054437500000001,1.0,2661.2707569738964,0.4996471863710601,1.291666624562035,0.9800194480420038,0.2846816375,0.7287327172085107
0.062,1.7039039253099584,1.0,2659.2414948126725,0.5024537704261292,1.2909899036034036,0.9802013753348522,0.28461696486301824,0.7299900382681184
0.0625,1.7023638315074607,1.0,2657.7723944352983,0.5052446115069353,1.2903079080602935,0.980379001023362,0.28455228092331336,0.7312542044568118
0.063,1.700823737704963,1.0,2656.835157095828,0.5080197978561032,1.2896210159127048,0.9805524679822458,0.2844875969836084,0.7325244487936632
0.0635,1.6992836439024654,1.0,2656.3897620979074,0.5107794174241449,1.288929593313241,0.9807219132578232,0.28442291304390355,0.7338000322316491
0.064,1.6977435500999678,1.0,2656.393574506443,0.5135235580313907,1.2882340319528793,0.9808874702371475,0.2843582291041986,0.7350801748220235
0.0645,1.6962034562974704,1.0,2656.808909867839,0.5162523066041503,1.287534679031084,0.9810492652484546,0.28429354516449373,0.7363641848038632
0.065,1.6946633624949727,1.0,2657.6050531066608,0.518965748860228,1.2868318183756338,0.9812074169037097,0.28422886122478885,0.7376514922427534
0.0655,1.693123268692475,1.0,2658.751357119862,0.5216639705174281,1.2861257338143064,0.9813620396457127,0.2841641772850839,0.7389415320447216
0.066,1.6915831748899774,1.0,2660.2197570285057,0.5243470564411701,1.2854166858305833,0.9815132427269533,0.28409949334537904,0.740233786509841
0.0665,1.6900430810874798,1.0,2661.986153495385,0.5270150904511808,1.2847048986914407,0.9816611297899532,0.28403480940567416,0.7415278082305374
0.067,1.6885029872849822,1.0,2664.0110625576544,0.5296681622606928,1.2839907384001705,0.9818058081796639,0.2839701254659692,0.7428228970118811
0.0675,1.6869628934824847,1.0,2666.277923442216,0.5323063539865627,1.283274359967026,0.9819473709799991,0.28390544152626435,0.7441187403867084
0.068,1.685422799679987,1.0,2668.77018101376,0.5349297477456464,1.2825559184022608,0.982085908126011,0.28384075758655947,0.7454150286219865
0.0685,1.6838827058774894,1.0,2671.471278418123,0.5375384256548003,1.2818355687161282,0.9822215065362794,0.28377607364685453,0.7467114547399762
0.069,1.6823426120749918,1.0,2674.3646502581955,0.5401324698308805,1.281113465918882,0.9823542502388982,0.28371138970714965,0.748007714537862
0.0695,1.6808025182724942,1.0,2677.433716302211,0.5427119623907433,1.2803897650207752,0.9824842204914077,0.2836467057674448,0.7493035066058498
0.07,1.6792624244699965,1.0,2680.66187572481,0.5452769854512449,1.2796646210320617,0.9826114958949997,0.28358202182773984,0.7505985323437288
0.07050000000000001,1.677722330667499,1.0,2684.0325018817884,0.5478276211292417,1.2789381889629945,0.9827361525033076,0.28351733788803496,0.7518924959759081
0.07100000000000001,1.6761822368650015,1.0,2687.537709783941,0.5503639462461586,1.2782105434679985,0.9828582599210849,0.2834526539483301,0.7531852471404367
0.07150000000000001,1.6746421430625038,1.0,2691.156992981658,0.5528860481339619,1.2774818746388348,0.9829778914062348,0.28338797000862515,0.7544764325475701
0.07200000000000001,1.6731020492600062,1.0,2694.8813539568423,0.5553940056688697,1.276752266846758,0.9830951126209196,0.28332328606892027,0.7557658890152452
0.0725,1.6715619554575087,1.0,2698.7034569259436,0.5578878965472358,1.2760217890963819,0.9832099863923073,0.2832586021292154,0.7570534819643893
0.073,1.670021861655011,1.0,2702.6159500267927,0.5603677984654146,1.2752905103923209,0.9833225735743008,0.28319391818951045,0.7583390780865289
0.0735,1.6684817678525135,1.0,2706.611464040471,0.5628337891197602,1.2745584997391892,0.9834329331241399,0.2831292342498056,0.759622545347467
0.074,1.6669416740500158,1.0,2710.682611218464,0.5652859462066266,1.2738258261416007,0.9835411221755698,0.2830645503101007,0.7609037529906566
