Time [s],Phi [rad],STIM [ ],Fsee [N],Gamma [ ],Lcerel [ ],q [ ],Lmtc [m],fisomrel [ ]
0.0,1.8,1.0,17.969971529944942,4.7574462138643335e-05,1.3793394310413867,0.005000595837697086,0.288653,0.5411402935497356
0.0005,1.79999375,1.0,18.29176314831987,0.005656516915835549,1.3793007198132985,0.013045155580435334,0.2886527375,0.5412339411642655
0.001,1.799975,1.0,21.66129122992246,0.011233997637104864,1.3789339216948302,0.03580463553477654,0.28865195,0.5421208003475011
0.0015,1.79994375,1.0,31.171624142277796,0.016780193102284527,1.3780374877861032,0.07086991425269008,0.2886506375,0.5442846231772062
0.002,1.7999,1.0,53.80343443055376,0.0222952787960023,1.3763538060825555,0.11503538041021617,0.2886488,0.5483348617575708
0.0025,1.79984375,1.0,97.49082104185891,0.027779429218998827,1.3739172642083248,0.1649200792779577,0.28864643749999996,0.5541641566548527
0.003,1.7997750000000001,1.0,161.4424089430282,0.03323281789549761,1.3711962317250488,0.21763653708635747,0.28864354999999997,0.5606293289321553
0.0035,1.79969375,1.0,238.2306520584487,0.03865561737307199,1.368567885007674,0.2709670365677957,0.2886401375,0.5668294456025831
0.004,1.7996,1.0,322.04917328516666,0.044047999233353397,1.3661406737734387,0.3232587035181355,0.2886362,0.572515966226825
0.0045000000000000005,1.7994937500000001,1.0,409.8709187435722,0.04941013409723733,1.3639086607284419,0.37336000483066906,0.2886317375,0.5777120109911729
0.005,1.799375,1.0,500.02899277181695,0.054742191616139566,1.3618452672923447,0.4205519837066389,0.28862675,0.5824872529914912
0.0055,1.79924375,1.0,591.4114158650065,0.060044340517530964,1.3599267054154474,0.464455636671383,0.2886212375,0.586902955130044
0.006,1.7991000000000001,1.0,683.1399380451381,0.06531674855281808,1.3581351141116593,0.5049390593113776,0.2886152,0.5910052297201173
0.006500000000000001,1.79894375,1.0,774.5013768258287,0.0705595825435787,1.3564566698994645,0.5420376406144257,0.2886086375,0.5948298548602814
0.007,1.798775,1.0,864.9021477920097,0.07577300840316879,1.3548804409598096,0.5758926160111953,0.28860155,0.5984052060719741
0.0075,1.79859375,1.0,953.8431028520783,0.08095719095495595,1.3533975537535343,0.6067062761675897,0.2885939375,0.6017543654369191
0.008,1.7984,1.0,1040.951824848339,0.0861122945565487,1.3519999114083656,0.6347104241650913,0.2885858,0.6048981580628277
0.0085,1.79819375,1.0,1125.89912053764,0.09123848196264947,1.350680962639355,0.6601464216693412,0.2885771375,0.6078535154411202
0.009000000000000001,1.797975,1.0,1208.441417366368,0.09633591536935368,1.3494346405215338,0.6832516117703985,0.28856795,0.6106359438889873
0.0095,1.79774375,1.0,1288.4196026038285,0.10140475654145448,1.3482551456466008,0.7042515370783754,0.2885582375,0.6132600559013549
0.01,1.7975,1.0,1365.690318604564,0.10644516538602798,1.3471376604980816,0.7233562034994585,0.288548,0.6157380250762712
0.0105,1.79724375,1.0,1440.1635698145558,0.11145730129037149,1.3460776381089068,0.740757876722512,0.2885372375,0.6180812130132671
0.011,1.796975,1.0,1511.8044418025302,0.11644132326421806,1.3450706634939964,0.756630701663345,0.28852595000000003,0.6203005012621592
0.0115,1.79669375,1.0,1580.5917667284248,0.12139738907253195,1.3441128595920204,0.7711314715915866,0.2885141375,0.6224054204827885
0.012,1.7964,1.0,1646.516307327913,0.12632565496389608,1.3432007893465132,0.7844006295278307,0.28850180000000003,0.6244043947446756
0.0125,1.79609375,1.0,1709.603621518058,0.13122627675422163,1.3423310998913462,0.7965634238630187,0.2884889375,0.6263055422422867
0.013000000000000001,1.7957750000000001,1.0,1769.9104072930472,0.1360994104161118,1.341500513856385,0.8077313274617574,0.28847555,0.6281167061091361
0.0135,1.79544375,1.0,1827.4870638522311,0.140945210228498,1.340706200986063,0.8180035864052314,0.2884616375,0.629844657556264
0.014,1.7951000000000001,1.0,1882.3788323490892,0.1457638285554854,1.3399456984851776,0.8274685007061205,0.2884472,0.631495287249441
0.0145,1.79474375,1.0,1934.6549726761386,0.1505554177611789,1.3392165435585257,0.8362045176929672,0.2884322375,0.6330744151027003
0.015,1.794375,1.0,1984.397435842235,0.15532012949758667,1.3385163719174422,0.8442814012360371,0.28841675,0.6345875827291197
0.0155,1.79399375,1.0,2031.6971773593775,0.16005811575590348,1.3378429302779946,0.8517612521017066,0.2884007375,0.6360400333583485
0.016,1.7936,1.0,2076.630498957679,0.16476952633010827,1.3371942985886933,0.8586994769975639,0.2883842,0.6374362404313748
0.0165,1.7931937500000001,1.0,2119.2676186363296,0.16945450922877908,1.336568768654541,0.8651455387509895,0.2883671375,0.6387801784641773
0.017,1.792775,1.0,2159.6911722083887,0.1741132124604939,1.3359646322805403,0.8711435970424258,0.28834955,0.6400757839815094
0.0175,1.7923437500000001,1.0,2197.9929026024274,0.17874578378570768,1.3353802041059615,0.8767331414319958,0.2883314375,0.6413269091002667
0.018000000000000002,1.7919,1.0,2234.2579051778184,0.1833523696998036,1.334813968991626,0.8819495792140499,0.2883128,0.6425370094645231
0.0185,1.79144375,1.0,2268.5842313399276,0.18793311800463,1.3342643709668827,0.8868246567521942,0.2882936375,0.6437095991776602
0.019,1.790975,1.0,2301.0372182819333,0.19248817203120094,1.3337302591236129,0.8913869911994524,0.28827395,0.6448473027592034
0.0195,1.79049375,1.0,2331.68857498095,0.19701767511053037,1.3332104825536983,0.8956623292738418,0.2882537375,0.6459527242229959
0.02,1.79,1.0,2360.6158576662697,0.20152177057363224,1.3327038903490207,0.8996738732000015,0.288233,0.6470284481716416
0.0205,1.78949375,1.0,2387.8995302898643,0.20600060132906667,1.3322093553559298,0.9034425715202551,0.2882117375,0.6480769904783086
0.021,1.788975,1.0,2413.6140457092115,0.21045430901730836,1.331725855248617,0.9069873862617974,0.28818995000000003,0.6491006280598646
0.021500000000000002,1.78844375,1.0,2437.842594639606,0.2148830369828676,1.3312523239422691,0.9103254801047774,0.2881676375,0.6501017151876467
0.022,1.7879,1.0,2460.643136358326,0.21928692358241245,1.3307879742998554,0.9134724736672742,0.2881448,0.651082002737877
0.0225,1.78734375,1.0,2482.0766727848736,0.22366610717261104,1.3303320191843455,0.916442555366572,0.28812143749999997,0.6520432305535497
0.023,1.786775,1.0,2502.206996591803,0.22802072611013152,1.329883671458709,0.9192486325542998,0.28809755,0.6529871278855949
0.0235,1.78619375,1.0,2521.100453051927,0.2323509187516419,1.3294421439859154,0.9219024649189225,0.28807313749999996,0.653915413794526
0.024,1.7856,1.0,2538.8149119850764,0.23665682091677426,1.329006751450893,0.9244147996210932,0.2880482,0.654829583863936
0.0245,1.78499375,1.0,2555.417405722741,0.24093857244202915,1.328576741030903,0.9267954467825256,0.2880227375,0.6557312667522668
0.025,1.784375,1.0,2570.9597580118566,0.2451963085073962,1.3281515200419536,0.9290534082488927,0.28799675,0.6566217471114648
0.025500000000000002,1.78374375,1.0,2585.487426203101,0.24943016209644187,1.3277305694416504,0.9311969432075856,0.2879702375,0.657502148767384
0.026000000000000002,1.7831000000000001,1.0,2599.0471704585443,0.25364026619273267,1.327313370187599,0.9332336291310278,0.2879432,0.6583735895932263
0.0265,1.78244375,1.0,2611.6869426301973,0.257826753779835,1.3268994032374046,0.9351704272500814,0.2879156375,0.659237181642311
0.027,1.781775,1.0,2623.4557811123905,0.26198975784131545,1.326488149548673,0.9370137409407905,0.28788755,0.6600940312636588
0.0275,1.7810937500000001,1.0,2634.3988904518105,0.2661294098862751,1.3260791346859966,0.9387694739904078,0.2878589375,0.6609451464363256
0.028,1.7804,1.0,2644.5571097425577,0.27024584095820525,1.3256719324401716,0.9404430774554019,0.2878298,0.6617914299128964
0.0285,1.77969375,1.0,2653.9846456439973,0.2743391859122948,1.3252660001946281,0.9420395686323895,0.2878001375,0.6626340214202429
0.029,1.778975,1.0,2662.7129196535025,0.2784095718577243,1.3248610119605062,0.9435636127689623,0.28776995,0.6634736062117215
0.029500000000000002,1.7782437500000001,1.0,2670.7738842333706,0.2824571259036744,1.3244566417489465,0.9450195267370597,0.2877392375,0.6643108661511345
0.03,1.7775,1.0,2678.1999763644276,0.2864819751593256,1.324052563571089,0.9464113095071744,0.287708,0.6651464797289712
0.0305,1.77674375,1.0,2685.024073456098,0.2904842467338587,1.3236484514380737,0.9477426695948862,0.2876762375,0.6659811220718649
0.031,1.775975,1.0,2691.279451612486,0.2944640677364541,1.323243979361041,0.9490170498134223,0.28764395,0.6668154649452769
0.0315,1.7751937500000001,1.0,2696.9997462542306,0.2984215652762925,1.3228388213511315,0.9502376496258813,0.2876111375,0.6676501767494012
0.032,1.7744,1.0,2702.212149365815,0.3023568621366791,1.3224327132271199,0.9514074515875512,0.2875778,0.6684857954113453
0.0325,1.77359375,1.0,2706.9514371983714,0.3062700882902995,1.3220253239917519,0.9525292270688289,0.2875439375,0.6693229933291047
0.033,1.772775,1.0,2711.2414239554428,0.3101613666318023,1.321616424998029,0.9536055691029884,0.28750955,0.670162229500916
0.0335,1.7719437500000002,1.0,2715.1036902962232,0.3140308183704083,1.3212058097540733,0.9546388988267549,0.2874746375,0.6710039151155296
0.034,1.7711000000000001,1.0,2718.5599877295526,0.31787856471533826,1.3207932717680073,0.9556314770026874,0.2874392,0.6718484591466116
0.0345,1.7702437500000001,1.0,2721.632221099345,0.32170472687581303,1.3203786045479529,0.9565854165348842,0.2874032375,0.6726962683287834
0.035,1.7693750000000001,1.0,2724.342432014731,0.3255094260610534,1.3199616016020324,0.9575026938680965,0.28736675,0.6735477471309386
0.035500000000000004,1.76849375,1.0,2726.712783226556,0.32929278348028,1.3195420564383682,0.9583851593815426,0.2873297375,0.6744032977268455
0.036000000000000004,1.7676,1.0,2728.7647171607764,0.33305491998872605,1.3191197700812782,0.959234547571978,0.2872922,0.6752633046660463
0.0365,1.76669375,1.0,2730.5173798513288,0.3367959546023779,1.3186945652575732,0.9600524867663994,0.2872541375,0.6761281061074185
0.037,1.765775,1.0,2731.987508981327,0.3405160052127527,1.3182662872720465,0.9608405071579279,0.28721555,0.67699799230251
0.0375,1.76484375,1.0,2733.189549891218,0.34421518898615877,1.3178348028346087,0.9616000478809611,0.2871764375,0.6778732082496346
0.038,1.7639,1.0,2734.1380018687178,0.34789362308890437,1.3173999786551704,0.9623324616177757,0.28713679999999997,0.6787539972885758
0.0385,1.76294375,1.0,2734.842671172864,0.35155142082860946,1.3169617244860217,0.9630390240228878,0.28709663750000003,0.6796405140652019
0.039,1.7619769006376247,1.0,2735.4251085514443,0.35518870485952103,1.3165197941581108,0.963720923253984,0.28705602982678025,0.6805332267414131
0.0395,1.7610087938183578,1.0,2736.3246541763197,0.3588055884595016,1.3160744176286432,0.964379320198425,0.28701536934037103,0.6814316406910526
0.04,1.760040686999091,1.0,2737.576838058233,0.36240218437369887,1.315625841721865,0.965015310260053,0.2869747088539618,0.682335229710983
0.0405,1.759072580179824,1.0,2739.154699517939,0.3659786053472605,1.3151743132620224,0.9656299264262013,0.2869340483675526,0.6832434702162391
0.041,1.758104473360557,1.0,2741.031307883444,0.36953496412533415,1.3147200790733613,0.9662241434863953,0.2868933878811434,0.6841558412884478
0.0415,1.75713636654129,1.0,2743.179747007494,0.3730713734530676,1.3142633859801283,0.9667988819240431,0.28685272739473416,0.6850718247203601
0.042,1.7561682597220232,1.0,2745.5731011361013,0.37658794607560847,1.313804480806569,0.9673550115095525,0.28681206690832495,0.6859909050565041
0.0425,1.7552001529027563,1.0,2748.1893342674025,0.38008479235529913,1.313343566060669,0.9678933505720162,0.2867714064219158,0.6869126581899975
0.043000000000000003,1.7542320460834893,1.0,2751.004849831779,0.38356202514177407,1.312880858254728,0.9684146749162325,0.2867307459355065,0.6878366343679363
0.043500000000000004,1.7532639392642224,1.0,2753.998612731066,0.3870197561478625,1.3124165504890075,0.9689197169512516,0.28669008544909735,0.6887624329736908
0.044,1.7522958324449553,1.0,2757.1574161637495,0.3904580928695867,1.3119507648126751,0.969409164249668,0.28664942496268814,0.6896897969795506
0.0445,1.7513277256256885,1.0,2760.4680377586446,0.3938771428029691,1.311483623274898,0.9698836686029977,0.2866087644762789,0.6906184707638436
0.045,1.7503596188064217,1.0,2763.9172357404473,0.39727701344403193,1.3110152479248445,0.9703438482386226,0.2865681039898697,0.6915482001219628
0.0455,1.7493915119871546,1.0,2767.4917454262218,0.4006578122887976,1.310545760811681,0.9707902898786456,0.2865274435034605,0.6924787322764483
0.046,1.7484234051678877,1.0,2771.178276051421,0.4040196468332885,1.310075283984576,0.9712235506533466,0.28648678301705127,0.6934098158861115
0.0465,1.7474552983486207,1.0,2774.963507926906,0.40736262457352684,1.3096039394926964,0.9716441598808084,0.28644612253064206,0.6943412010542181
0.047,1.7464871915293538,1.0,2778.844328476148,0.41068684273081607,1.3091317571505519,0.9720526126907221,0.28640546204423284,0.6952728211766972
0.0475,1.7455190847100868,1.0,2782.7984631249547,0.41399242182118384,1.308658939231436,0.9724493953993832,0.2863648015578236,0.6962042705118772
0.048,1.74455097789082,1.0,2786.820085497377,0.4172794637828081,1.3081855395015631,0.9728349578674913,0.28632414107141446,0.6971354376343446
0.0485,1.743582871071553,1.0,2790.9037512748346,0.4205480701126307,1.3077116081592264,0.9732097281303975,0.28628348058500525,0.6980662187629552
0.049,1.742614764252286,1.0,2795.044001794442,0.42379834230759317,1.307237195402719,0.9735741139475315,0.28624282009859603,0.6989965107177022
0.0495,1.7416466574330192,1.0,2799.235363485075,0.4270303818646373,1.3067623514303348,0.9739285039495053,0.2862021596121868,0.6999262109213386
0.05,1.740678550613752,1.0,2803.4723473596714,0.43024429028070477,1.3062871264403664,0.9742732687103002,0.2861614991257776,0.7008552174008387
0.0505,1.7397104437944853,1.0,2807.749448562967,0.43344016905273736,1.3058115706311075,0.9746087617500578,0.2861208386393684,0.7017834287886963
0.051000000000000004,1.7387423369752182,1.0,2812.0611459757342,0.43661811967767666,1.3053357342008511,0.9749353204735565,0.28608017815295916,0.7027107443240663
0.051500000000000004,1.7377742301559513,1.0,2816.401901874194,0.43977824365246443,1.304859667347891,0.9752532670490242,0.28603951766654995,0.7036370638537414
0.052000000000000005,1.7368061233366845,1.0,2820.766161645691,0.4429206424740424,1.3043834202705202,0.975562909231582,0.28599885718014073,0.7045622878329716
0.0525,1.7358380165174174,1.0,2825.152216637763,0.44604540720698066,1.3039070086526576,0.9758645378637283,0.2859581966937315,0.7054863842212802
0.053,1.7348699096981506,1.0,2829.5539784316406,0.44915264671022315,1.3034304872314728,0.9761584353221343,0.2859175362073223,0.7064092455946143
0.0535,1.7339018028788837,1.0,2833.966678152737,0.45224246495445003,1.302953898803895,0.9764448704395077,0.28587687572091314,0.7073307882637736
0.054,1.7329336960596167,1.0,2838.3886102948886,0.4553149565660661,1.3024772587285,0.9767240978487094,0.28583621523450387,0.7082509819900894
0.0545,1.7319655892403498,1.0,2842.818064003449,0.458370216171476,1.302000582363864,0.9769963613235199,0.2857955547480947,0.7091697967215783
0.055,1.7309974824210828,1.0,2847.253323059314,0.4614083383970846,1.301523885068563,0.9772618943334015,0.2857548942616855,0.7100872025929845
0.0555,1.730029375601816,1.0,2851.6926658698844,0.4644294178692967,1.3010471822011729,0.9775209205654534,0.28571423377527627,0.7110031699258094
0.056,1.7290612687825488,1.0,2856.13436546425,0.46743354921451696,1.3005704891202696,0.9777736544157569,0.28567357328886706,0.7119176692283223
0.0565,1.728093161963282,1.0,2860.5766894940407,0.47042082705915017,1.300093821184429,0.9780203014521452,0.28563291280245784,0.712830671195561
0.057,1.7271250551440152,1.0,2865.017900239207,0.4733913460296011,1.2996171937522274,0.9782610588502801,0.2855922523160486,0.7137421467093119
0.0575,1.726156948324748,1.0,2869.4562546194006,0.4763452007522745,1.2991406221822404,0.9784961158047775,0.2855515918296394,0.7146520668380808
0.058,1.7251888415054812,1.0,2873.890004210144,0.479282485853575,1.2986641218330444,0.9787256539170002,0.2855109313432302,0.7155604028370421
0.0585,1.7242207346862142,1.0,2878.317395264771,0.48220329595990763,1.298187708063215,0.9789498475610221,0.285470270856821,0.7164671261479812
0.059000000000000004,1.7232526278669473,1.0,2882.7383682504924,0.48510770790477825,1.2977113811996177,0.9791688619155416,0.2854296103704118,0.717372236939464
0.059500000000000004,1.7222845210476803,1.0,2887.1519664028588,0.48799581718358315,1.2972351494982632,0.9793828576990558,0.28538894988400254,0.7182757203531414
0.06,1.7213164142284134,1.0,2891.5549768997103,0.4908677436437545,1.2967590411142178,0.979591992432966,0.2853482893975934,0.7191775239699298
0.0605,1.7203483074091466,1.0,2895.947140176493,0.4937235736865707,1.2962830580564586,0.9797964134626225,0.28530762891118416,0.7200776451170701
0.061,1.7193802005898795,1.0,2900.3281960814647,0.49656339371330976,1.2958072023339624,0.9799962625221672,0.28526696842477495,0.7209760811459
0.0615,1.7184120937706127,1.0,2904.697883880919,0.49938729012524985,1.2953314759557066,0.9801916759912899,0.28522630793836573,0.7218728294318364
0.062,1.7174439869513458,1.0,2909.055942265173,0.5021953493236693,1.2948558809306678,0.9803827851383548,0.2851856474519565,0.7227678873743617
0.0625,1.7164758801320787,1.0,2913.4021093540678,0.504987657709846,1.2943804192678234,0.9805697163507177,0.2851449869655473,0.7236612523970041
0.063,1.715507773312812,1.0,2917.736122703202,0.5077643016850583,1.2939050929761502,0.9807525913530021,0.2851043264791381,0.724552921947323
0.0635,1.7145396664935448,1.0,2922.0577193096124,0.5105253676505844,1.2934299040646253,0.9809315274140452,0.28506366599272887,0.7254428934968902
0.064,1.713571559674278,1.0,2926.3666356180856,0.5132709420077024,1.2929548545422258,0.9811066375431853,0.28502300550631965,0.7263311645412733
0.0645,1.712603452855011,1.0,2930.662607527222,0.5160011111576904,1.2924799464179286,0.9812780306765109,0.2849823450199105,0.7272177326000179
0.065,1.711635346035744,1.0,2934.9453703953454,0.5187159615018268,1.292005181700711,0.9814458118536563,0.2849416845335012,0.7281025952166287
0.0655,1.7106672392164772,1.0,2939.214659047903,0.5214155794413895,1.2915305623995497,0.981610082385687,0.28490102404709206,0.7289857499585533
0.066,1.7096991323972102,1.0,2943.4702077824354,0.5241000513776569,1.291056090523422,0.9817709400145876,0.28486036356068284,0.7298671944171605
0.0665,1.7087310255779433,1.0,2947.7117503763207,0.526769463711907,1.290581768081305,0.9819284790648246,0.2848197030742736,0.7307469262077255
0.067,1.7077629187586763,1.0,2951.939020092708,0.5294239028454181,1.2901075970821754,0.9820827905874383,0.2847790425878644,0.7316249429694075
0.0675,1.7067948119394094,1.0,2956.1517496875226,0.5320634551794682,1.2896335795350105,0.9822339624970751,0.2847383821014552,0.7325012423652322
0.068,1.7058267051201423,1.0,2960.3498457476253,0.5346881933389969,1.2891597159272175,0.982382078742976,0.284697721615046,0.733375824888045
0.0685,1.7048585983008755,1.0,2964.5337959507074,0.5372981738791257,1.2886860016780002,0.982527219182706,0.28465706112863676,0.7342487003672502
0.069,1.7038904914816086,1.0,2968.7030675888113,0.5398935377105211,1.2882124411142173,0.982669466724911,0.28461640064222754,0.7351198622033923
0.0695,1.7029223846623416,1.0,2972.857747202676,0.5424743620190465,1.2877390331584877,0.9828088972451101,0.2845757401558183,0.7359893137660036
0.07,1.7019542778430747,1.0,2976.9979218342737,0.5450407239905661,1.287265776733432,0.9829455841085903,0.28453507966940916,0.7368570584111546
0.07050000000000001,1.7009861710238077,1.0,2981.123679023454,0.5475927008109435,1.2867926707616688,0.9830795982706183,0.2844944191829999,0.7377230994814701
0.07100000000000001,1.7000180642045408,1.0,2985.235106804577,0.5501303696660422,1.2863197141658187,0.9832110083720033,0.28445375869659073,0.7385874403061349
0.07150000000000001,1.699049957385274,1.0,2989.3322937024523,0.5526538077417261,1.285846905868501,0.9833398808302543,0.2844130982101815,0.7394500842009069
