Time [s],Phi [rad],STIM [ ],Fsee [N],Gamma [ ],Lcerel [ ],q [ ],Lmtc [m],fisomrel [ ]
0.0,1.8,1.0,17.96765682296799,1.5881867786289366e-05,1.3793396903540287,0.005000066979795306,0.288653,0.5411396662057067
0.0005,1.79999375,1.0,18.278925193073373,0.005625002091864307,1.3793021455248637,0.012956850905869337,0.2886527375,0.5412304923476885
0.001,1.799975,1.0,21.624901813936724,0.011202659586378373,1.37893763621571,0.0356392315726318,0.28865195,0.5421118235307725
0.0015,1.79994375,1.0,31.084968223727962,0.01674903083323138,1.3780448635675286,0.07064366458150198,0.2886506375,0.5442668403386756
0.002,1.7999,1.0,53.61644207167962,0.02226429132266556,1.3763659227747713,0.11476752929729621,0.2886488,0.5483057786157362
0.0025,1.79984375,1.0,97.17629177351759,0.027748615560866705,1.3739324039089846,0.16462873656017846,0.28864643749999996,0.5541280526366326
0.003,1.7997750000000001,1.0,161.03302129285242,0.03320217707762796,1.3712115422078268,0.2173360033155472,0.28864354999999997,0.560593083328083
0.0035,1.79969375,1.0,237.76802826752711,0.03862514842598288,1.3685821255823618,0.2706681399844441,0.2886401375,0.5667959716236866
0.004,1.7996,1.0,321.55696761267586,0.04401770119297707,1.366153703608929,0.32296930154922227,0.2886362,0.5724855399664048
0.0045000000000000005,1.7994937500000001,1.0,409.36122965315565,0.049380006004855745,1.363920619986617,0.37308529425512543,0.2886317375,0.5776842549379986
0.005,1.799375,1.0,499.5089310959071,0.05471223251816297,1.3618563146293727,0.42029497678723704,0.28862675,0.5824617588101033
0.0055,1.79924375,1.0,590.8867518205334,0.06001454946699315,1.3599369529686347,0.4642176916553218,0.2886212375,0.5868794320397157
0.006,1.7991000000000001,1.0,682.6146060657456,0.06528712460670241,1.3581446607373748,0.504720392642813,0.2886152,0.5909834246980571
0.006500000000000001,1.79894375,1.0,773.979644453102,0.07053012476967016,1.3564655741469747,0.5418377021052174,0.2886086375,0.5948096123981752
0.007,1.798775,1.0,864.3842092174796,0.0757437158448881,1.3548888055983836,0.575710435588984,0.28860155,0.5983862744290582
0.0075,1.79859375,1.0,953.3401120159104,0.08092806280182924,1.35340528885909,0.606540524670247,0.2885939375,0.6017369317806862
0.008,1.7984,1.0,1040.4512124858863,0.08608332965672191,1.352007280701925,0.6345598904319295,0.2885858,0.604881614581748
0.0085,1.79819375,1.0,1125.4106520671198,0.09120967956046284,1.3506878765105825,0.6600096731822869,0.2885771375,0.6078380525143445
0.009000000000000001,1.797975,1.0,1207.9748402913062,0.09630727467165776,1.3494410149301532,0.683127275223884,0.28856795,0.6106217381523739
0.0095,1.79774375,1.0,1287.9636433646153,0.1013762763456523,1.3482611785054575,0.7041384781750106,0.2885582375,0.613246656715529
0.01,1.7975,1.0,1365.2367143030858,0.10641684451876726,1.3471434899066292,0.7232533441086579,0.288548,0.615725119309458
0.0105,1.79724375,1.0,1439.7366545970972,0.11142913967753947,1.3460829807412853,0.7406640281718411,0.2885372375,0.6180694210498315
0.011,1.796975,1.0,1511.4035974901162,0.11641332002939409,1.345075559524171,0.7565449469661806,0.28852595000000003,0.620289726463904
0.0115,1.79669375,1.0,1580.198652764437,0.12136954263443883,1.3441175555369744,0.7710530816803379,0.2885141375,0.6223951147042645
0.012,1.7964,1.0,1646.131074750193,0.12629796455278136,1.3432052980613842,0.7843288516676824,0.28850180000000003,0.624394526092463
0.0125,1.79609375,1.0,1709.2363079201039,0.13119874180539054,1.3423353187988019,0.7964975393061993,0.2884889375,0.6262963313230954
0.013000000000000001,1.7957750000000001,1.0,1769.5630201781205,0.13607203033378548,1.3415044353070364,0.8076707358563407,0.28847555,0.6281081653878258
0.0135,1.79544375,1.0,1827.145139605846,0.14091798333442596,1.340709999471244,0.8179478228913907,0.2884616375,0.6298364038912787
0.014,1.7951000000000001,1.0,1882.043585618047,0.14573675397275948,1.3399493680769432,0.8274170863355663,0.2884472,0.631487331454359
0.0145,1.79474375,1.0,1934.3299491388934,0.15052849446921618,1.3392200528437688,0.8361570174255196,0.2884322375,0.6330668231781592
0.015,1.794375,1.0,1984.0983084966772,0.15529335813488634,1.3385195608514635,0.8442373869049012,0.28841675,0.6345806980897076
0.0155,1.79399375,1.0,2031.419571361586,0.1600314953372994,1.3378458551143373,0.8517204116127839,0.2884007375,0.6360337314479025
0.016,1.7936,1.0,2076.3602441098833,0.16474305490299473,1.3371971149955155,0.8586615624248312,0.2883842,0.6374301837968785
0.0165,1.7931937500000001,1.0,2119.0009238119746,0.16942818565851173,1.3365715198581236,0.8651102956218178,0.2883671375,0.6387742730242114
0.017,1.792775,1.0,2159.435099335392,0.1740870364303898,1.3359672490652872,0.8711107659402664,0.28834955,0.6400701771540284
0.0175,1.7923437500000001,1.0,2197.7456216339924,0.17871975413622168,1.3353827089295445,0.8767025151658807,0.2883314375,0.6413215515021699
0.018000000000000002,1.7919,1.0,2234.036242199936,0.1833264876181213,1.3348161960144187,0.8819209234065101,0.2883128,0.6425322541021504
0.0185,1.79144375,1.0,2268.3732876804384,0.18790738110315192,1.3342664741955643,0.886797841371288,0.2882936375,0.6437051155257212
0.019,1.790975,1.0,2300.829685366761,0.19246257875500386,1.333732313700204,0.8913618802032267,0.28827395,0.6448429298224128
0.0195,1.79049375,1.0,2331.4849897470967,0.19699222473736733,1.3332124847555606,0.8956387816065272,0.2882537375,0.645948469397402
0.02,1.79,1.0,2360.42003193607,0.20149646249531658,1.332705804399907,0.8996517541224711,0.288233,0.6470243868578153
0.0205,1.78949375,1.0,2387.716060026002,0.2059754353033725,1.3322111383642956,0.9034217579836553,0.2882117375,0.6480732128402387
0.021,1.788975,1.0,2413.4539015410533,0.2104292862800914,1.3317274032516169,0.9069677545733545,0.28818995000000003,0.6490973530992958
0.021500000000000002,1.78844375,1.0,2437.6933483422954,0.21485815473875233,1.3312537594143834,0.9103069636211658,0.2881676375,0.6500986826334114
0.022,1.7879,1.0,2460.497640009551,0.21926217999263448,1.3307893672051085,0.9134550017658484,0.2881448,0.6510790642348337
0.0225,1.78734375,1.0,2481.9331787036313,0.22364150135501704,1.3303333869763052,0.916426053959174,0.28812143749999997,0.6520403490075338
0.023,1.786775,1.0,2502.0692596591257,0.22799625813917915,1.329884979080487,0.9192330245499747,0.28809755,0.6529843768401361
0.0235,1.78619375,1.0,2520.963536331159,0.23232658654685595,1.3294434389409497,0.9218876942908046,0.28807313749999996,0.6539126930445176
0.024,1.7856,1.0,2538.693891033415,0.23663262803460017,1.329007892062002,0.9244007837895423,0.2880482,0.6548271905641517
0.0245,1.78499375,1.0,2555.308264041242,0.24091451704490305,1.3285777663327305,0.926782139335781,0.2880227375,0.6557291182136273
0.025,1.784375,1.0,2570.8546290191734,0.24517238765322796,1.3281525046574838,0.929040772317284,0.28799675,0.6566196865019773
0.025500000000000002,1.78374375,1.0,2585.3824413691964,0.24940637393503817,1.3277315499406102,0.9311849391930532,0.2879702375,0.6575000994053742
0.026000000000000002,1.7831000000000001,1.0,2598.942511865304,0.25361660996579705,1.3273143450864584,0.9332222149930876,0.2879432,0.6583715545300473
0.0265,1.78244375,1.0,2611.5868871684033,0.2578032298209678,1.3269003329993772,0.9351595587653245,0.2879156375,0.6592352432554093
0.027,1.781775,1.0,2623.3580489059286,0.26196636374051663,1.3264890556823101,0.9370033856277401,0.28788755,0.6600921445142647
0.0275,1.7810937500000001,1.0,2634.3143906410482,0.2661061488593646,1.326079916504293,0.9387595858560019,0.2878589375,0.6609435205757441
0.028,1.7804,1.0,2644.493923242319,0.2702227151043016,1.325672515936058,0.940433617440318,0.2878298,0.6617902179970601
0.0285,1.77969375,1.0,2653.9311891381617,0.27431619086172015,1.3252664929608495,0.9420305241752066,0.2878001375,0.6626329992249669
0.029,1.778975,1.0,2662.6613491096095,0.2783867045180127,1.3248614865619117,0.9435549679212356,0.28776995,0.6634726229234211
0.029500000000000002,1.7782437500000001,1.0,2670.720127522951,0.28243438445957175,1.324457135722488,0.9450112624582202,0.2877392375,0.664309844001145
0.03,1.7775,1.0,2678.143760451985,0.2864593590727898,1.3240530794258227,0.946403403933312,0.287708,0.6651454136308719
0.0305,1.77674375,1.0,2684.96894669022,0.2904617567440594,1.32364895665516,0.9477350982835329,0.2876762375,0.6659800792602883
0.031,1.775975,1.0,2691.218798019689,0.294441699611817,1.323244534583415,0.9490098003001313,0.28764395,0.6668143203506105
0.0315,1.7751937500000001,1.0,2696.9400277724126,0.2983993218301126,1.322839367433416,0.9502306976435011,0.2876111375,0.6676490524081371
0.032,1.7744,1.0,2702.162907366489,0.3023347492005639,1.322433163074622,0.9514007719842968,0.2875778,0.6684848703753005
0.0325,1.77359375,1.0,2706.909787098919,0.3062481036353493,1.3220257041503864,0.9525228075135999,0.2875439375,0.6693222125843361
0.033,1.772775,1.0,2711.203233381398,0.3101395070466468,1.321616773304063,0.9535993991683379,0.28750955,0.6701615150812597
0.0335,1.7719437500000002,1.0,2715.0660081053516,0.3140090813466346,1.3212061531790045,0.9546329677709953,0.2874746375,0.6710032116069704
0.034,1.7711000000000001,1.0,2718.521049054111,0.3178569484474908,1.320793626418565,0.9556257737865553,0.2874392,0.6718477335753388
0.0345,1.7702437500000001,1.0,2721.5914513629887,0.3216832302613936,1.3203789756660975,0.9565799298375847,0.2874032375,0.6726955100482848
0.035,1.7693750000000001,1.0,2724.3004500262596,0.32548804870052117,1.319961983564956,0.9574974121026371,0.28736675,0.6735469677078405
0.035500000000000004,1.76849375,1.0,2726.671403452337,0.32927152567705165,1.319542432758494,0.9583800707092979,0.2873297375,0.6744025308252022
0.036000000000000004,1.7676,1.0,2728.7184350271173,0.3330337762349627,1.3191201908268428,0.9592296464098454,0.2872922,0.6752624483630083
0.0365,1.76669375,1.0,2730.46915430934,0.3367749276533549,1.3186950035297897,0.9600477619882267,0.2872541375,0.6761272153225361
0.037,1.765775,1.0,2731.9409852489557,0.34049509824520335,1.3182667099644287,0.9608359477516669,0.28721555,0.6769971343380683
0.0375,1.76484375,1.0,2733.1476143560285,0.34419440323652667,1.3178351837568738,0.9615956437188068,0.2871764375,0.6778724361168185
0.038,1.7639,1.0,2734.102780526358,0.3478729578533434,1.3174002985332391,0.9623282034124564,0.28713679999999997,0.6787533497800085
0.0385,1.76294375,1.0,2734.8202684592143,0.35153087732167215,1.316961927919639,0.9630349000017933,0.28709663750000003,0.6796401028363062
0.039,1.761975,1.0,2735.313902428404,0.35516827686753155,1.3165199455421872,0.9637169319440169,0.28705595,0.6805329211542438
0.0395,1.7609937500000001,1.0,2735.597540408281,0.3587852717169403,1.3160742250269981,0.9643754281712233,0.2870147375,0.681432028933618
0.04,1.76,1.0,2735.6850685530494,0.3623819770959169,1.315624640000186,0.9650114528636413,0.286973,0.6823376486758703
0.0405,1.7589937500000001,1.0,2735.5903960308806,0.36595850823048004,1.315171064087865,0.965626009846264,0.2869307375,0.683250001153453
0.041,1.757975,1.0,2735.3188068794243,0.369514969306476,1.3147134493970996,0.9662200515023581,0.28688795,0.68416914785899
0.0415,1.75694375,1.0,2734.8898211158116,0.3730514854858458,1.3142516189121753,0.9667944699989783,0.2868446375,0.6850954081985872
0.042,1.7559,1.0,2734.316172338036,0.3765681721622711,1.3137854573276744,0.9673501120532683,0.28680079999999997,0.6860289756685658
0.0425,1.75484375,1.0,2733.605140272137,0.38006513732521485,1.3133148989368586,0.9678877813047804,0.2867564375,0.6869699429342668
0.043000000000000003,1.753775,1.0,2732.764011619683,0.38354248896413995,1.3128398780329893,0.9684082382489824,0.28671155,0.6879184015060726
0.043500000000000004,1.75269375,1.0,2731.8000782874965,0.3870003350685093,1.312360328909328,0.968912202984072,0.28666613750000003,0.6888744417208433
0.044,1.7516,1.0,2730.7206357120235,0.3904387836277859,1.3118761858591368,0.9694003577564039,0.2866202,0.6898381527230777
0.0445,1.75049375,1.0,2729.532981280673,0.3938579426314327,1.3113873831756768,0.9698733493211554,0.2865737375,0.6908096224458042
0.045,1.7493750000000001,1.0,2728.2444128477587,0.39725792006891264,1.3108938551522102,0.9703317911333297,0.28652675,0.6917889375911879
0.0455,1.74824375,1.0,2726.8622273466594,0.4006388239296887,1.310395536081998,0.9707762653828359,0.2864792375,0.6927761836108706
0.046,1.7471,1.0,2725.3937194979662,0.4040007622032238,1.3098923602583024,0.9712073248861441,0.2864312,0.6937714446860286
0.0465,1.7459437500000001,1.0,2723.8461806127566,0.40734384287898084,1.3093842619743845,0.9716254948459154,0.28638263750000004,0.6947748037071602
0.047,1.744775,1.0,2722.225053745199,0.41066817055330573,1.3088711923048417,0.9720312752578291,0.28633355,0.69578630919702
0.0475,1.74359375,1.0,2720.5308989342575,0.4139738415284574,1.3083531467527125,0.9724251437482039,0.28628393750000003,0.6968059211980234
0.048,1.7424,1.0,2718.780282625385,0.4172609810713157,1.3078299750637417,0.9728075481859848,0.2862338,0.6978338853707149
0.0485,1.74119375,1.0,2716.976536986907,0.4205296894630279,1.3073016473814307,0.9731789201664586,0.2861831375,0.6988702089179171
0.049,1.739975,1.0,2715.1229914945284,0.4237800669847413,1.306768133849282,0.9735396707741045,0.28613195,0.6999148981333833
0.0495,1.73874375,1.0,2713.2229726180312,0.42701221391760324,1.3062294046107976,0.97389019174142,0.2860802375,0.7009679583919528
0.05,1.7375,1.0,2711.279803526941,0.43022623054276093,1.3056854298094795,0.9742308565321152,0.286028,0.7020293941396485
0.0505,1.73624375,1.0,2709.296803815996,0.43342221714136175,1.3051361795888299,0.9745620213542554,0.2859752375,0.7030992088837161
0.051000000000000004,1.734975,1.0,2707.277289250707,0.436600273994553,1.3045816240923507,0.9748840261084643,0.28592195,0.7041774051826084
0.051500000000000004,1.73369375,1.0,2705.2245715323825,0.4397605013834819,1.3040217334635438,0.9751971952758905,0.2858681375,0.7052639846359119
0.052000000000000005,1.7324,1.0,2703.1419580828574,0.44290299958929574,1.3034564778459112,0.9755018387502641,0.2858138,0.7063589478742156
0.0525,1.73109375,1.0,2701.0327518495405,0.4460278688931419,1.3028858273829553,0.9757982526180159,0.28575893750000003,0.7074622945489242
0.053,1.729775,1.0,2698.900251129372,0.4491352095761676,1.302309752218178,0.9760867198901306,0.28570355000000003,0.708574023322015
0.0535,1.72844375,1.0,2696.747749413367,0.4522251219195202,1.3017282224950812,0.9763675111891025,0.2856476375,0.7096941318557358
0.054,1.7271,1.0,2694.575260055403,0.4552976918982556,1.301141238319751,0.9766408857978657,0.2855912,0.7108225592578028
0.0545,1.7257437500000001,1.0,2692.3866303961613,0.4583530274153445,1.3005487647117817,0.9769070919128028,0.2855342375,0.7119593113208612
0.055,1.724375,1.0,2690.186395850484,0.4613912359779016,1.2999507603357412,0.977166366704135,0.28547675,0.713104404891616
0.0555,1.72299375,1.0,2687.9759861304083,0.4644124100304778,1.2993472122364607,0.9774189375468114,0.2854187375,0.714257801423021
0.056,1.7216,1.0,2685.7568286966343,0.46741664201762373,1.2987381074587718,0.9776650223006017,0.2853602,0.7154194615814774
0.0565,1.72019375,1.0,2683.5303487317756,0.47040402438389023,1.2981234330475062,0.9779048297840723,0.28530113749999997,0.7165893452422484
0.057,1.718775,1.0,2681.2979691166674,0.4733746495738281,1.2975031760474949,0.9781385602212099,0.28524155,0.7177674114848638
0.0575,1.71734375,1.0,2679.0611104099526,0.47632861003198806,1.2968773235035695,0.9783664056624786,0.2851814375,0.7189536185885106
0.058,1.7159,1.0,2676.8211908327476,0.47926599820292093,1.2962458624605615,0.9785885503819699,0.2851208,0.7201479240274173
0.0585,1.71444375,1.0,2674.5796262559256,0.48218690653117746,1.2956087799633025,0.9788051712521806,0.2850596375,0.721350284466224
0.059000000000000004,1.7129750000000001,1.0,2672.3378301913176,0.48509142746130846,1.2949660630566235,0.9790164380978449,0.28499795,0.7225606557553443
0.059500000000000004,1.71149375,1.0,2670.097213786957,0.4879796534378647,1.2943176987853564,0.979222514030151,0.2849357375,0.7237789929263145
0.06,1.71,1.0,2667.8591858257887,0.4908516769053969,1.2936636741943324,0.9794235557625689,0.284873,0.7250052501871334
0.0605,1.7084937500000001,1.0,2665.625152728162,0.49370759030845585,1.293003976328383,0.9796197139094386,0.2848097375,0.7262393809175907
0.061,1.7069750000000001,1.0,2663.396518558108,0.4965474860915923,1.2923385922323396,0.9798111332683853,0.28474595,0.727481337664585
0.0615,1.7054437500000001,1.0,2661.1725691960237,0.4993714334165735,1.2916675284285224,0.9799979522964833,0.2846816375,0.7287310359068785
0.062,1.7039,1.0,2658.954279778249,0.5021795340401469,1.2909907758931851,0.9801803059217615,0.2846168,0.7299884194677364
0.0625,1.70234375,1.0,2656.7441712771706,0.5049719009110489,1.2903083113454545,0.98035832407363,0.2845514375,0.7312534577925722
0.063,1.7007750000000001,1.0,2654.542495249227,0.5077486179275962,1.2896201323832839,0.9805321306809953,0.28448555,0.7325260807343403
0.0635,1.69919375,1.0,2652.34950284989,0.5105097689881055,1.2889262366046255,0.980701845078021,0.28441913750000003,0.7338062174792347
0.064,1.6976,1.0,2650.1654448370914,0.5132554379908936,1.2882266216074325,0.9808675822066933,0.2843522,0.7350937965458098
0.0645,1.69599375,1.0,2647.990571575688,0.5159857088342772,1.2875212849896571,0.9810294528090127,0.2842847375,0.7363887457841083
0.065,1.694375,1.0,2645.8251330409494,0.518700665416573,1.2868102243492527,0.9811875636094132,0.28421675,0.737690992374781
0.0655,1.69274375,1.0,2643.6693788228567,0.5214003916360977,1.2860934372841717,0.981342017487976,0.2841482375,0.7390004628282134
0.066,1.6911,1.0,2641.5235581304637,0.5240849713911682,1.285370921392367,0.9814929136449605,0.2840792,0.7403170829836464
0.0665,1.6894437500000001,1.0,2639.3879197963847,0.5267544885801011,1.2846426742717911,0.9816403477571495,0.2840096375,0.7416407780083005
0.067,1.687775,1.0,2637.2627122807667,0.5294090271012131,1.2839086935203972,0.9817844121264694,0.28393955,0.7429714723964962
0.0675,1.68609375,1.0,2635.148183676743,0.532048670852821,1.2831689767361376,0.9819251958213191,0.2838689375,0.7443090899687779
0.068,1.6844000000000001,1.0,2633.0445817145637,0.5346735037332415,1.2824235215169653,0.9820627848110114,0.2837978,0.745653553871034
0.0685,1.68269375,1.0,2630.952153766659,0.5372836096407914,1.281672325460833,0.9821972620937129,0.2837261375,0.7470047865736178
0.069,1.680975,1.0,2628.871146852965,0.5398790724737872,1.2809153861656937,0.9823287078182336,0.28365395,0.7483627098704695
0.0695,1.67924375,1.0,2626.8018076455937,0.542459976130546,1.2801527012295,0.9824571994000045,0.28358123749999997,0.749727244878235
0.07,1.6775,1.0,2624.7443824746733,0.5450264045093842,1.2793842682502043,0.982582811631559,0.283508,0.7510983120353886
0.07050000000000001,1.67574375,1.0,2622.699117333246,0.5475784415086187,1.27861008482576,0.9827056167878114,0.2834342375,0.7524758311013483
0.07100000000000001,1.673975,1.0,2620.666542273354,0.5501161237314199,1.2778301459159889,0.9828256817146392,0.28335995,0.7538597258300394
0.07150000000000001,1.67219375,1.0,2618.6464769450554,0.552639578473174,1.277044453066168,0.9829430768506316,0.2832851375,0.7552499076060837
0.07200000000000001,1.6704,1.0,2616.6386600482015,0.5551488991427073,1.2762530085762032,0.983057868287517,0.2832098,0.7566462858820033
0.0725,1.66859375,1.0,2614.6429271647085,0.5576441605292791,1.2754558138504863,0.9831701188026709,0.2831339375,0.7580487710968311
0.073,1.6667750000000001,1.0,2612.659114181327,0.5601254374221489,1.2746528702934101,0.9832798891334886,0.28305755,0.7594572730854312
0.0735,1.66494375,1.0,2610.687057286394,0.5625928046105763,1.2738441793093667,0.9833872380555567,0.2829806375,0.760871701079016
0.074,1.6631,1.0,2608.726592966786,0.5650463368838204,1.273029742302748,0.983492222457326,0.2829032,0.7622919637056603
0.0745,1.6612437500000001,1.0,2606.777558004533,0.5674861090311408,1.2722095606779462,0.983594897411469,0.2828252375,0.7637179689908148
0.075,1.659375,1.0,2604.839789474019,0.5699121958417969,1.271383635839354,0.9836953162430847,0.28274675,0.7651496243578217
0.0755,1.65749375,1.0,2602.9131247386517,0.572324672105048,1.2705519691913632,0.9837935305949106,0.2826677375,0.7665868366284301
