Time [s],Phi [rad],STIM [ ],Fsee [N],Gamma [ ],Lcerel [ ],q [ ],Lmtc [m],fisomrel [ ]
0.0,1.8,1.0,18.037231921637424,0.0002695162551715152,1.3793319032554445,0.005018862102281229,0.288653,0.541158505014675
0.0005,1.79999375,1.0,18.430612805703788,0.0058772137909590925,1.379285331799105,0.013676670431654374,0.2886527375,0.5412711641646775
0.001,1.799975,1.0,21.964921499225653,0.011453456577278587,1.3789030488738974,0.036973726360976185,0.28865195,0.5421954067412786
0.0015,1.79994375,1.0,31.83350539584626,0.01699842105139342,1.377981486178585,0.07246202102666173,0.2886506375,0.5444196304407785
0.002,1.7999,1.0,55.17692355334707,0.02251228265870549,1.3762654447801508,0.11691566765773036,0.2886488,0.5485469230369748
0.0025,1.79984375,1.0,99.75549662061452,0.027995215861745873,1.3738089685421169,0.1669623355051072,0.28864643749999996,0.5544223693797152
0.003,1.7997750000000001,1.0,164.3607884708223,0.033447394145754705,1.3710876464762265,0.21974128509570606,0.28864354999999997,0.5608863476809156
0.0035,1.79969375,1.0,241.5124690273591,0.03886899002011763,1.368467257922115,0.2730589468294265,0.2886401375,0.5670659433652983
0.004,1.7996,1.0,325.53157302835353,0.04426017502850153,1.3660487695216064,0.32528318320556576,0.2886362,0.5727305431496108
0.0045000000000000005,1.7994937500000001,1.0,413.47091352999684,0.049621119754263636,1.3638244019429717,0.3752810296907719,0.2886317375,0.5779075400218079
0.005,1.799375,1.0,503.69745924974694,0.05495199381222583,1.3617675030453256,0.4223487507653313,0.28862675,0.5826666892230561
0.0055,1.79924375,1.0,595.108763426219,0.06025296588651625,1.3598546186372125,0.4661188384738008,0.2886212375,0.5870684102215127
0.006,1.7991000000000001,1.0,686.8377638011636,0.06552420369861268,1.3580680187550926,0.5064673342404911,0.2886152,0.591158462834192
0.006500000000000001,1.79894375,1.0,778.1713971665622,0.07076587401437205,1.3563941193424265,0.5434349123162218,0.2886086375,0.5949720398537509
0.007,1.798775,1.0,868.5237671935964,0.07597814275943611,1.3548220221400797,0.5771659235445729,0.28860155,0.5985374126416607
0.0075,1.79859375,1.0,957.403436647477,0.08116117467782154,1.3533428603531648,0.6078643119918801,0.2885939375,0.6018776244816452
0.008,1.7984,1.0,1044.4357678212764,0.08631513405651291,1.3519486748237473,0.635762636333005,0.2885858,0.6050131705669906
0.0085,1.79819375,1.0,1129.2996815415836,0.09144018373462053,1.3506328719886502,0.6611022688079148,0.2885771375,0.6079610621205065
0.009000000000000001,1.797975,1.0,1211.7507976194584,0.09653648572911327,1.3493894628109684,0.6841202452625644,0.28856795,0.6107366175913997
0.0095,1.79774375,1.0,1291.627622474264,0.10160420181603107,1.348212730040058,0.7050415796927592,0.2885582375,0.613354255861128
0.01,1.7975,1.0,1368.7936457007197,0.10664349201892037,1.347097804626693,0.7240755662626028,0.288548,0.6158262564519452
0.0105,1.79724375,1.0,1443.1598690434917,0.11165451555140841,1.3460401631697998,0.7414137645605964,0.2885372375,0.6181639205147269
0.011,1.796975,1.0,1514.6840623397277,0.11663743099643424,1.3450355100262394,0.7572296664117084,0.28852595000000003,0.6203778597606276
0.0115,1.79669375,1.0,1583.3630767027594,0.12159239689726237,1.344079771449773,0.77167929711134,0.2885141375,0.6224780321398979
0.012,1.7964,1.0,1649.1832042789827,0.12651956918868434,1.3431695907654433,0.7849025142108753,0.28850180000000003,0.624472678488132
0.0125,1.79609375,1.0,1712.1667474706453,0.13141910357167802,1.342301672828023,0.797024021012259,0.2884889375,0.6263697856477586
0.013000000000000001,1.7957750000000001,1.0,1772.3573353166107,0.13629115506184625,1.341472902807529,0.808154838090387,0.28847555,0.6281768388016578
0.0135,1.79544375,1.0,1829.8278459383905,0.14113587904298297,1.3406802064419627,0.8183936502961806,0.2884616375,0.629901138197263
0.014,1.7951000000000001,1.0,1884.6291758511124,0.14595342818178647,1.3399210748062735,0.8278283347234848,0.2884472,0.631548669969859
0.0145,1.79474375,1.0,1936.8174834089916,0.1507439541983861,1.3391932023908995,0.836537035802045,0.2884322375,0.6331249089662192
0.015,1.794375,1.0,1986.4699678225254,0.15550760881291126,1.3384942836862788,0.8445892150878027,0.28841675,0.6346352675756155
0.0155,1.79399375,1.0,2033.6652777038123,0.16024454273959968,1.3378222002451605,0.8520467287013469,0.2884007375,0.6360846971349448
0.016,1.7936,1.0,2078.5072227497535,0.16495490728569645,1.337174745740195,0.8589646368731929,0.2883842,0.6374782871015142
0.0165,1.7931937500000001,1.0,2121.067254695555,0.16963885056234576,1.3365502082689518,0.8653921837237266,0.2883671375,0.6388200169455522
0.017,1.792775,1.0,2161.4195572008985,0.17429652009039154,1.3359469741316823,0.871373364262398,0.28834955,0.6401136178946646
0.0175,1.7923437500000001,1.0,2199.6492695575766,0.1789280633906777,1.335363429628637,0.8769475159608994,0.2883314375,0.6413627872057344
0.018000000000000002,1.7919,1.0,2235.8404540137585,0.18353362689680977,1.3347980725117783,0.8821498954600134,0.2883128,0.6425709523035652
0.0185,1.79144375,1.0,2270.089186640148,0.1881133580098088,1.3342493685401091,0.8870121178544705,0.2882936375,0.6437415804545228
0.019,1.790975,1.0,2302.4694478479178,0.1926674008932385,1.3337160825712049,0.8915626582849244,0.28827395,0.644877475233829
0.0195,1.79049375,1.0,2333.052593284278,0.1971958987092197,1.333197070082481,0.8958271592764635,0.2882537375,0.6459812260473543
0.02,1.79,1.0,2361.9157836547984,0.20169899461987323,1.3326911865513518,0.8998287306168701,0.288233,0.6470554030326967
0.0205,1.78949375,1.0,2389.138892128539,0.20617683131798017,1.3321973127317874,0.9035882390198604,0.2882117375,0.6481025045082239
0.021,1.788975,1.0,2414.7965743626046,0.21062955058311855,1.3317144261506955,0.907124572165208,0.28818995000000003,0.6491248070265141
0.021500000000000002,1.78844375,1.0,2438.969604571666,0.21505729559336012,1.3312414856188508,0.910454831613194,0.2881676375,0.6501246116231398
0.022,1.7879,1.0,2461.716332011437,0.21946020470669997,1.3307777013629585,0.9135945776955907,0.2881448,0.6511036743655532
0.0225,1.78734375,1.0,2483.0981448254342,0.2238384162811332,1.3303222836097246,0.9165579449514913,0.28812143749999997,0.6520637402769665
0.023,1.786775,1.0,2503.179217779383,0.22819206867465502,1.3298744425858546,0.9193577925071204,0.28809755,0.6530065437776521
0.0235,1.78619375,1.0,2522.0262738254487,0.23252130024526044,1.3294333885180543,0.9220058368188399,0.28807313749999996,0.6539338090864564
0.024,1.7856,1.0,2539.6962569656753,0.2368262465347705,1.3289984456769455,0.92451278829229,0.2880482,0.6548470112951339
0.0245,1.78499375,1.0,2556.2575250839063,0.2411070478349558,1.3285688494909982,0.9268884205997107,0.2880227375,0.655747803393373
0.025,1.784375,1.0,2571.7605978212964,0.24536383897539066,1.3281440202092452,0.9291417065802482,0.28799675,0.656637442604957
0.025500000000000002,1.78374375,1.0,2586.250780541842,0.24959675290937183,1.3277234407424623,0.9312808775464005,0.2879702375,0.6575170484308732
0.026000000000000002,1.7831000000000001,1.0,2599.7746745165796,0.25380592259019613,1.327306594001426,0.9333134857869637,0.2879432,0.6583877344489342
0.0265,1.78244375,1.0,2612.380066445507,0.25799148097116026,1.3268929628969122,0.9352464697474352,0.2879156375,0.6592506084454018
0.027,1.781775,1.0,2624.1158239076926,0.26215356100556103,1.3264820303396974,0.9370862121588281,0.28788755,0.6601067725295566
0.0275,1.7810937500000001,1.0,2635.0280694123308,0.26629229440701596,1.3260733137225285,0.9388385966389727,0.2878589375,0.6609572515242652
0.028,1.7804,1.0,2645.156836203144,0.2704078115853933,1.3256663946117762,0.9405090579265992,0.2878298,0.6618029318257873
0.0285,1.77969375,1.0,2654.5565668981776,0.27450024790807326,1.3252607284906381,0.9421025975593579,0.2878001375,0.6626449569570771
0.029,1.778975,1.0,2663.2585559459667,0.2785697304183027,1.324855990775681,0.9436238666362442,0.28776995,0.6634840091108123
0.029500000000000002,1.7782437500000001,1.0,2671.294625604838,0.2826163861593286,1.324451856883471,0.9450771691261708,0.2877392375,0.6643207671073588
0.03,1.7775,1.0,2678.697079804426,0.2866403421743978,1.3240480022305738,0.9464664922175564,0.287708,0.6651559064106314
0.0305,1.77674375,1.0,2685.498660342438,0.29064172550675743,1.3236441022335568,0.9477955336540899,0.2876762375,0.6659900991372292
0.031,1.775975,1.0,2691.73250541817,0.2946206631996543,1.3232398323089853,0.9490677263886793,0.28764395,0.6668240140588617
0.0315,1.7751937500000001,1.0,2697.4321105006097,0.2985772822963353,1.322834867873426,0.9502862608477796,0.2876111375,0.667658316598047
0.032,1.7744,1.0,2702.624495669831,0.3025117057875313,1.322428946421617,0.9514541114064068,0.2875778,0.6684935411653254
0.0325,1.77359375,1.0,2707.3439902379614,0.3064240631579672,1.3220217411325135,0.9525740420146006,0.2875439375,0.6693303515241853
0.033,1.772775,1.0,2711.615246826388,0.31031447774969134,1.3216130157846684,0.953648637771961,0.28750955,0.6701692221871514
0.0335,1.7719437500000002,1.0,2715.459750304492,0.31418307069413176,1.3212025648405459,0.9546803133384769,0.2874746375,0.6710105623082109
0.034,1.7711000000000001,1.0,2718.899155279608,0.3180299631227164,1.3207901827626105,0.9556713235090932,0.2874392,0.6718547788365146
0.0345,1.7702437500000001,1.0,2721.9552687041455,0.3218552761668733,1.3203756640133266,0.9566237756836639,0.2874032375,0.6727022764924109
0.035,1.7693750000000001,1.0,2724.650033418575,0.3256591309580305,1.3199588030551581,0.9575396412249091,0.28736675,0.6735534577407862
0.035500000000000004,1.76849375,1.0,2727.005512631162,0.32944164862761594,1.31953939435057,0.9584207658151692,0.2873297375,0.6744087227617057
0.036000000000000004,1.7676,1.0,2729.0403739604676,0.3332029465142663,1.3191172641908644,0.9592688813176583,0.2872922,0.6752684046407464
0.0365,1.76669375,1.0,2730.7724852771044,0.3369431421502817,1.3186922469318305,0.9600856127286878,0.2872541375,0.676132818066139
0.037,1.765775,1.0,2732.229937757842,0.34066236630001556,1.3182640847383627,0.9608724788882642,0.28721555,0.677002462900677
0.0375,1.76484375,1.0,2733.4254629862,0.34436073322861066,1.3178326599677932,0.9616309165279958,0.2871764375,0.6778775518424653
0.038,1.7639,1.0,2734.3718429084247,0.3480383572012101,1.3173978549774537,0.9623622761285111,0.28713679999999997,0.6787582960960181
0.0385,1.76294375,1.0,2735.08190377242,0.3516953524829568,1.316959552124676,0.9630678280409195,0.28709663750000003,0.6796449053473368
0.039,1.761975,1.0,2735.568510373225,0.35533183333899376,1.316517633766792,0.9637487681097308,0.28705595,0.6805375877381087
0.0395,1.7609937500000001,1.0,2735.8445606061314,0.3589479140344639,1.316071982261134,0.9644062228427711,0.2870147375,0.6814365498390225
0.04,1.76,1.0,2735.9229803256653,0.3625437088345103,1.3156224799650336,0.965041254169065,0.286973,0.6823419966222002
0.0405,1.7589937500000001,1.0,2735.8167185121392,0.3661193320042759,1.3151690092358224,0.9656548638215406,0.2869307375,0.6832541314327492
0.041,1.757975,1.0,2735.5387427446617,0.36967489780890356,1.3147114524308328,0.9662479973777957,0.28688795,0.6841731559594251
0.0415,1.75694375,1.0,2735.1020349810597,0.37321052051353637,1.314249691907396,0.9668215479888997,0.2868446375,0.6850992702044219
0.042,1.7559,1.0,2734.513996860382,0.3767263062675388,1.3137836607943258,0.9673763627268798,0.28680079999999997,0.6860325708498451
0.0425,1.75484375,1.0,2733.787112377679,0.38022237376433354,1.3133132461491304,0.9679132409716023,0.2867564375,0.6869732454958368
0.043000000000000003,1.753775,1.0,2732.9326408011643,0.38369883749207767,1.3128383461967283,0.9684329393991338,0.28671155,0.687921457745204
0.043500000000000004,1.75269375,1.0,2731.957488598105,0.38715580446155257,1.312358898732157,0.9689361764967072,0.28666613750000003,0.6888772907615882
0.044,1.7516,1.0,2730.8685656732423,0.3905933816835395,1.3118748415504538,0.9694236330074815,0.2866202,0.6898408265557379
0.0445,1.75049375,1.0,2729.672783898746,0.39401167616882,1.3113861124466557,0.9698959542830692,0.2865737375,0.6908121459673429
0.045,1.7493750000000001,1.0,2728.3770557285293,0.3974107949281753,1.3108926492158002,0.9703537524670972,0.28652675,0.6917913286466244
0.0455,1.74824375,1.0,2726.9882928988723,0.4007908449723868,1.3103943896529249,0.9707976085234721,0.2864792375,0.6927784530356769
0.046,1.7471,1.0,2725.5134052151993,0.40415193331223587,1.3098912715530668,0.9712280741217919,0.2864312,0.6937735963495644
0.0465,1.7459437500000001,1.0,2723.9592994239315,0.40749416695850377,1.3093832327112636,0.9716456733912506,0.28638263750000004,0.6947768345571688
0.047,1.744775,1.0,2722.3328781704818,0.4108176529219719,1.308870210922552,0.9720509045533684,0.28633355,0.6957882423617927
0.0475,1.74359375,1.0,2720.6410390435453,0.41412249821342173,1.30835214398197,0.9724442414429971,0.28628393750000003,0.6968078931815127
0.048,1.7424,1.0,2718.8881762125607,0.4174087850407668,1.3078289924300606,0.9728261334014916,0.2862338,0.6978358144754264
0.0485,1.74119375,1.0,2717.0819218379615,0.4206766507040608,1.3073006872771438,0.9731970130517514,0.2861831375,0.6988720905580201
0.049,1.739975,1.0,2715.2257839029203,0.4239261969395103,1.3067671970435153,0.9735572905864882,0.28613195,0.6999167309249523
0.0495,1.73874375,1.0,2713.3230144652307,0.42715752276209834,1.3062284925530556,0.9739073567258104,0.2860802375,0.7009697396322805
0.05,1.7375,1.0,2711.3768623876626,0.43037072718680813,1.3056845446296461,0.9742475839819955,0.286028,0.7020311198168556
0.0505,1.73624375,1.0,2709.3905730683614,0.4335659092286228,1.3051353240971673,0.9745783276684546,0.2859752375,0.7031008736865967
0.051000000000000004,1.734975,1.0,2707.3673881908076,0.43674316790252554,1.3045808017795006,0.974899926844077,0.28592195,0.7041790025107033
0.051500000000000004,1.73369375,1.0,2705.3105454921915,0.43990260222349953,1.3040209485005265,0.9752127051976291,0.2858681375,0.7052655066098221
0.052000000000000005,1.7324,1.0,2703.2232785502715,0.44304431120652793,1.3034557350841265,0.9755169718765146,0.2858138,0.7063603853461494
0.0525,1.73109375,1.0,2701.108816590278,0.4461683938665938,1.302885132354181,0.97581302226384,0.28575893750000003,0.7074636371134893
0.053,1.729775,1.0,2698.9703843094208,0.4492749492186805,1.3023091111345713,0.9761011387074408,0.28570355000000003,0.7085752593272495
0.0535,1.72844375,1.0,2696.811201721117,0.45236407627777103,1.301727642249178,0.9763815912042206,0.2856476375,0.7096952484143881
0.054,1.7271,1.0,2694.6344840176016,0.4554358740588486,1.3011406965218824,0.9766546380429003,0.2855912,0.7108235998033021
0.0545,1.7257437500000001,1.0,2692.4434414519037,0.45849044157689645,1.300548244776565,0.9769205264080383,0.2855342375,0.7119603079136669
0.055,1.724375,1.0,2690.2412792379437,0.46152787784689764,1.2999502578371072,0.9771794929479596,0.28547675,0.7131053661462148
0.0555,1.72299375,1.0,2688.02527237704,0.4645482397976586,1.29934676079812,0.9774317635399372,0.2854187375,0.7142586632642639
0.056,1.7216,1.0,2685.8009641113936,0.46755166134345666,1.2987377030324052,0.9776775574239108,0.2853602,0.7154202321011558
0.0565,1.72019375,1.0,2683.572483114269,0.47053825810301914,1.2981230467970095,0.9779170837146591,0.28530113749999997,0.7165900796188396
0.057,1.718775,1.0,2681.3406723942353,0.47350811937677784,1.2975027844189684,0.978150542228099,0.28524155,0.7177681545375026
0.0575,1.71734375,1.0,2679.1063735788125,0.4764613344651646,1.2968769082253164,0.9783781246350516,0.2851814375,0.7189544048551564
0.058,1.7159,1.0,2676.870426908647,0.47939799266861116,1.2962454105430892,0.9786000148564865,0.2851208,0.720148777844887
0.0585,1.71444375,1.0,2674.633671232995,0.4823181832875495,1.2956082836993217,0.9788163894365427,0.2850596375,0.7213512200521088
0.059000000000000004,1.7129750000000001,1.0,2672.396944005858,0.48522199562241125,1.294965520021049,0.9790274178947319,0.28499795,0.7225616772918116
0.059500000000000004,1.71149375,1.0,2670.1610812844706,0.48810951897362836,1.2943171118353063,0.9792332630586457,0.2849357375,0.7237800946458031
0.06,1.71,1.0,2667.9269177280767,0.4909808426416326,1.2936630514691287,0.9794340813783864,0.284873,0.7250064164599486
0.0605,1.7084937500000001,1.0,2665.695286598799,0.49383605592685587,1.2930033312495515,0.9796300232238606,0.2848097375,0.7262405863414083
0.061,1.7069750000000001,1.0,2663.467019763356,0.49667524812972985,1.2923379435036095,0.9798212331659936,0.28474595,0.7274825471558686
0.0615,1.7054437500000001,1.0,2661.2429476959837,0.4994985085506865,1.2916668805583382,0.9800078502428465,0.2846816375,0.7287322410247706
0.062,1.7039,1.0,2659.023899483514,0.5023059264901576,1.2909901347407726,0.9801900082115627,0.2846168,0.7299896093225351
0.0625,1.70234375,1.0,2656.810702830355,0.5050975912485749,1.290307698377948,0.9803678357869905,0.2845514375,0.731254592673783
0.063,1.7007750000000001,1.0,2654.6041840662424,0.5078735921263703,1.2896195637968992,0.9805414568677862,0.28448555,0.7325271309505543
0.0635,1.69919375,1.0,2652.405168154224,0.5106340184239756,1.2889257233246616,0.9807109907507401,0.28441913750000003,0.7338071632695189
0.064,1.6976,1.0,2650.2144787003044,0.5133789594418227,1.2882261692882702,0.9808765523340222,0.2843522,0.7350946279891882
0.0645,1.69599375,1.0,2648.0329379647546,0.5161085044803432,1.2875208940147602,0.9810382523099958,0.2842847375,0.7363894627071206
0.065,1.694375,1.0,2645.861366874142,0.5188227428399691,1.2868098898311666,0.9811961973482078,0.28421675,0.737691604257124
0.0655,1.69274375,1.0,2643.6992026882167,0.5215217634850771,1.2860931618318021,0.9813504908779085,0.2841482375,0.7390009654116145
0.066,1.6911003953956774,1.0,2641.568215190054,0.5242056479224979,1.2853706873399169,0.9815012307470545,0.28407921660661845,0.7403175089513502
0.0665,1.6894535394204755,1.0,2639.8683049182932,0.5268744783843469,1.2846426550694974,0.9816485216898708,0.28401004865566,0.7416408128666683
0.067,1.6878066834452736,1.0,2638.7270016886105,0.5295283386691404,1.283909463461695,0.9817924750729666,0.28394088070470147,0.7429700783064174
0.0675,1.6861598274700718,1.0,2638.100848721297,0.5321673125753954,1.2831715109576607,0.9819331984929687,0.283871712753743,0.7443045133353172
0.068,1.6845129714948701,1.0,2637.9470612508626,0.534791483806565,1.2824291914492105,0.9820707957185748,0.28380254480278455,0.7456433412542895
0.0685,1.6828661155196682,1.0,2638.2259831384176,0.5374009355289183,1.2816828711947708,0.9822053657321612,0.2837333768518261,0.7469858420773923
0.069,1.6812192595444664,1.0,2638.899289325565,0.5399957508411918,1.2809329051173628,0.9823370037231897,0.2836642089008676,0.7483313227752514
0.0695,1.6795724035692645,1.0,2639.937553478138,0.5425760111807039,1.280179566584943,0.9824657978592732,0.2835950409499091,0.7496792425646478
0.07,1.6779255475940629,1.0,2641.3114058983615,0.5451417979847726,1.2794231289654672,0.9825918334447017,0.28352587299895066,0.7510290656860584
0.07050000000000001,1.676278691618861,1.0,2642.991580734561,0.5476931926722146,1.2786638650096498,0.9827151930105313,0.28345670504799214,0.7523802625570271
0.07100000000000001,1.6746318356436591,1.0,2644.9521399493856,0.5502302759300336,1.2779020169169635,0.9828359550123422,0.2833875370970337,0.7537323628618742
0.07150000000000001,1.6729849796684575,1.0,2647.167149005713,0.5527531287637844,1.2771378269323759,0.9829541954440151,0.2833183691460752,0.7550849007755117
0.07200000000000001,1.6713381236932556,1.0,2649.617334496634,0.5552618303161181,1.2763714758033904,0.983069985018669,0.28324920119511676,0.7564375234765817
0.0725,1.6696912677180538,1.0,2652.2834196427034,0.5577564597296858,1.2756031442775106,0.9831833922364944,0.28318003324415825,0.7577898815827476
0.073,1.668044411742852,1.0,2655.1461159938935,0.560237096147139,1.27483301310224,0.983294483473149,0.2831108652931998,0.7591416291745662
0.0735,1.6663975557676503,1.0,2658.1963435545226,0.5627038136820298,1.2740611688204544,0.9834033185806436,0.2830416973422413,0.7604925884718317
0.074,1.6647506997924484,1.0,2661.4018340358434,0.5651566989131529,1.2732879114142528,0.9835099657184335,0.2829725293912828,0.7618422113355725
