Time [s],Phi [rad],STIM [ ],Fsee [N],Gamma [ ],Lcerel [ ],q [ ],Lmtc [m],fisomrel [ ]
0.0,1.8,1.0,17.9677283355384,2.2082242309583205e-05,1.3793396823423485,0.005000129150891705,0.288653,0.5411396855880298
0.0005,1.79999375,1.0,18.281083424988932,0.0056311676871921325,1.3793019058086873,0.012974090486132996,0.2886527375,0.5412310722254392
0.001,1.799975,1.0,21.63168144956658,0.011208790597591112,1.3789369439343722,0.03567156256911336,0.28865195,0.5421134965614748
0.0015,1.79994375,1.0,31.101566515104366,0.0167551274543216,1.3780434499966634,0.07068790925414489,0.2886506375,0.544270248452233
0.002,1.7999,1.0,53.65264103905051,0.022270353746526615,1.3763635755143295,0.11481992243258816,0.2886488,0.5483114127106811
0.0025,1.79984375,1.0,97.23745047732822,0.027754643979327216,1.3739294581502526,0.16468573280444865,0.28864643749999996,0.554135077574804
0.003,1.7997750000000001,1.0,161.1127828775718,0.033208171681426694,1.3712085577193,0.2173948026483605,0.28864354999999997,0.5606001488391489
0.0035,1.79969375,1.0,237.85825094843088,0.03863110940479019,1.3685793472436867,0.2707266224732676,0.2886401375,0.5668025025045212
0.004,1.7996,1.0,321.65301498638667,0.0440236287354043,1.366151160227574,0.3230259287717855,0.2886362,0.5724914791581679
0.0045000000000000005,1.7994937500000001,1.0,409.46072752489044,0.049385900298468004,1.3639182848008875,0.37313904852048224,0.2886317375,0.5776896747052938
0.005,1.799375,1.0,499.61047809432625,0.05471809374950428,1.3618541570798677,0.42034526807802053,0.28862675,0.5824667378954671
0.0055,1.79924375,1.0,590.9892358403245,0.06002037782136696,1.35993495092945,0.4642642534381146,0.2886212375,0.5868840277404797
0.006,1.7991000000000001,1.0,682.7172431509529,0.06529292026857877,1.3581427952703542,0.5047631823727715,0.2886152,0.5909876855737792
0.006500000000000001,1.79894375,1.0,774.081388437968,0.07053588791979686,1.356463837477864,0.5418768294816987,0.2886086375,0.5948135604928413
0.007,1.798775,1.0,864.4863172914463,0.07574944667560266,1.3548871563683877,0.5757460768377956,0.28860155,0.5983900071580341
0.0075,1.79859375,1.0,953.4413566262373,0.08093376147484456,1.3534037317328331,0.6065729322816819,0.2885939375,0.6017404413179456
0.008,1.7984,1.0,1040.5548384501778,0.0860889963831912,1.3520057551243738,0.6345892969550083,0.2885858,0.604885039411095
0.0085,1.79819375,1.0,1125.512487952852,0.09121531448801459,1.3506864349832275,0.660036380770905,0.2885771375,0.6078412765266408
0.009000000000000001,1.797975,1.0,1208.0736033674186,0.09631287800578964,1.3494396655194045,0.6831515484239072,0.28856795,0.6106247454135418
0.0095,1.79774375,1.0,1288.0512982916598,0.10138184796887048,1.3482600186482656,0.7041606115834552,0.2885582375,0.6132492328160386
0.01,1.7975,1.0,1365.3423544391403,0.10642238562310397,1.3471421322062183,0.7232733603228185,0.288548,0.6157281251508945
0.0105,1.79724375,1.0,1439.835232773744,0.11143464959843279,1.34608174701393,0.7406822996584469,0.2885372375,0.618072144080951
0.011,1.796975,1.0,1511.479590517401,0.11641879844714928,1.345074631273143,0.7565617410363291,0.28852595000000003,0.6202917692975269
0.0115,1.79669375,1.0,1580.2637844883614,0.12137499001902505,1.3441167774652505,0.771068483959426,0.2885141375,0.6223968222797553
0.012,1.7964,1.0,1646.2064936762204,0.1263033819579508,1.3432044153259892,0.7843428967762182,0.28850180000000003,0.6243964582294194
0.0125,1.79609375,1.0,1709.3143347453517,0.13120412936255632,1.3423344225567782,0.7965104029399889,0.2884889375,0.6262982880507566
0.013000000000000001,1.7957750000000001,1.0,1769.624594794444,0.13607738707155073,1.3415037401990193,0.8076826215284435,0.28847555,0.6281096793051044
0.0135,1.79544375,1.0,1827.1932870356657,0.14092330924467875,1.3407094645730857,0.8179588136369986,0.2884616375,0.6298375661681163
0.014,1.7951000000000001,1.0,1882.0999014866934,0.14574205046367422,1.3399487516237905,0.8274271838278302,0.2884472,0.6314886679509771
0.0145,1.79474375,1.0,1934.40431061204,0.15053376267234395,1.339219249935536,0.8361662720084939,0.2884322375,0.6330685601823098
0.015,1.794375,1.0,1984.1681568410045,0.15529859669421622,1.3385188161913735,0.8442459594979322,0.28841675,0.6345823057537981
0.0155,1.79399375,1.0,2031.4715862251128,0.16003670335281936,1.337845307074353,0.8517284108968733,0.2884007375,0.6360349122698856
0.016,1.7936,1.0,2076.398939866095,0.164748232549867,1.3371967117241919,0.8586690262705763,0.2883842,0.6374310510280365
0.0165,1.7931937500000001,1.0,2119.048996898944,0.16943333483181086,1.3365710239270134,0.8651172034998255,0.2883671375,0.6387753375405668
0.017,1.792775,1.0,2159.4976836111946,0.1740921577950496,1.3359666095080989,0.8711171528499853,0.28834955,0.6400715474988286
0.0175,1.7923437500000001,1.0,2197.8188727499414,0.17872484796216748,1.3353819669203395,0.8767084381275237,0.2883314375,0.6413231385989933
0.018000000000000002,1.7919,1.0,2234.096100236507,0.1833315518557487,1.334815594616627,0.8819264859892323,0.2883128,0.6425335382701358
0.0185,1.79144375,1.0,2268.4155657275273,0.18791241526155747,1.3342660526514691,0.8868030845418537,0.2882936375,0.6437060141734863
0.019,1.790975,1.0,2300.8670506448384,0.19246758419603632,1.33373194377698,0.8913668000880188,0.28827395,0.6448437171646644
0.0195,1.79049375,1.0,2331.5333985371617,0.1969972034608775,1.3332120086611974,0.8956433680388307,0.2882537375,0.6459494811351089
0.02,1.79,1.0,2360.480299033067,0.20150141498420607,1.3327052153253944,0.8996560323282214,0.288233,0.6470256367834277
0.0205,1.78949375,1.0,2387.7784752018674,0.20598036069414688,1.332210531790844,0.9034257730653905,0.2882117375,0.6480744979822853
0.021,1.788975,1.0,2413.503265504827,0.21043418251882495,1.3317269260788185,0.9069715578193156,0.28818995000000003,0.6490983626093689
0.021500000000000002,1.78844375,1.0,2437.727754707853,0.21486302111313293,1.3312534284851687,0.9103105746879695,0.2881676375,0.6500993817500678
0.022,1.7879,1.0,2460.5282048489503,0.2192670182818331,1.3307890745900508,0.9134584143741937,0.2881448,0.651079681542914
0.0225,1.78734375,1.0,2481.972849076118,0.2236463142009153,1.330333008832597,0.9164292597200758,0.28812143749999997,0.6520411456492454
0.023,1.786775,1.0,2502.117147696522,0.2280010457854114,1.3298845244456876,0.9192360401309,0.28809755,0.6529853333266663
0.0235,1.78619375,1.0,2521.018968330689,0.2323313499503533,1.3294429146622024,0.9218905349308509,0.28807313749999996,0.6539137945754873
0.024,1.7856,1.0,2538.7383841895735,0.23663736361077292,1.3290074727150218,0.9244034915494118,0.2880482,0.6548280704645222
0.0245,1.78499375,1.0,2555.3374834259794,0.24091922368170213,1.3285774918370254,0.926784730139247,0.2880227375,0.6557296934250303
0.025,1.784375,1.0,2570.867498819092,0.24517706398912256,1.3281523841206246,0.9290432552837153,0.28799675,0.6566199387625957
0.025500000000000002,1.78374375,1.0,2585.3942069187533,0.24941102363912768,1.3277314400560425,0.9311872995684286,0.2879702375,0.6575003290777827
0.026000000000000002,1.7831000000000001,1.0,2598.9649746199934,0.2536212361414193,1.3273141358433718,0.9332244443009885,0.2879432,0.6583719913173047
0.0265,1.78244375,1.0,2611.6206784018273,0.25780783286263526,1.326900018993499,0.9351616645721601,0.2879156375,0.6592358979019453
0.027,1.781775,1.0,2623.4032043305488,0.2619709451694135,1.3264886370173106,0.9370053762690983,0.28788755,0.6600930162582233
0.0275,1.7810937500000001,1.0,2634.355361718029,0.26611070442839185,1.3260795374256933,0.9387614883565394,0.2878589375,0.6609443089038454
0.028,1.7804,1.0,2644.5208013200318,0.2702272420062081,1.3256722677295336,0.9404354496351436,0.2878298,0.6617907335200988
0.0285,1.77969375,1.0,2653.9439380740328,0.27432068926950026,1.3252663754397183,0.9420322906202814,0.2878001375,0.662633243011187
0.029,1.778975,1.0,2662.6604749373982,0.27839117256547286,1.3248614946069193,0.9435566713471992,0.28776995,0.6634726062556078
0.029500000000000002,1.7782437500000001,1.0,2670.7202717766963,0.2824388276523878,1.3244571343969256,0.9450128903158547,0.2877392375,0.6643098467440541
0.03,1.7775,1.0,2678.1531606322033,0.2864637807719617,1.324052993166462,0.9464049516516383,0.287708,0.6651455919000541
0.0305,1.77674375,1.0,2684.987842907963,0.29046615734898606,1.3236487834775006,0.9477365701687347,0.2876762375,0.6659804367140751
0.031,1.775975,1.0,2691.2533939324426,0.29444608280825213,1.3232442178920136,0.949011194453886,0.28764395,0.6668149732123101
0.0315,1.7751937500000001,1.0,2696.979228334383,0.29840368257455135,1.3228390089719735,0.9502320292663983,0.2876111375,0.6676497904527872
0.032,1.7744,1.0,2702.195067250802,0.30233908207267507,1.3224328692793519,0.9514020557920851,0.2875778,0.668485474516213
0.0325,1.77359375,1.0,2706.9309073664895,0.30625240672741466,1.3220255113761217,0.9525240499798951,0.2875439375,0.6693226084915412
0.033,1.772775,1.0,2711.2099477797833,0.31014377714703173,1.3216167120671654,0.9536006053084903,0.28750955,0.670161640685925
0.0335,1.7719437500000002,1.0,2715.0607603883623,0.314013319109618,1.321206201005416,0.9546341372994299,0.2874746375,0.6710031136341464
0.034,1.7711000000000001,1.0,2718.5172782817917,0.31786116272128834,1.3207936607626134,0.9556268973681811,0.2874392,0.6718476633116114
0.0345,1.7702437500000001,1.0,2721.597163645744,0.3216874265514369,1.3203789236682484,0.9565810032071155,0.2874032375,0.672695616292011
0.035,1.7693750000000001,1.0,2724.3182020841195,0.32549222916945764,1.319961822051811,0.957498435710325,0.28736675,0.6735472972872616
0.035500000000000004,1.76849375,1.0,2726.698290111914,0.32927568914474475,1.3195421882427916,0.9583810493945443,0.2873297375,0.6744030291231135
0.036000000000000004,1.7676,1.0,2728.755423270612,0.33303792504669233,1.3191198545706806,0.9592305819116964,0.2872922,0.6752631327129709
0.0365,1.76669375,1.0,2730.50768486792,0.3367790554446944,1.3186946533649684,0.9600486627416146,0.2872541375,0.6761279270299192
0.037,1.765775,1.0,2731.973235339692,0.3404991989081451,1.3182664169551452,0.960836821144025,0.28721555,0.6769977290769569
0.0375,1.76484375,1.0,2733.170302236264,0.3441984740064386,1.3178349776707012,0.961596493440459,0.2871764375,0.6778728538554364
0.038,1.7639,1.0,2734.1171708309803,0.34787699930896887,1.3174001678411271,0.9623290296893593,0.28713679999999997,0.6787536143317103
0.0385,1.76294375,1.0,2734.827750673224,0.3515348885591132,1.316961859975373,0.9630357026303213,0.28709663750000003,0.6796402401816073
0.039,1.761975,1.0,2735.3169347665043,0.3551722595996218,1.3165199180086953,0.9637177103425041,0.28705595,0.6805329767339567
0.0395,1.7609937500000001,1.0,2735.6032834999855,0.3587892341300354,1.316074172882703,0.9643761791132414,0.2870147375,0.6814321340450101
0.04,1.76,1.0,2735.6968781884966,0.36238592361559957,1.3156245327765943,0.9650121756300387,0.286973,0.6823378645075145
0.0405,1.7589937500000001,1.0,2735.607821944517,0.36596243952155977,1.3151709058695669,0.9656267060886248,0.2869307375,0.6832503191752444
0.041,1.757975,1.0,2735.346236208488,0.36951889331316157,1.3147132003408186,0.9662207202553884,0.28688795,0.6841696477399227
0.0415,1.75694375,1.0,2734.9222574662695,0.37305539645565045,1.3142513243695475,0.9667951152161409,0.2868446375,0.6850959985076066
0.042,1.7559,1.0,2734.346034153341,0.37657206041427194,1.3137851861349514,0.9673507388384301,0.28680079999999997,0.6860295183745342
0.0425,1.75484375,1.0,2733.627723746253,0.3800689966542716,1.3133146938162286,0.9678883929720112,0.2867564375,0.6869703528024329
0.043000000000000003,1.753775,1.0,2732.7774900403538,0.3835463166408949,1.3128397555925764,0.9684088364097502,0.28671155,0.6879186457932942
0.043500000000000004,1.75269375,1.0,2731.8055006154946,0.38700413183938737,1.3123602796431932,0.9689127876291356,0.28666613750000003,0.6888745398636037
0.044,1.7516,1.0,2730.7166399434195,0.3904425443610741,1.3118762221710583,0.9694009297073478,0.2866202,0.6898380804984334
0.0445,1.75049375,1.0,2729.5200371352853,0.39386166691612134,1.3113875008324956,0.9698739087820565,0.2865737375,0.6908093887923871
0.045,1.7493750000000001,1.0,2728.2303629774806,0.39726162150755856,1.3108939828897694,0.970332335180266,0.28652675,0.6917886843205859
0.0455,1.74824375,1.0,2726.8525683196804,0.4006425119185753,1.3103956239214352,0.9707767921747382,0.2864792375,0.6927760097271142
0.046,1.7471,1.0,2725.3916035400844,0.404004441932361,1.3098923795060473,0.971207833626386,0.2864312,0.6937714066456631
0.0465,1.7459437500000001,1.0,2723.8524177749464,0.4073475153321053,1.3093842052221611,0.9716259857455316,0.28638263750000004,0.6947749156857516
0.047,1.744775,1.0,2722.239958192312,0.41067183590099754,1.3088710566483315,0.9720317487315097,0.28633355,0.695786576418824
0.0475,1.74359375,1.0,2720.5591693096703,0.41397750742222744,1.3083528893631131,0.9724255983000926,0.28628393750000003,0.6968064273642212
0.048,1.7424,1.0,2718.814992354538,0.41726463367898436,1.307829658945061,0.9728079871073879,0.2862338,0.6978345059750235
0.0485,1.74119375,1.0,2717.012364670006,0.42053331845445796,1.3073013209727302,0.9731793460781346,0.2861831375,0.6988708486237725
0.049,1.739975,1.0,2715.15621916282,0.42378366553183766,1.3067678310246753,0.9735400856456315,0.28613195,0.699915490588062
0.0495,1.73874375,1.0,2713.2514837960384,0.42701577869431306,1.3062291446794514,0.9738905969099382,0.2860802375,0.7009684660360065
0.05,1.7375,1.0,2711.303081125268,0.43022976172507366,1.3056852175156135,0.9742312527204304,0.286028,0.7020298080115819
0.0505,1.73624375,1.0,2709.3159278782314,0.4334257184073089,1.3051360051117162,0.974562408688288,0.2859752375,0.7030995484198428
0.051000000000000004,1.734975,1.0,2707.2916470282944,0.4366037380899334,1.3045814930512134,0.9748844044857798,0.28592195,0.7041776597279772
0.051500000000000004,1.73369375,1.0,2705.234767754216,0.439763932094697,1.304021640368924,0.975197565103184,0.2858681375,0.7052641651383567
0.052000000000000005,1.7324,1.0,2703.1504390727077,0.4429064110220993,1.3034564003820477,0.9755022004402861,0.2858138,0.7063590977907219
0.0525,1.73109375,1.0,2701.0409035061957,0.4460312705450957,1.3028857528980953,0.9757986066575182,0.28575893750000003,0.7074624384290624
0.053,1.729775,1.0,2698.908400523609,0.4491386063366416,1.3023096777245782,0.9760870668519341,0.28570355000000003,0.7085741669453498
0.0535,1.72844375,1.0,2696.755166438625,0.45222851406969233,1.3017281546690076,0.9763678517428388,0.2856476375,0.709694262372562
0.054,1.7271,1.0,2694.5834343171873,0.45530108941720326,1.3011411635388948,0.9766412203157764,0.2855912,0.7108227028776807
0.0545,1.7257437500000001,1.0,2692.3954338931494,0.4583564280521298,1.3005486841417508,0.9769074204277357,0.2855342375,0.7119594657546623
0.055,1.724375,1.0,2690.193391493841,0.4613946256474272,1.299950696285087,0.9771666893762172,0.28547675,0.7131045274173835
0.0555,1.72299375,1.0,2687.979529974345,0.464415777876051,1.2993471797764147,0.977419254434598,0.2854187375,0.7142578633925603
0.056,1.7216,1.0,2685.7560686605584,0.46741998041095645,1.298738114423245,0.9776653333560604,0.2853602,0.7154194483126408
0.0565,1.72019375,1.0,2683.5252233020033,0.4704073289250989,1.2981234800330892,0.977905134848165,0.28530113749999997,0.7165892559086744
0.057,1.718775,1.0,2681.289206032905,0.47337791909143373,1.2975032564134583,0.9781388590200113,0.28524155,0.7177672590031507
0.0575,1.71734375,1.0,2679.0502253425293,0.4763318465829164,1.2968774233718638,0.9783666978037722,0.2851814375,0.7189534295028162
0.058,1.7159,1.0,2676.8104860549606,0.47926920707250215,1.2962459607158168,0.978588835352269,0.2851208,0.7201477383914628
0.0585,1.71444375,1.0,2674.5684932377562,0.4821900946308851,1.2956088821920362,0.978805450170255,0.2850596375,0.7213500917384403
0.059000000000000004,1.7129750000000001,1.0,2672.3259715423123,0.4850945989252658,1.294966171994121,0.9790167116455492,0.28499795,0.7225604508263221
0.059500000000000004,1.71149375,1.0,2670.085746182509,0.48798281117512443,1.2943178041747756,0.979222782048752,0.2849357375,0.7237787951075844
0.06,1.71,1.0,2667.849124007856,0.49085482266953534,1.2936637667030775,0.9794238180470246,0.284873,0.7250050769316343
0.0605,1.7084937500000001,1.0,2665.6152974207207,0.4937107243981467,1.2930040669764227,0.9796199712332245,0.2848097375,0.7262392115283036
0.061,1.7069750000000001,1.0,2663.3864127072634,0.49655060707516957,1.292338685223734,0.9798113858818471,0.28474595,0.7274811642910032
0.0615,1.7054437500000001,1.0,2661.1633113245916,0.49937456015919546,1.2916676136526144,0.9799982012744742,0.2846816375,0.7287308773794301
0.062,1.7039,1.0,2658.9460818731286,0.5021826729488084,1.2909908513911361,0.9801805517509632,0.2846168,0.7299882793579775
0.0625,1.70234375,1.0,2656.73073661513,0.5049750344089212,1.2903084351224126,0.9803585685130186,0.2845514375,0.7312532286249234
0.063,1.7007750000000001,1.0,2654.536367098328,0.5077517332158566,1.2896201888668668,0.9805323668815533,0.28448555,0.7325259764053584
0.0635,1.6991983109758497,1.0,2652.5581461101447,0.5105128568210031,1.2889263725651658,0.9807020800457487,0.28441932906098566,0.7338059669525988
0.064,1.6976214891964996,1.0,2651.145586386994,0.5132584925758555,1.2882272857583732,0.9808678383525559,0.284353102546253,0.7350925757154372
0.0645,1.6960446674171492,1.0,2650.267647285668,0.5159887274601613,1.2875232705693385,0.9810297695777864,0.28428687603152025,0.7363851048504815
0.065,1.6944678456377988,1.0,2649.8761567497727,0.5187036481565948,1.2868147689428178,0.9811880019192835,0.28422064951678755,0.7376826795799682
0.0655,1.6928910238584487,1.0,2649.9336998051344,0.5214033401613101,1.2861021250393314,0.9813426541605857,0.28415442300205485,0.7389846111223813
0.066,1.6913142020790983,1.0,2650.4033291789165,0.524087888921168,1.2853856798037422,0.981493840788543,0.28408819648732214,0.7402902224584054
0.0665,1.689737380299748,1.0,2651.2608460163224,0.526757376582561,1.2846656574261184,0.9816416664192179,0.28402196997258944,0.7415990544711601
0.067,1.6881605585203978,1.0,2652.4524338874044,0.5294118937126958,1.283942555863942,0.9817862459041545,0.2839557434578567,0.74291015615259
0.0675,1.6865837367410474,1.0,2653.956450427619,0.5320515225979009,1.2832165766924344,0.9819276754366801,0.283889516943124,0.744223120811921
0.068,1.685006914961697,1.0,2655.7515705727533,0.5346763454492571,1.2824879188665588,0.9820660478295995,0.2838232904283913,0.7455375500460475
0.0685,1.683430093182347,1.0,2657.8164902423837,0.5372864444778449,1.2817567813412791,0.9822014527867562,0.28375706391365857,0.7468530490057481
0.069,1.6818532714029966,1.0,2660.1299149630127,0.5398819018947449,1.2810233630715588,0.9823339770338679,0.28369083739892587,0.7481692264284147
0.0695,1.6802764496236462,1.0,2662.670549368371,0.5424627999110379,1.2802878630123615,0.98246370444304,0.2836246108841931,0.7494856946682515
0.07,1.678699627844296,1.0,2665.41708757808,0.5450292207378044,1.2795504801186506,0.9825907161513027,0.28355838436946046,0.7508020697239539
0.07050000000000001,1.6771228060649457,1.0,2668.349915503959,0.5475812457069791,1.2788113976153739,0.9827150898927529,0.2834921578547277,0.7521179992339346
0.07100000000000001,1.6755459842855953,1.0,2671.455825141724,0.5501189540486431,1.2780707396566393,0.9828368980693695,0.283425931339995,0.7534332389885507
0.07150000000000001,1.6739691625062452,1.0,2674.711076200123,0.5526424313354197,1.277328726977781,0.9829562155520062,0.2833597048252623,0.7547473762528168
0.07200000000000001,1.6723923407268948,1.0,2678.1058147436956,0.5551517555928167,1.2765854524749334,0.9830731086169532,0.2832934783105296,0.7560602279312385
0.0725,1.6708155189475447,1.0,2681.6301722936396,0.5576470048463418,1.27584100904423,0.983187641446476,0.2832272517957969,0.75737161265772
0.073,1.6692386971681943,1.0,2685.274263324534,0.5601282571215027,1.2750954895818052,0.9832998762110586,0.2831610252810641,0.7586813508027644
0.0735,1.667661875388844,1.0,2689.0281829527503,0.5625955904438071,1.2743489869837934,0.9834098731479243,0.2830947987663314,0.7599892644801224
0.074,1.6660850536094935,1.0,2692.8820048154194,0.5650490828387628,1.2736015941463283,0.9835176906360279,0.2830285722515987,0.7612951775528949
