Time [s],Phi [rad],STIM [ ],Fsee [N],Gamma [ ],Lcerel [ ],q [ ],Lmtc [m],fisomrel [ ]
0.0,1.8,1.0,18.457722425465217,0.0007132645190695496,1.3792851567271316,0.0051310646168089705,0.288653,0.541271587648199
0.0005,1.79999375,1.0,18.982030356396503,0.006318472978019142,1.3792247857848647,0.015007669597713567,0.2886527375,0.5414176079286462
0.001,1.799975,1.0,22.84592147446388,0.011892240649237381,1.3788146579442069,0.03936690363074272,0.28865195,0.5424089761690483
0.0015,1.79994375,1.0,33.462990692542405,0.017434743891470147,1.3778460478146208,0.07568466524514687,0.2886506375,0.544746059154564
0.002,1.7999,1.0,58.27713984267691,0.022946158072631926,1.3760699546258615,0.12069800720589735,0.2886488,0.5490159095271127
0.0025,1.79984375,1.0,104.62555073867463,0.028426657577523624,1.3735801734611641,0.1710553310573245,0.28864643749999996,0.5549676466732352
0.003,1.7997750000000001,1.0,170.47878170807618,0.033876415814579536,1.3708630974861027,0.22394957391310025,0.28864354999999997,0.5614176113616502
0.0035,1.79969375,1.0,248.30516412073334,0.03929560521697511,1.368261129570711,0.277234520116368,0.2886401375,0.5675501927528828
0.004,1.7996,1.0,332.69004888011244,0.04468439725195263,1.3658613808687274,0.32931911202555814,0.2886362,0.5731678889949872
0.0045000000000000005,1.7994937500000001,1.0,420.83725549212056,0.05004296241876245,1.3636531264461524,0.3791072176877407,0.2886317375,0.5783048585010799
0.005,1.799375,1.0,511.18203186014046,0.055371470282422765,1.3616097182697828,0.4259250479540068,0.28862675,0.5830306494032153
0.0055,1.79924375,1.0,602.636919063254,0.06067008942384317,1.3597085318955582,0.46942769341049323,0.2886212375,0.5874036099538973
0.006,1.7991000000000001,1.0,694.3530103817025,0.06593898750665077,1.3579322123092945,0.5095067697851,0.2886152,0.5914685312224941
0.006500000000000001,1.79894375,1.0,785.6240617185814,0.07117833120602465,1.3562675509660664,0.546213163417428,0.2886086375,0.5952596687775551
0.007,1.798775,1.0,875.8770716941557,0.07638828640816968,1.3547037825956862,0.5796972894587961,0.28860155,0.5988049317994648
0.0075,1.79859375,1.0,964.6208903034344,0.0815690177173993,1.3532322978900913,0.6101664078232713,0.2885939375,0.6021267338242533
0.008,1.7984,1.0,1051.4925204854235,0.08672068940988117,1.3518451559168276,0.6378543320248176,0.2885858,0.6052454918936967
0.0085,1.79819375,1.0,1136.1765095718342,0.09184346430206272,1.3505358408139976,0.6630024928266925,0.2885771375,0.6081780111760962
0.009000000000000001,1.797975,1.0,1218.4307892697614,0.09693750428865595,1.34929845904965,0.6858472391708897,0.28856795,0.6109393702345026
0.0095,1.79774375,1.0,1298.0977230899928,0.1020029707411499,1.3481273439955312,0.706612444931887,0.2885582375,0.6135438531971208
0.01,1.7975,1.0,1375.0587786088436,0.1070400242964275,1.3470174792866583,0.7255059584753962,0.288548,0.6160040467778498
0.0105,1.79724375,1.0,1449.213024130391,0.11204882367856857,1.3459645744006903,0.7427180268753902,0.2885372375,0.6183307183027718
0.011,1.796975,1.0,1520.5161684583682,0.11702952729916033,1.344964415801837,0.7584207636169731,0.28852595000000003,0.6205342851737796
0.0115,1.79669375,1.0,1588.9699670327154,0.12198229346239632,1.3440129162456027,0.7727688390749885,0.2885141375,0.622624724031237
0.012,1.7964,1.0,1654.5817412139631,0.1269072790595171,1.3431065133300462,0.785900775472722,0.28850180000000003,0.6246107159135805
0.0125,1.79609375,1.0,1717.3578335795435,0.13180463901484477,1.342242141746417,0.7979402448882952,0.2884889375,0.6264997334592648
0.013000000000000001,1.7957750000000001,1.0,1777.3401127403495,0.13667452825270135,1.3414167361859641,0.8089972622300793,0.28847555,0.6282991462121295
0.0135,1.79544375,1.0,1834.5861900577397,0.14151710090038755,1.3406274159091809,0.8191696656605972,0.2884616375,0.6300158275862051
0.014,1.7951000000000001,1.0,1889.1797113964317,0.1463325114804339,1.339871326876284,0.8285443820224481,0.2884472,0.6316565088244709
0.0145,1.79474375,1.0,1941.1793967279452,0.1511209116734527,1.3391461614772922,0.8371988377075171,0.2884322375,0.6332266618469977
0.015,1.794375,1.0,1990.6477500283688,0.15588245223279126,1.3384497935220674,0.8452019205672421,0.28841675,0.6347313050537945
0.0155,1.79399375,1.0,2037.6654913602063,0.1606172839117969,1.337780096820471,0.8526149185715924,0.2884007375,0.6361754023978102
0.016,1.7936,1.0,2082.3167048343466,0.16532555652923805,1.337135083367809,0.8594924604076388,0.2883842,0.6375635700337386
0.0165,1.7931937500000001,1.0,2124.7008973886823,0.17000742050570475,1.3365127570034177,0.8658832598897576,0.2883671375,0.6389003966006339
0.017,1.792775,1.0,2164.893651892097,0.17466302327588562,1.335911502180042,0.8718309261015951,0.28834955,0.6401896132115676
0.0175,1.7923437500000001,1.0,2202.9690839157697,0.1792925113020692,1.335329827972293,0.8773744901258366,0.2883314375,0.6414346507400269
0.018000000000000002,1.7919,1.0,2239.0108292865316,0.18389603104654403,1.3347662434547813,0.8825489082468426,0.2883128,0.642638910214203
0.0185,1.79144375,1.0,2273.1041069340004,0.1884737281253417,1.3342193286992503,0.8873855550935247,0.2882936375,0.6438056132774952
0.019,1.790975,1.0,2305.3399197811523,0.19302574870063877,1.3336876832179352,0.8919126254044897,0.28827395,0.6449379147597161
0.0195,1.79049375,1.0,2335.7981133085395,0.19755223710632572,1.333170085107686,0.8961555346129293,0.2882537375,0.6460385662925296
0.02,1.79,1.0,2364.5450228635978,0.20205333525236654,1.332665502444835,0.9001372340033956,0.288233,0.6471098963109867
0.0205,1.78949375,1.0,2391.651964814301,0.20652918504872525,1.3321729033057148,0.9038784436849144,0.2882117375,0.6481542165479983
0.021,1.788975,1.0,2417.1948214125923,0.2109799284053658,1.3316912557666578,0.9073978998864923,0.28818995000000003,0.6491738228569439
0.021500000000000002,1.78844375,1.0,2441.2447110031294,0.21540570562960593,1.331219613812173,0.91071258930279,0.2881676375,0.6501708144965401
0.022,1.7879,1.0,2463.8811533920184,0.21980665908185665,1.3307569858832136,0.913837912939281,0.2881448,0.6511473733719759
0.0225,1.78734375,1.0,2485.169220066687,0.22418292812668247,1.330302550488554,0.916787895387092,0.28812143749999997,0.6521053097600646
0.023,1.786775,1.0,2505.1640163869097,0.2285346496727233,1.329855607318516,0.9195753193704669,0.28809755,0.6530461681139446
0.0235,1.78619375,1.0,2523.9230181714684,0.2328619606286192,1.3294154560634215,0.922211832673121,0.28807313749999996,0.6539714837580614
0.024,1.7856,1.0,2541.505873151811,0.2371649979030101,1.3289813964135921,0.924708064578299,0.2880482,0.6548827832071522
0.0245,1.78499375,1.0,2557.974213299174,0.2414438984045361,1.32855272805935,0.9270737289591507,0.2880227375,0.6557815844539501
0.025,1.784375,1.0,2573.380034395064,0.24569879573769499,1.3281288578179726,0.9293177324420706,0.28799675,0.6566691730455125
0.025500000000000002,1.78374375,1.0,2587.788424867368,0.24992982927597152,1.327709084413112,0.9314482218428773,0.2879702375,0.6575470535494892
0.026000000000000002,1.7831000000000001,1.0,2601.2438959010374,0.25413713170529384,1.3272929121327093,0.9334727035783673,0.2879432,0.6584162935831972
0.0265,1.78244375,1.0,2613.78821483696,0.2583208344491021,1.3268798813498384,0.9353980797346229,0.2879156375,0.6592778800022818
0.027,1.781775,1.0,2625.4641564553704,0.26248106893083645,1.326469532437573,0.9372307000665342,0.28788755,0.6601327946109453
0.0275,1.7810937500000001,1.0,2636.315415775696,0.26661796657393716,1.3260614057689875,0.9389764135494886,0.2878589375,0.6609820142472951
0.028,1.7804,1.0,2646.3865255411474,0.27073165880184435,1.3256550417171555,0.9406406144934173,0.2878298,0.6618265108552223
0.0285,1.77969375,1.0,2655.7199155795906,0.2748222758451311,1.3252500070359694,0.9422282871677062,0.2878001375,0.6626671968211156
0.029,1.778975,1.0,2664.351422341612,0.2788899457930345,1.32484593528568,0.9437440477887834,0.28776995,0.6635048416083283
0.029500000000000002,1.7782437500000001,1.0,2672.331950808159,0.2829348038654511,1.3244423267439838,0.9451921529046703,0.2877392375,0.6643404866611928
0.03,1.7775,1.0,2679.6895330575194,0.2869569754306746,1.324038896906351,0.9465765716462435,0.287708,0.665174723506745
0.0305,1.77674375,1.0,2686.452604715934,0.2909565858569987,1.3236353612682523,0.9479009852566048,0.2876762375,0.6660081407422442
0.031,1.775975,1.0,2692.6499691183826,0.294933760512717,1.3232314353251582,0.9491688115897656,0.28764395,0.6668413240358357
0.0315,1.7751937500000001,1.0,2698.310763264161,0.2988886247661232,1.3228268345725394,0.950383227237291,0.2876111375,0.6676748561220482
0.032,1.7744,1.0,2703.4644255670464,0.30282130398551105,1.322421274505866,0.951547187538199,0.2875778,0.6685093167921331
0.0325,1.77359375,1.0,2708.1406654004827,0.3067319235391741,1.322014470620609,0.9526634446974093,0.2875439375,0.6693452828792379
0.033,1.772775,1.0,2712.365427721678,0.31062060689183246,1.3216061749466028,0.9537345679345596,0.28750955,0.6701832533042573
0.0335,1.7719437500000002,1.0,2716.16318849979,0.31448747730419213,1.3211961547595688,0.954762956071695,0.2874746375,0.6710236931366937
0.034,1.7711000000000001,1.0,2719.5672424866048,0.3183326616427204,1.320784098649106,0.9557508414390975,0.2874392,0.6718672259371194
0.0345,1.7702437500000001,1.0,2722.5959043576468,0.3221562791607112,1.32036983315567,0.9567003238427862,0.2874032375,0.672714190063164
0.035,1.7693750000000001,1.0,2725.267612430581,0.3259584491114585,1.3199531848197157,0.9576133676512022,0.28736675,0.6735649219506405
0.035500000000000004,1.76849375,1.0,2727.6009157853655,0.32973929074825614,1.3195339801816983,0.9584918120976649,0.2873297375,0.6744197560881442
0.036000000000000004,1.7676,1.0,2729.6144620509635,0.33349892332439807,1.319112045782073,0.9593373806859555,0.2872922,0.6752790249897325
0.0365,1.76669375,1.0,2731.3269858600934,0.3372374660931782,1.318687208161295,0.9601516897863677,0.2872541375,0.676143059165687
0.037,1.765775,1.0,2732.7572979700685,0.3409550383078904,1.3182592938598194,0.960936256500204,0.28721555,0.6770121870913556
0.0375,1.76484375,1.0,2733.919800015412,0.3446517546732024,1.3178281700615802,0.9616925088620448,0.2871764375,0.6778866527911585
0.038,1.7639,1.0,2734.8326229774775,0.3483277346982091,1.3173936705698563,0.9624217870618309,0.28713679999999997,0.6787667662059742
0.0385,1.76294375,1.0,2735.517061867759,0.3519831016128252,1.3169556008974657,0.9631253499215935,0.28709663750000003,0.6796528924098422
0.039,1.761975,1.0,2735.9842499139645,0.3556179680920157,1.3165138591887207,0.9638043889944107,0.28705595,0.6805452070837459
0.0395,1.7609937500000001,1.0,2736.2453509855727,0.3592324468107454,1.3160683435879341,0.9644600268083727,0.2870147375,0.6814438845075881
0.04,1.76,1.0,2736.3115552523514,0.3628266504439794,1.3156189522394182,0.9650933215988723,0.286973,0.6823490975360074
0.0405,1.7589937500000001,1.0,2736.194075073754,0.3664006916666826,1.3151655832874858,0.9657052716681235,0.2869307375,0.6832610175735295
0.041,1.757975,1.0,2735.9041411180087,0.3699546831538199,1.3147081348764493,0.9662968194048963,0.28688795,0.6841798145490644
0.0415,1.75694375,1.0,2735.452998711292,0.3734887375803563,1.3142465051506214,0.9668688549942219,0.2868446375,0.6851056568897338
0.042,1.7559,1.0,2734.8519044168224,0.37700296762125673,1.3137805922543144,0.9674222198439442,0.28680079999999997,0.6860387114940423
0.0425,1.75484375,1.0,2734.112122844437,0.38049748595148614,1.313310294331841,0.9679577097524218,0.2867564375,0.6869791437043848
0.043000000000000003,1.753775,1.0,2733.2393611803627,0.3839723951058431,1.3128355600539927,0.968476080335089,0.28671155,0.6879270164722727
0.043500000000000004,1.75269375,1.0,2732.2455203280247,0.38742781223834594,1.312356281879346,0.9689780449153031,0.28666613750000003,0.6888825037324955
0.044,1.7516,1.0,2731.1437584225155,0.3908638568795864,1.3118723408422135,0.9694642787888573,0.2866202,0.6898458004387699
0.0445,1.75049375,1.0,2729.9396938894292,0.39428063410169245,1.3113836864717885,0.9699354253071706,0.2865737375,0.6908169636455324
0.045,1.7493750000000001,1.0,2728.638946245989,0.39767824897679194,1.310890268297264,0.9703920947502402,0.28652675,0.6917960493560433
0.0455,1.74824375,1.0,2727.247135086686,0.4010568065770129,1.3103920358478334,0.9708348663446988,0.2864792375,0.6927831125071343
0.046,1.7471,1.0,2725.769879125367,0.4044164119744833,1.3098889386526895,0.9712642901398967,0.2864312,0.6937782069537934
0.0465,1.7459437500000001,1.0,2724.2127952936003,0.407757170241331,1.309380926241026,0.9716808887532699,0.28638263750000004,0.6947813854535867
0.047,1.744775,1.0,2722.5814978955555,0.41107918644968405,1.3088679481420358,0.9720851589952559,0.28633355,0.6957926996509206
0.0475,1.74359375,1.0,2720.881597819846,0.4143825656716703,1.308349953884912,0.972477573383136,0.28628393750000003,0.6968122000611374
0.048,1.7424,1.0,2719.118701806644,0.4176674129794177,1.307826892998848,0.9728585815523645,0.2862338,0.697839936054451
0.0485,1.74119375,1.0,2717.298411773003,0.42093383344505425,1.3072987150130366,0.9732286115732213,0.2861831375,0.6988759558397211
0.049,1.739975,1.0,2715.4263241927656,0.4241819321407079,1.3067653694566714,0.973588071179949,0.28613195,0.6999203064480608
0.0495,1.73874375,1.0,2713.507921900955,0.42741181342680445,1.3062268068401732,0.9739373489012745,0.2860802375,0.7009730317999721
0.05,1.7375,1.0,2711.545746472044,0.43062355894869264,1.3056830044393022,0.9742768143136544,0.286028,0.7020341224392908
0.0505,1.73624375,1.0,2709.5488308402087,0.43381730263444385,1.3051338802864025,0.974606822029683,0.2859752375,0.7031036833589394
0.051000000000000004,1.734975,1.0,2707.5194637588393,0.4369931414189607,1.3045794138508844,0.974927710220735,0.28592195,0.7041816985275884
0.051500000000000004,1.73369375,1.0,2705.459931248365,0.4401511722371457,1.3040195846021578,0.9752398017463889,0.2858681375,0.705268151078863
0.052000000000000005,1.7324,1.0,2703.3725164630905,0.4432914920239017,1.3034543720096325,0.9755434049792341,0.2858138,0.7063630233043353
0.0525,1.73109375,1.0,2701.2594995672794,0.44641419771413127,1.3028837555427186,0.9758388145782951,0.28575893750000003,0.7074662966464882
0.053,1.729775,1.0,2699.1231576208124,0.44951938624273696,1.3023077146708262,0.9761263122147003,0.28570355000000003,0.7085779516916529
0.0535,1.72844375,1.0,2696.965764473867,0.45260715454462147,1.301726228863365,0.9764061672529207,0.2856476375,0.7096979681629216
0.054,1.7271,1.0,2694.789590671229,0.45567759955468745,1.3011392775897452,0.9766786373906607,0.2855912,0.7108263249130304
0.0545,1.7257437500000001,1.0,2692.5969033657625,0.45873081820783745,1.3005468403193767,0.9769439692602334,0.2855342375,0.7119629999172165
0.055,1.724375,1.0,2690.3899662411222,0.46176690743897425,1.2999488965216697,0.9772023989940478,0.28547675,0.7131079702660481
0.0555,1.72299375,1.0,2688.1710394443985,0.4647859641830004,1.2993454256660337,0.9774541527566284,0.2854187375,0.7142612121582306
0.056,1.7216,1.0,2685.942379527163,0.4677880853748185,1.298736407221879,0.9776994472454071,0.2853602,0.7154227008933791
0.0565,1.72019375,1.0,2683.7062393968395,0.4707733679493312,1.2981218206586156,0.9779384901623657,0.28530113749999997,0.7165924108647712
0.057,1.718775,1.0,2681.4639714550603,0.4737419030322404,1.2975016536701147,0.9781714806085868,0.28524155,0.7177702999475355
0.0575,1.71734375,1.0,2679.21210490746,0.47669374917884405,1.296875938180489,0.9783986092040756,0.2851814375,0.7189562414842297
0.058,1.7159,1.0,2676.961634535633,0.47962906001801187,1.2962445733971781,0.9786200597313198,0.2851208,0.7201503594793492
0.0585,1.71444375,1.0,2674.713139165247,0.48254792331263296,1.2956075540000525,0.9788360081474292,0.2850596375,0.7213525957210015
0.059000000000000004,1.7129750000000001,1.0,2672.4671966483456,0.4854504268255963,1.2949648746689826,0.9790466234166875,0.28499795,0.7225628912994624
0.059500000000000004,1.71149375,1.0,2670.2243838649383,0.48833665831979095,1.294316530083839,0.9792520678413639,0.2849357375,0.7237811866052573
0.06,1.71,1.0,2667.9852767250272,0.49120670555810586,1.2936625149244927,0.9794524973743803,0.284873,0.7250074213272388
0.0605,1.7084937500000001,1.0,2665.750450171319,0.49406065630343016,1.2930028238708138,0.9796480619149553,0.2848097375,0.7262415344506661
0.061,1.7069750000000001,1.0,2663.5204781825732,0.49689859831865285,1.2923374516026729,0.9798389055882796,0.28474595,0.7274834642552771
0.0615,1.7054437500000001,1.0,2661.29593377715,0.4997206193666629,1.2916663927999408,0.9800251670101978,0.2846816375,0.7287331483133631
0.062,1.7039,1.0,2659.077389018418,0.5025268072103494,1.2909896421424878,0.98020697953781,0.2846168,0.7299905234878409
0.0625,1.70234375,1.0,2656.865415018979,0.5053172496126014,1.2903071943101845,0.980384471506839,0.2845514375,0.7312555259303214
0.063,1.7007750000000001,1.0,2654.6605819471365,0.5080920343363078,1.2896190439829016,0.9805577664565589,0.28448555,0.7325280910791776
0.0635,1.69919375,1.0,2652.4634590332116,0.5108512491443578,1.2889251858405095,0.9807269833430212,0.28441913750000003,0.7338081536576118
0.064,1.6976,1.0,2650.2746145763663,0.5135949817996402,1.2882256145628788,0.9808922367412715,0.2843522,0.7350956476717183
0.0645,1.69599375,1.0,2648.094615952628,0.5163233200650443,1.28752032482988,0.981053637037198,0.2842847375,0.7363905064085466
0.065,1.694375,1.0,2645.9240296231246,0.519036351703459,1.286809311321384,0.9812112906096202,0.28421675,0.7376926624341626
0.0655,1.69274375,1.0,2643.7634211428817,0.5217341644777732,1.286092568717261,0.981365300003174,0.2841482375,0.7390020475917067
0.066,1.6911,1.0,2641.613355170669,0.5244168461508761,1.2853700916973816,0.981515764092528,0.2840792,0.7403185929994516
0.0665,1.6894437500000001,1.0,2639.474395479084,0.5270844844856567,1.2846418749416164,0.9816627782384181,0.2840096375,0.7416422290488559
0.067,1.687775,1.0,2637.3456448473894,0.5297371363424084,1.2839079266316367,0.9818064330138655,0.28393955,0.7429728609557564
0.0675,1.68609375,1.0,2635.228012827778,0.5323749040016891,1.2831682382487568,0.9819468180624834,0.2838689375,0.7443104236195641
0.068,1.6844000000000001,1.0,2633.1227389783153,0.5349978950862138,1.2824227982070884,0.9820840200945588,0.2837978,0.7456548566737189
0.0685,1.68269375,1.0,2631.029754311207,0.5376061880512294,1.281671607017582,0.9822181214868709,0.2837261375,0.747006077168791
0.069,1.680975,1.0,2628.9489900017893,0.5401998613519828,1.2809146651911871,0.9823492017971275,0.28365395,0.7483640015322808
0.0695,1.67924375,1.0,2626.8803773866593,0.542778993443721,1.2801519732388538,0.9824773378782763,0.28358123749999997,0.7497285455688029
0.07,1.6775,1.0,2624.823847962961,0.5453436627816909,1.279383531671532,0.9826026039874192,0.283508,0.7510996244602743
0.07050000000000001,1.67574375,1.0,2622.7793333868485,0.5478939478211393,1.2786093410001718,0.9827250718896169,0.2834342375,0.7524771527661034
0.07100000000000001,1.673975,1.0,2620.746765472562,0.5504299270173133,1.2778294017357228,0.9828448109568575,0.28335995,0.7538610444233749
0.07150000000000001,1.67219375,1.0,2618.7260761910284,0.5529516788254596,1.2770437143891353,0.9829618882624483,0.2832851375,0.7552512127470383
0.07200000000000001,1.6704,1.0,2616.7171976691416,0.5554592817008253,1.2762522794713589,0.9830763686710623,0.2832098,0.7566475704300963
0.0725,1.66859375,1.0,2614.720062187829,0.557952814098657,1.2754550974933436,0.9831883149246772,0.2831339375,0.7580500295437901
0.073,1.6667750000000001,1.0,2612.73460218173,0.5604323544742021,1.2746521689660397,0.9832977877246109,0.28305755,0.7594585015377869
0.0735,1.66494375,1.0,2610.7607502375604,0.5628979812827073,1.2738434944003965,0.9834048458098607,0.2829806375,0.76087289724037
0.074,1.6631,1.0,2608.7984390928095,0.5653497729794195,1.2730290743073644,0.9835095460319323,0.2829032,0.7622931268586214
0.0745,1.6612437500000001,1.0,2606.847601635176,0.5677878080195855,1.2722089091978932,0.9836119434263382,0.2828252375,0.7637190999786133
0.075,1.659375,1.0,2604.908170900984,0.5702121648584525,1.2713829995829327,0.9837120912809335,0.28274675,0.765150725565593
0.0755,1.65749375,1.0,2602.9800800742164,0.5726229219512671,1.270551345973433,0.9838100412012498,0.2826677375,0.7665879119641701
