Time [s],Phi [rad],STIM [ ],Fsee [N],Gamma [ ],Lcerel [ ],q [ ],Lmtc [m],fisomrel [ ]
0.0,1.8,1.0,17.967407629096087,1.0566984964203581e-05,1.3793397182717855,0.005000029746730795,0.288653,0.5411395986654415
0.0005,1.79999375,1.0,18.276907450861987,0.005619717021329838,1.3793023696495608,0.01294208815177967,0.2886527375,0.5412299501856759
0.001,1.799975,1.0,21.618935559209568,0.01119740416091107,1.378938245530971,0.035611531227034025,0.28865195,0.5421103510009868
0.0015,1.79994375,1.0,31.070593625513425,0.016743804886543298,1.378046088065571,0.07060574977617591,0.2886506375,0.5442638880686179
0.002,1.7999,1.0,53.5852718788376,0.02225909468941086,1.3763679445878665,0.11472262694576717,0.2886488,0.5483009256591348
0.0025,1.79984375,1.0,97.1237284480251,0.027743448076612425,1.373934936405116,0.16457988570980772,0.28864643749999996,0.5541220131878246
0.003,1.7997750000000001,1.0,160.96451602498607,0.03319703857887514,1.3712141061018626,0.21728560448124565,0.28864354999999997,0.5605870134916937
0.0035,1.79969375,1.0,237.69056568149563,0.03862003875014848,1.3685845114042468,0.27061801081831005,0.2886401375,0.5667903633701936
0.004,1.7996,1.0,321.47452399189825,0.044012620178385864,1.3661558870592374,0.32292076127216685,0.2886362,0.5724804412368081
0.0045000000000000005,1.7994937500000001,1.0,409.275839577348,0.049374953490729345,1.3639226242928286,0.3730392156735466,0.2886317375,0.577679603086163
0.005,1.799375,1.0,499.4217955538881,0.05470720834459973,1.361858166156278,0.4202518660066945,0.28862675,0.5824574859247942
0.0055,1.79924375,1.0,590.7988203062773,0.06000955347515022,1.3599386708610486,0.46417777744770927,0.2886212375,0.5868754885802989
0.006,1.7991000000000001,1.0,682.5265506802668,0.0652821566384551,1.3581462612883808,0.504683711650669,0.2886152,0.5909797688939888
0.006500000000000001,1.79894375,1.0,773.8898436992337,0.0705251846669577,1.3564671070517913,0.5418041878378922,0.2886086375,0.5948061275195369
0.007,1.798775,1.0,864.2939111093413,0.07573880345363412,1.354890264157244,0.5756799097969169,0.28860155,0.5983829732346989
0.0075,1.79859375,1.0,953.250987589297,0.08092317796097159,1.3534066596472487,0.6065127647977337,0.2885939375,0.6017338422097376
0.008,1.7984,1.0,1040.3590528690502,0.08607847212306796,1.3520086375361682,0.63453471011554,0.2885858,0.6048785685584521
0.0085,1.79819375,1.0,1125.3248949500219,0.09120484940405317,1.3506890904871778,0.6599867651899797,0.2885771375,0.6078353374147833
0.009000000000000001,1.797975,1.0,1207.893019223415,0.09630247163786204,1.3494421329021653,0.6831064452178716,0.28856795,0.6106192466606679
0.0095,1.79774375,1.0,1287.8784835471288,0.10137150006601327,1.348262305384954,0.7041195741265486,0.2885582375,0.6132441538519038
0.01,1.7975,1.0,1365.16735759651,0.10641209552320524,1.3471443813163728,0.7232360463215054,0.288548,0.6157231457923238
0.0105,1.79724375,1.0,1439.6655091639225,0.11142441719740795,1.3460838711681216,0.7406482832294724,0.2885372375,0.618067455731145
0.011,1.796975,1.0,1511.3171065221838,0.11640862352395413,1.3450766160354137,0.7565306733834999,0.28852595000000003,0.6202874013569759
0.0115,1.79669375,1.0,1580.1122717181977,0.12136487227643422,1.3441185874804975,0.7710400427860212,0.2885141375,0.6223928499694744
0.012,1.7964,1.0,1646.0658632039526,0.1262933209754717,1.3432060613415384,0.7843168146790667,0.28850180000000003,0.6243928554159062
0.0125,1.79609375,1.0,1709.1814937215042,0.13119412469448533,1.3423359484251216,0.7964864558729449,0.2884889375,0.626294956683267
0.013000000000000001,1.7957750000000001,1.0,1769.4988669239603,0.13606743850689385,1.3415051595378324,0.8076605985352966,0.28847555,0.6281065880390293
0.0135,1.79544375,1.0,1827.067095114962,0.14091341638591418,1.3407108665284342,0.8179385562012016,0.2884616375,0.629834519864297
0.014,1.7951000000000001,1.0,1881.9811958995165,0.14573221336019201,1.3399500510273457,0.8274084867723658,0.2884472,0.6314858507860495
0.0145,1.79474375,1.0,1934.2907575394986,0.15052398076339502,1.3392204760161224,0.8361489929698278,0.2884322375,0.6330659076893985
0.015,1.794375,1.0,1984.0586805368844,0.1552888695635521,1.3385199833348804,0.8442299670362413,0.28841675,0.6345797859788019
0.0155,1.79399375,1.0,2031.3664496329864,0.16002703072869207,1.337846414823736,0.8517135833446433,0.2884007375,0.6360325254807021
0.016,1.7936,1.0,2076.29712474894,0.16473861423565594,1.337197772807709,0.8586552595051657,0.2883842,0.6374287691757676
0.0165,1.7931937500000001,1.0,2118.9519193806673,0.1694237705482516,1.3365720254029494,0.865104396634199,0.2883671375,0.6387731878703966
0.017,1.792775,1.0,2159.4050740018747,0.1740826470788319,1.3359675559015256,0.871105220661027,0.28834955,0.6400695197115921
0.0175,1.7923437500000001,1.0,2197.7310753275256,0.17871539048169252,1.3353828562802152,0.8766973027040035,0.2883314375,0.6413212363307541
0.018000000000000002,1.7919,1.0,2234.014096502825,0.18332214741112923,1.334816418515796,0.8819160759026463,0.2883128,0.6425317789931612
0.0185,1.79144375,1.0,2268.338323636781,0.1879030635070414,1.3342668228164833,0.8867933408322823,0.2882936375,0.6437043723347378
0.019,1.790975,1.0,2300.796627384748,0.1924582853523097,1.333732640982898,0.8913576624602314,0.28827395,0.6448422332352682
0.0195,1.79049375,1.0,2331.4642550789445,0.1969879567323374,1.3332126886799265,0.8956347996054663,0.2882537375,0.6459480360417551
0.02,1.79,1.0,2360.4096400999147,0.2014922198481441,1.3327059059745958,0.8996479934452087,0.288233,0.6470241713317073
0.0205,1.78949375,1.0,2387.7063290759797,0.2059712169007494,1.3322112329339328,0.9034182217360401,0.2882117375,0.6480730124761359
0.021,1.788975,1.0,2413.4325521852516,0.21042509009117283,1.3317276096249646,0.9069644500526282,0.28818995000000003,0.649096916493964
0.021500000000000002,1.78844375,1.0,2437.655395852676,0.2148539793098231,1.3312541244538343,0.9103038824828172,0.2881676375,0.6500979114551138
0.022,1.7879,1.0,2460.46358631645,0.21925802816837622,1.3307896932231411,0.9134520887437689,0.2881448,0.6510783764583552
0.0225,1.78734375,1.0,2481.914818812109,0.22363737469487535,1.3303335619864605,0.9164232750807794,0.28812143749999997,0.6520399803103867
0.023,1.786775,1.0,2502.0647041652574,0.22799215613588772,1.3298850223292187,0.919230373125821,0.28809755,0.6529842858509276
0.0235,1.78619375,1.0,2520.971265592942,0.23232250973798055,1.3294433658368423,0.9218851641799047,0.28807313749999996,0.6539128466393256
0.024,1.7856,1.0,2538.69473636288,0.23662857274772106,1.3290078840947572,0.9243983974310997,0.2880482,0.6548272072815395
0.0245,1.78499375,1.0,2555.294905366199,0.24091048189940176,1.3285778918286724,0.9267798984433145,0.2880227375,0.6557288552341367
0.025,1.784375,1.0,2570.8235168172278,0.2451683719697174,1.328152796051535,0.9290386726268699,0.28799675,0.6566190766695146
0.025500000000000002,1.78374375,1.0,2585.3522683878823,0.24940238152029587,1.3277318317428701,0.931182944008149,0.2879702375,0.6574995104032624
0.026000000000000002,1.7831000000000001,1.0,2598.922418035613,0.2536126424359606,1.327314532263508,0.9332203042596657,0.2879432,0.6583711638045948
0.0265,1.78244375,1.0,2611.576343803083,0.257799286601535,1.326900430974278,0.9351577274205478,0.2879156375,0.6592350389949978
0.027,1.781775,1.0,2623.3574499101996,0.26196244590184264,1.3264890612360092,0.9370016284278193,0.28788755,0.6600921329503491
0.0275,1.7810937500000001,1.0,2634.3100776738183,0.266102252221707,1.3260799564095314,0.9387579153886018,0.2878589375,0.6609434375891523
0.028,1.7804,1.0,2644.4794212554,0.2702188374459516,1.325672649855674,0.940432036330069,0.2878298,0.6617899398468866
0.0285,1.77969375,1.0,2653.9064700896333,0.27431233055901805,1.3252667208246363,0.9420290265283691,0.2878001375,0.6626325265433295
0.029,1.778975,1.0,2662.6341653345157,0.27838286482997504,1.324861736734826,0.9435535401084497,0.28776995,0.6634721046097977
0.029500000000000002,1.7782437500000001,1.0,2670.695858792251,0.28243056799196753,1.3244573587308963,0.9450098945760489,0.2877392375,0.6643093825426354
0.03,1.7775,1.0,2678.1236511405195,0.28645556659653565,1.3240532639564468,0.9464020912057521,0.287708,0.6651450322677723
0.0305,1.77674375,1.0,2684.950080844593,0.29045798719521954,1.3236491295550767,0.947733840631518,0.2876762375,0.6659797223795956
0.031,1.775975,1.0,2691.2080828755616,0.29443795633955927,1.323244632670386,0.9490085876160896,0.28764395,0.6668141181434544
0.0315,1.7751937500000001,1.0,2696.9309497407203,0.29839560058109504,1.3228394504459737,0.9502295334183982,0.2876111375,0.6676488814915232
0.032,1.7744,1.0,2702.142306192524,0.30233104115030274,1.3224333512766986,0.9513996655439788,0.2875778,0.6684844833688683
0.0325,1.77359375,1.0,2706.8753505270292,0.3062444072174146,1.3220260184702155,0.9525217579521938,0.2875439375,0.6693215670542744
0.033,1.772775,1.0,2711.1662336176805,0.31013582870371664,1.3216171107519967,0.953598393438933,0.28750955,0.6701608229321999
0.0335,1.7719437500000002,1.0,2715.0344428338913,0.3140054256312014,1.32120644085788,0.954631996506837,0.2874746375,0.6710026222940472
0.034,1.7711000000000001,1.0,2718.499627704798,0.31785331802186123,1.3207938215237032,0.9556248310333448,0.2874392,0.6718473344139619
0.0345,1.7702437500000001,1.0,2721.581584186232,0.32167962589768867,1.320379065485304,0.9565790128074517,0.2874032375,0.6726953265266686
0.035,1.7693750000000001,1.0,2724.300239704968,0.3254844692806762,1.3199619854785207,0.9574965209480183,0.28736675,0.6735469638030704
0.035500000000000004,1.76849375,1.0,2726.675638980913,0.3292679681928163,1.3195423942391906,0.9583792083151117,0.2873297375,0.6744026093236151
0.036000000000000004,1.7676,1.0,2728.7279306261025,0.33303024265610137,1.3191201045031515,0.9592288110136418,0.2872922,0.6752626240494186
0.0365,1.76669375,1.0,2730.477354521874,0.3367714126925238,1.3186949290062417,0.9600469570778196,0.2872541375,0.676127366791156
0.037,1.765775,1.0,2731.9442299732723,0.34049159832407627,1.3182666804842986,0.960835174415464,0.28721555,0.6769971941757187
0.0375,1.76484375,1.0,2733.1378443242234,0.3441909124630796,1.317835272503571,0.9615949064314547,0.2871764375,0.677872256226342
0.038,1.7639,1.0,2734.0828298987412,0.3478694793528737,1.3174004797245278,0.9623274988127345,0.28713679999999997,0.6787529830058663
0.0385,1.76294375,1.0,2734.7985469530613,0.3515274177655505,1.3169621251681716,0.9630342208289354,0.28709663750000003,0.6796397041099373
0.039,1.761975,1.0,2735.2960654958924,0.3551648406350499,1.3165201075010313,0.9637162731532625,0.28705595,0.6805325942204579
0.0395,1.7609937500000001,1.0,2735.586486640117,0.3587818608953114,1.3160743253896356,0.9643747868028281,0.2870147375,0.6814318266246389
0.04,1.76,1.0,2735.680938262831,0.36237859148027485,1.3156246775005136,0.9650108279210972,0.286973,0.6823375731909975
0.0405,1.7589937500000001,1.0,2735.5905708942323,0.3659551453238799,1.3151710625001933,0.9656254021830935,0.2869307375,0.6832500043447042
0.041,1.757975,1.0,2735.326553833324,0.36951163536006637,1.3147133790552041,0.9662194588567856,0.28688795,0.6841692890422686
0.0415,1.75694375,1.0,2734.9000714916783,0.37304817452277395,1.3142515258320746,0.9667938945508043,0.2868446375,0.685095594745577
0.042,1.7559,1.0,2734.3223199650683,0.3765648757459424,1.3137854014973334,0.9673495566757205,0.28680079999999997,0.686029087395272
0.0425,1.75484375,1.0,2733.604503832533,0.3800618519635114,1.3133149047175092,0.9678872466434988,0.2867564375,0.6869699313834762
0.043000000000000003,1.753775,1.0,2732.750758297016,0.38353920773063893,1.3128399984288652,0.9684077267243488,0.28671155,0.6879181612979197
0.043500000000000004,1.75269375,1.0,2731.7780554531246,0.3869970631255403,1.312360529004684,0.9689117117709194,0.28666613750000003,0.6888740431119705
0.044,1.7516,1.0,2730.6947876279437,0.39043552723353053,1.3118764207564924,0.9693998835155864,0.2866202,0.6898376855105847
0.0445,1.75049375,1.0,2729.5070342830036,0.3938547063190908,1.3113876190232165,0.9698728894430242,0.2865737375,0.6908091540786102
0.045,1.7493750000000001,1.0,2728.220875908054,0.3972547066467021,1.3108940691437836,0.9703313437053733,0.28652675,0.6917885133010853
0.0455,1.74824375,1.0,2726.842392900963,0.40063563448084544,1.3103957164571203,0.9707758291591286,0.2864792375,0.6927758265467825
0.046,1.7471,1.0,2725.377664513728,0.40399759608600194,1.3098925063021534,0.9712068992585241,0.2864312,0.693771156051562
0.0465,1.7459437500000001,1.0,2723.832767864739,0.4073406977266526,1.3093843840178099,0.9716250798167981,0.28638263750000004,0.6947745629015318
0.047,1.744775,1.0,2722.213777017208,0.4106650456672784,1.3088712949430164,0.9720308706457437,0.28633355,0.6957861070160211
0.0475,1.74359375,1.0,2720.526762124186,0.41397074617236046,1.3083531844166998,0.9724247470830183,0.28628393750000003,0.6968058471303595
0.048,1.7424,1.0,2718.7777886390936,0.41725790550637976,1.307829997777787,0.9728071614158885,0.2862338,0.6978338407784683
0.0485,1.74119375,1.0,2716.9674113018073,0.4205266132317854,1.30730173052148,0.973178545638192,0.2861831375,0.6988700459773715
0.049,1.739975,1.0,2715.1095264639503,0.4237769960659224,1.3067682565650889,0.9735393073914513,0.28613195,0.6999146580485198
0.0495,1.73874375,1.0,2713.207305630726,0.4270091538907323,1.3062295474445198,0.9738898384819469,0.2860802375,0.7009676794385351
0.05,1.7375,1.0,2711.2636589316894,0.4302231858847188,1.305685577050228,0.9742305125216092,0.286028,0.7020291070901439
0.0505,1.73624375,1.0,2709.2814934186877,0.43341919122638567,1.3051363192726682,0.9745616858638074,0.2859752375,0.703098937055894
0.051000000000000004,1.734975,1.0,2707.263712851187,0.43659726909423663,1.304581748002295,0.9748836985515515,0.28592195,0.7041771644893702
0.051500000000000004,1.73369375,1.0,2705.213217496718,0.4397575186667754,1.304021837129564,0.9751968752054769,0.2858681375,0.7052637836363675
0.052000000000000005,1.7324,1.0,2703.132903946336,0.4429000391225058,1.3034565605449295,0.9755015258559304,0.2858138,0.7063587878260253
0.0525,1.73109375,1.0,2701.0256649455537,0.4460249296399314,1.3028858921388466,0.9757979467231336,0.28575893750000003,0.70746216946191
0.053,1.729775,1.0,2698.8943892398365,0.4491322893975561,1.3023098058017704,0.9760864209490878,0.28570355000000003,0.708573920013061
0.0535,1.72844375,1.0,2696.741961435635,0.45222221757388364,1.3017282754241557,0.9763672192845935,0.2856476375,0.7096940300049899
0.054,1.7271,1.0,2694.571261876563,0.4552948133474176,1.3011412748964573,0.9766406007344978,0.2855912,0.7108224890106389
0.0545,1.7257437500000001,1.0,2692.3851665342017,0.4583501758966619,1.30054877810913,0.9769068131640425,0.2855342375,0.7119592856412912
0.055,1.724375,1.0,2690.1824514543796,0.46138838067859483,1.2999507964498478,0.9771660938275472,0.28547675,0.7131043358070854
0.0555,1.72299375,1.0,2687.969156649022,0.4644095495138665,1.2993472747915553,0.9774186704609223,0.2854187375,0.7142576819989448
0.056,1.7216,1.0,2685.748344417813,0.46741378488184004,1.2987381852032063,0.9776647609866548,0.2853602,0.7154193134613993
0.0565,1.72019375,1.0,2683.521199904128,0.4704011778520235,1.2981235169162115,0.9779045742101163,0.28530113749999997,0.7165891857828741
0.057,1.718775,1.0,2681.2889063347257,0.4733718194939247,1.297503259161983,0.9781383103465109,0.28524155,0.7177672537882588
0.0575,1.71734375,1.0,2679.0526450050684,0.4763258008770516,1.2968774011719315,0.9783661614415434,0.2851814375,0.7189534715350767
0.058,1.7159,1.0,2676.8135952673756,0.479263213070912,1.2962459321774686,0.9785883117682165,0.2851208,0.7201477923096387
0.0585,1.71444375,1.0,2674.57293452141,0.48218414714501395,1.2956088414100055,0.9788049382012824,0.2850596375,0.7213501686231958
0.059000000000000004,1.7129750000000001,1.0,2672.331838207284,0.4850886941688652,1.2949661181009533,0.979016210570786,0.28499795,0.7225605522080819
0.059500000000000004,1.71149375,1.0,2670.091479801291,0.4879769452119737,1.2943177514817237,0.9792222919960083,0.2849357375,0.7237788940138468
0.06,1.71,1.0,2667.853030814177,0.49084899134384735,1.2936637307837275,0.9794233392010525,0.284873,0.7250051442033878
0.0605,1.7084937500000001,1.0,2665.6176607920497,0.4937049236339941,1.2930040452383766,0.979619502813209,0.2848097375,0.7262392521490668
0.061,1.7069750000000001,1.0,2663.3865373196963,0.4965448331519218,1.2923386840770819,0.9798109276451671,0.28474595,0.727481166428827
0.0615,1.7054437500000001,1.0,2661.16082602647,0.49936881096713837,1.2916676365312545,0.979997752962065,0.2846816375,0.7287308348222961
0.062,1.7039,1.0,2658.941690595272,0.5021769481491517,1.290990891832306,0.980180112734298,0.2846168,0.729988204306885
0.0625,1.70234375,1.0,2656.730292773058,0.5049693357674697,1.2903084392116477,0.9803581358769499,0.2845514375,0.7312532210538809
0.063,1.7007750000000001,1.0,2654.5264647791932,0.5077460507913677,1.2896202801373529,0.9805319460513442,0.28448555,0.7325258078225806
0.0635,1.69919375,1.0,2652.3286693937916,0.5105071660901017,1.288926428707639,0.9807016626865487,0.28441913750000003,0.7338058635020714
0.064,1.6976,1.0,2650.1412113608194,0.5132528140720632,1.2882268451537888,0.9808674024384532,0.2843522,0.7350933856272126
0.0645,1.69599375,1.0,2647.9641969402073,0.5159830768637064,1.287521528387491,0.9810292759604072,0.2842847375,0.7363882994697742
0.065,1.694375,1.0,2645.7977322489687,0.5186980365914858,1.2868104773204343,0.9811873898945267,0.28421675,0.7376905296531399
0.0655,1.69274375,1.0,2643.641923263595,0.5213977753818559,1.2860936908643075,0.9813418470444835,0.2841482375,0.7390000001519071
0.066,1.6911,1.0,2641.4968758221216,0.5240823753612711,1.2853711679307989,0.9814927465396441,0.2840792,0.7403166342914917
0.0665,1.6894437500000001,1.0,2639.362695626484,0.5267519186561858,1.2846429074315977,0.9816401839910468,0.2840096375,0.7416403547477262
0.067,1.687775,1.0,2637.2394882443405,0.5294064873930544,1.2839089082783923,0.9817842516396816,0.28393955,0.7429710835464649
0.0675,1.68609375,1.0,2635.127359111902,0.5320461636983314,1.2831691693828715,0.9819250384975007,0.2838689375,0.7443087420631844
0.068,1.6844000000000001,1.0,2633.0264135356174,0.5346710296984711,1.282423689656724,0.9820626304815656,0.2837978,0.7456532510225843
0.0685,1.68269375,1.0,2630.9367566947903,0.5372811675199282,1.2816724680116385,0.9821971105417084,0.2837261375,0.7470045304981904
0.069,1.680975,1.0,2628.8584936439684,0.5398766592891568,1.2809155033593036,0.9823285587820665,0.28365395,0.748362499911955
0.0695,1.67924375,1.0,2626.7917293149662,0.5424575871326115,1.2801527946114082,0.9824570525768193,0.28358123749999997,0.7497270780338589
0.07,1.6775,1.0,2624.7365685195623,0.5450240331767467,1.2793843406796408,0.9825826666804472,0.283508,0.7510981829815128
0.07050000000000001,1.67574375,1.0,2622.6931159518363,0.5475760795480169,1.27861014047569,0.982705473332801,0.2834342375,0.7524757322197586
0.07100000000000001,1.673975,1.0,2620.661476190239,0.5501138083728765,1.2778301929112448,0.9828255423592633,0.28335995,0.7538596425602695
0.07150000000000001,1.67219375,1.0,2618.641753700594,0.5526373017777798,1.2770444968979937,0.9829429412662622,0.2832851375,0.755249830161153
0.07200000000000001,1.6704,1.0,2616.6340528382884,0.5551466418891814,1.2762530513476256,0.9830577353323777,0.2832098,0.7566462105265502
0.0725,1.66859375,1.0,2614.6384778507436,0.5576419108335355,1.275455855171829,0.983169987695278,0.2831339375,0.7580486985062386
0.073,1.6667750000000001,1.0,2612.65242760343,0.5601231543084255,1.2746529324160911,0.9832797584312314,0.28305755,0.7594571642705423
0.0735,1.66494375,1.0,2610.6772702079006,0.56259047421682,1.273844270272089,0.9833871073115837,0.2829806375,0.7608715422166681
0.074,1.6631,1.0,2608.714960742068,0.565043975321091,1.2730298504551982,0.9834920920870678,0.2829032,0.7622917753839671
0.0745,1.6612437500000001,1.0,2606.765193302585,0.5674837306681876,1.2722096756836974,0.9835947677689119,0.2828252375,0.763717769337297
0.075,1.659375,1.0,2604.827662504798,0.5699098133050589,1.2713837486758655,0.9836951876245202,0.28274675,0.7651494290645239
0.0755,1.65749375,1.0,2602.902063476174,0.5723222962786539,1.2705520721499803,0.9837934032424748,0.2826677375,0.766586658977525
