Time [s],Phi [rad],STIM [ ],Fsee [N],Gamma [ ],Lcerel [ ],q [ ],Lmtc [m],fisomrel [ ]
0.0,1.8,1.0,19.088024824726634,0.00108068529120569,1.3792160713296024,0.0052997842312694984,0.288653,0.5414386838180545
0.0005,1.79999375,1.0,19.70984847670002,0.006683832810144861,1.3791462017105716,0.016177999469137394,0.2886527375,0.5416076458177507
0.001,1.799975,1.0,23.84967836091438,0.012255551101803345,1.3787160031890757,0.041403640965088764,0.28865195,0.5426472861240179
0.0015,1.79994375,1.0,35.12522790913235,0.01779601645943576,1.3777112438988988,0.07839163882995995,0.2886506375,0.5450708425776359
0.002,1.7999,1.0,61.1976478594452,0.023305404186925536,1.3758904998212012,0.12385205702325681,0.2886488,0.5494462121944119
0.0025,1.79984375,1.0,108.98141865740976,0.028783888606117105,1.3733800067070334,0.17445377952299224,0.28864643749999996,0.5554444215288765
0.003,1.7997750000000001,1.0,175.81002733807213,0.034231643059230904,1.3706706887848652,0.22743386855829933,0.28864354999999997,0.5618725780476836
0.0035,1.79969375,1.0,254.15189363486795,0.039648839916675935,1.3680859541157748,0.28068461627424107,0.2886401375,0.5679615126998716
0.004,1.7996,1.0,338.805466638809,0.04503565058211431,1.3657028873707897,0.3326488234855167,0.2886362,0.5735376217113122
0.0045000000000000005,1.7994937500000001,1.0,427.1010623332484,0.050392245505333264,1.3635086618045376,0.3822603936650224,0.2886317375,0.5786398367126095
0.005,1.799375,1.0,517.5162352347498,0.05571879415756402,1.3614770850131168,0.42887004035359927,0.28862675,0.583336470058737
0.0055,1.79924375,1.0,608.9882708705059,0.06101546508883249,1.359585989634286,0.47215094979547817,0.2886212375,0.5876846813097297
0.006,1.7991000000000001,1.0,700.6732792452366,0.06628242588576762,1.3578185679596395,0.5120073981754847,0.2886152,0.5917279095131149
0.006500000000000001,1.79894375,1.0,791.8598148806777,0.0715198428834594,1.3561621099274204,0.5484985577134961,0.2886086375,0.5954992074363781
0.007,1.798775,1.0,882.0296473584978,0.07672788269403574,1.3546052313561099,0.5817792000581921,0.28860155,0.5990278376749993
0.0075,1.79859375,1.0,970.673352354404,0.0819067095123369,1.3531399001222417,0.6120594293713937,0.2885939375,0.602334856319047
0.008,1.7984,1.0,1057.3893783393812,0.08705648680928281,1.351758918184126,0.639574446134477,0.2885858,0.6054389779270832
0.0085,1.79819375,1.0,1141.905845604081,0.09217737793686584,1.3504552246175197,0.6645652949542642,0.2885771375,0.6083582128134052
0.009000000000000001,1.797975,1.0,1224.0000288850617,0.09726954509713084,1.3492227779513035,0.6872676006915751,0.28856795,0.611107944387674
0.0095,1.79774375,1.0,1303.489154312246,0.10233314914461825,1.3480563555752683,0.7079045077696383,0.2885582375,0.6137014456111685
0.01,1.7975,1.0,1380.260187842825,0.10736835032727696,1.3469509308813743,0.7266827081967928,0.288548,0.616151312374196
0.0105,1.79724375,1.0,1454.2350022189476,0.11237530825065896,1.3459019821852396,0.7437911429468856,0.2885372375,0.6184688096949049
0.011,1.796975,1.0,1525.3590813245833,0.1173541808698957,1.3449054835396341,0.759400855357129,0.28852595000000003,0.6206639267356224
0.0115,1.79669375,1.0,1593.610957686229,0.12230512517518906,1.343957667368282,0.7736655519258785,0.2885141375,0.6227459281204408
0.012,1.7964,1.0,1659.0356275310521,0.12722829977003916,1.3430545507839582,0.7867225361603779,0.28850180000000003,0.6247244106709715
0.0125,1.79609375,1.0,1721.6446217780901,0.13212385972790391,1.3421930488965648,0.7986945473451683,0.2884889375,0.62660687910355
0.013000000000000001,1.7957750000000001,1.0,1781.4598867715504,0.1369919589506005,1.3413703569005015,0.8096908714587163,0.28847555,0.62840012573222
0.0135,1.79544375,1.0,1838.5339676147426,0.14183275133994624,1.340583669990168,0.8198086206947406,0.2884616375,0.6301108537500901
0.014,1.7951000000000001,1.0,1892.9447494905212,0.14664639058410286,1.3398302115353162,0.8291340747320474,0.2884472,0.6317456228567035
0.0145,1.79474375,1.0,1944.771962195888,0.1514330294571412,1.3391074572471593,0.8377439844154667,0.2884322375,0.6333103712989989
0.015,1.794375,1.0,1994.087983652969,0.15619281968412205,1.3384131927210239,0.8457066870470409,0.28841675,0.6348103029093213
0.0155,1.79399375,1.0,2040.9592063100854,0.16092591093748293,1.3377454605158963,0.8530830669202654,0.2884007375,0.6362500124391108
0.016,1.7936,1.0,2085.4677999736696,0.1656324528896614,1.3371023031907625,0.859927353017402,0.2883842,0.6376340471412093
0.0165,1.7931937500000001,1.0,2127.6971253604693,0.17031259406246668,1.3364818995342866,0.8662879479477572,0.2883671375,0.6389666176205301
0.017,1.792775,1.0,2167.749740392498,0.1749664845391342,1.335882361640562,0.8722080601378058,0.28834955,0.6402520380700216
0.0175,1.7923437500000001,1.0,2205.7040871255913,0.17959427120875032,1.3353021645258913,0.8777264332349365,0.2883314375,0.6414938088783548
0.018000000000000002,1.7919,1.0,2241.630473618293,0.18419609927392877,1.3347399604728316,0.8828778161319535,0.2883128,0.6426950218834411
0.0185,1.79144375,1.0,2275.6073942033636,0.18877211393728313,1.3341944017639396,0.8876933816921291,0.2882936375,0.6438587430792173
0.019,1.790975,1.0,2307.7208432912976,0.19332246040142706,1.3336641406817717,0.8922011402409661,0.28827395,0.6449880141042565
0.0195,1.79049375,1.0,2338.04197382314,0.19784728228552267,1.333148042583797,0.8964263521143742,0.2882537375,0.646085400901099
0.02,1.79,1.0,2366.682840554428,0.2023467250291908,1.332644629384851,0.9003917087052881,0.288233,0.6471541790223696
0.0205,1.78949375,1.0,2393.710635219148,0.2068209303256773,1.3321529170342645,0.9041178102639008,0.2882117375,0.6481965551837658
0.021,1.788975,1.0,2419.1766724378012,0.21127003848781722,1.3316721170168864,0.9076233281818921,0.28818995000000003,0.6492143073773496
0.021500000000000002,1.7884438954170718,1.0,2443.142709036344,0.21569418982844565,1.331201440817565,0.9109251733911952,0.288167643607517,0.650209201531789
0.022,1.7879083020965927,1.0,2466.038541295557,0.2200935246603976,1.3307400999211494,0.9140386866084216,0.2881451486880569,0.6511829920412886
0.0225,1.7873727087761135,1.0,2488.1378638229207,0.22446818250809422,1.330287357862215,0.9169778157256778,0.28812265376859675,0.6521373126160623
0.023,1.7868371154556344,1.0,2509.460471744755,0.22881830283524485,1.3298429126594729,0.9197553367119673,0.28810015884913664,0.6530728729856995
0.0235,1.7863015221351553,1.0,2530.027006747962,0.23314402313926708,1.3294064638905683,0.922382888978666,0.2880776639296765,0.6539903748313513
0.024,1.785765928814676,1.0,2549.8623743948347,0.23744547923582204,1.3289776800111495,0.9248710863855754,0.2880551690102164,0.6548905805308729
0.0245,1.785230335494197,1.0,2568.9924320938476,0.2417228069405708,1.3285562294768651,0.9272296279182862,0.2880326740907563,0.6557742476783978
0.025,1.7846947421737176,1.0,2587.4439339749506,0.24597614206917445,1.3281417807433638,0.929467389070284,0.2880101791712961,0.6566421292429024
0.025500000000000002,1.7841591488532385,1.0,2605.231050726101,0.250205610983637,1.327734127193804,0.9315925191518766,0.287987684251836,0.6574947126036849
0.026000000000000002,1.7836235555327593,1.0,2622.4014370027403,0.25441136311930546,1.327332757424646,0.9336124573054471,0.2879651893323759,0.6583331183570722
0.0265,1.7830879622122802,1.0,2638.9756890276462,0.25859352912057265,1.3269374194172132,0.9355340713163482,0.28794269441291576,0.6591579202321851
0.027,1.782552368891801,1.0,2654.973216759441,0.2627522384148203,1.3265478775405841,0.9373636814238407,0.28792019949345565,0.6599696545718741
0.0275,1.7820167755713219,1.0,2670.413968362099,0.26688762042943004,1.3261638961638387,0.9391071094440856,0.28789770457399555,0.6607688547169155
0.028,1.7814811822508427,1.0,2685.3184005397616,0.2709998045917835,1.325785239656056,0.9407697246653615,0.2878752096545354,0.661556051091346
0.0285,1.7809455889303636,1.0,2699.7074501028537,0.2750889203292623,1.3254116723863156,0.9423564849631116,0.2878527147350753,0.6623317712842512
0.029,1.7804099956098844,1.0,2713.602506764452,0.2791550970692481,1.325042958723697,0.943871973684654,0.28783021981561513,0.6630965401280136
0.029500000000000002,1.7798744022894053,1.0,2727.025387168737,0.2831984642391226,1.324678863037279,0.9453204327849024,0.287807724896155,0.6638508797730225
0.03,1.7793388089689262,1.0,2739.9983101491466,0.28721915126626724,1.3243191496961413,0.946705792635024,0.28778522997669487,0.6645953097588391
0.0305,1.778803215648447,1.0,2752.539491788879,0.29121728353944115,1.3239636227278635,0.9480317026702098,0.28776273505723476,0.6653302651436178
0.031,1.7782676223279676,1.0,2764.6667094260893,0.2951929874891312,1.323612092992963,0.9493015527461376,0.28774024013777466,0.6660561647599297
0.0315,1.7777320290074885,1.0,2776.4064104328736,0.2991463979515166,1.3232642958594871,0.9505184869587983,0.2877177452183145,0.6667735810665496
0.032,1.7771964356870094,1.0,2787.7716811612936,0.3030776367222214,1.322920089975984,0.9516854416956028,0.2876952502988544,0.6674828300060662
0.0325,1.7766608423665302,1.0,2798.7758243165476,0.30698682559686946,1.3225793339910017,0.9528051517550684,0.2876727553793943,0.6681842260265363
0.033,1.776125249046051,1.0,2809.432347923473,0.310874086371085,1.322241886553088,0.9538801666389072,0.28765026045993414,0.668878082113223
0.0335,1.775589655725572,1.0,2819.7549547366866,0.31473954084049194,1.3219076063107913,0.9549128653416366,0.28762776554047403,0.669564709819058
0.034,1.7750540624050928,1.0,2829.7575320924398,0.3185833108007143,1.3215763519126593,0.9559054697922603,0.2876052706210139,0.6702444192938313
0.0345,1.7745184690846136,1.0,2839.4541422049015,0.3224055180473761,1.32124798200724,0.9568600570851419,0.28758277570155377,0.6709175193121046
0.035,1.7739828757641345,1.0,2848.8590129040385,0.3262062843761014,1.3209223552430815,0.9577785706218995,0.2875602807820936,0.6715843172998514
0.035500000000000004,1.7734472824436553,1.0,2857.986528817881,0.3299857315825142,1.320599330268732,0.9586628302726897,0.2875377858626335,0.6722451193598231
0.036000000000000004,1.7729116891231762,1.0,2866.8469405901474,0.3337439752173799,1.3202788037143032,0.9595145441093782,0.2875152909431734,0.6729001527147158
0.0365,1.7723760958026968,1.0,2875.4527320520206,0.3374811363474501,1.3199606534494859,0.9603353136528919,0.28749279602371325,0.6735496819010778
0.037,1.7718405024822177,1.0,2883.8210247731604,0.34119734319445716,1.3196447174064263,0.9611266398942891,0.28747030110425315,0.6741940517671106
0.0375,1.7713049091617385,1.0,2891.959787788326,0.344892709869017,1.319330915582246,0.9618899378880927,0.28744780618479304,0.6748334386269277
0.038,1.7707693158412594,1.0,2899.87707222922,0.3485673504817455,1.3190191679740666,0.962626538055135,0.2874253112653329,0.6754680180648416
0.0385,1.7702337225207803,1.0,2907.5810076099015,0.3522213791432586,1.3187093945790103,0.9633376921760648,0.2874028163458728,0.6760979649460483
0.039,1.7696981292003011,1.0,2915.07979825363,0.3558549099641722,1.3184015153941984,0.9640245788977001,0.2873803214264127,0.6767234534269071
0.0395,1.769162535879822,1.0,2922.381719862094,0.3594680570551023,1.3180954504167532,0.9646883087966633,0.2873578265069525,0.6773446569648052
0.04,1.7686269425593428,1.0,2929.495116226951,0.3630609345266649,1.3177911196437961,0.9653299290402665,0.2873353315874924,0.6779617483276226
0.0405,1.7680913492388637,1.0,2936.428396081886,0.36663365648947577,1.3174884430724494,0.9659504276806206,0.28731283666803226,0.6785748996027808
0.041,1.7675557559183845,1.0,2943.1900300984144,0.370186337054151,1.3171873406998342,0.9665507376144111,0.28729034174857215,0.6791842822058907
0.0415,1.7670201625979054,1.0,2949.7885480217165,0.37371909033130646,1.3168877325230728,0.9671317402375956,0.287267846829112,0.6797900668889842
0.042,1.7664845692774263,1.0,2956.2294158905283,0.37723202237252146,1.3165895657902011,0.9676942697507925,0.2872453519096519,0.6803923687269513
0.0425,1.7659489759569469,1.0,2962.5190039637964,0.3807252445343623,1.3162927802134097,0.9682391155790919,0.2872228569901918,0.6809913175538002
0.043000000000000003,1.7654133826364677,1.0,2968.66934289789,0.3841988835058802,1.3159972665397994,0.9687670234470465,0.28720036207073163,0.681587141388313
0.043500000000000004,1.7648777893159886,1.0,2974.684828600989,0.3876530452956221,1.3157029825436806,0.9692787017252441,0.2871778671512715,0.6821799324394915
0.044,1.7643421959955095,1.0,2980.569886897294,0.39108783591213475,1.3154098859993626,0.9697748217642912,0.2871553722318114,0.6827697825697356
0.0445,1.7638066026750303,1.0,2986.328972395321,0.39450336136396497,1.315117934681156,0.9702560201958011,0.28713287731235126,0.6833567832980956
0.045,1.7632710093545512,1.0,2991.966567396445,0.3978997276596597,1.31482708636337,0.9707229010685489,0.28711038239289116,0.6839410258034158
0.0455,1.762735416034072,1.0,2997.487180841878,0.40127704080776566,1.3145372988203152,0.971176037833099,0.287087887473431,0.6845226009273588
0.046,1.7621998227135929,1.0,3002.8953473005913,0.4046354068168297,1.3142485298263014,0.971615975187026,0.2870653925539709,0.685101599177322
0.0465,1.7616642293931137,1.0,3008.195625995114,0.4079749316953987,1.3139607371556383,0.9720432307917671,0.28704289763451074,0.6856781107292353
0.047,1.7611286360726346,1.0,3013.392599868416,0.4112957214520195,1.3136738785826358,0.9724582968711838,0.28702040271505064,0.6862522254302482
0.0475,1.7605930427521554,1.0,3018.4908746891847,0.41459788209523885,1.3133879118816043,0.9728616417010254,0.28699790779559053,0.6868240328013004
0.048,1.760057449431676,1.0,3023.4950781972884,0.4178815196336036,1.3131027948268532,0.9732537109977006,0.2869754128761304,0.6873936220395838
0.0485,1.759521856111197,1.0,3028.4098592887035,0.42114674007566066,1.3128184851926927,0.9736349292140403,0.2869529179566703,0.6879610820208836
0.049,1.7589862627907178,1.0,3033.236223239034,0.42439363123373947,1.3125349723463435,0.9740057007141538,0.28693042303721017,0.6885264383305814
0.0495,1.7584506694702386,1.0,3037.9796105227256,0.4276223082884697,1.3122522075128171,0.9743664116564014,0.28690792811775,0.6890897924214687
0.05,1.7579150761497595,1.0,3042.6461259343464,0.43083288908693873,1.3119701363836085,0.9747174302031505,0.2868854331982899,0.689651256392834
0.0505,1.7573794828292804,1.0,3047.2379728120436,0.4340254709363127,1.3116887384087683,0.9750591074607211,0.2868629382788298,0.690210874837852
0.051000000000000004,1.7568438895088012,1.0,3051.75736477209,0.4372001511437576,1.3114079930383478,0.9753917785917571,0.28684044335936965,0.6907686921933303
0.051500000000000004,1.756308296188322,1.0,3056.2065254073127,0.4403570270164395,1.3111278797223977,0.9757157636797633,0.28681794843990954,0.6913247527405778
0.052000000000000005,1.755772702867843,1.0,3060.5876879937023,0.4434961958615244,1.3108483779109694,0.976031368539438,0.2867954535204494,0.6918791006062472
0.0525,1.7552371095473638,1.0,3064.903095207986,0.4466177549861784,1.3105694670541137,0.9763388854766326,0.2867729586009893,0.6924317797631498
0.053,1.7547015162268846,1.0,3069.1549988528577,0.4497218016975676,1.3102911266018815,0.9766385940014896,0.2867504636815291,0.6929828340310431
0.0535,1.7541659229064055,1.0,3073.345659593067,0.452808433302858,1.3100133360043238,0.976930761498014,0.286727968762069,0.6935323070773923
0.054,1.7536303295859261,1.0,3077.477346699762,0.4558777471092157,1.3097360747114917,0.9772156438530984,0.2867054738426089,0.6940802424181035
0.0545,1.753094736265447,1.0,3081.552337804744,0.4589298404238067,1.3094593221734363,0.9774934860477714,0.28668297892314876,0.6946266834182313
0.055,1.7525591429449678,1.0,3085.572918664442,0.461964810553797,1.3091830578402082,0.9777645227132447,0.28666048400368865,0.6951716732926609
0.0555,1.7520235496244887,1.0,3089.541382931956,0.4649827548063528,1.3089072611618586,0.978028978654127,0.28663798908422855,0.6957152551067579
0.056,1.7514879563040096,1.0,3093.4600319399265,0.46798377048864004,1.3086319115884388,0.978287069341003,0.2866154941647684,0.6962574717769965
0.0565,1.7509523629835304,1.0,3097.3311744921803,0.47096795490782484,1.3083569885699993,0.978539001374407,0.2865929992453083,0.6967983660715604
0.057,1.7504167696630513,1.0,3101.155201849579,0.4739353837259526,1.308082487970592,0.9787849719421908,0.28657050432584813,0.6973379483604913
0.0575,1.7498811763425721,1.0,3104.932985557899,0.4768861445070352,1.3078084015814755,0.9790251710997091,0.286548009406388,0.6978762369765852
0.058,1.749345583022093,1.0,3108.6699351468774,0.4798203768223779,1.3075346825725067,0.9792597835860108,0.28652551448692787,0.6984133259407765
0.0585,1.7488099897016138,1.0,3112.3670273568464,0.48273816828817356,1.307261321967224,0.9794889844140371,0.28650301956746776,0.6989492347670725
0.059000000000000004,1.7482743963811347,1.0,3116.025242302836,0.48563960652061516,1.3069883107891658,0.9797129417090391,0.28648052464800766,0.6994839829043832
0.059500000000000004,1.7477388030606553,1.0,3119.645563404346,0.48852477913589565,1.30671564006187,0.9799318170335198,0.2864580297285475,0.7000175897367265
0.06,1.7472032097401762,1.0,3123.2289773169055,0.49139377375020793,1.306443300808875,0.9801457656943986,0.2864355348090874,0.7005500745834228
0.0605,1.746667616419697,1.0,3126.7764738647884,0.49424667797974503,1.3061712840537192,0.980354937033508,0.2864130398896273,0.7010814566992882
0.061,1.746132023099218,1.0,3130.2890459760765,0.4970835794406998,1.305899580819941,0.9805594747024406,0.28639054497016714,0.7016117552748228
0.0615,1.7455964297787387,1.0,3133.7676896197904,0.4999045657492652,1.3056281821310785,0.9807595169227122,0.28636805005070703,0.7021409894363915
0.062,1.7450608364582596,1.0,3137.2134037437877,0.5027097245216341,1.3053570790106697,0.980955196732119,0.28634555513124693,0.702669178246402
0.0625,1.7445252431377805,1.0,3140.6271902151498,0.5054991433739996,1.3050862624822535,0.981146642218131,0.2863230602117868,0.7031963407034744
0.063,1.7439896498173013,1.0,3144.010053762745,0.5082729099225545,1.3048157235693678,0.9813339767390898,0.28630056529232667,0.7037224957426108
0.0635,1.7434540564968222,1.0,3147.363001920449,0.5110311117834917,1.3045454532955507,0.9815173191339347,0.2862780703728665,0.7042476622353557
0.064,1.742918463176343,1.0,3150.6870449732783,0.5137738365730043,1.304275442684341,0.9816967839211327,0.2862555754534064,0.7047718589899499
0.0645,1.7423828698558639,1.0,3153.9831959043286,0.5165011719072852,1.3040056827592768,0.9818724814874448,0.28623308053394625,0.7052951047514859
0.065,1.7418472765353845,1.0,3157.2524703446206,0.5192132054025271,1.303736164543896,0.9820445182671156,0.28621058561448615,0.7058174182020513
0.0655,1.7413116832149054,1.0,3160.49588652354,0.5219100246749232,1.3034668790617374,0.9822129969120393,0.28618809069502604,0.7063388179608701
0.066,1.7407760898944262,1.0,3163.7144652216916,0.5245917173406663,1.303197817336339,0.9823780164534185,0.2861655957755659,0.7068593225844388
0.0665,1.740240496573947,1.0,3166.909229726045,0.5272583710159495,1.302928970391239,0.9825396724553972,0.2861431008561058,0.7073789505666577
0.067,1.739704903253468,1.0,3170.081205785406,0.5299100733169656,1.302660329249976,0.9826980571611214,0.2861206059366457,0.7078977203389543
0.0675,1.7391693099329888,1.0,3173.228801383074,0.5325468490453247,1.3023919070247167,0.9828532566687609,0.2860981110171855,0.7084156076720507
0.068,1.7386337166125096,1.0,3176.355332687792,0.5351688590470474,1.302123675447686,0.9830053608155721,0.2860756160977254,0.7089326681568282
0.0685,1.7380981232920305,1.0,3179.461224033422,0.5377761813231695,1.3018556306637623,0.9831544522932363,0.2860531211782653,0.7094489101931835
0.069,1.7375625299715514,1.0,3182.5468960844833,0.5403688937462687,1.3015877688582247,0.9833006110083257,0.28603062625880515,0.7099643420762694
0.0695,1.7370269366510722,1.0,3185.6127706103243,0.5429470741889227,1.3013200862163512,0.9834439142011338,0.28600813133934505,0.7104789720745239
0.07,1.736491343330593,1.0,3188.6592704696664,0.545510800523709,1.3010525789234206,0.9835844365528486,0.2859856364198849,0.7109928084297117
