Time [s],Phi [rad],STIM [ ],Fsee [N],Gamma [ ],Lcerel [ ],q [ ],Lmtc [m],fisomrel [ ]
0.0,1.8,1.0,17.967554783961642,2.6423800443840558e-05,1.3793397017856674,0.005000184665807391,0.288653,0.5411396385496202
0.0005,1.79999375,1.0,18.282393722930152,0.005635484892620244,1.379301760279974,0.012986173030191374,0.2886527375,0.5412314242618405
0.001,1.799975,1.0,21.636241840810452,0.011213083586910073,1.378936478325278,0.035694211576254915,0.28865195,0.5421146217934826
0.0015,1.79994375,1.0,31.11300857468304,0.01675939636336681,1.3780424757688756,0.07071889906239251,0.2886506375,0.544272597304015
0.002,1.7999,1.0,53.677810688030476,0.02227459871036363,1.3763619438979402,0.11485661600500224,0.2886488,0.5483153290349609
0.0025,1.79984375,1.0,97.28009997633423,0.027758865132276274,1.373927404450662,0.16472564744507306,0.28864643749999996,0.5541399751300735
0.003,1.7997750000000001,1.0,161.1684667798421,0.03321236915704471,1.3712064745981871,0.21743597791351912,0.28864354999999997,0.5606050804093925
0.0035,1.79969375,1.0,237.92127398621977,0.03863528333588605,1.3685774068098657,0.2707675742954571,0.2886401375,0.5668070637414374
0.004,1.7996,1.0,321.7201318718116,0.04402777925404539,1.366149383165059,0.3230655803227067,0.2886362,0.5724956288515521
0.0045000000000000005,1.7994937500000001,1.0,409.53027457275255,0.04939002753598921,1.3639166527206321,0.3731766875616232,0.2886317375,0.5776934626039887
0.005,1.799375,1.0,499.68147348686676,0.05472219783652721,1.3618526487846774,0.4203804817469457,0.28862675,0.582470218646406
0.0055,1.79924375,1.0,591.060896618885,0.06002445888763877,1.3599335511295751,0.4642968553569222,0.2886212375,0.5868872409797625
0.006,1.7991000000000001,1.0,682.7890204421535,0.06529697844326836,1.3581414907748333,0.5047931428872138,0.2886152,0.5909906651325894
0.006500000000000001,1.79894375,1.0,774.1324260923969,0.07053992306385007,1.3564629663586083,0.5419044429387703,0.2886086375,0.5948155408635896
0.007,1.798775,1.0,864.5592731867124,0.07575345951731086,1.3548859780584381,0.5757710166609684,0.28860155,0.5983926740354139
0.0075,1.79859375,1.0,953.5205685551372,0.08093775194889515,1.3534025135234118,0.6065955449352372,0.2885939375,0.6017431869749195
0.008,1.7984,1.0,1040.6163077626084,0.08609296428420352,1.3520048502113617,0.6346099837550853,0.2885858,0.6048870708790715
0.0085,1.79819375,1.0,1125.570923970248,0.09121926010498602,1.3506856078276703,0.6600551857472101,0.2885771375,0.607843126474928
0.009000000000000001,1.797975,1.0,1208.1315708526786,0.09631680151873162,1.3494388735289795,0.683168628993965,0.28856795,0.610626510417085
0.0095,1.79774375,1.0,1288.105059828334,0.1013857493891241,1.3482593072907236,0.7041761631849474,0.2885582375,0.6132508127722747
0.01,1.7975,1.0,1365.3897791194813,0.10642626500679325,1.3471415227153014,0.7232875497880356,0.288548,0.6157294745118045
0.0105,1.79724375,1.0,1439.8893690286488,0.1114385074738869,1.346081069504872,0.7406951846474571,0.2885372375,0.6180736394463138
0.011,1.796975,1.0,1511.5368164252175,0.11642263480819863,1.345073932276943,0.7565734770002834,0.28852595000000003,0.6202933075986219
0.0115,1.79669375,1.0,1580.3185179952234,0.12137880489316695,1.3441161236243278,0.771079219508017,0.2885141375,0.6223982572122653
0.012,1.7964,1.0,1646.2535836717154,0.1263071749437286,1.343203864174778,0.784352759116929,0.28850180000000003,0.6243976645902438
0.0125,1.79609375,1.0,1709.3689455428726,0.13120790127976786,1.342333795291193,0.7965194083858016,0.2884889375,0.6262996575303815
0.013000000000000001,1.7957750000000001,1.0,1769.6858060181994,0.1360811381005018,1.3415030492052809,0.8076908611170764,0.28847555,0.6281111842585955
0.0135,1.79544375,1.0,1827.2568749084667,0.1409270396051473,1.3407087581487513,0.8179663823717158,0.2884616375,0.6298391011503051
0.014,1.7951000000000001,1.0,1882.1418534897944,0.14574575895438344,1.339948292408517,0.8274342430988101,0.2884472,0.6314896635476193
0.0145,1.79474375,1.0,1934.439457373863,0.15053745025329365,1.3392188704483654,0.8361728147586474,0.2884322375,0.6330693811598695
0.015,1.794375,1.0,1984.2087312709966,0.15530226410362497,1.3385183836293906,0.844251991075146,0.28841675,0.6345832396203596
0.0155,1.79399375,1.0,2031.5165316601447,0.16004035055995652,1.3378448335250646,0.8517339828574156,0.2884007375,0.6360359325906295
0.016,1.7936,1.0,2076.4459595980393,0.1647518596768675,1.3371962217088598,0.8586741887850589,0.2883842,0.6374321047999665
0.0165,1.7931937500000001,1.0,2119.0830054110284,0.16943694059351794,1.3365706730921307,0.8651220394225765,0.2883671375,0.638776090606856
0.017,1.792775,1.0,2159.525830903182,0.17409574293086097,1.3359663218701325,0.8711216706658056,0.28834955,0.640072163804383
0.0175,1.7923437500000001,1.0,2197.8510066701892,0.17872841344521642,1.3353816414184205,0.8767126385865985,0.2883314375,0.6413238348197896
0.018000000000000002,1.7919,1.0,2234.1327235742424,0.18333509785974317,1.3348152266634181,0.8819303952026285,0.2883128,0.6425343239614922
0.0185,1.79144375,1.0,2268.453689545259,0.18791594189760008,1.3342656725315494,0.8868067350817942,0.2882936375,0.6437068245122162
0.019,1.790975,1.0,2300.8975487711223,0.19247109042475613,1.3337316418420662,0.8913702353265736,0.28827395,0.6448443598003791
0.0195,1.79049375,1.0,2331.553320937072,0.19700068886713404,1.3332118127283346,0.8956466123048861,0.2882537375,0.6459498975073256
0.02,1.79,1.0,2360.5006423223135,0.20150488104137995,1.3327050164837133,0.8996590768580325,0.288233,0.6470260586944262
0.0205,1.78949375,1.0,2387.80392009233,0.20598380807884495,1.3322102845103896,0.903428623741557,0.2882117375,0.6480750218926212
0.021,1.788975,1.0,2413.5320114646497,0.2104376111108801,1.3317266482105505,0.9069742333683645,0.28818995000000003,0.6490989504687298
0.021500000000000002,1.78844375,1.0,2437.7578537940035,0.21486643126883645,1.3312531389863829,0.91031309270022,0.2881676375,0.6500999933407785
0.022,1.7879,1.0,2460.5523115124333,0.21927040844541426,1.3307888438041646,0.9134608001054386,0.2881448,0.6510801684142347
0.0225,1.78734375,1.0,2481.9880977778566,0.22364968350411824,1.3303328634805787,0.9164315278725029,0.28812143749999997,0.6520414518645452
0.023,1.786775,1.0,2502.1321580337813,0.22800439614055998,1.3298843819429007,0.9192381845828945,0.28809755,0.6529856331318572
0.0235,1.78619375,1.0,2521.0379430979424,0.23233468242645863,1.3294427351991864,0.9218925576132097,0.28807313749999996,0.6539141716341796
0.024,1.7856,1.0,2538.7610324080383,0.23664067843353329,1.3290072592574917,0.9244054015660077,0.2880482,0.6548285183541889
0.0245,1.78499375,1.0,2555.358955182766,0.2409225202335031,1.3285772901258726,0.9267865429824966,0.2880227375,0.6557301161145987
0.025,1.784375,1.0,2570.8910213584495,0.24518034389808718,1.3281521638123845,0.9290449731698557,0.28799675,0.6566203998254143
0.025500000000000002,1.78374375,1.0,2585.4071472051282,0.2494142827834229,1.3277313192002875,0.931188946575738,0.2879702375,0.6575005816812476
0.026000000000000002,1.7831000000000001,1.0,2598.967008428283,0.25362447438464136,1.3273141168982634,0.9332260256360676,0.2879432,0.6583720308645089
0.0265,1.78244375,1.0,2611.6205419209623,0.2578110526476747,1.326900020261747,0.9351631727826182,0.2879156375,0.6592358952578745
0.027,1.781775,1.0,2623.4065641876587,0.2619741480202277,1.3264886058660574,0.937006808528883,0.28788755,0.6600930811212953
0.0275,1.7810937500000001,1.0,2634.364779825789,0.2661138909500053,1.326079450286514,0.9387628460305758,0.2878589375,0.6609444901174898
0.028,1.7804,1.0,2644.5357053357607,0.27023041188471225,1.325672130098436,0.9404367378862473,0.2878298,0.6617910193786588
0.0285,1.77969375,1.0,2653.960596906652,0.27432384127205334,1.325266221877142,0.9420335180543066,0.2878001375,0.662633561561766
0.029,1.778975,1.0,2662.6813821761793,0.2783943095597335,1.3248613021979514,0.9435578394491254,0.28776995,0.663473004892383
0.029500000000000002,1.7782437500000001,1.0,2670.7321484467207,0.28244194370548875,1.3244570252610883,0.9450140170715493,0.2877392375,0.6643100725724664
0.03,1.7775,1.0,2678.155576552851,0.28646687594625614,1.324052970997149,0.9464060401245337,0.287708,0.6651456377165847
0.0305,1.77674375,1.0,2684.9862955371723,0.29046923444101425,1.3236487976586255,0.9477376170240355,0.2876762375,0.665980407443004
0.031,1.775975,1.0,2691.25134316927,0.2944491436766509,1.3232442366646675,0.949012198637393,0.28764395,0.6668149345123611
0.0315,1.7751937500000001,1.0,2696.978084179567,0.298406728140054,1.3228390194344242,0.9502329918221798,0.2876111375,0.6676497689114143
0.032,1.7744,1.0,2702.1941797510235,0.30234211231811126,1.3224328773870453,0.9514029796958632,0.2875778,0.6684854578441027
0.0325,1.77359375,1.0,2706.9275586112353,0.30625542069771067,1.3220255419416798,0.9525249399868048,0.2875439375,0.6693225457180085
0.033,1.772775,1.0,2711.2063897225235,0.31014677776574,1.3216167445174776,0.9536014616688078,0.28750955,0.6701615741262104
0.0335,1.7719437500000002,1.0,2715.058802472704,0.31401630771585043,1.3212062188493934,0.9546349602427361,0.2874746375,0.6710030770805983
0.034,1.7711000000000001,1.0,2718.5052966359194,0.3178641259897082,1.3207937698911392,0.9556276969202836,0.2874392,0.6718474400479301
0.0345,1.7702437500000001,1.0,2721.5797749541384,0.3216903681757629,1.3203790819544492,0.9565817770192835,0.2874032375,0.6726952928763531
0.035,1.7693750000000001,1.0,2724.299079841796,0.3254951521272918,1.3199619960312963,0.9574991822854805,0.28736675,0.6735469422693519
0.035500000000000004,1.76849375,1.0,2726.6801610909474,0.329278595697572,1.3195423531136532,0.9583817680320296,0.2873297375,0.674402693133257
0.036000000000000004,1.7676,1.0,2728.7400647036443,0.33304081673988084,1.3191199941934924,0.959231272656017,0.2872922,0.6752628485521219
0.0365,1.76669375,1.0,2730.495922284985,0.33678193310749543,1.318694760262787,0.9600493263348967,0.2872541375,0.6761277097609846
0.037,1.765775,1.0,2731.964940997004,0.3405020626536931,1.3182664923135092,0.9608374589819274,0.28721555,0.6769975761175222
0.0375,1.76484375,1.0,2733.164394072902,0.344201323231751,1.3178350313376324,0.961597107531307,0.2871764375,0.6778727450720863
0.038,1.7639,1.0,2734.11161189159,0.3478798326949464,1.3174002183271287,0.962329622616277,0.28713679999999997,0.6787535121361321
0.0385,1.76294375,1.0,2734.8239736136984,0.3515377088965564,1.316961894273971,0.9630362746968901,0.28709663750000003,0.679640170849031
0.039,1.761975,1.0,2735.309660593645,0.35517505840613534,1.3165199840578794,0.9637182652557577,0.28705595,0.6805328434056115
0.0395,1.7609937500000001,1.0,2735.587704629278,0.35879200484690943,1.3160743143308986,0.9643767204115741,0.2870147375,0.6814318489166209
0.04,1.76,1.0,2735.678743394332,0.36238867351073495,1.3156246974284924,0.9650127006818999,0.286973,0.6823375330777188
0.0405,1.7589937500000001,1.0,2735.591552509599,0.36596517431949754,1.3151710535876195,0.9656272131310264,0.2869307375,0.6832500222591513
0.041,1.757975,1.0,2735.3349250403257,0.3695216171950829,1.3147133030452383,0.9662212083501616,0.28688795,0.6841694416019006
0.0415,1.75694375,1.0,2734.9176687045397,0.3730581120593768,1.3142513660383073,0.9667955842088028,0.2868446375,0.6850959149969956
0.042,1.7559,1.0,2734.348603223162,0.3765747688342648,1.313785162803785,0.9673511893195323,0.28680079999999997,0.6860295650644199
0.0425,1.75484375,1.0,2733.636557811007,0.3800716974416327,1.3133146135786302,0.9678888262408366,0.2867564375,0.6869705131316124
0.043000000000000003,1.753775,1.0,2732.79036880819,0.3835490078033662,1.312839638599801,0.9684092544402366,0.28671155,0.6879188792115624
0.043500000000000004,1.75269375,1.0,2731.8188774537407,0.387006809841351,1.312360158104256,0.968913193037911,0.28666613750000003,0.6888747819804979
0.044,1.7516,1.0,2730.730927799087,0.3904452134774727,1.3118760923289539,0.9694013233491069,0.2866202,0.6898383387551716
0.0445,1.75049375,1.0,2729.535364763627,0.39386432863361714,1.3113873615108531,0.9698742912419563,0.2865737375,0.6908096654697362
0.045,1.7493750000000001,1.0,2728.2410323306913,0.3972642652316699,1.3108938858869121,0.970332709325793,0.28652675,0.6917888766522183
0.0455,1.74824375,1.0,2726.8567718846325,0.4006451331935168,1.3103955856940894,0.9707771589836922,0.2864792375,0.6927760854005842
0.046,1.7471,1.0,2725.385720281025,0.40400702555321616,1.3098924330229695,0.971208193796461,0.2864312,0.6937713008772459
0.0465,1.7459437500000001,1.0,2723.8394625604637,0.40735006853235234,1.3093843231023208,0.9716263385858414,0.28638263750000004,0.6947746830947665
0.047,1.744775,1.0,2722.223315768612,0.4106743676707569,1.3088712081234894,0.9720320935366263,0.28633355,0.6957862780367859
0.0475,1.74359375,1.0,2720.5414877943113,0.41398002484111185,1.3083530503455432,0.9724259345910374,0.28628393750000003,0.6968061107863486
0.048,1.7424,1.0,2718.7981839190666,0.41726714191609915,1.307829812027549,0.97280831462888,0.2862338,0.6978342054435069
0.0485,1.74119375,1.0,2716.997606329517,0.4205358207684008,1.307301455428575,0.9731796647955969,0.2861831375,0.6988705851131365
0.049,1.739975,1.0,2715.143953660015,0.4237861632706987,1.3067679428076886,0.9735403957420178,0.28613195,0.6999152718926618
0.0495,1.73874375,1.0,2713.241420568092,0.4270182712956749,1.3062292364239572,0.9738908987824276,0.2860802375,0.7009682868596944
0.05,1.7375,1.0,2711.294197340753,0.43023224671601135,1.3056852985364484,0.9742315469770294,0.286028,0.702029650059574
0.0505,1.73624375,1.0,2709.3064695324197,0.43342819140439,1.30513609140423,0.9745626961443792,0.2859752375,0.7030993804928233
0.051000000000000004,1.734975,1.0,2707.282417634909,0.4366062072334928,1.3045815772863694,0.9748846858089045,0.28592195,0.7041774961025109
0.051500000000000004,1.73369375,1.0,2705.226216778306,0.4397663960760018,1.304021718441934,0.9751978400882119,0.2858681375,0.7052640137615223
0.052000000000000005,1.7324,1.0,2703.142036463944,0.44290885980459893,1.303456477129992,0.9755024685245057,0.2858138,0.7063589492597407
0.0525,1.73109375,1.0,2701.032291813917,0.44603369827697775,1.302885831586483,0.975798867661423,0.28575893750000003,0.7074622864290964
0.053,1.729775,1.0,2698.8983870741563,0.44914101016463265,1.3023097692575194,0.9760873214010053,0.28570355000000003,0.708573990470234
0.0535,1.72844375,1.0,2696.7446115489292,0.45223089467897915,1.3017282511897699,0.9763680996458193,0.2856476375,0.709694076638913
0.054,1.7271,1.0,2694.5731922773666,0.4553034479839109,1.3011412572364875,0.9766414614355884,0.2855912,0.7108225229273841
0.0545,1.7257437500000001,1.0,2692.386352956471,0.4583587662433215,1.3005487672509255,0.976907654677799,0.2855342375,0.7119593064539191
0.055,1.724375,1.0,2690.186313870198,0.46139694562110456,1.2999507610863363,0.9771669167170421,0.28547675,0.713104403455764
0.0555,1.72299375,1.0,2687.9752918273102,0.4644180822811536,1.299347218595973,0.9774194748706356,0.2854187375,0.7142577892820625
0.056,1.7216,1.0,2685.7555001080977,0.4674222723873622,1.2987381196330883,0.9776655469327835,0.2853602,0.7154194383867558
0.0565,1.72019375,1.0,2683.527310428725,0.47040961199129916,1.2981234609000802,0.9779053426165035,0.28530113749999997,0.7165892922862191
0.057,1.718775,1.0,2681.292855548309,0.4733801953527742,1.2975032229438521,0.9781390619065999,0.28524155,0.7177673225064434
0.0575,1.71734375,1.0,2679.0543413924197,0.47633411605022735,1.2968773856079139,0.9783668965194002,0.2851814375,0.7189535010032206
0.058,1.7159,1.0,2676.8165461033304,0.4792714676071103,1.2962459050928166,0.9785890290690097,0.2851208,0.7201478434813071
0.0585,1.71444375,1.0,2674.577756927381,0.48219234293823154,1.2956087971283625,0.9788056380976566,0.2850596375,0.7213502521056205
0.059000000000000004,1.7129750000000001,1.0,2672.338106138521,0.4850968344577942,1.2949660605216835,0.9790168940586311,0.28499795,0.7225606605239749
0.059500000000000004,1.711496503800453,1.0,2670.2304181026325,0.4879850341037702,1.2943177182813002,0.9792229619546493,0.284935853159619,0.7237789563319172
0.06,1.7100173010898492,1.0,2668.669165409455,0.49085703290330374,1.2936640411781364,0.9794240136938823,0.28487372664577365,0.7250045628792278
0.0605,1.7085380983792453,1.0,2667.642657196406,0.4937129224542299,1.2930054513703086,0.9796202227354797,0.2848116001319283,0.7262366245767911
0.061,1.7070588956686414,1.0,2667.1080267260177,0.4965527930113303,1.2923423401942074,0.9798117541787864,0.28474947361808295,0.7274743499036171
0.0615,1.7055796929580376,1.0,2667.028429918867,0.4993767338861457,1.2916750450875694,0.9799987639689066,0.2846873471042376,0.7287170538047334
0.062,1.7041004902474337,1.0,2667.3671478340725,0.5021848343902166,1.291003903488131,0.9801814022141383,0.2846252205903922,0.7299640566156584
0.0625,1.7026212875368298,1.0,2668.0942518747893,0.5049771819013463,1.290329191280019,0.9803598101130121,0.28456309407654684,0.7312147981208232
0.063,1.701142084826226,1.0,2669.1706904515513,0.5077538669056053,1.2896512688745725,0.9805341282592261,0.2845009675627015,0.7324685664520094
0.0635,1.699662882115622,1.0,2670.560522147762,0.5105149795558989,1.2889704684915975,0.9807044906702861,0.28443884104885614,0.7337247077160289
0.064,1.6981836794050182,1.0,2672.243336090007,0.5132606055387017,1.2882869798811636,0.9808710189858325,0.2843767145350108,0.7349828355580281
0.0645,1.6967044766944144,1.0,2674.1987457945434,0.5159908305404882,1.287600992793341,0.9810338304807587,0.2843145880211654,0.7362425667866219
0.065,1.6952252739838105,1.0,2676.406378257341,0.5187057402477332,1.2869126969781997,0.9811930382586344,0.28425246150732003,0.73750352140528
0.0655,1.6937460712732069,1.0,2678.84586384166,0.521405420346911,1.2862222821858091,0.9813487514352658,0.2841903349934747,0.7387653226414128
0.066,1.692266868562603,1.0,2681.4968269645656,0.5240899565244963,1.2855299381662397,0.9815010753129519,0.28412820847962933,0.7400275969731611
0.0665,1.6907876658519991,1.0,2684.338877581178,0.5267594344669637,1.2848358546695613,0.9816501115459725,0.284066081965784,0.7412899741538921
0.067,1.6893084631413953,1.0,2687.3568702863845,0.5294139370231274,1.2841401731985125,0.9817959557706827,0.2840039554519386,0.7425521746642836
0.0675,1.6878292604307914,1.0,2690.532281931897,0.5320535507519111,1.2834430660271277,0.9819387020850179,0.2839418289380932,0.743813865819966
0.068,1.6863500577201875,1.0,2693.8481575142937,0.5346783614229333,1.2827446908093378,0.9820784406566281,0.28387970242424787,0.7450747443212116
0.0685,1.6848708550095837,1.0,2697.2951038444,0.5372884503079146,1.2820451357742957,0.9822152550472667,0.2838175759104025,0.7463346345218722
0.069,1.6833916522989798,1.0,2700.8637128006408,0.5398838986785751,1.2813444891511536,0.982349226026338,0.28375544939655717,0.74759336232231
0.0695,1.681912449588376,1.0,2704.5445591076027,0.5424647878066351,1.2806428391690645,0.982480431685621,0.28369332288271176,0.7488507551757864
0.07,1.680433246877772,1.0,2708.328198287224,0.5450311989638148,1.2799402740571806,0.9826089475485518,0.2836311963688664,0.7501066420943578
0.07050000000000001,1.6789540441671682,1.0,2712.205164781724,0.5475832134218346,1.2792368820446547,0.9827348466743532,0.28356906985502106,0.7513608536542717
0.07100000000000001,1.6774748414565643,1.0,2716.165970250237,0.5501209124524147,1.2785327513606397,0.9828581997572939,0.2835069433411757,0.7526132220008676
0.07150000000000001,1.6759956387459605,1.0,2720.2011020375153,0.5526443773272754,1.2778279702342878,0.9829790752213284,0.28344481682733036,0.7538635808529837
0.07200000000000001,1.6745164360353568,1.0,2724.3080746735245,0.5551536806135399,1.277122562725833,0.9830975358893184,0.28338269031348495,0.7551118789166671
0.0725,1.673037233324753,1.0,2728.472866991987,0.5576489127346895,1.2764166577220837,0.9832136483502474,0.2833205637996396,0.7563578805285474
0.073,1.671558030614149,1.0,2732.6889580950756,0.5601301537639932,1.2757103155995404,0.983327473445911,0.28325843728579425,0.7576014728061283
0.0735,1.6700788279035452,1.0,2736.952667598993,0.5625974799166763,1.2750035707771177,0.9834390687430569,0.2831963107719489,0.7588425894765142
