Time [s],Phi [rad],STIM [ ],Fsee [N],Gamma [ ],Lcerel [ ],q [ ],Lmtc [m],fisomrel [ ]
0.0,1.8,1.0,17.96788712543173,4.146697471795795e-05,1.3793396645528917,0.005000453164736261,0.288653,0.5411397286253177
0.0005,1.79999375,1.0,18.287794499313346,0.005650443686588093,1.3793011604958374,0.013028104920863988,0.2886527375,0.5412328751483131
0.001,1.799975,1.0,21.652865905019176,0.011227958473871098,1.378934781448625,0.035772740357696224,0.28865195,0.5421187226035804
0.0015,1.79994375,1.0,31.153504263661073,0.016774187813979564,1.3780390292241471,0.07082630902338442,0.2886506375,0.5442809068343892
0.002,1.7999,1.0,53.765929189685494,0.02228930719262097,1.3763562346492892,0.11498377091620733,0.2886488,0.5483290326550037
0.0025,1.79984375,1.0,97.4287661267517,0.027773491111587348,1.3739202492529343,0.16486394984781355,0.28864643749999996,0.5541570382609167
0.003,1.7997750000000001,1.0,161.36219910938834,0.03322691309617426,1.3711992299218192,0.21757863950140693,0.28864354999999997,0.5606222312035982
0.0035,1.79969375,1.0,238.14033231917065,0.03864974569500728,1.3685706641603292,0.2709094556938313,0.2886401375,0.5668229130115237
0.004,1.7996,1.0,321.95328833532596,0.04404216049076181,1.3661432112910132,0.32320295256118703,0.2886362,0.5725100408976544
0.0045000000000000005,1.7994937500000001,1.0,409.7717802291308,0.04940432810536542,1.3639109863149337,0.37330708455962036,0.2886317375,0.5777066136457021
0.005,1.799375,1.0,499.9279593180208,0.05473641819122651,1.3618474130314882,0.42050247404546165,0.28862675,0.5824823012832259
0.0055,1.79924375,1.0,591.3095836892224,0.06003859947706521,1.3599286940100004,0.4644097990906309,0.2886212375,0.586898390396223
0.006,1.7991000000000001,1.0,683.0380676471348,0.06531103971507679,1.3581369650703847,0.5048969352153926,0.2886152,0.591001002073259
0.006500000000000001,1.79894375,1.0,774.399087272049,0.07055390571582137,1.3564584154077122,0.5419991368821382,0.2886086375,0.5948258867507108
0.007,1.798775,1.0,864.8020108863047,0.0757673634460055,1.354882057962076,0.5758575184793209,0.28860155,0.5984015463539598
0.0075,1.79859375,1.0,953.7445404839232,0.08095157765891775,1.3533990693069773,0.6066743561371041,0.2885939375,0.6017509496586808
0.008,1.7984,1.0,1040.853732441153,0.08610671270713494,1.3520013552437684,0.6346814349590807,0.2885858,0.6048949167938469
0.0085,1.79819375,1.0,1125.8054304915968,0.09123293146137186,1.3506822886289787,0.6601200707288557,0.2885771375,0.6078505498786406
0.009000000000000001,1.797975,1.0,1208.352336822352,0.09633039597718884,1.3494358574510972,0.6832276492284602,0.28856795,0.6106332319114047
0.0095,1.79774375,1.0,1288.331583591836,0.10139926807413398,1.3482563101549936,0.7042297548138636,0.2885582375,0.6132574695064698
0.01,1.7975,1.0,1365.604321932389,0.10643970778547338,1.3471387655934157,0.7233363764169536,0.288548,0.6157355785149221
0.0105,1.79724375,1.0,1440.079790546445,0.11145187438555479,1.34607868650247,0.740739804568928,0.2885372375,0.6180788990711896
0.011,1.796975,1.0,1511.7152515599062,0.11643592651855847,1.345071752833669,0.7566142481356516,0.28852595000000003,0.6202981039422806
0.0115,1.79669375,1.0,1580.5059969746903,0.1213920226896777,1.3441138841052604,0.7711164225751052,0.2885141375,0.6224031720854317
0.012,1.7964,1.0,1646.436875999809,0.12632031888279155,1.3432017189578724,0.7843868269203326,0.28850180000000003,0.624402360026663
0.0125,1.79609375,1.0,1709.5301073279925,0.13122097090069618,1.3423319442277397,0.7965507438013428,0.2884889375,0.6263036988560451
0.013000000000000001,1.7957750000000001,1.0,1769.8255981063842,0.1360941337615416,1.341501471182348,0.8077197340184676,0.28847555,0.6281146211106247
0.0135,1.79544375,1.0,1827.4011923688972,0.14093996296039943,1.3407071549111917,0.8179929274798372,0.2884616375,0.6298425847969427
0.014,1.7951000000000001,1.0,1882.3040562275874,0.14575861100040005,1.3399465169520601,0.8274586357835553,0.2884472,0.6314935127938862
0.0145,1.79474375,1.0,1934.5908149297163,0.15055022972863857,1.3392172362475678,0.8361953719674464,0.2884322375,0.6330729165579139
0.015,1.794375,1.0,1984.3392936534194,0.15531497099221014,1.3385169917403283,0.8442729234591487,0.28841675,0.6345862445888982
0.0155,1.79399375,1.0,2031.6285893758675,0.16005298554163194,1.3378436528973492,0.8517534351480096,0.2884007375,0.6360384763934166
0.016,1.7936,1.0,2076.5623324973158,0.16476442462845345,1.3371950089545372,0.8586922242253252,0.2883842,0.6374347128065994
0.0165,1.7931937500000001,1.0,2119.2086897595395,0.1694494362634551,1.3365693765454654,0.8651387715970792,0.2883671375,0.638778873634556
0.017,1.792775,1.0,2159.643137249751,0.1741081681517069,1.3359651231334702,0.8711372672578959,0.28834955,0.6400747322637508
0.0175,1.7923437500000001,1.0,2197.9522207237796,0.178740767998279,1.335380616181889,0.8767272207882707,0.2883314375,0.6413260277087258
0.018000000000000002,1.7919,1.0,2234.2157154920314,0.18334738207814816,1.3348143928581007,0.881944056426016,0.2883128,0.6425361043847622
0.0185,1.79144375,1.0,2268.539343634357,0.1879281581063902,1.3342648185147368,0.8868195008407659,0.2882936375,0.6437086450998408
0.019,1.790975,1.0,2300.992007273017,0.19248323976896953,1.3337307067048665,0.8913821656446714,0.28827395,0.6448463501347907
0.0195,1.79049375,1.0,2331.645394480808,0.1970127704353505,1.333210907214118,0.8956578013949844,0.2882537375,0.645951821790639
0.02,1.79,1.0,2360.577032675835,0.20151689347499743,1.3327042698281197,0.8996696137237815,0.288233,0.6470276429787554
0.0205,1.78949375,1.0,2387.8639626790837,0.20599575137292297,1.3322097010052152,0.9034385613468564,0.2882117375,0.6480762581569692
0.021,1.788975,1.0,2413.587814191658,0.21044948710661446,1.331726108807052,0.9069835937778398,0.28818995000000003,0.6491000916317982
0.021500000000000002,1.78844375,1.0,2437.822229745146,0.2148782421786071,1.3312525198121317,0.9103218951104052,0.2881676375,0.650101301397045
0.022,1.7879,1.0,2460.626355205434,0.21928215530021686,1.3307881349516553,0.9134690847245209,0.2881448,0.6510816638239971
0.0225,1.78734375,1.0,2482.0624078232263,0.22366136518275978,1.3303321551568241,0.9164393499385645,0.28812143749999997,0.6520429440990048
0.023,1.786775,1.0,2502.195420233911,0.2280160105375518,1.3298837813588393,0.9192455971318243,0.28809755,0.6529868966721731
0.0235,1.78619375,1.0,2521.0875626457782,0.2323462290666455,1.329442265901566,0.9218995942446675,0.28807313749999996,0.653915157645542
0.024,1.7856,1.0,2538.801552443121,0.2366521584739804,1.329006877361987,0.9244120815372231,0.2880482,0.6548293196700079
0.0245,1.78499375,1.0,2555.4076612289887,0.2409339374476623,1.3285768325720078,0.9267928640589109,0.2880227375,0.6557310749264884
0.025,1.784375,1.0,2570.950989591314,0.24519169952975334,1.3281516021643245,0.9290509552030163,0.28799675,0.656621575245494
0.025500000000000002,1.78374375,1.0,2585.4780754449694,0.24942557826231557,1.3277306567716343,0.9311946132116973,0.2879702375,0.6575019662373509
0.026000000000000002,1.7831000000000001,1.0,2599.036774375975,0.25363570718741113,1.3273134670266336,0.9332314146970944,0.2879432,0.6583733874458064
0.0265,1.78244375,1.0,2611.676146198747,0.2578222198471021,1.326899503562019,0.935168320108058,0.2879156375,0.6592369724837548
0.027,1.781775,1.0,2623.445599876247,0.26198524946777324,1.3264882439442043,0.9370117330470162,0.28788755,0.6600938347137428
0.0275,1.7810937500000001,1.0,2634.3880181510904,0.26612492618278355,1.3260792352791713,0.9387675605864194,0.2878589375,0.6609449372441035
0.028,1.7804,1.0,2644.556938566129,0.2702413859038272,1.3256719340208913,0.9404412388509519,0.2878298,0.6617914266297583
0.0285,1.77969375,1.0,2653.9863130028334,0.27433475666738455,1.3252659848248645,0.9420378107974497,0.2878001375,0.6626340533032877
0.029,1.778975,1.0,2662.710704476083,0.27840516650993613,1.3248610323465906,0.9435619375299863,0.28776995,0.6634735639754701
0.029500000000000002,1.7782437500000001,1.0,2670.765233405678,0.2824527434679624,1.32445672124157,0.9450179321436447,0.2877392375,0.6643107016618944
0.03,1.7775,1.0,2678.1855266884245,0.28647761557794377,1.3240526961653027,0.946409790164435,0.287708,0.6651462057015243
0.0305,1.77674375,1.0,2685.0076695689227,0.2904799108763608,1.323648601773289,0.9477412169647362,0.2876762375,0.6659808117672037
0.031,1.775975,1.0,2691.2599168245583,0.2944597533941334,1.323244158181609,0.949015660817406,0.28764395,0.6668150963056854
0.0315,1.7751937500000001,1.0,2696.97614320489,0.29841727179124045,1.3228390371832084,0.9502363216407919,0.2876111375,0.6676497323680453
0.032,1.7744,1.0,2702.196310728382,0.30235259731875425,1.3224328579196498,0.9514061705059275,0.2875778,0.6684854978755324
0.0325,1.77359375,1.0,2706.942161036207,0.30626585154704805,1.322025408659079,0.9525279913960039,0.2875439375,0.6693228194450037
0.033,1.772775,1.0,2711.235648674626,0.31015715604649535,1.321616477669642,0.9536043790608589,0.28750955,0.6701621214648363
0.0335,1.7719437500000002,1.0,2715.098921053392,0.3140266323874695,1.3212058532194848,0.9546377541542596,0.2874746375,0.6710038260763482
0.034,1.7711000000000001,1.0,2718.554299397552,0.31787440214034385,1.3207933235767535,0.9556303769887553,0.2874392,0.6718483531523607
0.0345,1.7702437500000001,1.0,2721.6242606939027,0.32170058687549186,1.3203786770095938,0.9565843600489643,0.2874032375,0.672696120272903
0.035,1.7693750000000001,1.0,2724.331420630511,0.3255053081632868,1.319961701786152,0.9575016793884243,0.28736675,0.6735475426980534
0.035500000000000004,1.76849375,1.0,2726.698517531276,0.32928868757410223,1.3195421861745738,0.9583841850213004,0.2873297375,0.6744030333379274
0.036000000000000004,1.7676,1.0,2728.7471230354686,0.33305084522100353,1.3191199300270315,0.9592336112666738,0.2872922,0.6752629791439493
0.0365,1.76669375,1.0,2730.4940822676394,0.3367918964830664,1.3186947769848019,0.9600515878823936,0.2872541375,0.6761276757736205
0.037,1.765775,1.0,2731.9647784278095,0.34051196959291324,1.3182664937905353,0.9608396395821075,0.28721555,0.6769975731195127
0.0375,1.76484375,1.0,2733.1721888186717,0.3442111792990931,1.3178349605339006,0.9615992065933721,0.2871764375,0.677872888591881
0.038,1.7639,1.0,2734.1293418689006,0.3478896403501554,1.317400057304566,0.9623316426381072,0.28713679999999997,0.6787538380837314
0.0385,1.76294375,1.0,2734.84931092499,0.3515474674946492,1.3169616641922006,0.9630382210752716,0.28709663750000003,0.6796406359455059
0.039,1.761975,1.0,2735.3452083617135,0.3551847754811238,1.3165196612864725,0.9637201405430089,0.28705595,0.6805334949588544
0.0395,1.7609937500000001,1.0,2735.6301800118154,0.35880167905812843,1.3160739286770502,0.9643785301460123,0.2870147375,0.6814326263094865
0.04,1.76,1.0,2735.7173999139563,0.36239829297421233,1.3156243464536024,0.965014454229252,0.286973,0.6823382395591084
0.0405,1.7589937500000001,1.0,2735.620065379789,0.3659747319779247,1.3151707947057978,0.9656289167750903,0.2869307375,0.6832505426164409
0.041,1.757975,1.0,2735.3513923796913,0.3695311108178148,1.3147131535233048,0.9662228654571632,0.28688795,0.684169741707324
0.0415,1.75694375,1.0,2734.917041697119,0.3730675265671513,1.3142513717319204,0.9667971982132042,0.2868446375,0.6850959035861173
0.042,1.7559,1.0,2734.337670860746,0.37658411468616987,1.3137852620867854,0.9673527587960828,0.28680079999999997,0.6860293663811461
0.0425,1.75484375,1.0,2733.622124358782,0.3800809863747364,1.31331474467413,0.9678903499607304,0.2867564375,0.6869702511791604
0.043000000000000003,1.753775,1.0,2732.7774564878973,0.3835582487025747,1.3128397558973728,0.9684107320250868,0.28671155,0.6879186451851793
0.043500000000000004,1.75269375,1.0,2731.8107267219852,0.3870160087394082,1.312360232159932,0.9689146249274101,0.28666613750000003,0.6888746344546985
0.044,1.7516,1.0,2730.728998101446,0.39045437355496054,1.3118761098652254,0.9694027107700586,0.2866202,0.6898383038754269
0.0445,1.75049375,1.0,2729.539335712935,0.3938734502189553,1.3113873254166715,0.9698756361786727,0.2865737375,0.6908097371487626
0.045,1.7493750000000001,1.0,2728.2488052582535,0.3972733458011162,1.3108938152176883,0.970334014491844,0.28652675,0.6917890167710137
0.0455,1.74824375,1.0,2726.864471713182,0.4006541673711666,1.310395515671694,0.9707784277949923,0.2864792375,0.6927762240143596
0.046,1.7471,1.0,2725.393398076017,0.4040160219988303,1.3098923631821067,0.9712094288109377,0.2864312,0.6937714389075551
0.0465,1.7459437500000001,1.0,2723.842644205449,0.4073590167538308,1.3093842941523444,0.9716275426585517,0.28638263750000004,0.6947747402163765
0.047,1.744775,1.0,2722.219265748413,0.4106832587058917,1.3088712449858255,0.9720332684898613,0.28633355,0.695786205423808
0.0475,1.74359375,1.0,2720.530313157943,0.4139888549247365,1.3083531520859681,0.9724270810150817,0.28628393750000003,0.6968059107099739
0.048,1.7424,1.0,2718.781757933342,0.4172759071914456,1.307829961627341,0.9728094319459782,0.2862338,0.6978339117490746
0.0485,1.74119375,1.0,2716.9752337680884,0.42054450562763734,1.3073016592544677,0.9731807526283652,0.2861831375,0.6988701856487596
0.049,1.739975,1.0,2715.1202122692785,0.42379478439866075,1.3067681591781908,0.9735414543687305,0.28613195,0.6999148485791589
0.0495,1.73874375,1.0,2713.2197279565107,0.4270268420093949,1.306229434191887,0.9738919287286255,0.2860802375,0.7009679006202704
0.05,1.7375,1.0,2711.276812396509,0.43024077696471924,1.3056854570889338,0.9742325490176844,0.286028,0.7020293409576838
0.0505,1.73624375,1.0,2709.2944939579575,0.43343668776951294,1.3051362006627083,0.9745636713053238,0.2859752375,0.703099167873493
0.051000000000000004,1.734975,1.0,2707.2757975824516,0.4366146729286553,1.304581637706588,0.9748856353676345,0.28592195,0.7041773787371581
0.051500000000000004,1.73369375,1.0,2705.2237445722894,0.43977483094702563,1.3040217410139496,0.9751987655741535,0.2858681375,0.7052639699963232
0.052000000000000005,1.7324,1.0,2703.141352394052,0.44291726032950324,1.3034564833781708,0.9755033717188326,0.2858138,0.7063589371675828
0.0525,1.73109375,1.0,2701.0316344992784,0.44604205958096727,1.3028858375926284,0.9757997497991656,0.28575893750000003,0.7074622748272064
0.053,1.729775,1.0,2698.897600160936,0.4491493272062972,1.3023097764507001,0.9760881827471378,0.28570355000000003,0.7085739766018104
0.0535,1.72844375,1.0,2696.7422543270486,0.45223916171037215,1.3017282727457626,0.9763689411153579,0.2856476375,0.7096940351589882
0.054,1.7271,1.0,2694.5685974897274,0.45531166159807146,1.3011412992711935,0.9766422837214855,0.2855912,0.7108224421978874
0.0545,1.7257437500000001,1.0,2692.37962557156,0.4583669253742745,1.30054882882037,0.976908458253818,0.2855342375,0.7119591884397449
0.055,1.724375,1.0,2690.1783298278515,0.46140505154386036,1.2999508341866688,0.9771677018406844,0.28547675,0.7131042636183722
0.0555,1.72299375,1.0,2687.9676967654445,0.46442613861170845,1.2993472881634676,0.9774202415860961,0.2854187375,0.7142576564705929
0.056,1.7216,1.0,2685.7402643887126,0.4674302832464599,1.2987382592434724,0.9776663005109599,0.2853602,0.7154191723985328
0.0565,1.7201938030265977,1.0,2683.518053840699,0.4704175783668271,1.2981235697041866,0.9779060777504134,0.2853011397271171,0.716589085417197
0.057,1.7187824544018375,1.0,2681.637956949282,0.4733881176810449,1.2975034246352903,0.9781397862869408,0.2852418630848772,0.7177669398286803
0.0575,1.7173711057770773,1.0,2680.312532316282,0.47634199437652763,1.2968781975344679,0.978367639956726,0.2851825864426373,0.7189519637394308
0.058,1.715959757152317,1.0,2679.500656402447,0.4792793016406896,1.2962482618994027,0.978589843980978,0.2851233098003973,0.720143390693823
0.0585,1.714548408527557,1.0,2679.1613859104273,0.48220013266094514,1.2956139912277784,0.9788065953927811,0.2850640331581574,0.721340459790762
0.059000000000000004,1.7131370599027969,1.0,2679.2573408079566,0.48510457978115507,1.2949757276363405,0.9790180816342385,0.28500475651591745,0.7225424748259295
0.059500000000000004,1.7117257112780366,1.0,2679.748264635936,0.4879927360813173,1.2943338406353335,0.9792244843710246,0.2849454798736775,0.7237486934210908
0.06,1.7103143626532764,1.0,2680.6033085943845,0.4908646926359569,1.2936886141693165,0.9794259734208564,0.2848862032314376,0.7249585392452371
0.0605,1.7089030140285162,1.0,2681.7958320324533,0.49372053954549294,1.2930402941329384,0.979622709949734,0.28482692658919767,0.7261715115257683
0.061,1.7074916654037562,1.0,2683.2992376116613,0.49656036691034466,1.2923891264208491,0.9798148489822879,0.28476764994695775,0.7273871133636884
0.0615,1.706080316778996,1.0,2685.086955110787,0.4993842648309312,1.2917353569276977,0.9800025396894714,0.2847083733047178,0.728604851780194
0.062,1.7046689681542357,1.0,2687.134937166104,0.5021923225782665,1.2910792085485767,0.9801859243920441,0.2846490966624779,0.7298242804551474
0.0625,1.7032576195294755,1.0,2689.4187664395936,0.5049846301600812,1.2904209075940192,0.9803651403645237,0.28458982002023797,0.7310449503579917
0.063,1.7018462709047153,1.0,2691.9196766332907,0.5077612756035499,1.2897606285700491,0.980540317017469,0.28453054337799805,0.732266511896333
0.0635,1.700434922279955,1.0,2694.6213360939923,0.5105223460243589,1.2890985236384702,0.9807115778303777,0.2844712667357581,0.7334886595346202
0.064,1.699023573655195,1.0,2697.5074032663074,0.513267928538194,1.288434744961087,0.9808790418128693,0.2844119900935182,0.7347110902399003
0.0645,1.6976122250304349,1.0,2700.5615207895403,0.5159981102607416,1.2877694446997026,0.9810428237032431,0.28435271345127827,0.7359335034988037
0.065,1.6962008764056746,1.0,2703.7742935540127,0.5187129735668717,1.2871027112379216,0.9812030306401718,0.28429343680903835,0.7371557181117174
0.0655,1.6947895277809144,1.0,2707.1235095237357,0.5214126105330542,1.2864347498607296,0.9813597724378713,0.2842341601667984,0.738377340791522
0.066,1.6933781791561542,1.0,2710.594465868801,0.5240971086678725,1.2857656969543412,0.9815131513750704,0.28417488352455844,0.7395981072837998
0.0665,1.6919668305313942,1.0,2714.1792019063337,0.5267665508394077,1.285095627178103,0.9816632628544728,0.28411560688231857,0.7408178678696558
0.067,1.690555481906634,1.0,2717.8697425374603,0.5294210199157412,1.2844246151913608,0.9818101989849214,0.2840563302400786,0.742036474085607
0.0675,1.6891441332818737,1.0,2721.6580966264546,0.5320605987649538,1.2837527356534608,0.9819540487202478,0.28399705359783867,0.7432537787282436
0.068,1.6877327846571135,1.0,2725.5362555022602,0.534685370255127,1.2830800632237491,0.9820948979913531,0.28393777695559874,0.7444696358585402
0.0685,1.6863214360323533,1.0,2729.4961915846047,0.5372954172543417,1.2824066725615717,0.9822328298318925,0.2838785003133588,0.7456839008058075
0.069,1.684910087407593,1.0,2733.529857133018,0.5398908226306792,1.2817326383262748,0.9823679244979188,0.2838192236711189,0.7468964301712897
0.0695,1.6834987387828328,1.0,2737.62918312012,0.5424716692522207,1.2810580351772043,0.9825002595818125,0.28375994702887897,0.7481070818314075
0.07,1.6820873901580728,1.0,2741.7860782277044,0.5450380399870473,1.2803829377737066,0.982629910120808,0.28370067038663904,0.7493157149406435
0.07050000000000001,1.6806760415333126,1.0,2745.999164861515,0.5475900073057871,1.2797073597235076,0.9827569452484305,0.2836413937443991,0.7505222988408939
0.07100000000000001,1.6792646929085524,1.0,2750.2566064901043,0.5501276646529071,1.2790314093150472,0.9828814374580809,0.2835821171021592,0.7517266346162583
0.07150000000000001,1.6778533442837922,1.0,2754.553003571672,0.5526510937035849,1.2783551362686774,0.9830034535406541,0.28352284045991927,0.7529286291863714
0.07200000000000001,1.676441995659032,1.0,2758.8854386447697,0.5551603718212456,1.2776785677159566,0.9831230568728853,0.28346356381767934,0.7541282303291292
0.0725,1.675030647034272,1.0,2763.2509854372342,0.557655576369314,1.2770017307884447,0.9832403088153425,0.2834042871754394,0.7553253862889222
0.073,1.6736192984095117,1.0,2767.6467086965245,0.5601367847112152,1.276324652617701,0.983355268790607,0.2833450105331995,0.7565200457771265
0.0735,1.6722079497847515,1.0,2772.0696640366987,0.5626040742103743,1.2756473603352843,0.9834679943579373,0.28328573389095957,0.7577121579725445
