Time [s],Phi [rad],STIM [ ],Fsee [N],Gamma [ ],Lcerel [ ],q [ ],Lmtc [m],fisomrel [ ]
0.0,1.8,1.0,19.88591132406762,0.0014147516087950809,1.379130233423731,0.005512459917949684,0.288653,0.5416462567093983
0.0005,1.79999375,1.0,20.588791553851074,0.007016025279820598,1.3790532101020538,0.01729512234434709,0.2886527375,0.5418324742070416
0.001,1.799975,1.0,24.98323589699587,0.01258588023461098,1.3786070552847105,0.043297966935417355,0.28865195,0.5429103880377557
0.0015,1.79994375,1.0,36.8876680853097,0.018124492706775467,1.3775717535547567,0.08088230594969378,0.2886506375,0.5454067950178128
0.002,1.7999,1.0,64.13615375365502,0.023632037942627245,1.375714211036985,0.12673649167117185,0.2886488,0.5498687232935454
0.0025,1.79984375,1.0,113.20409252954411,0.02910869020410127,1.3731897448811092,0.17755044524423885,0.28864643749999996,0.5558973670777188
0.003,1.7997750000000001,1.0,180.8696418798513,0.0345546227770248,1.3704907637667898,0.2306012350112938,0.28864354999999997,0.5622978123836121
0.0035,1.79969375,1.0,259.6367973276763,0.039970007974627776,1.3679234421667354,0.2838155767855741,0.2886401375,0.5683429231638422
0.004,1.7996,1.0,344.5114900993054,0.045355017142743696,1.3655562891783848,0.33566664357286796,0.2886362,0.5738794625067893
0.0045000000000000005,1.7994937500000001,1.0,432.9140260888418,0.05070982063815364,1.3633755399265162,0.3851156649477471,0.2886317375,0.578948395992069
0.005,1.799375,1.0,523.3892445571754,0.0560345879978569,1.3613548321196083,0.431534852405788,0.28862675,0.583618256708577
0.0055,1.79924375,1.0,614.8536490415586,0.06132948754616899,1.3594733900002693,0.4746140752587675,0.2886212375,0.5879428631432215
0.006,1.7991000000000001,1.0,706.506204907233,0.06659468694045713,1.357714140430359,0.5142683509933926,0.2886152,0.5919661790056423
0.006500000000000001,1.79894375,1.0,797.6411021179038,0.0718303526851273,1.3560647237655403,0.5505641038695084,0.2886086375,0.5957203842148262
0.007,1.798775,1.0,887.701604071955,0.07703665052134503,1.3545146826640948,0.583660849691123,0.28860155,0.5992325885700771
0.0075,1.79859375,1.0,976.217070287904,0.08221374517741117,1.3530555213529252,0.6137705365245634,0.2885939375,0.6025248687570606
0.008,1.7984,1.0,1062.8024001894132,0.0873618002053137,1.3516799676746603,0.641129107543476,0.2885858,0.6056160725011158
0.0085,1.79819375,1.0,1147.1825316165664,0.09248097898672131,1.3503811562732297,0.6659776471186178,0.2885771375,0.6085237414816154
0.009000000000000001,1.797975,1.0,1229.1209939691662,0.09757144329762403,1.3491533403132026,0.6885513354668175,0.28856795,0.6112625795539954
0.0095,1.79774375,1.0,1308.4414933503454,0.10263335385590876,1.3479912778866905,0.709072392129188,0.2885582375,0.6138458881211357
0.01,1.7975,1.0,1385.0318996752335,0.10766687086935652,1.3468899903494829,0.72774648570359,0.288548,0.6162861434800245
0.0105,1.79724375,1.0,1458.8348083003366,0.11267215446732003,1.3458447465393466,0.7447613682070362,0.2885372375,0.6185950615150992
0.011,1.796975,1.0,1529.7912008328408,0.11764936230660099,1.3448516320571655,0.7602870839380114,0.28852595000000003,0.6207823720264967
0.0115,1.79669375,1.0,1597.8813250852997,0.12259865156521924,1.3439069016173453,0.7744763514309895,0.2885141375,0.6228572800381301
0.012,1.7964,1.0,1663.120563126687,0.127520178957659,1.3430069539957112,0.7874657126703183,0.28850180000000003,0.6248285379801787
0.0125,1.79609375,1.0,1725.5531715837042,0.13241410110282278,1.3421483409220623,0.7993768997342917,0.2884889375,0.6267044413401794
0.013000000000000001,1.7957750000000001,1.0,1785.2116685531828,0.13728057237654878,1.3413281670052601,0.8103184078857377,0.28847555,0.62849197196693
0.0135,1.79544375,1.0,1842.1370496866195,0.14211974617367001,1.340543784670062,0.8203867385266246,0.2884616375,0.6301974831715256
0.014,1.7951000000000001,1.0,1896.39632957795,0.14693177580995345,1.3397925551588798,0.8296676192445903,0.2884472,0.6318272304164528
0.0145,1.79474375,1.0,1948.069097350328,0.15171681364455894,1.3390719672611155,0.8382372655454335,0.2884322375,0.6333871205920822
0.015,1.794375,1.0,1997.2392220300235,0.1564750121218337,1.3383796942488047,0.8461635007522584,0.28841675,0.6348825973217012
0.0155,1.79399375,1.0,2043.9704226721494,0.1612065206539053,1.3377138193791762,0.8535068053288704,0.2884007375,0.6363181639041109
0.016,1.7936,1.0,2088.341920640525,0.16591148865290123,1.3370724259094595,0.8603210519289807,0.2883842,0.6376982770775252
0.0165,1.7931937500000001,1.0,2130.4412758664844,0.1705900649697546,1.3364536572097705,0.8666543064392223,0.2883671375,0.6390272211421246
0.017,1.792775,1.0,2170.3597058045475,0.17524239825115684,1.3358557490657559,0.8725495247898245,0.28834955,0.6403090427917093
0.0175,1.7923437500000001,1.0,2208.1936044655668,0.17986863720369753,1.3352769989764133,0.8780451462736127,0.2883314375,0.6415476210375325
0.018000000000000002,1.7919,1.0,2244.008960771231,0.18446892662175496,1.334716110328004,0.8831757113035155,0.2883128,0.6427459358638119
0.0185,1.79144375,1.0,2277.8797231297112,0.18904341129970742,1.3341717865067897,0.8879722082201302,0.2882936375,0.643906942292285
0.019,1.790975,1.0,2309.887142308272,0.1935922360319333,1.3336427308990308,0.8924624837996448,0.28827395,0.6450335718056024
0.0195,1.79049375,1.0,2340.116537819362,0.19811554521675853,1.3331276725496728,0.8966716086663925,0.2882537375,0.6461286791506313
0.02,1.79,1.0,2368.647280993677,0.20261348201244878,1.3326254574422323,0.9006222120656336,0.288233,0.6471948503231688
0.0205,1.78949375,1.0,2395.5657716483374,0.20708619078461865,1.332134914100382,0.9043347254415687,0.2882117375,0.6482346901643237
0.021,1.788975,1.0,2420.93284507945,0.2115338113757274,1.3316551641951226,0.907827689393131,0.28818995000000003,0.6492501660162827
0.021500000000000002,1.78844375,1.0,2444.813111869287,0.21595648362823427,1.3311853293974558,0.9111178986907124,0.2881676375,0.650243232117024
0.022,1.7879,1.0,2467.2746463154645,0.2203543473845984,1.330724531378382,0.9142205907518622,0.2881448,0.6512158301803241
0.0225,1.78734375,1.0,2488.3886919643282,0.22472754248727905,1.3302718918089023,0.9171496116086565,0.28812143749999997,0.6521698899265586
0.023,1.786775,1.0,2508.2149137534425,0.22907620583469762,1.3298266695706513,0.9199175869309728,0.28809755,0.6531070409436619
0.0235,1.78619375,1.0,2526.831429996748,0.2334004792865904,1.3293879720489739,0.9225359983239011,0.28807313749999996,0.6540292215225268
0.024,1.7856,1.0,2544.2886620113923,0.23770049808278496,1.3289551902623682,0.9250153739702259,0.2880482,0.6549377640288557
0.0245,1.78499375,1.0,2560.6360612063017,0.24197639683254563,1.3285277413194736,0.9273653409520204,0.2880227375,0.6558339387229752
0.025,1.784375,1.0,2575.9247040567716,0.24622831014513688,1.3281050423289298,0.9295947107853902,0.28799675,0.65671900892325
0.025500000000000002,1.78374375,1.0,2590.2071539962035,0.25045637262982307,1.3276865103993767,0.9317115596364984,0.2879702375,0.6575942311934924
0.026000000000000002,1.7831000000000001,1.0,2603.537330840535,0.2546607188958686,1.3272715626394538,0.9337232996694864,0.2879432,0.6584608555087057
0.0265,1.78244375,1.0,2615.9592516261887,0.25884147991774425,1.326859719554172,0.9356367573163898,0.2879156375,0.6593199098627807
0.027,1.781775,1.0,2627.532436856058,0.2629987930557428,1.32645036746327,0.93745819593012,0.28788755,0.6601726963746686
0.0275,1.7810937500000001,1.0,2638.297051908417,0.26713278905809135,1.326043081316068,0.9391934117075347,0.2878589375,0.661020118386237
0.028,1.7804,1.0,2648.288756956369,0.2712435968436862,1.3256374848886314,0.9408477574042601,0.2878298,0.6618629733271886
0.0285,1.77969375,1.0,2657.543890507742,0.275331345331424,1.3252332019570259,0.9424261761353709,0.2878001375,0.662702054670856
0.029,1.778975,1.0,2666.0994097910775,0.279396163440201,1.3248298562973164,0.9439332380470746,0.28776995,0.663538151970232
0.029500000000000002,1.7782437500000001,1.0,2673.992834279028,0.2834381800889138,1.324427071685568,0.9453731732656749,0.2877392375,0.6643720508849724
0.03,1.7775,1.0,2681.2621923504657,0.28745752419645876,1.3240244718978462,0.9467499015422739,0.287708,0.6652045331993682
0.0305,1.77674375,1.0,2687.9317257076536,0.291454318750968,1.323621811192583,0.9480670739240076,0.2876762375,0.6660361075268881
0.031,1.775975,1.0,2694.0501094261476,0.29542869804225463,1.3232186234546588,0.9493280563054144,0.28764395,0.6668677342221796
0.0315,1.7751937500000001,1.0,2699.648500743222,0.2993807882571909,1.3228146064868733,0.9505359954331744,0.2876111375,0.6677000313734858
0.032,1.7744,1.0,2704.7499423272984,0.3033107119026347,1.322409534909277,0.9516938274830431,0.2875778,0.6685334559935704
0.0325,1.77359375,1.0,2709.377714866439,0.307218591485444,1.3220031833419201,0.9528042870748686,0.2875439375,0.6693684627476715
0.033,1.772775,1.0,2713.555314692349,0.3111045495124767,1.3215953264048526,0.9538699235486086,0.28750955,0.6702055039367231
0.0335,1.7719437500000002,1.0,2717.306432530766,0.31496870849059067,1.3211857387181247,0.9548931157404931,0.2874746375,0.6710450294773358
0.034,1.7711000000000001,1.0,2720.65493337768,0.31881119092664384,1.3207741949017866,0.9558760854134698,0.2874392,0.6718874868785416
0.0345,1.7702437500000001,1.0,2723.624837502448,0.322632119327494,1.3203604695758884,0.9568209094787065,0.2874032375,0.6727333212152944
0.035,1.7693750000000001,1.0,2726.240302576495,0.3264316161999993,1.3199443373604804,0.9577295311296831,0.28736675,0.6735829750987343
0.035500000000000004,1.76849375,1.0,2728.51920912046,0.3302097961693948,1.3195256310396888,0.9586037742202403,0.2873297375,0.674436770116992
0.036000000000000004,1.7676,1.0,2730.4905389569935,0.33396678906029126,1.3191040833798517,0.9594453412967713,0.2872922,0.6752952294971448
0.0365,1.76669375,1.0,2732.169081235552,0.3377027115119089,1.318679556982653,0.9602558393761554,0.2872541375,0.6761586095705995
0.037,1.765775,1.0,2733.5690447421885,0.3414176794463811,1.3182519203346075,0.9610367773413372,0.28721555,0.6770271530718579
0.0375,1.76484375,1.0,2734.704697353261,0.34511180878584097,1.3178210419222294,0.9617895726313993,0.2871764375,0.6779011011207543
0.038,1.7639,1.0,2735.590358835288,0.3487852154524219,1.3173867902320338,0.9625155577914745,0.28713679999999997,0.6787806931958131
0.0385,1.76294375,1.0,2736.2403940291256,0.3524380153682571,1.3169490337505352,0.9632159864844356,0.28709663750000003,0.6796661671065118
0.039,1.761975,1.0,2736.669206416671,0.35607032445547976,1.3165076409642482,0.9638920390139576,0.28705595,0.6805577589644342
0.0395,1.7609937500000001,1.0,2736.8912320723507,0.3596822586362232,1.3160624803596876,0.964544827403508,0.2870147375,0.6814557031533229
0.04,1.76,1.0,2736.919609670215,0.3632739321322784,1.3156134324446664,0.9651754008303739,0.286973,0.6823602081010713
0.0405,1.7589937500000001,1.0,2736.7568660325064,0.3668454452011714,1.3151604742544518,0.9657847550984616,0.2869307375,0.6832712865679497
0.041,1.757975,1.0,2736.434923437249,0.37039693679168834,1.3147033161494215,0.9663738141059118,0.28688795,0.6841894859839199
0.0415,1.75694375,1.0,2735.9613170482444,0.3739285152160533,1.3142418899737258,0.9669434641570175,0.2868446375,0.6851149062045306
0.042,1.7559,1.0,2735.343592470554,0.37744028878649055,1.3137761275715154,0.9674945430683303,0.28680079999999997,0.6860476459382145
0.0425,1.75484375,1.0,2734.589303721181,0.38093236581522416,1.3133059607869413,0.9680278433129701,0.2867564375,0.6869878027275881
0.043000000000000003,1.753775,1.0,2733.7060113021835,0.38440485461447843,1.3128313214641536,0.9685441149302768,0.28671155,0.6879354729304572
0.043500000000000004,1.75269375,1.0,2732.7012803778334,0.3878578634964775,1.3123521414473036,0.9690440682205024,0.28666613750000003,0.6888907517005218
0.044,1.7516,1.0,2731.5826790534798,0.39129150077344543,1.3118683525805415,0.9695283762424214,0.2866202,0.6898537329677905
0.0445,1.75049375,1.0,2730.3577767587576,0.3947058747576066,1.311379886708018,0.9699976771300856,0.2865737375,0.6908245094186922
0.045,1.7493750000000001,1.0,2729.0341427324347,0.3981010937611851,1.310886675673884,0.9704525762434721,0.28652675,0.6918031724758971
0.0455,1.74824375,1.0,2727.6193446113393,0.40147726609640505,1.3103886513222898,0.9708936481664414,0.2864792375,0.6927898122778382
0.046,1.7471,1.0,2726.120947121751,0.4048345000754907,1.3098857454973862,0.9713214385642212,0.2864312,0.6937845176579374
0.0465,1.7459437500000001,1.0,2724.5465108737835,0.4081729040106663,1.309377890043324,0.9717364659115498,0.28638263750000004,0.6947873761235362
0.047,1.744775,1.0,2722.899485202036,0.41149257565101494,1.3088650541719524,0.9721392244149303,0.28633355,0.6957984002275411
0.0475,1.74359375,1.0,2721.187084183663,0.4147936268906536,1.3083471728131468,0.9725301835460355,0.28628393750000003,0.6968176690629444
0.048,1.7424,1.0,2719.417412436076,0.41807617109924355,1.3078241727286435,0.9729097896519823,0.2862338,0.6978452764155811
0.0485,1.74119375,1.0,2717.5939268284887,0.4213403086471991,1.307296022942004,0.9732784690017445,0.2861831375,0.6988812317730463
0.049,1.739975,1.0,2715.7200813698496,0.4245861399049345,1.3067626924767912,0.9736366276543222,0.28613195,0.6999255437002221
0.0495,1.73874375,1.0,2713.799326880218,0.42781376524286396,1.3062241503565666,0.9739846525979007,0.2860802375,0.7009782198290782
0.05,1.7375,1.0,2711.8351106820364,0.43102328503140175,1.3056803656048925,0.9743229128148342,0.286028,0.7020392668484032
0.0505,1.73624375,1.0,2709.830876312876,0.4342147996409622,1.305131307245331,0.9746517602779028,0.2859752375,0.7031086904934802
0.051000000000000004,1.734975,1.0,2707.790063259976,0.43738840944195945,1.304576944301444,0.9749715308828589,0.28592195,0.7041864955356985
0.051500000000000004,1.73369375,1.0,2705.7161067153406,0.4405442148048078,1.304017245796794,0.9752825453218567,0.2858681375,0.7052726857721038
0.052000000000000005,1.7324,1.0,2703.612437352701,0.4436823160999216,1.3034521807549426,0.975585109902009,0.2858138,0.7063672640148904
0.0525,1.73109375,1.0,2701.4824811254866,0.4468028136977149,1.3028817181994523,0.9758795173129603,0.28575893750000003,0.7074702320808277
0.053,1.729775,1.0,2699.3296590859404,0.4499058079686022,1.302305827153885,0.9761660473470691,0.28570355000000003,0.7085815907806295
0.0535,1.72844375,1.0,2697.1573872258714,0.4529913992829976,1.3017244766418028,0.9764449675755071,0.2856476375,0.7097013399082597
0.054,1.7271,1.0,2694.969515808829,0.45605965692373973,1.3011376316666394,0.9767165306506018,0.2855912,0.7108294859509166
0.0545,1.7257437500000001,1.0,2692.7695904932793,0.45911071958169797,1.3005452599641778,0.9769809854009018,0.2855342375,0.7119660290595178
0.055,1.724375,1.0,2690.5589334102765,0.46214468002512377,1.2999473495752556,0.977238566767638,0.28547675,0.7131109294731487
0.0555,1.72299375,1.0,2688.338855618368,0.4651616303803194,1.2993438886232132,0.9774894997414454,0.2854187375,0.7142641465048896
0.056,1.7216,1.0,2686.1106660996397,0.468161662773587,1.2987348652313904,0.9777339999179867,0.2853602,0.7154256386963744
0.0565,1.72019375,1.0,2683.8756717363012,0.4711448693312288,1.2981202675231276,0.9779722739649517,0.28530113749999997,0.7165953638135805
0.057,1.718775,1.0,2681.635177290699,0.474111342179547,1.297500083621765,0.9782045200621629,0.28524155,0.7177732788426112
0.0575,1.71734375,1.0,2679.390485387865,0.4770611734448438,1.296874301650642,0.9784309283165422,0.2851814375,0.7189593399854706
0.058,1.7159,1.0,2677.142896501779,0.4799944552534214,1.2962429097330999,0.9786516811535638,0.2851208,0.7201535026558241
0.0585,1.71444375,1.0,2674.8937089445994,0.48291127973158193,1.2956058959924779,0.9788669536867022,0.2850596375,0.7213557214747588
0.059000000000000004,1.7129750000000001,1.0,2672.644218858823,0.4858117390056277,1.2949632485521163,0.9790769140662747,0.28499795,0.7225659502665257
0.059500000000000004,1.71149375,1.0,2670.395720212736,0.48869592520186084,1.2943149555353555,0.9792817238089851,0.2849357375,0.7237841420542785
0.06,1.71,1.0,2668.149504798796,0.4915639304465836,1.2936610050655355,0.9794815381093697,0.284873,0.7250102490558021
0.0605,1.7084937500000001,1.0,2665.906862235794,0.4944158468660981,1.2930013852659963,0.9796765061342798,0.2848097375,0.7262442226792323
0.061,1.7069750000000001,1.0,2663.669079973069,0.4972517665867066,1.2923360842600782,0.9798667713014458,0.28474595,0.7274860135187643
0.0615,1.7054437500000001,1.0,2661.437443298697,0.5000717817347113,1.2916650901711213,0.9800524715430915,0.2846816375,0.7287355713503562
0.062,1.7039,1.0,2659.2084789789774,0.502875942457894,1.290988434923744,0.980233738622953,0.2846168,0.7299927638412949
0.0625,1.70234375,1.0,2656.985528645631,0.5056643674382458,1.2903060877119525,0.980410701346198,0.2845514375,0.7312575747365437
0.063,1.7007750000000001,1.0,2654.772587482613,0.5084371755794636,1.28961801165472,0.9805834833612481,0.28448555,0.7325299978481074
0.0635,1.69919375,1.0,2652.5697713863083,0.5111944493915855,1.288924205578769,0.9807522028266449,0.28441913750000003,0.7338099599192512
0.064,1.6976,1.0,2650.377196088999,0.5139362713846505,1.2882246683108227,0.9809169735625011,0.2843522,0.7350973870443758
0.0645,1.69599375,1.0,2648.1949771616714,0.5166627240686972,1.2875193986776035,0.9810779052398697,0.2842847375,0.7363922046685885
0.065,1.694375,1.0,2646.02323001572,0.519373889953764,1.2868083955058343,0.9812351035605095,0.28421675,0.7376943375872735
0.0655,1.69274375,1.0,2643.8620699055855,0.5220698515498898,1.2860916576222372,0.9813886704275987,0.2841482375,0.7390037099456652
0.066,1.6911,1.0,2641.7116119308757,0.524750691367113,1.2853691838535357,0.981538704107916,0.2840792,0.740320245238415
0.0665,1.6894437500000001,1.0,2639.571971038873,0.5274164919154725,1.2846409730264519,0.9816852993859699,0.2840096375,0.7416438663091669
0.067,1.687775,1.0,2637.4432620265516,0.5300673357050066,1.2839070239677088,0.9818285477105324,0.28393955,0.7429744953501238
0.0675,1.68609375,1.0,2635.3255995435684,0.5327033052457542,1.2831673355040292,0.9819685373340002,0.2838689375,0.7443120539016218
0.068,1.6844000000000001,1.0,2633.219098094243,0.5353244830477537,1.2824219064621354,0.982105353444983,0.2837978,0.7456564628516992
0.0685,1.68269375,1.0,2631.1238720400606,0.5379309516210439,1.2816707356687504,0.9822390782944914,0.2837261375,0.7470076424356662
0.069,1.680975,1.0,2629.040035602425,0.5405227934756633,1.2809138219505969,0.9823697913160766,0.28365395,0.7483655122356772
0.0695,1.67924375,1.0,2626.967702864899,0.5431000911216506,1.2801511641343974,0.9824975692402479,0.28358123749999997,0.7497299911802995
0.07,1.6775,1.0,2624.90698777592,0.5456629270690445,1.2793827610468749,0.9826224862034829,0.283508,0.7511009975440843
0.07050000000000001,1.67574375,1.0,2622.858004151488,0.5482113838278835,1.278608611514752,0.9827446138521144,0.2834342375,0.7524784489471367
0.07100000000000001,1.673975,1.0,2620.8208656774,0.5507455439082062,1.277828714364751,0.9828640214413714,0.28335995,0.753862262354686
0.07150000000000001,1.67219375,1.0,2618.7956859123474,0.5532654898200513,1.2770430684235954,0.982980775929829,0.2832851375,0.7552523540766551
0.07200000000000001,1.6704,1.0,2616.7825782903737,0.5557713040734575,1.2762516725180073,0.9830949420695109,0.2832098,0.7566486397672311
0.0725,1.66859375,1.0,2614.781656123617,0.5582630691784632,1.2754545254747094,0.983206582491869,0.2831339375,0.7580510344244346
0.073,1.6667750000000001,1.0,2612.7938479755694,0.5607408220559142,1.274651618545299,0.9833157547941797,0.28305755,0.759459465658315
0.0735,1.66494375,1.0,2610.818638415855,0.5632046863959262,1.273842956389197,0.9834225203336836,0.2829806375,0.7608738368495673
0.074,1.6631,1.0,2608.8556005348587,0.565654748875395,1.2730285428506325,0.9835269363246699,0.2829032,0.7622940522603965
0.0745,1.6612437500000001,1.0,2606.9045007870386,0.5680910826924417,1.2722083799818762,0.9836290573126759,0.2828252375,0.7637200187105948
0.075,1.659375,1.0,2604.9651060303095,0.5705137610451869,1.271382469835199,0.9837289361163934,0.28274675,0.7651516424303167
0.0755,1.65749375,1.0,2603.0371835211904,0.5729228571317518,1.2705508144628717,0.9838266238919279,0.2826677375,0.7665888290608316
