Time [s],Phi [rad],STIM [ ],Fsee [N],Gamma [ ],Lcerel [ ],q [ ],Lmtc [m],fisomrel [ ]
0.0,1.8,1.0,17.96546049073724,1.1584941763023122e-05,1.3793399364207957,0.005000035728091308,0.288653,0.5411390709064627
0.0005,1.79999375,1.0,18.27548326228128,0.005620729268197131,1.3793025278515652,0.012944918654839096,0.2886527375,0.5412295674917496
0.001,1.799975,1.0,21.618376110499764,0.011198410729873168,1.37893830267006,0.03561684891147631,0.28865195,0.5421102129130551
0.0015,1.79994375,1.0,31.071656730656134,0.016744805809450536,1.3780459974954167,0.07061303337886732,0.2886506375,0.5442641064339777
0.002,1.7999,1.0,53.5895185605696,0.022260089997930457,1.3763676690979114,0.11473125444409116,0.2886488,0.5483015869190213
0.0025,1.79984375,1.0,97.13210324951639,0.0277444378022392,1.3739345328620727,0.16458926974310473,0.28864643749999996,0.5541229755523709
0.003,1.7997750000000001,1.0,160.97607239580134,0.03319802275292342,1.3712136735521996,0.21729528227315217,0.28864354999999997,0.5605880375251308
0.0035,1.79969375,1.0,237.7040019786533,0.03862101740375731,1.368584097542898,0.2706276335875952,0.2886401375,0.5667913362196666
0.004,1.7996,1.0,321.4890706120372,0.044013593342521105,1.3661555017838354,0.32293007658189943,0.2886362,0.5724813409229201
0.0045000000000000005,1.7994937500000001,1.0,409.29108683311387,0.04937592119618623,1.3639222663884887,0.37304805675415337,0.2886317375,0.577680433758501
0.005,1.799375,1.0,499.437503103281,0.054708170622017695,1.361857832377553,0.4202601361875882,0.28862675,0.5824582562086058
0.0055,1.79924375,1.0,590.8147771433262,0.060010510354914316,1.359938359107471,0.4641854334280488,0.2886212375,0.5868762042188178
0.006,1.7991000000000001,1.0,682.542632365962,0.06528310815086501,1.35814596896967,0.504690746501243,0.2886152,0.5909804365777303
0.006500000000000001,1.79894375,1.0,773.9081932162285,0.07052613084387443,1.3564667938170911,0.5418105944953583,0.2886086375,0.5948068396229702
0.007,1.798775,1.0,864.3124401042004,0.07573974431888043,1.354889964857611,0.5756857440222078,0.28860155,0.5983836506484812
0.0075,1.79859375,1.0,953.2686414042654,0.08092411355278656,1.3534063881156941,0.606518076290317,0.2885939375,0.6017344542060566
0.008,1.7984,1.0,1040.3848228308495,0.08607940256966659,1.352008258127859,0.6345394619093399,0.2885858,0.6048794203118324
0.0085,1.79819375,1.0,1125.3299537741539,0.09120577393650973,1.3506890188732474,0.6599912434237017,0.2885771375,0.6078354975820125
0.009000000000000001,1.797975,1.0,1207.8899292223975,0.09630339066513748,1.3494421751235082,0.6831105745958373,0.28856795,0.6106191525668094
0.0095,1.79774375,1.0,1287.9090688910628,0.10137241498235833,1.3482619006593088,0.7041230934195407,0.2885582375,0.6132450527715743
0.01,1.7975,1.0,1365.2145187481115,0.1064130058493229,1.347143775173391,0.7232391361875652,0.288548,0.6157244877498922
0.0105,1.79724375,1.0,1439.7048846177959,0.11142532222718173,1.3460833783584965,0.7406511400523936,0.2885372375,0.6180685434437813
0.011,1.796975,1.0,1511.3438046304445,0.11640952307708541,1.345076289907366,0.7565333481467177,0.28852595000000003,0.6202881190808911
0.0115,1.79669375,1.0,1580.1352190647217,0.12136576682948572,1.3441183133393022,0.7710425052009473,0.2885141375,0.6223934516087815
0.012,1.7964,1.0,1646.0821528425615,0.1262942103166564,1.343205870675146,0.7843191005007136,0.28850180000000003,0.6243932727490912
0.0125,1.79609375,1.0,1709.1957492722124,0.13119500896286077,1.34233578467698,0.7964885604151174,0.2884889375,0.6262953141887643
0.013000000000000001,1.7957750000000001,1.0,1769.5114624603425,0.13606831765187039,1.3415050173448617,0.8076625380416479,0.28847555,0.6281068977305029
0.0135,1.79544375,1.0,1827.0976544095422,0.14091429139504208,1.3407105270191624,0.8179402643874657,0.2884616375,0.6298352575839434
0.014,1.7951000000000001,1.0,1882.0127295342786,0.14573308335206353,1.3399497058423164,0.8274100546586675,0.2884472,0.631486599163656
0.0145,1.79474375,1.0,1934.3121763200816,0.15052484530362759,1.3392202447457289,0.8361504762646834,0.2884322375,0.6330664080186473
0.015,1.794375,1.0,1984.0726257736214,0.15528972903042715,1.338519834660804,0.8442313645435755,0.28841675,0.634580106955427
0.0155,1.79399375,1.0,2031.3733771278294,0.16002788509673457,1.3378463418327753,0.8517149013290629,0.2884007375,0.6360326827493992
0.016,1.7936,1.0,2076.3196320754273,0.16473946505071121,1.3371975382415475,0.8586564327138757,0.2883842,0.637429273609184
0.0165,1.7931937500000001,1.0,2118.9773782873253,0.16942461674672527,1.3365717627602873,0.8651054766657644,0.2883671375,0.6387737516340335
0.017,1.792775,1.0,2159.422388892866,0.17408348786934297,1.3359673789561528,0.8711062481774747,0.28834955,0.6400698988435358
0.0175,1.7923437500000001,1.0,2197.741528073515,0.1787162261031306,1.3353827503963023,0.8766982789130479,0.2883314375,0.6413214628080728
0.018000000000000002,1.7919,1.0,2234.0000042471797,0.18332297770541076,1.3348165601035265,0.881917053494532,0.2883128,0.6425314766595717
0.0185,1.79144375,1.0,2268.34377666798,0.18790389053990877,1.3342667684449994,0.8867942061913965,0.2882936375,0.6437044882440599
0.019,1.7909750156377036,1.0,2300.824052639095,0.19245910846765793,1.3337323765277078,0.8913584198892269,0.2882739506567835,0.6448427961006641
0.0195,1.790500640891722,1.0,2331.7928975791674,0.1969887746799721,1.3332125686206207,0.8956355429111561,0.28825402691745233,0.6459482911774496
0.02,1.7900262661457402,1.0,2361.5596225337194,0.20149303236816518,1.332706528992706,0.8996488658241621,0.2882341031781211,0.647022849380184
0.0205,1.7895518913997583,1.0,2390.1813328194294,0.20597202468056788,1.3322134433746025,0.9034194091376234,0.28821417943878985,0.6480683292129776
0.021,1.7890775166537767,1.0,2417.7032133336347,0.21042589359859826,1.3317326433178671,0.9069662064842746,0.2881942556994586,0.649086267083357
0.021500000000000002,1.788603141907795,1.0,2444.161770426452,0.21485478037173694,1.3312635689181305,0.9103065134690905,0.2881743319601274,0.650077958889104
0.022,1.7881287671618133,1.0,2469.594567517184,0.21925882433460359,1.330805671286014,0.9134559782081565,0.2881544082207962,0.6510446678731177
0.0225,1.7876543924158317,1.0,2494.0412129239126,0.22363816482181792,1.3303584015321392,0.9164288125343112,0.28813448448146495,0.65198764839646
0.023,1.78718001766985,1.0,2517.5296417260347,0.22799293602674725,1.329921339347251,0.9192379654492149,0.2881145607421337,0.65290787577588
0.0235,1.7867056429238681,1.0,2540.12125503794,0.23232328449260378,1.329493763631127,0.9218951835883384,0.28809463700280247,0.653806950663887
0.024,1.7862312681778865,1.0,2561.8503627074756,0.23662934642309116,1.329075226174203,0.9244112284197769,0.2880747132634712,0.6546858913214196
0.0245,1.7857568934319048,1.0,2582.746237986717,0.2409112556551716,1.3286653386681813,0.9267959413232411,0.28805478952414,0.6555455840501585
0.025,1.7852825186859231,1.0,2602.8393408121383,0.24516914602580742,1.3282637128047636,0.9290583262977725,0.28803486578480875,0.6563869096161724
0.025500000000000002,1.7848081439399415,1.0,2622.161245004994,0.2494031513719608,1.3278699602756523,0.9312066326554088,0.2880149420454775,0.6572107434593182
0.026000000000000002,1.7843337691939598,1.0,2640.7445688156504,0.2536134055305941,1.3274836927725493,0.9332484285423298,0.2879950183061463,0.658017955893031
0.0265,1.783859394447978,1.0,2658.6229088101873,0.25780004233866943,1.3271045219871564,0.9351906664014139,0.2879750945668151,0.6588094122944959
0.027,1.7833850197019963,1.0,2675.830777100917,0.26196319563314924,1.3267320596111758,0.9370397413453044,0.28795517082748384,0.6595859732852012
0.0275,1.7829106449560146,1.0,2692.3929195547635,0.26610299397668025,1.3263660145525744,0.9388015557325431,0.2879352470881526,0.6603482925544286
0.028,1.782436270210033,1.0,2708.3479226774616,0.2702195745960974,1.3260059755757398,0.9404815380558824,0.28791532334882136,0.6610972700539226
0.0285,1.7819618954640513,1.0,2723.722742955331,0.2743130680059931,1.325651644394452,0.9420847137387394,0.2878953996094902,0.6618335666555786
0.029,1.7814875207180696,1.0,2738.538571290973,0.27838360131115514,1.325302780442771,0.9436157346008698,0.28787547587015894,0.6625577201409512
0.029500000000000002,1.781013145972088,1.0,2752.817090594918,0.2824313016163714,1.3249591431547576,0.9450789052005073,0.2878555521308277,0.6632702655616256
0.03,1.780538771226106,1.0,2766.5804472663726,0.28645629602642975,1.3246204919644713,0.9464782132187197,0.28783562839149646,0.663971735321252
0.0305,1.7800643964801244,1.0,2779.8512239570946,0.29045871164611803,1.3242865863059727,0.9478173568242022,0.2878157046521652,0.6646626592538869
0.031,1.7795900217341427,1.0,2792.6524136187513,0.2944386755802241,1.3239571856133219,0.9490997693514615,0.287795780912834,0.6653435646986472
0.0315,1.779115646988161,1.0,2805.0073948331165,0.29839631493353574,1.323632049320579,0.9503286415853751,0.28777585717350274,0.6660149765706704
0.032,1.7786412722421794,1.0,2816.9339439501996,0.3023317520389046,1.3233109902285918,0.9515069469613988,0.28775593343417155,0.6666773073896921
0.0325,1.7781668974961977,1.0,2828.4553513940095,0.30624511533174886,1.322993774503723,0.9526374506199434,0.2877360096948403,0.6673310638770349
0.033,1.7776925227502158,1.0,2839.5947204780527,0.3101365331348818,1.322680172795178,0.9537227304618423,0.28771608595550907,0.667976741342073
0.0335,1.7772181480042342,1.0,2850.3658187372425,0.3140061257112501,1.322370041396404,0.9547651992002788,0.28769616221617783,0.6686146569199006
0.034,1.7767437732582525,1.0,2860.7826182868216,0.31785401332380003,1.3220632366008476,0.9557671099189134,0.2876762384768466,0.6692451263717681
0.0345,1.7762693985122708,1.0,2870.8592849941665,0.3216803162354782,1.3217596147019557,0.9567305685271105,0.2876563147375154,0.6698684641162278
0.035,1.7757950237662892,1.0,2880.610168108327,0.32548515470923106,1.3214590319931754,0.957657545104175,0.28763639099818417,0.6704849832589626
0.035500000000000004,1.7753206490203075,1.0,2890.0497903480546,0.32926864900800507,1.3211613447679538,0.9585498842433504,0.2876164672588529,0.6710949956212995
0.036000000000000004,1.7748462742743256,1.0,2899.192838447095,0.33303091939474677,1.3208664093197375,0.9594093144941959,0.2875965435195217,0.6716988117674064
0.0365,1.774371899528344,1.0,2908.0541541574976,0.3367720861324025,1.3205740819419736,0.9602374569912772,0.28757661978019045,0.6722967410301685
0.037,1.7738975247823623,1.0,2916.6463957914098,0.3404922662958424,1.3202842394154841,0.9610358346791177,0.2875566960408592,0.6728890496876431
0.0375,1.7734231500363806,1.0,2924.978999933388,0.344191574192801,1.3199967879082242,0.9618058804077372,0.28753677230152797,0.6734759430115402
0.038,1.772948775290399,1.0,2933.0723048754817,0.34787014007506417,1.3197115388728713,0.9625489354045578,0.2875168485621967,0.6740578185954735
0.0385,1.7724744005444173,1.0,2940.934527333035,0.3515280769188853,1.3194284112472456,0.9632662680017571,0.28749692482286554,0.6746348535971318
0.039,1.7720000257984354,1.0,2948.573964260606,0.35516549770051775,1.3191473239691685,0.9639590722827823,0.2874770010835343,0.6752072245003784
0.0395,1.7715256510524537,1.0,2955.9989891126093,0.3587825153962148,1.3188681959764605,0.9646284732327238,0.28745707734420306,0.6757751071260126
0.04,1.771051276306472,1.0,2963.2180482489675,0.36237924298222984,1.3185909462069423,0.9652755314783352,0.2874371536048718,0.6763386766421084
0.0405,1.7705769015604904,1.0,2970.239657486387,0.3659557934348162,1.318315493598435,0.9659012476544149,0.2874172298655406,0.676898107573931
0.041,1.7701025268145087,1.0,2977.072398795798,0.3695122797302273,1.3180417570887588,0.9665065664296404,0.2873973061262094,0.6774535738134404
0.0415,1.769628152068527,1.0,2983.7249171448407,0.3730488148447164,1.3177696556157352,0.9670923802217151,0.28737738238687816,0.6780052486283706
0.042,1.7691537773225452,1.0,2990.205917486895,0.3765655117545369,1.3174991081171845,0.9676595326287818,0.2873574586475469,0.678553304670894
0.0425,1.7686794025765635,1.0,2996.5241618949804,0.38006248343594207,1.317230033530928,0.9682088216014836,0.2873375349082157,0.6790979139858621
0.043000000000000003,1.7682050278305819,1.0,3002.6838796646384,0.3835398317765132,1.316962390548519,0.9687410038260997,0.28731761116888443,0.6796391676586993
0.043500000000000004,1.7677306530846002,1.0,3008.694641810984,0.38699767510753547,1.3166960919046578,0.9692567948545397,0.2872976874295532,0.6801772492739686
0.044,1.7672562783386185,1.0,3014.5663979111027,0.3904361325012884,1.316431047516919,0.9697568726026816,0.28727776369022195,0.6807123474724024
0.0445,1.7667819035926369,1.0,3020.303657671691,0.3938553090695538,1.3161672147542307,0.9702418813990291,0.2872578399508907,0.6812445545744649
0.045,1.766307528846655,1.0,3025.910959549279,0.3972553099241133,1.3159045509855218,0.9707124325343041,0.2872379162115595,0.6817739625849357
0.0455,1.7658331541006733,1.0,3031.392869625467,0.40063624017674865,1.3156430135797206,0.9711691062772086,0.2872179924722283,0.682300663196149
0.046,1.7653587793546917,1.0,3036.753980521663,0.4039982049392415,1.3153825599057551,0.9716124537483728,0.28719806873289705,0.6828247477911122
0.0465,1.76488440460871,1.0,3041.9989103550083,0.40734130932337353,1.3151231473325542,0.972042998663729,0.2871781449935658,0.6833463074465094
0.047,1.7644100298627283,1.0,3047.1323017340865,0.4106656584409265,1.314864733229046,0.97246123895758,0.28715822125423457,0.6838654329355922
0.0475,1.7639356551167467,1.0,3052.158820795061,0.4139713574036821,1.3146072749641589,0.9728676482947233,0.2871382975149034,0.6843822147309507
0.048,1.7634612803707648,1.0,3057.083156277726,0.41725851132342207,1.3143507299068213,0.9732626774801951,0.28711837377557214,0.6848967430071705
0.0485,1.762986905624783,1.0,3061.910018642757,0.42052722531192804,1.3140950554259616,0.9736467557744519,0.2870984500362409,0.6854091076433741
0.049,1.7625125308788014,1.0,3066.64413922821,0.42377760448098173,1.3138402088905086,0.9740202921211562,0.28707852629690966,0.685919398225644
0.0495,1.7620381561328198,1.0,3071.290269447258,0.42700975394236484,1.31358614766939,0.9743836762941246,0.2870586025575784,0.6864277040493353
0.05,1.7615637813868381,1.0,3075.846981513819,0.4302237502703696,1.313332882206804,0.9747372801900509,0.2870386788182472,0.6869340080611515
0.0505,1.7610894066408564,1.0,3080.324594387182,0.43341973158011876,1.3130803224422416,0.9750814590755215,0.28701875507891594,0.6874384939396111
0.051000000000000004,1.7606150318948748,1.0,3084.726053665716,0.4365977979585918,1.3128284416518954,0.975416551792321,0.2869988313395847,0.6879412184108632
0.051500000000000004,1.760140657148893,1.0,3089.053610225817,0.4397580459841253,1.3125772191509826,0.9757428819039706,0.2869789076002535,0.6884422259816283
0.052000000000000005,1.7596662824029112,1.0,3093.3095246726753,0.44290057223505575,1.3123266342547206,0.976060758525501,0.2869589838609223,0.6889415610175956
0.0525,1.7591919076569296,1.0,3097.4960670437476,0.44602547328971964,1.3120766662783265,0.9763704770941648,0.28693906012159104,0.6894392677442793
0.053,1.758717532910948,1.0,3101.615516520699,0.4491328457264535,1.3118272945370175,0.9766723200925903,0.2869191363822598,0.6899353902478448
0.0535,1.7582431581649662,1.0,3105.670161151186,0.4522227861235939,1.3115784983460113,0.9769665577277028,0.28689921264292856,0.6904299724759078
0.054,1.7577687834189846,1.0,3109.662297580405,0.4552953910594773,1.3113302570205247,0.9772534485684659,0.2868792889035974,0.6909230582383099
0.0545,1.7572944086730027,1.0,3113.594230791525,0.4583507571124403,1.3110825498757754,0.9775332401452761,0.28685936516426613,0.6914146912078625
0.055,1.756820033927021,1.0,3117.46827385646,0.46138898086081936,1.3108353562269803,0.9778061695136181,0.2868394414249349,0.6919049149210659
0.0555,1.7563456591810394,1.0,3121.2867476951697,0.464410158882951,1.3105886553893569,0.978072463784391,0.28681951768560365,0.6923937727787989
0.056,1.7558712844350577,1.0,3125.0519808450476,0.46741438775717176,1.3103424266781225,0.9783323406231418,0.2867995939462724,0.692881308046984
0.0565,1.755396909689076,1.0,3128.766309239831,0.47040176406181816,1.3100966494084942,0.9785860087202646,0.2867796702069412,0.6933675638572239
0.057,1.7549225349430944,1.0,3132.432075997575,0.4733723843752267,1.3098513028956895,0.9788336682340826,0.28675974646760993,0.6938525832074096
0.0575,1.7544481601971125,1.0,3136.051631218499,0.476326345275734,1.3096063664549256,0.9790755112085838,0.2867398227282787,0.6943364089623034
0.058,1.7539737854511308,1.0,3139.622499439243,0.47926369255843015,1.30936186035644,0.9793117199026902,0.2867198989889475,0.6948190030510283
0.0585,1.7534994107051491,1.0,3143.151385037848,0.4821845793644602,1.3091177270773557,0.9795424741517751,0.28669997524961627,0.6953004808881678
0.059000000000000004,1.7530250359591675,1.0,3146.6401234846126,0.48508910216504053,1.308873950451409,0.9797679441282304,0.286680051510285,0.695780876060397
0.059500000000000004,1.7525506612131858,1.0,3150.0897083467476,0.48797734797252384,1.3086305214789626,0.9799882929487062,0.2866601277709538,0.6962602079452282
0.06,1.7520762864672041,1.0,3153.501136339977,0.49084940379926273,1.3083874311603791,0.9802036774042653,0.2866402040316226,0.6967384958619337
0.0605,1.7516019117212223,1.0,3156.8754072592915,0.4937053566576099,1.3081446704960211,0.9804142482545262,0.28662028029229136,0.6972157590717429
0.061,1.7511275369752406,1.0,3160.2135239130134,0.49654529355991794,1.307902230486251,0.980620150505941,0.2866003565529601,0.6976920167780342
0.0615,1.750653162229259,1.0,3163.5164920574225,0.4993693015185395,1.3076601021314322,0.9808215236751844,0.2865804328136289,0.6981672881265201
0.062,1.7501787874832773,1.0,3166.7853203339896,0.5021774675458271,1.3074182764319267,0.9810185020385525,0.28656050907429764,0.6986415922054322
0.0625,1.7497044127372956,1.0,3170.021020207877,0.5049698786541336,1.3071767443880973,0.9812112148682183,0.2865405853349664,0.6991149480456937
0.063,1.749230037991314,1.0,3173.22460590848,0.5077466218558114,1.3069354970003066,0.9813997866561275,0.28652066159563516,0.699587374621093
0.0635,1.748755663245332,1.0,3176.397094371802,0.5105077841632133,1.3066945252689175,0.98158433732627,0.2865007378563039,0.7000588908484482
0.064,1.7482812884993504,1.0,3179.5395051845167,0.5132534525886919,1.3064538201942926,0.9817649824360092,0.2864808141169727,0.7005295155877684
0.0645,1.7478069137533687,1.0,3182.6528605299354,0.5159837141445998,1.3062133727767944,0.9819418333671123,0.2864608903776415,0.7009992676424106
0.065,1.747332539007387,1.0,3185.7381851354476,0.5186986558432896,1.3059731740167855,0.9821149975070784,0.28644096663831026,0.7014681657592281
0.0655,1.7468581642614054,1.0,3188.7965062222547,0.5213983646971139,1.305733214914629,0.9822845784213244,0.286421042898979,0.7019362286287159
0.066,1.7463837895154237,1.0,3191.8288534567623,0.5240829277184256,1.305493486470687,0.9824506760167501,0.2864011191596478,0.7024034748851535
0.0665,1.7459094147694418,1.0,3194.836258903226,0.526752431919577,1.3052539796853226,0.9826133866971756,0.28638119542031654,0.7028699231067368
0.067,1.7454350400234602,1.0,3197.819756979127,0.5294069643129209,1.3050146855588982,0.9827728035111079,0.28636127168098535,0.7033355918157094
0.0675,1.7449606652774785,1.0,3200.7803844111636,0.5320466119108099,1.3047755950917768,0.9829290162922668,0.2863413479416541,0.7038004994784864
0.068,1.7444862905314968,1.0,3203.717560068131,0.5346714217377053,1.3045367128771275,0.9830821099199866,0.28632142420232287,0.7042646381058484
0.0685,1.7440119157855152,1.0,3206.6327821354903,0.5372815059277846,1.3042980260646113,0.9832321696438535,0.28630150046299163,0.70472803358795
0.069,1.7435375410395335,1.0,3209.527550330156,0.5398769710067047,1.3040595218166378,0.9833792774623308,0.2862815767236604,0.7051907117112168
0.0695,1.7430631662935516,1.0,3212.402288992038,0.5424578943244539,1.3038211963308888,0.983523511254052,0.28626165298432915,0.7056526806762358
0.07,1.74258879154757,1.0,3215.257423489016,0.5450243532310198,1.3035830458050468,0.9836649463137251,0.2862417292449979,0.7061139486598561
