Time [s],Phi [rad],STIM [ ],Fsee [N],Gamma [ ],Lcerel [ ],q [ ],Lmtc [m],fisomrel [ ]
0.0,1.8,1.0,17.966458821458446,1.0000592343246224e-05,1.3793398245706372,0.005000026654922973,0.288653,0.5411393415010146
0.0005,1.79999375,1.0,18.275855608848026,0.005619153805723703,1.3793024864898933,0.012940517572209261,0.2886527375,0.5412296675465063
0.001,1.799975,1.0,21.617513337129118,0.011196844104498923,1.3789383907905512,0.035608586000688884,0.28865195,0.5421099999523835
0.0015,1.79994375,1.0,31.068281565815166,0.016743247971604883,1.378046285044479,0.07060172016691003,0.2886506375,0.5442634131507288
0.002,1.7999,1.0,53.58115535389747,0.022258540898325074,1.3763682116447342,0.11471785498273987,0.2886488,0.5483002846407672
0.0025,1.79984375,1.0,97.11734621703988,0.02774289739185658,1.373935243947062,0.16457469285343787,0.28864643749999996,0.5541212797648318
0.003,1.7997750000000001,1.0,160.9564934858678,0.033196490983025344,1.371214406390956,0.21728024521428865,0.28864354999999997,0.5605863025759255
0.0035,1.79969375,1.0,237.68166406244848,0.03861949422587852,1.3685847855960553,0.2706126785899421,0.2886401375,0.5667897188364475
0.004,1.7996,1.0,321.46516356836565,0.04401207870846657,1.3661561349799194,0.32291559681767884,0.2886362,0.5724798622977265
0.0045000000000000005,1.7994937500000001,1.0,409.2662280366311,0.04937441505802768,1.3639228499114202,0.37303431222605093,0.2886317375,0.5776790794398914
0.005,1.799375,1.0,499.4120561635496,0.054706672932081674,1.361858373116805,0.4202472776507468,0.28862675,0.5824570083075865
0.0055,1.79924375,1.0,590.7890407518992,0.060009021065870756,1.359938861929257,0.4641735288225685,0.2886212375,0.5868750499779061
0.006,1.7991000000000001,1.0,682.5168045608699,0.06528162721556985,1.3581464384464264,0.5046798067165704,0.2886152,0.590979364247896
0.006500000000000001,1.79894375,1.0,773.879815289061,0.07052465821431175,1.356467278242938,0.5418006211562862,0.2886086375,0.5948057383356884
0.007,1.798775,1.0,864.2847360248835,0.0757382799532014,1.3548904123639567,0.575676652042731,0.28860155,0.5983826377938163
0.0075,1.79859375,1.0,953.2409865696486,0.0809226573861372,1.3534068134730428,0.6065098110679445,0.2885939375,0.601733495506473
0.008,1.7984,1.0,1040.3570115623752,0.08607795458830936,1.3520086675903025,0.634531958610908,0.2885858,0.6048785010883289
0.0085,1.79819375,1.0,1125.319424439847,0.09120433462585774,1.3506891679292157,0.6599842934882475,0.2885771375,0.6078351642127372
0.009000000000000001,1.797975,1.0,1207.8856333496603,0.09630195971889075,1.349442233821804,0.6831042147778452,0.28856795,0.6106190217526394
0.0095,1.79774375,1.0,1287.8761522828318,0.10137099111845835,1.3482623362339936,0.7041175114858487,0.2885582375,0.6132440853343137
0.01,1.7975,1.0,1365.1667739637994,0.10641158949099416,1.3471443888176307,0.7232341576300092,0.288548,0.6157231291850563
0.0105,1.79724375,1.0,1439.6598691219724,0.11142391385429776,1.3460839417574968,0.7406465928576971,0.2885372375,0.6180672999285509
0.011,1.796975,1.0,1511.3023860606015,0.11640812247905401,1.3450767958529593,0.7565291826630546,0.28852595000000003,0.620287005624538
0.0115,1.79669375,1.0,1580.1084470752423,0.12136437459220224,1.3441186331719082,0.7710386237598246,0.2885141375,0.6223927496935514
0.012,1.7964,1.0,1646.0665099488558,0.1262928263229513,1.3432060537715231,0.7843154932657009,0.28850180000000003,0.6243928719852627
0.0125,1.79609375,1.0,1709.1821291087283,0.13119363282230953,1.3423359411266533,0.7964852436801765,0.2884889375,0.6262949726177569
0.013000000000000001,1.7957750000000001,1.0,1769.4971684553643,0.13606694924128537,1.3415051787121475,0.8076594948670165,0.28847555,0.6281065462780109
0.0135,1.79544375,1.0,1827.071270860472,0.1409129300939666,1.3407108201363476,0.8179375155715708,0.2884616375,0.6298346206696984
0.014,1.7951000000000001,1.0,1881.9822273869647,0.1457317295675878,1.3399500397360538,0.8274075391512902,0.2884472,0.6314858752661208
0.0145,1.79474375,1.0,1934.2882732867142,0.15052349946510052,1.3392205028400537,0.8361481307408928,0.2884322375,0.6330658496586133
0.015,1.794375,1.0,1984.0538162516682,0.15528839088402047,1.338520035194511,0.8442291780585179,0.28841675,0.6345796740175607
0.0155,1.79399375,1.0,2031.360505364529,0.1600265547734218,1.3378464774551149,0.8517128563594922,0.2884007375,0.6360323905330694
0.016,1.7936,1.0,2076.297713558112,0.1647381412631947,1.3371977666712593,0.8586545639818934,0.2883842,0.6374287823721778
0.0165,1.7931937500000001,1.0,2118.956051572632,0.16942330043451703,1.336571982773757,0.8651037390530574,0.2883671375,0.6387732793741767
0.017,1.792775,1.0,2159.404944631625,0.17408217935903944,1.3359675572235965,0.8711046205292273,0.28834955,0.6400695168788566
0.0175,1.7923437500000001,1.0,2197.724638712952,0.17871492510841253,1.3353829214817663,0.8766967607938522,0.2883314375,0.6413210968697557
0.018000000000000002,1.7919,1.0,2234.0031826548584,0.1833216844880825,1.3348165281693853,0.8819155822902085,0.2883128,0.6425315448488496
0.0185,1.79144375,1.0,2268.323657231691,0.18790260299445333,1.334266969053676,0.8867928894770151,0.2882936375,0.6437040605856788
0.019,1.790975,1.0,2300.785309302476,0.19245782813863915,1.3337327530354215,0.8913572328852404,0.28827395,0.6448419947429795
0.0195,1.79049375,1.0,2331.4526419962626,0.19698750230984416,1.3332128028943775,0.895634398293583,0.2882537375,0.6459477933267626
0.02,1.79,1.0,2360.395784068972,0.20149176789727272,1.3327060414103002,0.8996476223354654,0.288233,0.6470238839575497
0.0205,1.78949375,1.0,2387.6900272200055,0.20597076729012906,1.3322113913629454,0.903417878785992,0.2882117375,0.6480726768134437
0.021,1.788975,1.0,2413.4153891373103,0.21042464287761747,1.331727775532069,0.906964129734819,0.28818995000000003,0.6490965654991879
0.021500000000000002,1.78844375,1.0,2437.638936388955,0.2148535345623397,1.33125428276722,0.9103035798907986,0.2881676375,0.6500975770037457
0.022,1.7879,1.0,2460.448289756641,0.21925758593840058,1.3307898396677373,0.913451801655061,0.2881448,0.6510780675146448
0.0225,1.78734375,1.0,2481.9006837564557,0.22363693496827836,1.330333696725077,0.9164230023250395,0.28812143749999997,0.6520396964539059
0.023,1.786775,1.0,2502.0516497988656,0.22799171889370815,1.3298851462643624,0.9192301137823425,0.28809755,0.6529840251088656
0.0235,1.78619375,1.0,2520.959130612259,0.23232207495642512,1.3294434806107167,0.9218849175494594,0.28807313749999996,0.6539126054945674
0.024,1.7856,1.0,2538.6832780932664,0.23662814039816446,1.3290079920892637,0.9243981630110895,0.2880482,0.6548269806804561
0.0245,1.78499375,1.0,2555.284358673826,0.24091005204065705,1.328577990908123,0.9267796750190571,0.2880227375,0.6557286476109102
0.025,1.784375,1.0,2570.813948873478,0.24516794443806839,1.3281528856643792,0.9290384592413062,0.28799675,0.6566188891267248
0.025500000000000002,1.78374375,1.0,2585.343479301519,0.24940195635089396,1.3277319138293469,0.9311827403115069,0.2879702375,0.6574993388321224
0.026000000000000002,1.7831000000000001,1.0,2598.9142539250524,0.25361221964943453,1.3273146083136342,0.9332201098502712,0.2879432,0.6583710050525899
0.0265,1.78244375,1.0,2611.5686975339145,0.25779886620399084,1.3269005020278497,0.9351575418509497,0.2879156375,0.6592348908607776
0.027,1.781775,1.0,2623.350261729098,0.2619620278848638,1.3264891278826019,0.9370014512102245,0.28788755,0.6600919941787565
0.0275,1.7810937500000001,1.0,2634.303335747976,0.26610183656235403,1.3260800187884987,0.9387577459996883,0.2878589375,0.660943307866366
0.028,1.7804,1.0,2644.4731621269266,0.27021842410676244,1.3256727076561488,0.9404318742152543,0.2878298,0.6617898197956399
0.0285,1.77969375,1.0,2653.9009235814356,0.27431191955416073,1.3252667719533016,0.9420288709399921,0.2878001375,0.6626324204817567
0.029,1.778975,1.0,2662.6289992665925,0.27838245608537576,1.3248617842784136,0.9435533910485493,0.28776995,0.6634720061079256
0.029500000000000002,1.7782437500000001,1.0,2670.690876708966,0.28243016152948297,1.3244574045120094,0.9450097519108074,0.2877392375,0.6643092878103645
0.03,1.7775,1.0,2678.118716324355,0.28645516242508884,1.3240533092402866,0.9464019547323177,0.287708,0.6651449386811836
0.0305,1.77674375,1.0,2684.9451167717725,0.29045758531080007,1.3236491750494424,0.9477337100846609,0.2876762375,0.6659796284751768
0.031,1.775975,1.0,2691.2030735935004,0.29443755672522315,1.3232446785256742,0.9490084626741779,0.28764395,0.6668140236123519
0.0315,1.7751937500000001,1.0,2696.9259401747845,0.29839520320696467,1.3228394962551795,0.9502294137087727,0.2876111375,0.6676487871737945
0.032,1.7744,1.0,2702.1379340224084,0.3023306460117596,1.322433391218762,0.9513995500661659,0.2875778,0.6684844012345943
0.0325,1.77359375,1.0,2706.8713335502907,0.30624401393176554,1.3220260551353034,0.9525216466656722,0.2875439375,0.6693214917538093
0.033,1.772775,1.0,2711.162566530081,0.310135437485793,1.3216171441969609,0.9535982861845314,0.28750955,0.6701607543322426
0.0335,1.7719437500000002,1.0,2715.0311064999673,0.3140050366423905,1.3212064712645846,0.954631893133624,0.2874746375,0.6710025600055919
0.034,1.7711000000000001,1.0,2718.4965891309607,0.3178529313701066,1.3207938491990234,0.9556247313988134,0.2874392,0.671847277793604
0.0345,1.7702437500000001,1.0,2721.578796503588,0.32167924163749,1.3203790908611275,0.9565789167776227,0.2874032375,0.6726952746779256
0.035,1.7693750000000001,1.0,2724.2976421604917,0.32548408741308926,1.3199620091117459,0.9574964283974734,0.28736675,0.6735469155777265
0.035500000000000004,1.76849375,1.0,2726.673156935932,0.3292675886654529,1.3195424168117282,0.9583791191269702,0.2873297375,0.6744025633230859
0.036000000000000004,1.7676,1.0,2728.725475561394,0.3330298653631297,1.319120126821924,0.9592287250794932,0.2872922,0.6752625786261455
0.0365,1.76669375,1.0,2730.4748240478957,0.33677103747466797,1.3186949520031828,0.9600468742976191,0.2872541375,0.6761273200500288
0.037,1.765775,1.0,2731.9415078446673,0.3404912249686165,1.318266705216354,0.9608350946973981,0.28721555,0.6769971439755309
0.0375,1.76484375,1.0,2733.1383741196955,0.3441905418037562,1.3178352676911367,0.9615948267499186,0.2871764375,0.6778722659811973
0.038,1.7639,1.0,2734.08513856975,0.347869109712516,1.3174004587571801,0.9623274200724203,0.28713679999999997,0.6787530254487615
0.0385,1.76294375,1.0,2734.802190825417,0.3515270496659419,1.3169620920788612,0.9630341434586529,0.28709663750000003,0.6796397709980597
0.039,1.761975,1.0,2735.3006765914274,0.3551644744821375,1.3165200656323632,0.9637161974699451,0.28705595,0.6805326787375143
0.0395,1.7609937500000001,1.0,2735.591772808355,0.3587814969792064,1.3160742773938698,0.9643747130202293,0.2870147375,0.6814319233735429
0.04,1.76,1.0,2735.686683276477,0.3623782299752523,1.3156246253395638,0.9650107561577211,0.286973,0.6823376781864158
0.0405,1.7589937500000001,1.0,2735.5966345109778,0.3659547862883788,1.3151710074456289,0.9656253324694322,0.2869307375,0.6832501150054444
0.041,1.757975,1.0,2735.33287182822,0.3695112787366895,1.314713321688248,0.9662193911419237,0.28688795,0.6841694041835118
0.0415,1.75694375,1.0,2734.9066556619177,0.37304782013828797,1.3142514660436049,0.9667938287084534,0.2868446375,0.6850957145709344
0.042,1.7559,1.0,2734.3292581112332,0.37656452331127793,1.3137853384878826,0.9673494925097309,0.28680079999999997,0.6860292134886637
0.0425,1.75484375,1.0,2733.6119597188363,0.3800615010737629,1.3133148369972645,0.9678871838928973,0.2867564375,0.6869700667008214
0.043000000000000003,1.753775,1.0,2732.759517003812,0.3835388598244856,1.3128399188629603,0.968407664976212,0.28671155,0.6879183200440575
0.043500000000000004,1.75269375,1.0,2731.78530363178,0.38699671558036175,1.312360463148999,0.9689116526146907,0.28666613750000003,0.6888741743027516
0.044,1.7516,1.0,2730.7012809104644,0.3904351808252535,1.3118763617479565,0.9693998264368723,0.2866202,0.6898378028790108
0.0445,1.75049375,1.0,2729.513463586685,0.39385436165300525,1.3113875605833851,0.9698728339675166,0.2865737375,0.6908092701337011
0.045,1.7493750000000001,1.0,2728.2278674080026,0.397254364157461,1.3108940055788356,0.9703312893975164,0.28652675,0.6917886393340145
0.0455,1.74824375,1.0,2726.8505080214877,0.40063529443246515,1.3103956426578596,0.9707757756208205,0.2864792375,0.6927759726371632
0.046,1.7471,1.0,2725.3873999376074,0.4039972585718618,1.3098924177440083,0.9712068461278529,0.2864312,0.6937713310738935
0.0465,1.7459437500000001,1.0,2723.84455555899,0.40734036266949514,1.3093842767608332,0.9716250267668181,0.28638263750000004,0.6947747745318117
0.047,1.744775,1.0,2722.227984273367,0.41066471281920947,1.3088711656318857,0.9720308173832889,0.28633355,0.6957863617385213
0.0475,1.74359375,1.0,2720.543691612624,0.41397041511484894,1.308353030280717,0.9724246933475601,0.28628393750000003,0.6968061502445768
0.048,1.7424,1.0,2718.79767847496,0.4172575756502578,1.3078298166308784,0.9728071069784304,0.2862338,0.6978341964062493
0.0485,1.74119375,1.0,2716.991850073106,0.4205262899397874,1.3073015078710417,0.9731784901591876,0.2861831375,0.6988704823347707
0.049,1.739975,1.0,2715.135291474657,0.423776672725853,1.3067680217516233,0.9735392520931891,0.28613195,0.6999151174445012
0.0495,1.73874375,1.0,2713.2338873305534,0.4270088308235934,1.3062293051031406,0.973889783704536,0.2860802375,0.7009681527297438
0.05,1.7375,1.0,2711.290569526004,0.4302228633921583,1.3056853316224515,0.9742304585765283,0.286028,0.7020295855576271
0.0505,1.73624375,1.0,2709.30826686222,0.4334188695906973,1.3051360750064138,0.9745616330354768,0.2859752375,0.703099412403317
0.051000000000000004,1.734975,1.0,2707.2899048381105,0.4365969485783602,1.3045815089518857,0.9748836470988034,0.28592195,0.7041776288411746
0.051500000000000004,1.73369375,1.0,2705.238405446432,0.4397571995142965,1.3040216071557253,0.9751968253629261,0.2858681375,0.7052642295358731
0.052000000000000005,1.7324,1.0,2703.156686985804,0.442899721557656,1.3034563433147905,0.9755014778352583,0.2858138,0.7063592082334693
0.0525,1.73109375,1.0,2701.0476638881587,0.44602461386758824,1.3028856911259394,0.9757979007142871,0.28575893750000003,0.7074625577524298
0.053,1.729775,1.0,2698.9142465608775,0.44913197560324297,1.3023096242860301,0.9760863771214017,0.28570355000000003,0.7085742699746151
0.0535,1.72844375,1.0,2696.7593412450206,0.4522219059237698,1.3017281164919206,0.9763671777878392,0.2856476375,0.7096943358362182
0.054,1.7271,1.0,2694.5858498885664,0.45529450398831856,1.301141141440469,0.9766405616998661,0.2855912,0.7108227453186591
0.0545,1.7257437500000001,1.0,2692.3966700348283,0.4583498689560387,1.3005486728285331,0.9769067767050618,0.2855342375,0.7119594874394367
0.055,1.724375,1.0,2690.19034996579,0.46138806668126414,1.2999507241326747,0.9771660592543892,0.28547675,0.7131044741463142
0.0555,1.72299375,1.0,2687.975628523432,0.46440923585675586,1.2993472155119838,0.9774186372584301,0.2854187375,0.7142577951697127
0.056,1.7216,1.0,2685.7543411722477,0.467413472782132,1.2987381302528211,0.9776647287237525,0.2853602,0.7154194181538536
0.0565,1.72019375,1.0,2683.5275397050605,0.4704008683206101,1.2981234587982695,0.9779045425182104,0.28530113749999997,0.7165892962823868
0.057,1.718775,1.0,2681.2962742107425,0.4733715133354077,1.297503191591413,0.9781382789174444,0.28524155,0.7177673819927392
0.0575,1.71734375,1.0,2679.061593062441,0.4763254986897424,1.296877319075335,0.9783661300256554,0.2851814375,0.7189536269727095
0.058,1.7159,1.0,2676.824542908576,0.4792629152468317,1.2962458316931194,0.9785882801725,0.2851208,0.7201479821570536
0.0585,1.71444375,1.0,2674.5861686652142,0.48218385386989304,1.2956087198878492,0.9788049062876397,0.2850596375,0.7213503977240661
0.059000000000000004,1.7129750000000001,1.0,2672.3475135105646,0.4850884054221441,1.2949659741026085,0.9790161782543741,0.28499795,0.7225608230921534
0.059500000000000004,1.71149375,1.0,2670.1096188817905,0.4879766607668024,1.2943175847804806,0.979222259243671,0.2849357375,0.723779206916405
0.06,1.71,1.0,2667.8735244734594,0.4908487107670854,1.2936635423645495,0.979423306029838,0.284873,0.7250054970851545
0.0605,1.7084937500000001,1.0,2665.64026823847,0.49370464628621075,1.2930038372978983,0.9796194692889646,0.2848097375,0.7262396407165395
0.061,1.7069750000000001,1.0,2663.41088639039,0.49654455818739596,1.292338460023611,0.9798108938812117,0.28474595,0.7274815841550498
0.0615,1.7054437500000001,1.0,2661.1864134083994,0.49936853733385855,1.2916674009847708,0.9799977191179344,0.2846816375,0.7287312729680768
0.062,1.7039,1.0,2658.967882044295,0.5021766745888161,1.2909906506244615,0.9801800790145582,0.2846168,0.7299886519424509
0.0625,1.70234375,1.0,2656.756323330481,0.5049690608154861,1.2903081993857668,0.9803581025300792,0.2845514375,0.7312536650809753
0.063,1.7007750000000001,1.0,2654.5527665915706,0.507745786877086,1.2896200377117701,0.9805319137939812,0.28448555,0.7325262555989568
0.0635,1.69919375,1.0,2652.3561440727008,0.5105069169306229,1.2889261753667973,0.9807016313368501,0.28441913750000003,0.7338063303186055
0.064,1.6976,1.0,2650.167310193741,0.5132525478728868,1.2882266044001345,0.9808673708417555,0.2843522,0.7350938281759196
0.0645,1.69599375,1.0,2647.9890515736943,0.5159827982794237,1.2875212990169345,0.9810292444049435,0.2842847375,0.7363887200625465
0.065,1.694375,1.0,2645.821456860558,0.5186977497897383,1.2868102582886227,0.981187358629291,0.28421675,0.7376909302946859
0.0655,1.69274375,1.0,2643.6646145910677,0.5213974840433351,1.2860934812866245,0.9813418162814853,0.2841482375,0.7390003825424103
0.066,1.6911,1.0,2641.5186131930436,0.5240820826797189,1.2853709670823648,0.9814927164560191,0.2840792,0.7403169998293238
0.0665,1.6894437500000001,1.0,2639.3835409870185,0.5267516273383943,1.284642714747269,0.9816401547310353,0.2840096375,0.7416407045322222
0.067,1.687775,1.0,2637.2594861878842,0.529406199658866,1.2839087233527622,0.981784223316482,0.28393955,0.742971418380755
0.0675,1.68609375,1.0,2635.1465369073007,0.5320458812806386,1.2831689919702698,0.9819250111950064,0.2838689375,0.7443090624570832
0.068,1.6844000000000001,1.0,2633.044781155476,0.5346707538432168,1.2824235196712168,0.9820626042559931,0.2837978,0.7456535571955415
0.0685,1.68269375,1.0,2630.9543068427724,0.5372808989861052,1.2816723055270287,0.982197085423124,0.2837261375,0.7470048223822965
0.069,1.680975,1.0,2628.8752017822057,0.5398763983488086,1.2809153486091307,0.9823285347758164,0.28365395,0.7483627771550083
0.0695,1.67924375,1.0,2626.8075536911533,0.5424573335708315,1.280152647988948,0.9824570296648721,0.28358123749999997,0.7497273400024891
0.07,1.6775,1.0,2624.7514501934384,0.5450237862916786,1.2793842027379057,0.9825826448226506,0.283508,0.751098428764365
0.07050000000000001,1.67574375,1.0,2622.7069788214653,0.5475758381508546,1.278610011927429,0.9827054524680622,0.2834342375,0.752475960630733
0.07100000000000001,1.673975,1.0,2620.6742270179548,0.5501135707878642,1.2778300746289435,0.9828255224066551,0.28335995,0.753859852141823
0.07150000000000001,1.67219375,1.0,2618.6532821384376,0.5526370658422118,1.277044389913874,0.9829429221260593,0.2832851375,0.7552500191876576
0.07200000000000001,1.6704,1.0,2616.644231453064,0.5551464049534024,1.276252956853646,0.9830577168870307,0.2832098,0.7566463770077092
0.0725,1.66859375,1.0,2614.647162148875,0.5576416697609404,1.2754557745196846,0.9831699698103246,0.2831339375,0.7580488401905634
0.073,1.6667750000000001,1.0,2612.6621613318753,0.5601229419043307,1.274652841983415,0.9832797419596184,0.28305755,0.7594573226735754
0.0735,1.66494375,1.0,2610.686905846685,0.5625903011989729,1.2738441807168712,0.9833870933132889,0.2829806375,0.7608716986208724
0.074,1.6631,1.0,2608.720163550791,0.5650438222873025,1.273029802081231,0.9834920811851177,0.2829032,0.7622918596157011
0.0745,1.6612437500000001,1.0,2606.767066414975,0.5674835833535776,1.2722096582616103,0.9835947586574881,0.2828252375,0.7637177995825809
0.075,1.659375,1.0,2604.827140330788,0.5699096601383253,1.271383753534488,0.9836951792509843,0.28274675,0.7651494206553962
0.0755,1.65749375,1.0,2602.899911965389,0.5723221283820727,1.270552092176343,0.9837933947982185,0.2826677375,0.7665866244228433
