Time [s],Phi [rad],STIM [ ],Fsee [N],Gamma [ ],Lcerel [ ],q [ ],Lmtc [m],fisomrel [ ]
0.0,1.8,1.0,17.96717784351265,3.4224815972721665e-05,1.3793397440153592,0.005000309165922493,0.288653,0.5411395363850822
0.0005,1.79999375,1.0,18.284693217969792,0.005643242150624015,1.3793015048983344,0.013007905679442353,0.2886527375,0.5412320420339887
0.001,1.799975,1.0,21.644388798129842,0.011220797332829626,1.3789356466552918,0.035734927072665894,0.28865195,0.5421166316770915
0.0015,1.79994375,1.0,31.133531754005336,0.016767066841274332,1.3780407287829244,0.0707745970366198,0.2886506375,0.544276809251516
0.002,1.7999,1.0,53.72301267238017,0.02228222616294816,1.3763590146503542,0.11492255771978054,0.2886488,0.5483223599853779
0.0025,1.79984375,1.0,97.35670985810435,0.027766449800887695,1.3739237165884397,0.16479737255278168,0.28864643749999996,0.5541487696833172
0.003,1.7997750000000001,1.0,161.26848932316997,0.03321991128166117,1.3712027336829478,0.21750996475434373,0.28864354999999997,0.5606139365634776
0.0035,1.79969375,1.0,238.0344803416241,0.03864278315514177,1.3685739219132644,0.27084115706226536,0.2886401375,0.566815255374601
0.004,1.7996,1.0,321.8406947958163,0.044035237005242235,1.3661461914703055,0.32313682489609563,0.2886362,0.5725030818615766
0.0045000000000000005,1.7994937500000001,1.0,409.6552060875762,0.0493974434551128,1.363913721265442,0.37324431482961473,0.2886317375,0.577700266182201
0.005,1.799375,1.0,499.8090220409497,0.05472957215831815,1.3618499392882533,0.4204437502214492,0.28862675,0.5824764714192839
0.0055,1.79924375,1.0,591.1896179100713,0.06003179184514175,1.359931036940076,0.4643554310098214,0.2886212375,0.5868930122679896
0.006,1.7991000000000001,1.0,682.9179598802413,0.06530427026862737,1.3581391475746911,0.5048469722837434,0.2886152,0.5909960171379898
0.006500000000000001,1.79894375,1.0,774.275948206367,0.07054717419412047,1.3564605168529713,0.5419534950189145,0.2886086375,0.5948211094544406
0.007,1.798775,1.0,864.6864303974963,0.075760669765404,1.354883924462406,0.5758158640177433,0.28860155,0.5983973219329124
0.0075,1.79859375,1.0,953.6309770430145,0.08094492156352243,1.353400815622913,0.6066364708418136,0.2885939375,0.6017470137661349
0.008,1.7984,1.0,1040.7382629396127,0.08610009383425166,1.3520030549421562,0.6346470488193544,0.2885858,0.6048911011205018
0.0085,1.79819375,1.0,1125.691644622833,0.09122634974504411,1.3506838991077785,0.6600888428243338,0.2885771375,0.6078469480438948
0.009000000000000001,1.797975,1.0,1208.239759609244,0.09632385113457695,1.3494373954328893,0.6831992848067656,0.28856795,0.6106298044422147
0.0095,1.79774375,1.0,1288.2228057583434,0.10139275984152032,1.3482577493615324,0.7042039540918508,0.2885582375,0.6132542729899237
0.01,1.7975,1.0,1365.5100283794845,0.10643323627653478,1.347139977347337,0.7233128121711794,0.288548,0.6157328958140638
0.0105,1.79724375,1.0,1439.9945300113516,0.1114454392631471,1.3460797534635616,0.7407182848454477,0.2885372375,0.6180765441409453
0.011,1.796975,1.0,1511.6314461189354,0.11642952751338945,1.3450727764344663,0.7565946086578982,0.28852595000000003,0.6202958512876557
0.0115,1.79669375,1.0,1580.4162055188046,0.12138565906545529,1.3441149566872144,0.7710985098638183,0.2885141375,0.6224008181892748
0.012,1.7964,1.0,1646.3585451419838,0.12631399121843329,1.343202635712021,0.7843703761217194,0.28850180000000003,0.6244003534449036
0.0125,1.79609375,1.0,1709.46242387607,0.13121467901773404,1.3423327216121013,0.7965356113701088,0.2884889375,0.6263020016379196
0.013000000000000001,1.7957750000000001,1.0,1769.7679000816624,0.13608787750876822,1.3415021224906698,0.8077057911890367,0.28847555,0.6281132025968355
0.0135,1.79544375,1.0,1827.3261535201673,0.14093374076690682,1.3407079885176043,0.8179801714759698,0.2884616375,0.6298407734703062
0.014,1.7951000000000001,1.0,1882.2278698136981,0.14575242365589006,1.3399473508721094,0.8274468852977905,0.2884472,0.6314917048311064
0.0145,1.79474375,1.0,1934.5265531312655,0.15054407769198186,1.3392179300715377,0.8361844802750298,0.2884322375,0.6330714155547876
0.015,1.794375,1.0,1984.2845021456849,0.15530885379426476,1.3385175758517,0.8442628174271588,0.28841675,0.6345849835442874
0.0155,1.79399375,1.0,2031.5825510231107,0.16004690288182133,1.337844137948408,0.851744043502105,0.2884007375,0.6360374312943146
0.016,1.7936,1.0,2076.5040226271417,0.1647583749318987,1.3371956166136503,0.8586835485811203,0.2883842,0.637433406047641
0.0165,1.7931937500000001,1.0,2119.1493951438433,0.16944342038161658,1.3365699882177622,0.8651307126547301,0.2883671375,0.638777560685891
0.017,1.792775,1.0,2159.593495435972,0.1741021866880064,1.3359656304120429,0.8711297389455308,0.28834955,0.6400736453502507
0.0175,1.7923437500000001,1.0,2197.9108061282273,0.17873482049374229,1.3353810356835887,0.8767201802498414,0.2883314375,0.6413251304330467
0.018000000000000002,1.7919,1.0,2234.1854907024067,0.18334146844149843,1.3348146965194954,0.8819374535315925,0.2883128,0.6425354559775454
0.0185,1.79144375,1.0,2268.5016502858493,0.1879222761528999,1.3342651943354775,0.8868133452434487,0.2882936375,0.6437078439281424
0.019,1.790975,1.0,2300.9523221242403,0.19247739022456575,1.333731099584674,0.8913764072364921,0.28827395,0.6448455139349629
0.0195,1.79049375,1.0,2331.6128503871237,0.19700695445080085,1.333211227272956,0.8956523868725086,0.2882537375,0.6459511416430183
0.02,1.79,1.0,2360.551552873882,0.2015111110182492,1.332704518871791,0.8996645156323986,0.288233,0.647027114548119
0.0205,1.78949375,1.0,2387.8418548258323,0.2059900021135547,1.3322099158526466,0.9034337626541393,0.2882117375,0.6480758029629384
0.021,1.788975,1.0,2413.561859914261,0.21044376992336136,1.331726359686991,0.9069790858395829,0.28818995000000003,0.6490995608699524
0.021500000000000002,1.78844375,1.0,2437.77890901991,0.21487255437398664,1.3312529364742425,0.9103176816732367,0.2881676375,0.6501004211645136
0.022,1.7879,1.0,2460.581209271526,0.219276499000863,1.3307885671520667,0.9134651145618669,0.2881448,0.6510807520455442
0.0225,1.78734375,1.0,2482.026955812873,0.2236557419161337,1.3303324930842562,0.9164355841153522,0.28812143749999997,0.6520422321834818
0.023,1.786775,1.0,2502.1716467280116,0.2280104203472075,1.3298840070533673,0.9192420171160041,0.28809755,0.6529864218444321
0.0235,1.78619375,1.0,2521.0731894122273,0.23234067152149315,1.3294424018419566,0.9218961905146971,0.28807313749999996,0.6539148720299834
0.024,1.7856,1.0,2538.7916986191617,0.23664663266639946,1.3290069702325804,0.9244088495911038,0.2880482,0.6548291248035012
0.0245,1.78499375,1.0,2555.387381905993,0.24092844058467003,1.3285770230792966,0.9267898155358932,0.2880227375,0.6557306757153936
0.025,1.784375,1.0,2570.9118346317223,0.2451862298356353,1.3281519688795258,0.9290480906007597,0.28799675,0.6566208077821771
0.025500000000000002,1.78374375,1.0,2585.436479025699,0.24942013918343983,1.327731045256981,0.9311918963829175,0.2879702375,0.6575011542562712
0.026000000000000002,1.7831000000000001,1.0,2599.0026126310163,0.2536303004938633,1.3273137852430927,0.9332288217451714,0.2879432,0.6583727231818832
0.0265,1.78244375,1.0,2611.6526531429504,0.2578168456326856,1.3268997218692917,0.9351658381862761,0.2879156375,0.659236517352614
0.027,1.781775,1.0,2623.4300444489836,0.26197990646568636,1.3264883881670082,0.9370093583431753,0.28788755,0.6600935344136128
0.0275,1.7810937500000001,1.0,2634.379167503473,0.2661196148586454,1.3260793171676726,0.938765288237592,0.2878589375,0.6609447669498227
0.028,1.7804,1.0,2644.545256036678,0.2702361026773424,1.3256720419027155,0.9404390740033799,0.2878298,0.6617912025603188
0.0285,1.77969375,1.0,2653.969534985785,0.27432949896015546,1.3252661394853458,0.9420357489636099,0.2878001375,0.6626337324754452
0.029,1.778975,1.0,2662.6942323679164,0.27839993687477477,1.3248611839382278,0.9435599666340883,0.28776995,0.6634732499051432
0.029500000000000002,1.7782437500000001,1.0,2670.7528476939665,0.2824475442657652,1.3244568350543398,0.9450160429465461,0.2877392375,0.664310466155998
0.03,1.7775,1.0,2678.177551494124,0.286472447664216,1.3240527693480388,0.9464079777868993,0.287708,0.6651460544574832
0.0305,1.77674375,1.0,2685.0009523963254,0.29047477360121654,1.323648663333683,0.9477394805205186,0.2876762375,0.6659806847012765
0.031,1.775975,1.0,2691.2560557673437,0.29445464860785625,1.3232441935256294,0.9490139947498811,0.28764395,0.6668150234437674
0.0315,1.7751937500000001,1.0,2696.9762246737396,0.2984121992152244,1.3228390364382359,0.9502347206714897,0.2876111375,0.6676497339018859
0.032,1.7744,1.0,2702.1859301116165,0.3023475466990379,1.3224329527511247,0.9514046439705872,0.2875778,0.6684853028705069
0.0325,1.77359375,1.0,2706.9170428215266,0.3062608196601024,1.3220256379240294,0.952526539132671,0.2875439375,0.6693223485957333
0.033,1.772775,1.0,2711.206102672305,0.31015214888380394,1.3216167471354436,0.9536029880115219,0.28750955,0.670161568756429
0.0335,1.7719437500000002,1.0,2715.072570628341,0.31402165431331597,1.3212060933698369,0.9546364144050407,0.2874746375,0.6710033341265551
0.034,1.7711000000000001,1.0,2718.536069662869,0.3178694558918119,1.3207934896116775,0.9556290815424697,0.2874392,0.6718480134654419
0.0345,1.7702437500000001,1.0,2721.616369048305,0.32169567356246537,1.3203787488454353,0.9565831046159768,0.2874032375,0.6726959734956426
0.035,1.7693750000000001,1.0,2724.333369422327,0.32550042726844963,1.3199616840555788,0.9575004621943232,0.28736675,0.673547578878565
0.035500000000000004,1.76849375,1.0,2726.7070886296933,0.3292838369529383,1.319542108226577,0.9583830066300262,0.2873297375,0.6744031921878653
0.036000000000000004,1.7676,1.0,2728.75764833849,0.3330460225591047,1.3191198343428994,0.9592324735592423,0.2872922,0.6752631738806139
0.0365,1.76669375,1.0,2730.5052614331644,0.33678710403012235,1.3186946753890145,0.9600504905828373,0.2872541375,0.676127882266233
0.037,1.765775,1.0,2731.97022018166,0.3405072013091648,1.3182664443493917,0.9608385852076373,0.28721555,0.6769976734732002
0.0375,1.76484375,1.0,2733.1666662159364,0.34420642882674596,1.3178350106985643,0.9615981964686321,0.2871764375,0.6778727869076642
0.038,1.7639,1.0,2734.1126950494636,0.3478849071532679,1.3174002084899408,0.9623306748516468,0.28713679999999997,0.6787535320489226
0.0385,1.76294375,1.0,2734.828866861906,0.35154275825132514,1.3169618498395281,0.9630372888661364,0.28709663750000003,0.6796402606706136
0.039,1.761975,1.0,2735.326353663776,0.3551800948882978,1.3165198324856342,0.9637192387171347,0.28705595,0.6805331493726596
0.0395,1.7609937500000001,1.0,2735.6163587335777,0.3587970298315662,1.316074054166566,0.964377654987298,0.2870147375,0.6814323733504803
0.04,1.76,1.0,2735.710112229025,0.36239367584851057,1.315624412620632,0.965013603416569,0.286973,0.6823381063707941
0.0405,1.7589937500000001,1.0,2735.61886703173,0.3659701457065111,1.315170805586139,0.965628089304854,0.2869307375,0.6832505207467606
0.041,1.757975,1.0,2735.353894822203,0.3695265521729481,1.3147131308013953,0.9662220615711071,0.28688795,0.6841697873124486
0.0415,1.75694375,1.0,2734.9264823879903,0.3730630080152017,1.3142512860047082,0.96679641649895,0.2868446375,0.6850960753966425
0.042,1.7559,1.0,2734.3479281629184,0.37657962600065226,1.3137851689343854,0.9673520011960364,0.28680079999999997,0.6860295527959798
0.0425,1.75484375,1.0,2733.629538998681,0.3800765188966799,1.3133146773287345,0.9678896167917604,0.2867564375,0.6869703857474202
0.043000000000000003,1.753775,1.0,2732.7781967044016,0.38355379394058986,1.3128397491731207,0.9684100237907998,0.28671155,0.6879186586010807
0.043500000000000004,1.75269375,1.0,2731.8046354468274,0.38701156520249935,1.312360287503931,0.9689139405634238,0.28666613750000003,0.6888745242042777
0.044,1.7516,1.0,2730.720792327927,0.3904499467618487,1.3118761844358757,0.969402046836239,0.2866202,0.689838155553953
0.0445,1.75049375,1.0,2729.5327645650013,0.3938690446395284,1.3113873851455287,0.969874989895973,0.2865737375,0.6908096185338973
0.045,1.7493750000000001,1.0,2728.246650352363,0.39726896485642876,1.3108938348094634,0.9703333837102391,0.28652675,0.6917889779255935
0.0455,1.74824375,1.0,2726.8685477411645,0.4006498134334402,1.310395478604254,0.9707778109633859,0.2864792375,0.6927762973916969
0.046,1.7471,1.0,2725.4045535861064,0.404011696391453,1.309892261706474,0.9712088249489279,0.2864312,0.693771639459331
0.0465,1.7459437500000001,1.0,2723.860762558415,0.4073547197513577,1.3093841292926978,0.9716269513299403,0.28638263750000004,0.6947750655031865
0.047,1.744775,1.0,2722.2432662256256,0.41067898953404447,1.3088710265394987,0.9720326897778089,0.28633355,0.695786635728432
0.0475,1.74359375,1.0,2720.5581521983668,0.41398461176040385,1.3083528986234507,0.9724265154988078,0.28628393750000003,0.696806409153431
0.048,1.7424,1.0,2718.811503342635,0.41727169245132617,1.3078296907211278,0.9728088806571707,0.2862338,0.6978344435922668
0.0485,1.74119375,1.0,2717.007430558878,0.42054033692288245,1.3073013659249035,0.9731802168633432,0.2861831375,0.6988707605251547
0.049,1.739975,1.0,2715.1501282661075,0.42379064760620727,1.306767886534703,0.9735409347921977,0.28613195,0.6999153819867079
0.0495,1.73874375,1.0,2713.2455874050697,0.427022726651618,1.3062291984356886,0.9738914246312917,0.2860802375,0.7009683610504963
0.05,1.7375,1.0,2711.298227481349,0.4302366760371064,1.305685261781223,0.9742320593061653,0.286028,0.7020297217147489
0.0505,1.73624375,1.0,2709.308617814593,0.43343259733122014,1.3051360718045244,0.9745631967846017,0.2859752375,0.7030994186342606
0.051000000000000004,1.7349753087864683,1.0,2707.3010576337842,0.43661059239447697,1.3045815466142656,0.9748851736228865,0.28592196296903166,0.7041775556825955
0.051500000000000004,1.733703087214388,1.0,2705.674428094817,0.439770762037519,1.304021843109085,0.9751983264425117,0.2858685296630043,0.7052637720425856
0.052000000000000005,1.7324308656423075,1.0,2704.5759698071643,0.4429132054310924,1.3034573208847786,0.9755029894956038,0.2858150963569769,0.7063573163310986
0.0525,1.7311586440702271,1.0,2703.965985509413,0.44603802174594326,1.3028883395371422,0.9757994821202083,0.2857616630509495,0.7074574418763803
0.053,1.729886422498147,1.0,2703.8049353573433,0.44914531015281767,1.3023152586619717,0.9760881095452729,0.28570822974492216,0.7085634068244424
0.0535,1.7286142009260665,1.0,2704.0571913635895,0.4522351688443041,1.3017384032568662,0.9763691614081239,0.2856547964388948,0.7096745408163163
0.054,1.7273419793539861,1.0,2704.6848968329346,0.45530769679055183,1.3011581195267388,0.976642916174993,0.28560136313286744,0.7107901372548422
0.0545,1.726069757781906,1.0,2705.6605453526595,0.45836299041271,1.300574659786224,0.9769096344376222,0.2855479298268401,0.7119096744081496
0.055,1.7247975362098256,1.0,2706.957707319455,0.46140114586677466,1.2999882669856655,0.9771695651358128,0.28549449652081266,0.7130326520119168
0.0555,1.7235253146377452,1.0,2708.549988129052,0.46442225930874187,1.299399184075407,0.9774229467374581,0.2854410632147853,0.7141585732620551
0.056,1.722253093065665,1.0,2710.4163289547405,0.4674264245175015,1.2988076055162225,0.9776700047103278,0.28538762990875793,0.7152870372629514
0.0565,1.7209808714935846,1.0,2712.5299603953345,0.47041373838484796,1.2982137779683107,0.9779109585287125,0.2853341966027305,0.7164175466513618
0.057,1.7197086499215042,1.0,2714.8619396806007,0.47338429951736727,1.2976179678461206,0.9781460199747368,0.28528076329670315,0.717549570201357
0.0575,1.7184364283494238,1.0,2717.3983087232355,0.4763381998390373,1.2970203048592246,0.9783753838799603,0.2852273299906758,0.7186828396088434
0.058,1.7171642067773436,1.0,2720.1251067883077,0.47927553127383576,1.296420918717195,0.9785992372530077,0.28517389668464843,0.7198170884784889
0.0585,1.7158919852052632,1.0,2723.0283653510705,0.48219638574574053,1.2958199391296044,0.9788177596594063,0.28512046337862107,0.7209520523385115
0.059000000000000004,1.7146197636331828,1.0,2726.094103327823,0.4851008551787293,1.2952174958060252,0.9790311235801269,0.2850670300725937,0.722087468654399
0.059500000000000004,1.7133475420611026,1.0,2729.3083226801377,0.48798903149678,1.2946137184560296,0.9792394947501698,0.2850135967665663,0.723223076841554
0.06,1.7120753204890222,1.0,2732.6570043917086,0.49086100662387033,1.2940087367891904,0.9794430324784593,0.28496016346053893,0.7243586182768641
0.0605,1.7108030989169418,1.0,2736.126104818432,0.49371687248397816,1.2934026805150796,0.9796418899502098,0.28490673015451157,0.7254938363092033
0.061,1.7095308773448616,1.0,2739.7066690283696,0.49655671687494185,1.2927956329218462,0.9798362117148529,0.2848532968484842,0.7266285629524729
0.0615,1.7082586557727812,1.0,2743.3848740267695,0.49938063429435664,1.2921877212794488,0.9800261397048055,0.2847998635424568,0.7277625495329182
0.062,1.7069864342007008,1.0,2747.1513916483686,0.5021887146640626,1.2915790318415787,0.9802118080330603,0.2847464302364294,0.7288956256069121
0.0625,1.7057142126286204,1.0,2750.999928333814,0.5049810450290261,1.2909696231893357,0.9803933441746756,0.28469299693040206,0.7300276734089796
0.063,1.7044419910565403,1.0,2754.9241760494137,0.5077577124342135,1.2903595539038202,0.9805708709057742,0.2846395636243747,0.7311585760738984
0.0635,1.7031697694844599,1.0,2758.9178113913104,0.5105188039245911,1.2897488825661318,0.9807445065132376,0.28458613031834734,0.7322882176392791
0.064,1.7018975479123795,1.0,2762.974494764908,0.5132644065451255,1.289137667757371,0.9809143649935661,0.2845326970123199,0.7334164830479215
0.0645,1.7006253263402993,1.0,2767.0878696416803,0.5159946073407828,1.2885259680586372,0.9810805562415374,0.28447926370629256,0.7345432581499562
0.065,1.6993531047682189,1.0,2771.251561890608,0.5187094933565295,1.287913842051031,0.9812431862292575,0.2844258304002652,0.735668429704764
0.0655,1.6980808831961385,1.0,2775.4591791868993,0.521409151637332,1.2873013483156523,0.9814023571761616,0.2843723970942378,0.7367918853826793
0.066,1.696808661624058,1.0,2779.7118009411943,0.5240936539748691,1.286688477965979,0.9815581633576327,0.2843189637882104,0.7379136371222906
0.0665,1.695536440051978,1.0,2783.995726561222,0.5267631072836142,1.2860753551741204,0.9817107046178164,0.28426553048218306,0.7390334539604619
0.067,1.6942642184798975,1.0,2788.3082653696333,0.5294175936955691,1.2854620047204703,0.9818600708835348,0.2842120971761557,0.7401512878219711
0.0675,1.692991996907817,1.0,2792.6471027318635,0.532057194492277,1.2848484479329132,0.9820063487734002,0.28415866387012834,0.7412670972902118
0.068,1.691719775335737,1.0,2797.0099169392847,0.5346819909552812,1.2842347061393344,0.9821496219553715,0.284105230564101,0.7423808412815249
0.0685,1.6904475537636565,1.0,2801.394379116649,0.5372920643661255,1.2836208006676184,0.982289971268467,0.28405179725807356,0.743492479045469
0.069,1.6891753321915761,1.0,2805.798153139812,0.5398874960063532,1.2830067528456501,0.9824274748386561,0.2839983639520462,0.7446019701650546
0.0695,1.687903110619496,1.0,2810.2188955630786,0.5424683671575077,1.2823925840013144,0.982562208189239,0.28394493064601883,0.7457092745569535
0.07,1.6866308890474155,1.0,2814.654255557064,0.5450347591011324,1.2817783154624962,0.982694244346014,0.2838914973399914,0.7468143524716773
0.07050000000000001,1.6853586674753351,1.0,2819.1018748568094,0.5475867531187709,1.2811639685570801,0.9828236539375179,0.28383806403396405,0.7479171644937286
0.07100000000000001,1.684086445903255,1.0,2823.5593877191477,0.5501244304919665,1.2805495646129514,0.9829505052905937,0.2837846307279367,0.74901767154172
0.07150000000000001,1.6828142243311746,1.0,2828.024420891057,0.5526478725022627,1.2799351249579944,0.9830748645215396,0.28373119742190933,0.7501158348684696
0.07200000000000001,1.6815420027590942,1.0,2832.494593587663,0.5551571604312029,1.2793206709200946,0.9831967956230682,0.28367776411588197,0.7512116160610594
0.0725,1.6802697811870138,1.0,2836.9680221267436,0.5576523718571094,1.2787062193278105,0.9833163601295992,0.2836243308098546,0.7523049850382603
