Time [s],Phi [rad],STIM [ ],Fsee [N],Gamma [ ],Lcerel [ ],q [ ],Lmtc [m],fisomrel [ ]
0.0,1.8,1.0,18.05413855000549,0.00029968946459382,1.3793300132732733,0.0050233021190243116,0.288653,0.5411630772643441
0.0005,1.79999375,1.0,18.456894058109636,0.005907217752539712,1.3792824257107845,0.01376429203721544,0.2886527375,0.5412781937083649
0.001,1.799975,1.0,22.013560133821777,0.011483292240360977,1.3788981232221695,0.03713410815013552,0.28865195,0.5422073093709108
0.0015,1.79994375,1.0,31.931708279821276,0.017028089360002874,1.3779732270384093,0.07267949066093568,0.2886506375,0.5444395396752906
0.002,1.7999,1.0,55.37308376912424,0.02254178455154446,1.3762529152700798,0.11717188871577036,0.2886488,0.5485769890011677
0.0025,1.79984375,1.0,100.07249580500334,0.028024552272307626,1.3737939082812456,0.16724023501919058,0.28864643749999996,0.5544582721040554
0.003,1.7997750000000001,1.0,164.76515308294438,0.033476566002242754,1.3710726774157849,0.22002743010809775,0.28864354999999997,0.5609217731998752
0.0035,1.79969375,1.0,241.9649010251878,0.03889799824554698,1.3684534392071028,0.27334316371886735,0.2886401375,0.5670984156137047
0.004,1.7996,1.0,326.01032713207024,0.04428902054071789,1.3660361732000186,0.32555810799032053,0.2886362,0.5727599486896876
0.0045000000000000005,1.7994937500000001,1.0,413.96495867880026,0.04964980346599962,1.3638128673609442,0.37554181416455296,0.2886317375,0.5779343033884184
0.005,1.799375,1.0,504.20013118327677,0.054980516631039235,1.3617568694819646,0.42259260694082473,0.28862675,0.5826912225210741
0.0055,1.79924375,1.0,595.6150358627682,0.060281328714836845,1.359844765349777,0.46634452520538194,0.2886212375,0.5870910231197831
0.006,1.7991000000000001,1.0,687.3437249830042,0.06555240743392833,1.3580588523819042,0.5066746865433842,0.2886152,0.5911793948691129
0.006500000000000001,1.79894375,1.0,778.6735634646783,0.07079391954750006,1.3563855720756077,0.5436244717658415,0.2886086375,0.5949914668888451
0.007,1.798775,1.0,869.0195788793571,0.07600603098216198,1.3548140338962078,0.577338651974541,0.28860155,0.5985554889996834
0.0075,1.79859375,1.0,957.8904600066992,0.08118890646887202,1.35333538667385,0.6080214015129163,0.2885939375,0.6018944659567631
0.008,1.7984,1.0,1044.9122784790147,0.0863427102890155,1.3519416736702148,0.6359053690724173,0.2885858,0.605028884994286
0.0085,1.79819375,1.0,1129.7644731040814,0.09146760529598821,1.3506263045453575,0.6612319322432689,0.2885771375,0.6079757479619459
0.009000000000000001,1.797975,1.0,1212.2030425083703,0.09656375347435103,1.3493832938237202,0.6842380799737694,0.28856795,0.6107503635104846
0.0095,1.79774375,1.0,1292.0657907520592,0.10163131658626602,1.3482069407831698,0.7051487569165513,0.2885582375,0.6133671122143689
0.01,1.7975,1.0,1369.2172296551516,0.10667045472879473,1.3470923680653435,0.7241731597012393,0.288548,0.6158382909145157
0.0105,1.79724375,1.0,1443.56817218305,0.11168132702498251,1.346035059504789,0.7415027535828943,0.2885372375,0.6181751836527971
0.011,1.796975,1.0,1515.0724091298976,0.11666409198555068,1.3450307717733534,0.7573109585962892,0.28852595000000003,0.6203882861271816
0.0115,1.79669375,1.0,1583.7357863734019,0.12161890833262917,1.3440753236807284,0.7717536566821508,0.2885141375,0.6224877922002616
0.012,1.7964,1.0,1649.5458452826385,0.12654593204542322,1.343165350373877,0.7849706201182928,0.28850180000000003,0.6244819588736424
0.0125,1.79609375,1.0,1712.517261654801,0.13144531860452546,1.3422976503125752,0.7970865170410619,0.2884889375,0.6263785669339605
0.013000000000000001,1.7957750000000001,1.0,1772.6968730328947,0.1363172232099428,1.3414690729822671,0.8082122826154271,0.28847555,0.6281851791984411
0.0135,1.79544375,1.0,1830.1498466266892,0.14116180065619455,1.340676631903643,0.8184465722657723,0.2884616375,0.6299089045752225
0.014,1.7951000000000001,1.0,1884.9365799477496,0.14597920433410175,1.3399177122747437,0.8278771659237378,0.2884472,0.6315559594448488
0.0145,1.79474375,1.0,1937.1120824484872,0.150769585829985,1.339190023630144,0.836582165052313,0.2884322375,0.633131785299051
0.015,1.794375,1.0,1986.7523082986434,0.155533096730165,1.3384912755044187,0.8446309930938432,0.28841675,0.6346417615031623
0.0155,1.79399375,1.0,2033.9355007075176,0.16026988752987203,1.3378193547651935,0.8520854690432219,0.2884007375,0.6360908276340189
0.016,1.7936,1.0,2078.7657725585427,0.16498010989985448,1.337172052703166,0.8590006188097535,0.2883842,0.637484078048257
0.0165,1.7931937500000001,1.0,2121.3149508447555,0.1696639119805446,1.3365476542934052,0.8654256554943324,0.2883671375,0.6388254986913477
0.017,1.792775,1.0,2161.6560177959036,0.1743214411026502,1.3359445588669479,0.8714045512371835,0.28834955,0.6401187926265683
0.0175,1.7923437500000001,1.0,2199.8728596686624,0.17895284459687905,1.3353611657548314,0.8769766232611157,0.2883314375,0.6413676291567618
0.018000000000000002,1.7919,1.0,2236.0538431525724,0.18355826916210327,1.334795929478466,0.8821770954452107,0.2883128,0.6425755280760526
0.0185,1.79144375,1.0,2270.2896097468392,0.18813786143403377,1.33424737096038,0.8870375789346667,0.2882936375,0.6437458386673284
0.019,1.790975,1.0,2302.6642922903525,0.19269176695073842,1.3337141542948525,0.8915865077395109,0.28827395,0.6448815791558399
0.0195,1.79049375,1.0,2333.24524097686,0.19722012846847836,1.333195176082544,0.8958495214061039,0.2882537375,0.6459852507503907
0.02,1.79,1.0,2362.105487419134,0.20172308874351486,1.3326893329241138,0.8998497269234318,0.288233,0.6470593359646306
0.0205,1.78949375,1.0,2389.3232717121045,0.20620079053210916,1.332195521420222,0.9036079829757793,0.2882117375,0.6481062995801878
0.021,1.788975,1.0,2414.9712367019156,0.21065337497547715,1.3317127382825298,0.907143170190175,0.28818995000000003,0.6491283777458734
0.021500000000000002,1.78844375,1.0,2439.1340980673904,0.2150809853691392,1.331239903913471,0.9104723720480119,0.2881676375,0.650127952982763
0.022,1.7879,1.0,2461.8785461495677,0.21948376168543002,1.3307761487974858,0.9136111253685854,0.2881448,0.6511069495749474
0.0225,1.78734375,1.0,2483.26134169032,0.22386184173842497,1.3303207283779839,0.9165735674863915,0.28812143749999997,0.6520670165938718
0.023,1.786775,1.0,2503.3419411922264,0.22821536334219927,1.3298728980983745,0.919372559930984,0.28809755,0.6530097930490416
0.0235,1.78619375,1.0,2522.1822722853362,0.23254446431082823,1.3294319134020671,0.9220198212118881,0.28807313749999996,0.6539369082661128
0.024,1.7856,1.0,2539.846521385244,0.23684928245838716,1.3289970297324714,0.9245260441970676,0.2880482,0.6548499822296281
0.0245,1.78499375,1.0,2556.3889403631115,0.2411299522005254,1.3285676151778458,0.9269010181991642,0.2880227375,0.6557503898480326
0.025,1.784375,1.0,2571.8798034287715,0.24538661375635898,1.3281429039533599,0.9291536809096789,0.28799675,0.6566397786513267
0.025500000000000002,1.78374375,1.0,2586.363454015806,0.2496193999311605,1.3277223886134037,0.9312922622250123,0.2879702375,0.6575192474538432
0.026000000000000002,1.7831000000000001,1.0,2599.8843345295168,0.2538284431854911,1.3273055726781327,0.9333243147797463,0.2879432,0.6583898663706621
0.0265,1.78244375,1.0,2612.4880444903088,0.25801387597991204,1.3268919596677011,0.9352567773191875,0.2879156375,0.659252699950925
0.027,1.781775,1.0,2624.221240404095,0.26217583077498446,1.3264810531022642,0.9370960328309634,0.28788755,0.6601088072871064
0.0275,1.7810937500000001,1.0,2635.13154109764,0.2663144400312697,1.3260723565019765,0.9388479604639102,0.2878589375,0.6609592421085713
0.028,1.7804,1.0,2645.2573938228143,0.270429832476652,1.325665466131844,0.9405179941047005,0.2878298,0.661804860233191
0.0285,1.77969375,1.0,2654.6485248583895,0.27452214316798085,1.3252598809179494,0.942111139222263,0.2878001375,0.6626467151315094
0.029,1.778975,1.0,2663.3439924681147,0.27859150227040735,1.3248552045978543,0.9436320355995103,0.28776995,0.6634856379007851
0.029500000000000002,1.7782437500000001,1.0,2671.3748094395633,0.2826380363313694,1.3244511201506022,0.9450849864108276,0.2877392375,0.6643222915593735
0.03,1.7775,1.0,2678.7724639071835,0.2866618718983048,1.3240473105552366,0.946473978125685,0.287708,0.665157335847953
0.0305,1.77674375,1.0,2685.568876627142,0.2906631355186513,1.3236434587908013,0.9478027078358056,0.2876762375,0.6659914272382874
0.031,1.775975,1.0,2691.7963604811116,0.29464195373984686,1.3232392478363395,0.9490746079016646,0.28764395,0.6668252189355788
0.0315,1.7751937500000001,1.0,2697.4875822073286,0.29859845310932925,1.3228343606708952,0.9502928682103406,0.2876111375,0.6676593608744079
0.032,1.7744,1.0,2702.675526360889,0.30253276017453634,1.322428480273512,0.9514604563020519,0.2875778,0.66849449970827
0.0325,1.77359375,1.0,2707.3867076210104,0.3064449959250349,1.3220213512636212,0.952580141318823,0.2875439375,0.669331152201376
0.033,1.772775,1.0,2711.653607951055,0.3103352913731628,1.3216126659497631,0.9536545011225365,0.28750955,0.6701699397343306
0.0335,1.7719437500000002,1.0,2715.496943570239,0.3142037674241753,1.3212022258961018,0.954685950446592,0.2874746375,0.6710112566307066
0.034,1.7711000000000001,1.0,2718.9372127523507,0.3180505446161278,1.3207898361620556,0.955676744450159,0.2874392,0.6718554879308722
0.0345,1.7702437500000001,1.0,2721.995062070728,0.3218757434870756,1.320375301807042,0.9566289908747118,0.2874032375,0.6727030165562713
0.035,1.7693750000000001,1.0,2724.6912708467476,0.32567948457507395,1.3199584278904795,0.9575446614033881,0.28736675,0.6735542232839695
0.035500000000000004,1.76849375,1.0,2727.0467364417786,0.3294618884181783,1.3195390194717853,0.9584256020191232,0.2873297375,0.674409486718782
0.036000000000000004,1.7676,1.0,2729.082460390848,0.33322307555444386,1.3191168816103778,0.9592735424602143,0.2872922,0.6752691832629725
0.0365,1.76669375,1.0,2730.8145072631473,0.33696316028555606,1.3186918650583297,0.9600901080859786,0.2872541375,0.676133594214424
0.037,1.765775,1.0,2732.260870935165,0.34068226110183797,1.3182638037087677,0.9608768236203177,0.28721555,0.6770030333189636
0.0375,1.76484375,1.0,2733.449149780114,0.3443805106772966,1.3178324448189078,0.9616351157321216,0.2871764375,0.6778779879478186
0.038,1.7639,1.0,2734.3913214501217,0.3480580222136804,1.317397678082983,0.9623663350301493,0.28713679999999997,0.678758654169423
0.0385,1.76294375,1.0,2735.099406384407,0.3517149089127378,1.3169593931952261,0.9630717519961074,0.28709663750000003,0.6796452266113331
0.039,1.761975,1.0,2735.585462471535,0.35535128397621724,1.3165174798498702,0.9637525626066022,0.28705595,0.6805378984358641
0.0395,1.7609937500000001,1.0,2735.861579983473,0.35896726060586714,1.316071827741148,0.9644098935022729,0.2870147375,0.6814368613149555
0.04,1.76,1.0,2735.939876777482,0.362562952003436,1.3156223265632927,0.9650448067450342,0.286973,0.6823423054042546
0.0405,1.7589937500000001,1.0,2735.8324937691837,0.3661384713706721,1.315168866010537,0.965658304200274,0.2869307375,0.6832544193164293
0.041,1.757975,1.0,2735.5515906745127,0.36969393190932404,1.3147113357771136,0.966251331577219,0.28688795,0.6841733900937017
0.0415,1.75694375,1.0,2735.1093420216994,0.3732294468211402,1.314249625557256,0.9668247821574265,0.2868446375,0.6850994031796058
0.042,1.7559,1.0,2734.5179334334507,0.3767451293078689,1.3137836250451969,0.9673795002384623,0.28680079999999997,0.6860326423899723
0.0425,1.75484375,1.0,2733.789558178436,0.3802410925712587,1.313313223935169,0.9679162843172299,0.2867564375,0.6869732898831334
0.043000000000000003,1.753775,1.0,2732.9323686912744,0.38371744144105746,1.3128383486685509,0.9684358916934156,0.28671155,0.6879214528135658
0.043500000000000004,1.75269375,1.0,2731.9539952917353,0.38717428999497094,1.3123589304707175,0.9689390413010217,0.28666613750000003,0.6888772275356807
0.044,1.7516,1.0,2730.8654943517517,0.3906117571336071,1.3118748694606173,0.9694264125384213,0.2866202,0.6898407710424839
0.0445,1.75049375,1.0,2729.6728626655763,0.3940299481561345,1.3113861117307175,0.9698986509924079,0.2865737375,0.6908121473891107
0.045,1.7493750000000001,1.0,2728.382098061964,0.39742896836172165,1.310892603373485,0.970356369039007,0.28652675,0.6917914195397226
0.0455,1.74824375,1.0,2726.9991983024374,0.40080892304953697,1.3103942904813868,0.9708001478714312,0.2864792375,0.6927786493512643
0.046,1.7471,1.0,2725.530160044972,0.40416991751874903,1.3098911191468898,0.9712305393852616,0.2864312,0.6937738975570413
0.0465,1.7459437500000001,1.0,2723.9809778709587,0.4075120570685264,1.3093830354624612,0.9716480679321825,0.28638263750000004,0.6947772237501069
0.047,1.744775,1.0,2722.357643377287,0.4108354469980374,1.3088699855205677,0.9720532319526058,0.28633355,0.695788686366468
0.0475,1.74359375,1.0,2720.66614433296,0.4141401926064507,1.3083519154136767,0.9724465054966116,0.28628393750000003,0.696808342668102
0.048,1.7424,1.0,2718.9124638992857,0.4174263991929347,1.307828771234255,0.9728283396418248,0.2862338,0.6978362487257933
0.0485,1.74119375,1.0,2717.102579915908,0.42069417205665804,1.3073004990747694,0.9731991638161104,0.2861831375,0.6988724594017782
0.049,1.739975,1.0,2715.2424642496007,0.423943616496789,1.3067670450276871,0.9735593870322923,0.28613195,0.6999170283322098
0.0495,1.73874375,1.0,2713.33003066982,0.4271748200000667,1.3062284285886172,0.9739094019121061,0.2860802375,0.7009698645540376
0.05,1.7375,1.0,2711.373783513623,0.4303878998086428,1.3056845727088298,0.9742495798013435,0.286028,0.7020310650759571
0.0505,1.73624375,1.0,2709.3827184654774,0.43358296954490533,1.3051353957570542,0.9745802741222934,0.2859752375,0.7031007342352869
0.051000000000000004,1.734975,1.0,2707.359114595338,0.4367601262346641,1.3045808772901832,0.9749018242340818,0.28592195,0.7041788558327243
0.051500000000000004,1.73369375,1.0,2705.3052482671355,0.4399194669037288,1.30402099686511,0.9752145541195294,0.2858681375,0.7052654128352831
0.052000000000000005,1.7324,1.0,2703.22339300562,0.4430610885779093,1.3034557340387265,0.9755187732140096,0.2858138,0.7063603873693167
0.0525,1.73109375,1.0,2701.1158193727906,0.4461850882830153,1.3028850683679258,0.9758147771826421,0.28575893750000003,0.7074637607135106
0.053,1.729775,1.0,2698.984794853304,0.4492915630448567,1.3023089794096006,0.9761028486494604,0.28570355000000003,0.708575513291855
0.0535,1.72844375,1.0,2696.8325837493717,0.45238060988924317,1.3017274467206434,0.9763832578819095,0.2856476375,0.7096956246665858
0.054,1.7271,1.0,2694.661447084928,0.4554523258419846,1.301140449857947,0.9766562634337657,0.2855912,0.710824073531101
0.0545,1.7257437500000001,1.0,2692.473642518667,0.45850680792889065,1.3005479683784043,0.9769221127493384,0.2855342375,0.7119608377028499
0.055,1.724375,1.0,2690.2714242668085,0.4615441531757712,1.2999499818389075,0.977181042731588,0.28547675,0.713105894116196
0.0555,1.72299375,1.0,2688.057043035025,0.464564458608436,1.2993464697963497,0.977433280276599,0.2854187375,0.7142592188152522
0.056,1.7216,1.0,2685.832745959511,0.4675678212526948,1.2987374118076236,0.9776790427766635,0.2853602,0.7154207869466911
0.0565,1.72019375,1.0,2683.600776557315,0.47055433813435743,1.2981227874296213,0.9779185385940602,0.28530113749999997,0.7165905727525281
0.057,1.718775,1.0,2681.3633746862274,0.47352410627923364,1.2975025762192363,0.9781519675074629,0.28524155,0.7177685495628747
0.0575,1.71734375,1.0,2679.1221485344836,0.47647719580383535,1.296876763494868,0.9783795190806739,0.2851814375,0.7189546788801411
0.058,1.7159,1.0,2676.880394966946,0.47941373205018273,1.2962453190509318,0.9786013791833087,0.2851208,0.7201489507028433
0.0585,1.71444375,1.0,2674.639030395899,0.48233380804028314,1.2956082344894801,0.9788177246002665,0.2850596375,0.7213513128252951
0.059000000000000004,1.7129750000000001,1.0,2672.398790794205,0.48523751245557967,1.2949655030560456,0.9790287248002146,0.28499795,0.7225617092056567
0.059500000000000004,1.71149375,1.0,2670.160410902652,0.48812493397751555,1.2943171179961601,0.9792345425638629,0.2849357375,0.7237800830817422
0.06,1.71,1.0,2667.9246242299705,0.49099616128753376,1.2936630725553564,0.9794353342981222,0.284873,0.7250063769685826
0.0605,1.7084937500000001,1.0,2665.6921630553875,0.4938512830670775,1.2930033599791662,0.9796312503331437,0.2848097375,0.7262405326559922
0.061,1.7069750000000001,1.0,2663.4637584307598,0.49669038799758986,1.292337973513122,0.9798224352032997,0.28474595,0.7274824912061263
0.0615,1.7054437500000001,1.0,2661.2401401846005,0.49951356476051395,1.2916669064027562,0.9800090279130858,0.2846816375,0.7287321929510391
0.062,1.7039,1.0,2659.022036927242,0.5023209020372928,1.290990151893601,0.9801911621888655,0.2846168,0.7299895774902394
0.0625,1.70234375,1.0,2656.810176055909,0.5051124885093696,1.2903077032311885,0.9803689667173064,0.2845514375,0.7312545836882405
0.063,1.7007750000000001,1.0,2654.6052837622324,0.5078884128581875,1.289619553661051,0.9805425653713135,0.28448555,0.7325271496721095
0.0635,1.69919375,1.0,2652.408085039929,0.5106487637651895,1.288925696428721,0.9807120774241935,0.28441913750000003,0.7338072128290133
0.064,1.6976,1.0,2650.219303693171,0.5133936299118188,1.2882261247797306,0.9808776177527548,0.2843522,0.73509470980376
0.0645,1.69599375,1.0,2648.0396623472243,0.5161230999795184,1.287520831959612,0.9810392970299825,0.2842847375,0.7363895764963408
0.065,1.694375,1.0,2645.8698824587173,0.5188372626497315,1.286809811213898,0.9811972219079031,0.28421675,0.737691748059465
0.0655,1.69274375,1.0,2643.7079271832617,0.5215361587548275,1.2860930812529083,0.9813514931077453,0.2841482375,0.739001112433727
0.066,1.6911,1.0,2641.5567519794427,0.5242199191084488,1.2853706146905255,0.9815022117465475,0.2840792,0.7403176411707642
0.0665,1.6894437500000001,1.0,2639.417742387497,0.5268886483232622,1.2846423986078805,0.9816494742121993,0.2840096375,0.7416412784271443
0.067,1.687775,1.0,2637.290844546547,0.529542425853846,1.2839084333761455,0.981793372421182,0.28393955,0.7429719434244348
0.0675,1.68609375,1.0,2635.176004732929,0.5321813311547784,1.2831687193664922,0.9819339950773768,0.2838689375,0.7443095547587397
0.068,1.6844000000000001,1.0,2633.0731693588855,0.5348054436806374,1.282423256950093,0.982071427805282,0.2837978,0.7456540304008346
0.0685,1.68269375,1.0,2630.982284971586,0.5374148428860013,1.2816720464981197,0.9822057532768022,0.2837261375,0.7470052876963045
0.069,1.680975,1.0,2628.9032982526983,0.5400096082254482,1.2809150883817444,0.9823370513319623,0.28365395,0.7483632433656784
0.0695,1.67924375,1.0,2626.8361560171547,0.5425898191535563,1.280152382972139,0.982465399093876,0.28358123749999997,0.7497278135045662
0.07,1.6775,1.0,2624.7808052126657,0.5451555551249037,1.2793839306404753,0.9825908710782794,0.283508,0.7510989135837949
0.07050000000000001,1.67574375,1.0,2622.7371929184324,0.5477068955940686,1.2786097317579257,0.9827135392979235,0.2834342375,0.752476458449543
0.07100000000000001,1.673975,1.0,2620.7052663447557,0.5502439200156292,1.277829786695662,0.9828334733620949,0.28335995,0.7538603623234787
0.07150000000000001,1.67219375,1.0,2618.68497283192,0.5527667078441636,1.2770440958248561,0.9829507405715276,0.2832851375,0.7552505388028952
0.07200000000000001,1.6704,1.0,2616.676259849487,0.5552753385342499,1.2762526595166803,0.9830654060089467,0.2832098,0.7566469008608453
0.0725,1.66859375,1.0,2614.679074995474,0.5577698915404664,1.2754554781423062,0.9831775326254701,0.2831339375,0.7580493608462802
0.073,1.6667750000000001,1.0,2612.6933659954607,0.5602504463173913,1.2746525520729062,0.9832871813230879,0.28305755,0.7594578304841824
0.0735,1.66494375,1.0,2610.7190807018674,0.5627170823196027,1.273843881679652,0.9833944110334157,0.2829806375,0.7608722208757039
0.074,1.6631,1.0,2608.7561670929144,0.5651698790016787,1.2730294673337157,0.983499278792921,0.2829032,0.762292442498302
0.0745,1.6612437500000001,1.0,2606.8045732720293,0.5676089158181976,1.2722093094062694,0.9836018398147919,0.2828252375,0.7637184052058734
0.075,1.659375,1.0,2604.8642474671324,0.5700342722237375,1.271383408268485,0.9837021475576302,0.28274675,0.765150018228893
0.0755,1.65749375,1.0,2602.935138029541,0.5724460276728764,1.2705517642915343,0.9838002537911169,0.2826677375,0.7665871901745475
