Time [s],Phi [rad],STIM [ ],Fsee [N],Gamma [ ],Lcerel [ ],q [ ],Lmtc [m],fisomrel [ ]
0.0,1.8,1.0,18.609755679686998,0.0008168951905930281,1.3792683862522372,0.005171717957459939,0.288653,0.5413121530281371
0.0005,1.79999375,1.0,19.162512447215512,0.006421522363422833,1.3792051602501734,0.015331532728920298,0.2886527375,0.5414650715549756
0.001,1.799975,1.0,23.103771896424696,0.011994712009190753,1.378789111490381,0.03993635019345751,0.28865195,0.5424706920163512
0.0015,1.79994375,1.0,33.903081710270826,0.017536640467970648,1.3778100375275448,0.07644467045057209,0.2886506375,0.5448328301767704
0.002,1.7999,1.0,59.068881819941296,0.023047483089923868,1.3760208689999367,0.12158559345974847,0.2886488,0.5491336290705754
0.0025,1.79984375,1.0,105.82390049335345,0.028527414241835723,1.3735246963512173,0.17201303356271855,0.28864643749999996,0.5550998125501624
0.003,1.7997750000000001,1.0,171.957129711034,0.03397660731374426,1.3708094449302755,0.22493236992600246,0.28864354999999997,0.5615445011176691
0.0035,1.79969375,1.0,249.93326943207703,0.03939523472078741,1.3682121441507231,0.27820830837682353,0.2886401375,0.5676652324615022
0.004,1.7996,1.0,334.39666968103984,0.04478346791283759,1.3658170048211167,0.3302593814846866,0.2886362,0.5732714253306987
0.0045000000000000005,1.7994937500000001,1.0,422.59082507194796,0.0501414773776955,1.363612575444571,0.3799979125146339,0.2886317375,0.5783988998041014
0.005,1.799375,1.0,512.9484640534434,0.05546943261144488,1.361572648331813,0.42675726398772257,0.28862675,0.5831161351349463
0.0055,1.79924375,1.0,604.4184741868404,0.060767502310077895,1.3596740938768006,0.47019728259333543,0.2886212375,0.5874826090366787
0.006,1.7991000000000001,1.0,696.1254076595976,0.06603585397138646,1.3579002909473714,0.5102135508747558,0.2886152,0.5915413958539123
0.006500000000000001,1.79894375,1.0,787.3796875214232,0.07127465433393843,1.3562378227040701,0.5468590986460611,0.2886086375,0.5953272119740546
0.007,1.798775,1.0,877.6065332146484,0.07648406921540754,1.354676045404656,0.5802857755104658,0.28860155,0.5988676747962831
0.0075,1.79859375,1.0,966.316041437864,0.08166426325598856,1.3532063903130787,0.6107015767526847,0.2885939375,0.6021850951594552
0.008,1.7984,1.0,1053.1495037032819,0.08681540075192627,1.3518208992345075,0.6383405787000735,0.2885858,0.6052999198399952
0.0085,1.79819375,1.0,1137.7894137254239,0.09193764432508064,1.3505131254872962,0.6634442447493322,0.2885771375,0.6082287910112467
0.009000000000000001,1.797975,1.0,1219.998666267611,0.09703115597168575,1.3492771355104398,0.6862487216302892,0.28856795,0.6109868705663963
0.0095,1.79774375,1.0,1299.6202481839453,0.1020960973296471,1.3481072821512823,0.7069776215694735,0.2885582375,0.613588393218264
0.01,1.7975,1.0,1376.522499540846,0.10713262836565494,1.3469987392903127,0.7258385686130253,0.288548,0.6160455195501711
0.0105,1.79724375,1.0,1450.6195748703803,0.11214090824167655,1.3459470327148697,0.7430213755165851,0.2885372375,0.6183694214151048
0.011,1.796975,1.0,1521.8735383103592,0.11712109543865067,1.3449478888346749,0.7586977999364493,0.28852595000000003,0.6205706440959847
0.0115,1.79669375,1.0,1590.282763376553,0.12207334837551707,1.3439972798295639,0.7730222332417828,0.2885141375,0.6226590289217498
0.012,1.7964,1.0,1655.8338365013487,0.12699782286344533,1.3430918983405982,0.7861330195631296,0.28850180000000003,0.6246426954497597
0.0125,1.79609375,1.0,1718.5517843248642,0.1318946746096081,1.3422284623187333,0.7981534676439567,0.2884889375,0.6265295904941179
0.013000000000000001,1.7957750000000001,1.0,1778.478121252867,0.13676405846962655,1.341403919429984,0.809193361109213,0.28847555,0.6283270529268016
0.0135,1.79544375,1.0,1835.6931888602453,0.14160612993455404,1.3406151443436727,0.8193502348049234,0.2884616375,0.6300424854711066
0.014,1.7951000000000001,1.0,1890.2450706210504,0.14642104136264225,1.3398596886821406,0.8287109843499018,0.2884472,0.6316817347221891
0.0145,1.79474375,1.0,1942.190824566446,0.15120894442265242,1.3391352613169991,0.837352867922614,0.2884322375,0.6332502376640649
0.015,1.794375,1.0,1991.6082894098274,0.15596999078334584,1.3384395711198591,0.8453445639437934,0.28841675,0.634753369579738
0.0155,1.79399375,1.0,2038.5769780132116,0.1607043311310638,1.3377705089383156,0.8527472356408055,0.2884007375,0.6361960564143854
0.016,1.7936,1.0,2083.1996495026297,0.16541211661346367,1.3371258957812282,0.8596153379402571,0.2883842,0.6375833239595168
0.0165,1.7931937500000001,1.0,2125.5483118633233,0.17009349528908854,1.3365040274694677,0.8659975748419387,0.2883671375,0.6389191310485578
0.017,1.792775,1.0,2165.697286351005,0.17474861460961888,1.3359033007922605,0.8719374658111496,0.28834955,0.6402071827706128
0.0175,1.7923437500000001,1.0,2203.7317154074353,0.17937762202673513,1.3353221125388324,0.8774739287632006,0.2883314375,0.64145115064571
0.018000000000000002,1.7919,1.0,2239.7347668154976,0.18398066386459197,1.3347589786278722,0.8826418517947587,0.2883128,0.6426544203699739
0.0185,1.79144375,1.0,2273.8036796853107,0.188557887490752,1.3342123611958545,0.8874725185800897,0.2882936375,0.6438204643618995
0.019,1.790975,1.0,2306.0117616551074,0.1931094369076938,1.3336810388247613,0.891994115036979,0.28827395,0.6449520546199877
0.0195,1.79049375,1.0,2336.4302784899533,0.1976354552269291,1.3331638739734304,0.8962320257802083,0.2882537375,0.6460517636448221
0.02,1.79,1.0,2365.136231821204,0.20213608555996965,1.3326597291006992,0.9002091317514255,0.288233,0.6471221448808975
0.0205,1.78949375,1.0,2392.208695523521,0.20661147045917702,1.3321674975266313,0.9039460974880732,0.2882117375,0.6481656683255592
0.021,1.788975,1.0,2417.7234231304333,0.21106175189482607,1.3316861502890085,0.907461626719142,0.28818995000000003,0.6491846227884479
0.021500000000000002,1.78844375,1.0,2441.7595517895575,0.21548707261740885,1.3312146657884882,0.9107726621908117,0.2881676375,0.6501812664751915
0.022,1.7879,1.0,2464.3753083700067,0.21988757096501865,1.3307522585207645,0.9138946194180237,0.2881448,0.6511573452914967
0.0225,1.78734375,1.0,2485.631924681884,0.2242633852757488,1.3302981429815322,0.9168415034720172,0.28812143749999997,0.6521145942058397
0.023,1.786775,1.0,2505.5933879134714,0.22861465388769253,1.3298515336664856,0.9196260575516876,0.28809755,0.6530547376845259
0.0235,1.78619375,1.0,2524.326204749465,0.23294151513894315,1.329411645071319,0.9222598941479893,0.28807313749999996,0.6539794900873961
0.024,1.7856,1.0,2541.8876671538846,0.23724410429988035,1.328977800124372,0.9247536290566828,0.2880482,0.6548903285246453
0.0245,1.78499375,1.0,2558.3452487481118,0.2415225620256617,1.3285492443737486,0.9271169532944802,0.2880227375,0.6557888839969351
0.025,1.784375,1.0,2573.7473565145124,0.24577702250190708,1.3281254193340415,0.9293587665137977,0.28799675,0.6566763685805467
0.025500000000000002,1.78374375,1.0,2588.140148402156,0.25000761870014243,1.3277058011199063,0.9314872295824259,0.2879702375,0.6575539155368635
0.026000000000000002,1.7831000000000001,1.0,2601.571076535563,0.2542144835918935,1.3272898658459995,0.9335098311576845,0.2879432,0.6584226521508535
0.0265,1.78244375,1.0,2614.0887758231593,0.25839775014868627,1.326877089626977,0.935433452125921,0.2879156375,0.6592836998628738
0.027,1.781775,1.0,2625.7429586511494,0.26255755134204656,1.3264669485774945,0.9372644230787732,0.28788755,0.6601381743829706
0.0275,1.7810937500000001,1.0,2636.575737563958,0.2666940177862911,1.3260589981459412,0.9390085866191622,0.2878589375,0.6609870208165343
0.028,1.7804,1.0,2646.6301994707455,0.27080728185139624,1.325652792352795,0.9406713317841733,0.2878298,0.6618311825026384
0.0285,1.77969375,1.0,2655.960131939806,0.2748974777913145,1.3252477934876596,0.9422576222693743,0.2878001375,0.6626717883654615
0.029,1.778975,1.0,2664.596430555939,0.2789647325211282,1.3248436812422175,0.9437720746784254,0.28776995,0.6635095113424891
0.029500000000000002,1.7782437500000001,1.0,2672.570510065861,0.2830091729559194,1.324440135308151,0.945218961517335,0.2877392375,0.6643450210498364
0.03,1.7775,1.0,2679.9142591287646,0.2870309260107702,1.3240368353771423,0.9466022412409845,0.287708,0.6651789837970878
0.0305,1.77674375,1.0,2686.6599973419175,0.2910301186007628,1.323633461140874,0.9479255853194666,0.2876762375,0.6660120625955944
0.031,1.775975,1.0,2692.8404345403474,0.29500687764097944,1.3232296922910285,0.9491924026521811,0.28764395,0.6668449171602265
0.0315,1.7751937500000001,1.0,2698.488632371622,0.29896133004650216,1.322825208519288,0.9504058616183376,0.2876111375,0.6676782039045862
0.032,1.7744,1.0,2703.630123457937,0.3028935994594666,1.3224197611628583,0.9515689177495462,0.2875778,0.6685124286086908
0.0325,1.77359375,1.0,2708.297254137993,0.3068038134158252,1.3220130417068645,0.9526843174468841,0.2875439375,0.6693482173810368
0.033,1.772775,1.0,2712.5211283803637,0.31069209758363464,1.3216047552436179,0.9537546219064883,0.28750955,0.6701861651935352
0.0335,1.7719437500000002,1.0,2716.3224943569235,0.31455857272022947,1.3211947032001292,0.9547822305247131,0.2874746375,0.6710266665694544
0.034,1.7711000000000001,1.0,2719.722264873799,0.3184033595829443,1.3207826870034083,0.9557693840334955,0.2874392,0.6718701138994687
0.0345,1.7702437500000001,1.0,2722.741500728142,0.32222657892911366,1.3203685080804652,0.9567181768622405,0.2874032375,0.6727168974180385
0.035,1.7693750000000001,1.0,2725.4013949389146,0.3260283515160721,1.3199519678583103,0.9576305683986173,0.28736675,0.6735674051772793
0.035500000000000004,1.76849375,1.0,2727.7232578522917,0.32980879810115427,1.3195328677639535,0.9585083932578476,0.2873297375,0.6744220230183158
0.036000000000000004,1.7676,1.0,2729.728503120588,0.33356803944169466,1.3191110092244052,0.9593533706580943,0.2872922,0.67528113454012
0.0365,1.76669375,1.0,2731.432852677661,0.33730619533722095,1.3186862462031417,0.9601671180944932,0.2872541375,0.6761450142887455
0.037,1.765775,1.0,2732.858823064123,0.3410233838395894,1.3182583715937872,0.9609511472485314,0.28721555,0.6770140590257361
0.0375,1.76484375,1.0,2734.0221276357324,0.3447197218841706,1.3178272407030196,0.961706883995815,0.2871764375,0.6778885365660231
0.038,1.7639,1.0,2734.934398875725,0.34839532604997653,1.317392746376365,0.9624356722330303,0.28713679999999997,0.6787686369504733
0.0385,1.762945608662841,1.0,2735.699956560154,0.3520503128095975,1.3169547797070693,0.9631387759829074,0.2870967155638393,0.6796545523623826
0.039,1.7619899253021174,1.0,2736.7762513819084,0.3556847980900371,1.3165134097097968,0.9638174015343726,0.28705657686268893,0.6805461143937446
0.0395,1.7610342419413938,1.0,2738.193714855359,0.35929889725687586,1.3160689453699737,0.9644727068216287,0.28701643816153855,0.6814426714691091
0.04,1.7600785585806704,1.0,2739.9247191219756,0.362892723960616,1.3156216397378528,0.9651057777563788,0.28697629946038816,0.6823436879119549
0.0405,1.7591228752199468,1.0,2741.941658101209,0.36646639185175994,1.315171745863687,0.9657176384672906,0.2869361607592378,0.683248630769246
0.041,1.7581671918592232,1.0,2744.219148594467,0.3700200137388596,1.3147194967061764,0.9663092535858406,0.2868960220580874,0.6841570101817954
0.0415,1.7572115084984996,1.0,2746.730197486163,0.37355370353765943,1.3142651397824767,0.9668815355328617,0.286855883356937,0.6850683096859068
0.042,1.756255825137776,1.0,2749.454553639673,0.3770675726224484,1.3138088613878212,0.9674353409878446,0.2868157446557866,0.6859821381201507
0.0425,1.7553001417770524,1.0,2752.374483346532,0.3805617313419855,1.3133508248985208,0.9679714780261001,0.2867756059546362,0.6868981522175273
0.043000000000000003,1.7543444584163288,1.0,2755.4722364839895,0.38403629004502976,1.312891193690887,0.9684907113132535,0.2867354672534858,0.6878160105570532
0.043500000000000004,1.7533887750556054,1.0,2758.7300404429566,0.3874913590803401,1.31243013114123,0.9689937648785801,0.2866953285523354,0.6887353735812302
0.044,1.7524330916948818,1.0,2762.1398320043804,0.39092704167419545,1.3119677126413873,0.9694813166851822,0.28665518985118504,0.6896560786648622
0.0445,1.7514774083341582,1.0,2765.672684418087,0.39434345802515103,1.3115042019087584,0.9699540266252148,0.28661505115003466,0.6905775899017459
0.045,1.7505217249734346,1.0,2769.318025596435,0.39774071484997736,1.311039696438285,0.970412505865377,0.2865749124488842,0.6914997042078426
0.0455,1.749566041612711,1.0,2773.0673320271167,0.4011189173056474,1.310574275057825,0.970857332868085,0.28653477374773384,0.69242225660812
0.046,1.7486103582519874,1.0,2776.912062466234,0.404478170549134,1.3101080165952361,0.9712890569992141,0.28649463504658346,0.6933450830464565
0.0465,1.747654674891264,1.0,2780.8436564069484,0.4078185797374099,1.3096409998783756,0.971708200272492,0.2864544963454331,0.6942680203900504
0.047,1.7466989915305404,1.0,2784.8535326851033,0.41114025002744814,1.309173303735101,0.9721152589733719,0.2864143576442827,0.6951909064334278
0.0475,1.7457433081698168,1.0,2788.9330882228865,0.4144432865762215,1.30870500699327,0.972510705171771,0.2863742189431323,0.6961135799020572
0.048,1.7447876248090932,1.0,2793.0736969104546,0.4177277945407028,1.3082361884807403,0.972894988132257,0.2863340802419819,0.6970358804555661
0.0485,1.7438319414483696,1.0,2797.2667086249025,0.420993879077865,1.3077669270253696,0.9732685356295186,0.28629394154083154,0.6979576486905639
0.049,1.742876258087646,1.0,2801.5070988598777,0.4242416388058214,1.3072972687027957,0.9736317521441733,0.28625380283968116,0.6988787903310005
0.0495,1.7419205747269224,1.0,2805.7881913061533,0.42747117925882183,1.3068272742681295,0.9739850250302646,0.2862136641385307,0.6997991829247132
0.05,1.7409648913661988,1.0,2810.0999533502595,0.4306826126128273,1.3063570343656026,0.9743287264135672,0.28617352543738034,0.7007186463479369
0.0505,1.7400092080054754,1.0,2814.4394515549857,0.43387603727576207,1.3058865758183478,0.9746632054953543,0.28613338673622996,0.7016371260654535
0.051000000000000004,1.7390535246447518,1.0,2818.8037435845963,0.43705155165555026,1.3054159254494981,0.9749887955985783,0.2860932480350796,0.7025545678629674
0.051500000000000004,1.7380978412840282,1.0,2823.189878082878,0.440209254160116,1.3049451100821867,0.9753058150310819,0.2860531093339292,0.7034709178474586
0.052000000000000005,1.7371421579233046,1.0,2827.5948945668665,0.4433492431973835,1.3044741565395466,0.975614567894573,0.2860129706327788,0.7043861224474863
0.0525,1.736186474562581,1.0,2832.0158233368356,0.44647161717527684,1.3040030916447107,0.9759153448432103,0.28597283193162837,0.705300128413449
0.053,1.7352307912018574,1.0,2836.4496854022623,0.4495764745017203,1.303531942220812,0.9762084237953511,0.285932693230478,0.7062128828177985
0.0535,1.734275107841134,1.0,2840.8934924231135,0.452663913584638,1.303060735090984,0.9764940706017332,0.2858925545293276,0.7071243330552055
0.054,1.7333194244804104,1.0,2845.3442466678866,0.4557340328319541,1.3025894970783591,0.9767725396731064,0.2858524158281772,0.7080344268426839
0.0545,1.7323637411196868,1.0,2849.7989409873007,0.4587869306515927,1.3021182550060706,0.9770440745700966,0.28581227712702684,0.7089431122196649
0.055,1.7314080577589632,1.0,2854.2545588037383,0.4618227054514781,1.3016470356972514,0.9773089085578793,0.28577213842587645,0.7098503375480267
0.0555,1.7304523743982396,1.0,2858.711530165145,0.46484143757780927,1.3011758352790086,0.9775672616271011,0.28573199972472607,0.7107561104719116
0.056,1.729496691037516,1.0,2863.1654782032406,0.4678432421853682,1.3007046925514973,0.9778193503756523,0.2856918610235757,0.7116603567522624
0.0565,1.7285410076767924,1.0,2867.614168861528,0.4708282194824244,1.300233627191823,0.9780653799820785,0.2856517223224253,0.7125630392322753
0.057,1.727585324316069,1.0,2872.0569205772103,0.47379646034589973,1.2997626450594586,0.9783055456263126,0.2856115836212749,0.7134641474073886
0.0575,1.7266296409553454,1.0,2876.4930497847818,0.47674805565271594,1.2992917520138778,0.9785400346075996,0.28557144492012454,0.7143636708433146
0.058,1.7256739575946218,1.0,2880.92187092722,0.4796830962797949,1.2988209539145539,0.9787690267262134,0.2855313062189741,0.7152615991760078
0.0585,1.7247182742338982,1.0,2885.3426964685473,0.48260167310405844,1.29835025662096,0.9789926946437437,0.2854911675178237,0.7161579221116305
0.059000000000000004,1.7237625908731746,1.0,2889.754836905534,0.4855038770024283,1.2978796659925698,0.9792112042233212,0.28545102881667334,0.7170526294265149
0.059500000000000004,1.722806907512451,1.0,2894.1576007820536,0.4883897988518264,1.2974091878888563,0.979424714851045,0.28541089011552295,0.7179457109671269
0.06,1.7218512241517274,1.0,2898.5502947027776,0.4912595295291744,1.2969388281692933,0.9796333797397915,0.2853707514143725,0.718837156650022
0.0605,1.720895540791004,1.0,2902.9322233486514,0.4941131599113944,1.2964685926933537,0.9798373462164988,0.2853306127132222,0.7197269564618061
0.061,1.7199398574302804,1.0,2907.302689491907,0.4969507808754079,1.2959984873205113,0.9800367559939475,0.28529047401207175,0.7206151004590853
0.0615,1.7189841740695568,1.0,2911.6609940136705,0.499772483298137,1.295528517910239,0.9802317454279847,0.28525033531092137,0.7215015787684235
0.062,1.7180284907088332,1.0,2916.006435920192,0.5025783580565033,1.2950586903220103,0.9804224457610782,0.285210196609771,0.7223863815862884
0.0625,1.7170728073481096,1.0,2920.338312361436,0.5053684960274288,1.2945890104152986,0.9806089833530237,0.2851700579086206,0.7232694991790022
0.063,1.716117123987386,1.0,2924.657187890502,0.5081429526591745,1.2941194729042222,0.9807914767179197,0.2851299192074702,0.7241509427887196
0.0635,1.7151614406266624,1.0,2928.962329344047,0.5109018395859424,1.2936500839067417,0.9809700447469972,0.28508978050631983,0.7250307022371286
0.064,1.714205757265939,1.0,2933.2526661027678,0.5136452732976237,1.2931808524829878,0.9811448024728966,0.28504964180516945,0.7259087619175657
0.0645,1.7132500739052154,1.0,2937.528221577567,0.5163733356350568,1.2927117780822484,0.9813158578169746,0.28500950310401907,0.7267851242727315
0.065,1.7122943905444918,1.0,2941.78901952683,0.5190861084390804,1.292242860153811,0.9814833148519068,0.2849693644028687,0.7276597917382657
0.0655,1.7113387071837682,1.0,2946.035084054411,0.5217836735505331,1.2917740981469634,0.9816472739668998,0.28492922570171825,0.7285327667427492
0.066,1.7103830238230446,1.0,2950.266439607826,0.5244661128102533,1.291305491510994,0.9818078320246699,0.28488908700056786,0.7294040517077109
0.0665,1.709427340462321,1.0,2954.483110976185,0.5271335080590795,1.29083703969519,0.9819650825106518,0.2848489482994175,0.7302736490476354
0.067,1.7084716571015974,1.0,2958.6851232884637,0.5297859411378505,1.2903687421488395,0.9821191156748725,0.2848088095982671,0.7311415611699643
0.0675,1.707515973740874,1.0,2962.8725020114853,0.5324234938874045,1.2899005983212302,0.9822700186669043,0.2847686708971167,0.7320077904751046
0.068,1.7065602903801504,1.0,2967.0452729481744,0.5350462481485803,1.28943260766165,0.9824178756642786,0.28472853219596633,0.7328723393564329
0.0685,1.7056046070194268,1.0,2971.203462235512,0.5376542857622163,1.2889647696193867,0.9825627679947189,0.2846883934948159,0.7337352102003023
0.069,1.7046489236587032,1.0,2975.3470963429772,0.5402476885691512,1.2884970836437282,0.9827047742525343,0.2846482547936655,0.734596405386045
0.0695,1.7036932402979796,1.0,2979.4762020703797,0.5428265384102233,1.288029549183962,0.9828439704094882,0.28460811609251513,0.7354559272859811
0.07,1.702737556937256,1.0,2983.5908065459366,0.5453909171262714,1.287562165689376,0.9829804299204421,0.28456797739136475,0.7363137782654203
0.07050000000000001,1.7017818735765324,1.0,2987.690937224804,0.5479409065581339,1.2870949326092584,0.9831142238240523,0.28452783869021436,0.7371699606826702
0.07100000000000001,1.700826190215809,1.0,2991.7766218870306,0.5504765885466493,1.2866278493928966,0.9832454208387867,0.284487699989064,0.73802447688904
0.07150000000000001,1.6998705068550855,1.0,2995.847888635587,0.5529980449326563,1.2861609154895786,0.9833740874545043,0.2844475612879136,0.7388773292288466
