Time [s],Phi [rad],STIM [ ],Fsee [N],Gamma [ ],Lcerel [ ],q [ ],Lmtc [m],fisomrel [ ]
0.0,1.8,1.0,18.991429361294035,0.0010337012548916093,1.3792265840254168,0.005274394511716172,0.288653,0.5414132588278493
0.0005,1.79999375,1.0,19.601440138819754,0.006637112317121752,1.3791578137054212,0.016024926305979324,0.2886527375,0.5415795673026949
0.001,1.799975,1.0,23.704248798777016,0.012209092674766229,1.378730166421627,0.04114046956824477,0.28865195,0.5426130773030828
0.0015,1.79994375,1.0,34.89462875988409,0.017749818626438672,1.377729751496856,0.07804360080778132,0.2886506375,0.5450262590373832
0.002,1.7999,1.0,60.80556589145318,0.02325946548752476,1.3759143391580666,0.12344765002093522,0.2886488,0.5493890612734506
0.0025,1.79984375,1.0,108.40754941353211,0.028738207586034886,1.37340614618761,0.1740187574702624,0.28864643749999996,0.5553821747108332
0.003,1.7997750000000001,1.0,175.11578255055545,0.034186218273431754,1.370695577791336,0.22698832594102308,0.28864354999999997,0.5618137391771285
0.0035,1.79969375,1.0,253.39039978401763,0.03960366992926726,1.3681086544776193,0.28024385425737947,0.2886401375,0.5679082222534333
0.004,1.7996,1.0,338.01315647310287,0.04499073396430281,1.3657233405831908,0.3322236630028401,0.2886362,0.5734899175786717
0.0045000000000000005,1.7994937500000001,1.0,426.28861067606863,0.05034758081821043,1.3635273396278345,0.38185798081743605,0.2886317375,0.5785965348951183
0.005,1.799375,1.0,516.700098886266,0.05567438002552945,1.361494128538587,0.42849425699309956,0.28862675,0.5832971780361209
0.0055,1.79924375,1.0,608.1662987960686,0.06097130006278779,1.3596018125529925,0.4718035909199007,0.2886212375,0.5876483941600843
0.006,1.7991000000000001,1.0,699.861039831027,0.06623850861475634,1.3578331440004785,0.5116884266949784,0.2886152,0.5916946462204491
0.006500000000000001,1.79894375,1.0,791.0712362980578,0.07147617221147527,1.356175421101647,0.5482069385083038,0.2886086375,0.5954689713107922
0.007,1.798775,1.0,881.2421529183312,0.07668445677828635,1.3546178261264292,0.5815136575937755,0.28860155,0.5989993539329261
0.0075,1.79859375,1.0,969.8839037458032,0.08186352689028747,1.3531519355912238,0.6118181256121393,0.2885939375,0.6023077499622835
0.008,1.7984,1.0,1056.6298861025218,0.08701354650996236,1.3517700117521747,0.6393551025784515,0.2885858,0.6054140906628663
0.0085,1.79819375,1.0,1141.1769119802445,0.09213467871273441,1.3504654700321266,0.6643659387481473,0.2885771375,0.6083353135049764
0.009000000000000001,1.797975,1.0,1223.2852642406756,0.0972270852597746,1.3492324813336067,0.6870864581965684,0.28856795,0.6110863328494006
0.0095,1.79774375,1.0,1302.7926424085172,0.10229092713393924,1.3480655182071255,0.7077397539101288,0.2885582375,0.6136811066173635
0.01,1.7975,1.0,1379.5989199525047,0.10732636568532326,1.3469593843775014,0.7265325838717146,0.288548,0.6161326071185754
0.0105,1.79724375,1.0,1453.596160986703,0.11233355916000431,1.3459099384774296,0.7436542370975858,0.2885372375,0.6184512578524901
0.011,1.796975,1.0,1524.7377497962293,0.11731266580406001,1.3449130391396054,0.7592758421518473,0.28852595000000003,0.6206473068605902
0.0115,1.79669375,1.0,1593.0189557414442,0.12226384337331499,1.343964710400854,0.7735511506972637,0.2885141375,0.6227304783126805
0.012,1.7964,1.0,1658.465326377705,0.12718724940670428,1.3430612004693592,0.7866177029410257,0.28850180000000003,0.6247098620297262
0.0125,1.79609375,1.0,1721.092193965463,0.1320830391962251,1.342199371937609,0.7985983311529293,0.2884889375,0.6265930798644959
0.013000000000000001,1.7957750000000001,1.0,1780.9266869608944,0.1369513670499172,1.3413763564942094,0.8096024021960577,0.28847555,0.6283870638607731
0.0135,1.79544375,1.0,1838.0255742356042,0.1417923872315121,1.3405893009374463,0.81972710744896,0.2884616375,0.630098622726217
0.014,1.7951000000000001,1.0,1892.4557511859155,0.14660625297230281,1.3398355492310332,0.8290588586953181,0.2884472,0.6317340544605932
0.0145,1.79474375,1.0,1944.3236611341656,0.15139311762583646,1.3391122850311836,0.837674377317959,0.2884322375,0.6332999302963307
0.015,1.794378833669707,1.0,1993.8172432856963,0.15615313153570579,1.3384178033295975,0.8456422487274543,0.2884169110141277,0.6348003520075571
0.0155,1.794013623549312,1.0,2041.3432321650155,0.16088644504550342,1.3377503991179744,0.853023488953982,0.2884015721890711,0.636239374667248
0.016,1.793648413428917,1.0,2086.9845055455926,0.16559320820397955,1.3371083981811895,0.8598724490996545,0.2883862333640145,0.6376209434812263
0.0165,1.7932832033085218,1.0,2130.803141997925,0.17027357058297482,1.3364903325719608,0.8662376582769288,0.2883708945389579,0.6389485206811583
0.017,1.7929179931881267,1.0,2172.8537674644554,0.17492768019440363,1.3358949108224298,0.8721624996149684,0.2883555557139013,0.6402251558788008
0.0175,1.7925527830677315,1.0,2213.190284971165,0.1795556835727648,1.3353209343062258,0.8776857919627064,0.2883402168888447,0.641453670331632
0.018000000000000002,1.7921875729473364,1.0,2251.8741218864475,0.18415772725255708,1.3347672043969774,0.8828423015219482,0.28832487806378815,0.642636858610435
0.0185,1.7918223628269412,1.0,2288.9597118667807,0.18873395565024864,1.334232661073524,0.887663248746337,0.28830953923873154,0.6437771947439759
0.019,1.7914571527065462,1.0,2324.530142654721,0.19328451726494777,1.3337160213365742,0.8921766317883951,0.28829420041367493,0.6448776055589514
0.0195,1.7910919425861511,1.0,2358.6352671769164,0.1978095546321288,1.3332163881703807,0.8964077371498679,0.2882788615886184,0.645940174281525
0.02,1.7907267324657559,1.0,2391.325398891083,0.20230920963807605,1.3327329052999524,0.9003793662798778,0.28826352276356176,0.6469668805186637
0.0205,1.7903615223453608,1.0,2422.655068166409,0.20678362416907398,1.3322647164502985,0.9041121050636294,0.28824818393850515,0.6479596881447791
0.021,1.7899963122249656,1.0,2452.682723800037,0.21123294011140695,1.3318109653464285,0.9076245693327033,0.28823284511344854,0.6489205461603036
0.021500000000000002,1.7896311021045705,1.0,2481.4656603143303,0.21565729830837346,1.331370841381311,0.910933629451873,0.28821750628839193,0.6498512929918432
0.022,1.7892658919841753,1.0,2509.0600324897127,0.22005683942370183,1.3309435756970367,0.9140545984139811,0.2882021674633354,0.6507536661507007
0.0225,1.7889006818637803,1.0,2535.526505043591,0.2244317050414226,1.330528384569714,0.9170013870306378,0.28818682863827877,0.6516294228116557
0.023,1.7885354717433852,1.0,2560.905369562264,0.2287820316185354,1.3301247012871558,0.9197866927153923,0.28817148981322216,0.6524798520410273
0.0235,1.78817026162299,1.0,2585.239028060999,0.2331079556120398,1.329731959137175,0.9224220864307143,0.2881561509881656,0.6533062344501287
0.024,1.787805051502595,1.0,2608.5718519499187,0.2374096134789355,1.3293495914075841,0.924918128200346,0.288140812163109,0.6541098426009484
0.0245,1.7874398413821997,1.0,2630.9500481204886,0.241687141676222,1.3289770313861966,0.9272844693836215,0.2881254733380524,0.6548919413913439
0.025,1.7870746312618047,1.0,2652.420030603723,0.245940676167481,1.3286137262062299,0.929529945485822,0.2881101345129958,0.655653759403243
0.025500000000000002,1.7867094211414094,1.0,2673.0185045729136,0.2501703499503018,1.328259226559554,0.931662670191442,0.28809479568793916,0.656396301589679
0.026000000000000002,1.7863442110210144,1.0,2692.7997954909197,0.254376302271543,1.3279129336853055,0.9336900681984185,0.2880794568628826,0.6571208798529862
0.0265,1.7859790009006193,1.0,2711.7939088618987,0.25855866384979,1.3275744836753058,0.9356189959002458,0.288064118037826,0.6578283088165077
0.027,1.785613790780224,1.0,2730.0318322731473,0.26271756540362823,1.327243512621378,0.9374557616897607,0.2880487792127694,0.6585193987475193
0.0275,1.785248580659829,1.0,2747.5454735841927,0.2668531376516431,1.3269196566153438,0.9392061770688721,0.28803344038771284,0.659194955735031
0.028,1.7848833705394338,1.0,2764.367602051217,0.27096551131242,1.3266025517490259,0.9408756023709952,0.2880181015626562,0.6598557818591355
0.0285,1.7845181604190388,1.0,2780.5317923885254,0.2750548171045444,1.3262918341142464,0.942468987722594,0.2880027627375996,0.6605026753519168
0.029,1.7841529502986435,1.0,2796.070392893804,0.2791211847375585,1.3259871575746076,0.943990911887256,0.287987423912543,0.6611363938023851
0.029500000000000002,1.7837877401782485,1.0,2811.0086308121513,0.2831647409172171,1.3256882458779384,0.9454456214145265,0.28797208508748645,0.661757546227524
0.03,1.7834225300578535,1.0,2825.3866696307678,0.2871856206500612,1.3253946943027668,0.946837037049095,0.28795674626242984,0.662367005483447
0.0305,1.7830573199374582,1.0,2839.2252003318313,0.2911839485067858,1.325106277577639,0.9481688156432015,0.28794140743737323,0.66296526874876
0.031,1.7826921098170632,1.0,2852.545341215987,0.2951598490580856,1.3248227704311017,0.9494443528798355,0.2879260686123166,0.6635528310250758
0.0315,1.782326899696668,1.0,2865.368612818388,0.2991134468746556,1.3245439475917016,0.950666805190246,0.28791072978726007,0.6641301852091672
0.032,1.7819616895762729,1.0,2877.716913949746,0.3030448665271905,1.3242695837879854,0.9518391095767387,0.28789539096220346,0.6646978221618837
0.0325,1.7815964794558778,1.0,2889.612498862926,0.3069542325863852,1.3239994537484994,0.9529640015635649,0.28788005213714685,0.665256230773833
0.033,1.7812312693354826,1.0,2901.077955544047,0.31084166962293464,1.3237333322017903,0.9540440314727877,0.2878647133120903,0.665805898027823
0.0335,1.7808660592150876,1.0,2912.1341190061703,0.31470730049312357,1.3234710120582422,0.9550815807932109,0.2878493744870337,0.6663472715497976
0.034,1.7805008490946923,1.0,2922.796441601971,0.3185512446500966,1.3232123359559231,0.9560788785240405,0.2878340356619771,0.6668806947892714
0.0345,1.7801356389742973,1.0,2933.093725020743,0.3223736335320219,1.3229570314237469,0.9570379989863709,0.28781869683692046,0.6674067469832939
0.035,1.779770428853902,1.0,2943.0391582848506,0.3261745850764638,1.3227049652688687,0.9579608945698648,0.28780335801186385,0.6679257187207215
0.035500000000000004,1.779405218733507,1.0,2952.646105047112,0.3299542172209864,1.3224560042984435,0.9588493936051385,0.2877880191868073,0.6684378995276856
0.036000000000000004,1.779040008613112,1.0,2961.9280942238506,0.33371264790315386,1.3222100153196266,0.9597052096758643,0.2877726803617507,0.6689435778945345
0.0365,1.7786747984927167,1.0,2970.8988110222954,0.3374499950605304,1.321966865139573,0.9605299501304381,0.2877573415366941,0.6694430413016453
0.037,1.7783095883723217,1.0,2979.572088360186,0.3411663766306803,1.321726420565438,0.9613251238702399,0.2877420027116375,0.6699365762441037
0.0375,1.7779443782519264,1.0,2987.9618986793234,0.3448619105511676,1.3214885484043764,0.9620921484833599,0.2877266638865809,0.6704244682552518
0.038,1.7775791681315314,1.0,2996.0823461526197,0.34853671475955655,1.3212531154635432,0.9628323567854384,0.2877113250615243,0.6709070019291052
0.0385,1.7772139580111361,1.0,3003.9476592838614,0.35219090719341134,1.321019988550094,0.9635470028228696,0.28769598623646775,0.6713844609416376
0.039,1.776848747890741,1.0,3011.5627183210936,0.3558245932378831,1.3207891163814456,0.9642372724358518,0.28768064741141114,0.6718569604949343
0.0395,1.776483537770346,1.0,3018.9496306178353,0.3594379049819252,1.3205602993386074,0.964904274742123,0.28766530858635453,0.6723249186477755
0.04,1.7761183276499508,1.0,3026.117180467155,0.36303095467930735,1.3203334540511722,0.9655490620911278,0.2876499697612979,0.6727885147182575
0.0405,1.7757531175295558,1.0,3033.0731801327106,0.36660385307809573,1.3201085061544167,0.9661726279452578,0.2876346309362413,0.6732479090803183
0.041,1.7753879074091605,1.0,3039.825506042276,0.37015671092635627,1.3198853812836173,0.9667759103211715,0.28761929211118475,0.6737032616104426
0.0415,1.7750226972887655,1.0,3046.382095720154,0.3736896389721551,1.3196640050740507,0.9673597954622024,0.28760395328612814,0.6741547316964838
0.042,1.7746574871683702,1.0,3052.7509448431306,0.3772027479635583,1.3194443031609935,0.9679251212309562,0.28758861446107153,0.674602478246133
0.0425,1.7742922770479752,1.0,3058.940104418627,0.3806961486486318,1.3192262011797218,0.9684726802460791,0.287573275636015,0.6750466596950376
0.043000000000000003,1.7739270669275802,1.0,3064.9576780850443,0.38416995177544183,1.3190096247655125,0.9690032227849019,0.28755793681095837,0.6754874340145628
0.043500000000000004,1.773561856807185,1.0,3070.811819535553,0.3876242680920543,1.3187944995536423,0.9695174594716341,0.28754259798590176,0.6759249587192053
0.044,1.77319664668679,1.0,3076.51073006408,0.39105920834653524,1.3185807511793872,0.9700160637689421,0.2875272591608452,0.6763593908736524
0.0445,1.7728314365663946,1.0,3082.061777931625,0.39447488096063155,1.3183683127909733,0.97049967452267,0.28751192033578854,0.6767908718451179
0.045,1.7724662264459996,1.0,3087.4666669770195,0.3978713814338072,1.3181571662890266,0.9709688996886919,0.287496581510732,0.6772194436828338
0.0455,1.7721010163256044,1.0,3092.7402875185903,0.4012488419579139,1.3179471811314887,0.9714243132442364,0.2874812426856754,0.677645376309121
0.046,1.7717358062052093,1.0,3097.886828300606,0.4046073654587924,1.3177383186104552,0.9718664629948034,0.28746590386061877,0.6780687528271712
0.0465,1.7713705960848143,1.0,3102.910501726155,0.4079470548622833,1.3175305400180215,0.9722958695600068,0.2874505650355622,0.678489656109259
0.047,1.771005385964419,1.0,3107.8155429104713,0.4112680130942273,1.3173238066462831,0.9727130279802929,0.2874352262105056,0.6789081687994654
0.0475,1.770640175844024,1.0,3112.6062087675123,0.4145703430804649,1.3171180797873356,0.9731184092140792,0.287419887385449,0.6793243733163044
0.048,1.7702749657236287,1.0,3117.286777129441,0.41785414774683705,1.3169133207332748,0.9735124615337474,0.28740454856039244,0.6797383518552567
0.0485,1.7699097556032337,1.0,3121.8615458990853,0.4211195300191841,1.3167094907761963,0.9738956118282044,0.2873892097353358,0.6801501863912068
0.049,1.7695445454828385,1.0,3126.3348322367697,0.42436659282334693,1.316506551208195,0.9742682668190696,0.2873738709102792,0.6805599586807851
0.0495,1.7691793353624434,1.0,3130.710971778617,0.4275954390851661,1.3163044633213672,0.9746308141969573,0.2873585320852226,0.6809677502646105
0.05,1.7688141252420484,1.0,3134.9943178897506,0.4308061717304823,1.3161031884078083,0.9749836236837846,0.287343193260166,0.6813736424694441
0.0505,1.7684489151216531,1.0,3139.1892409497013,0.43399889368513617,1.3159026877596136,0.9753270480265441,0.28732785443510944,0.6817777164102425
0.051000000000000004,1.768083705001258,1.0,3143.3001276710656,0.43717370787496834,1.3157029226688788,0.9756614239275427,0.28731251561005283,0.6821800529921171
0.051500000000000004,1.7677184948808629,1.0,3147.329249727246,0.4403307056170844,1.315503872463839,0.9759870728069822,0.2872971767849962,0.6825806966209235
0.052000000000000005,1.7673532847604678,1.0,3151.277907373162,0.44346997691555545,1.3153055247726604,0.9763043021421235,0.28728183795993967,0.6829796748974403
0.0525,1.7669880746400728,1.0,3155.1554584782957,0.4465916572604258,1.3151077991611524,0.9766134063467409,0.28726649913488306,0.6833771521295117
0.053,1.7666228645196775,1.0,3158.9639027835183,0.4496958406918298,1.314910677586698,0.976914666422157,0.28725116030982645,0.6837731669065263
0.0535,1.7662576543992825,1.0,3162.705247656199,0.4527826212499014,1.3147141420066806,0.9772083511822461,0.2872358214847699,0.684167757720022
0.054,1.7658924442788873,1.0,3166.3815078516473,0.45585209297477486,1.314518174378483,0.9774947178852315,0.2872204826597132,0.6845609629643691
0.0545,1.7655272341584922,1.0,3169.9947052832604,0.4589043499065844,1.3143227566594884,0.9777740128275778,0.2872051438346567,0.6849528209374365
0.055,1.765162024038097,1.0,3173.5468687979796,0.4619394860854641,1.31412787080708,0.9780464719025525,0.28718980500960006,0.6853433698412322
0.0555,1.764796813917702,1.0,3177.0400339605885,0.4649575955515482,1.3139334987786406,0.9783123211258367,0.28717446618454345,0.6857326477825294
0.056,1.764431603797307,1.0,3180.476242844274,0.46795877234497085,1.3137396225315536,0.9785717771303843,0.2871591273594869,0.6861206927734638
0.0565,1.7640663936769116,1.0,3183.8575438285516,0.4709431105058663,1.313546224023202,0.9788250476325665,0.2871437885344303,0.6865075427321172
0.057,1.7637011835565166,1.0,3187.185991404929,0.4739107040743686,1.3133532852109688,0.9790723318714907,0.2871284497093737,0.6868932354830779
0.0575,1.7633359734361214,1.0,3190.463645989163,0.4768616470906119,1.3131607880522371,0.9793138210232412,0.2871131108843171,0.6872778087579778
0.058,1.7629707633157263,1.0,3193.6925737408637,0.47979603359473055,1.31296871450439,0.9795496985916631,0.2870977720592605,0.6876613001960128
0.0585,1.762605553195331,1.0,3196.8748463907136,0.48271395762685854,1.3127770465248108,0.9797801407771959,0.2870824332342039,0.68804374734444
0.059000000000000004,1.762240343074936,1.0,3200.0125410744054,0.4856155132271302,1.3125857660708822,0.9800053168251524,0.2870670944091473,0.6884251876590552
0.059500000000000004,1.761875132954541,1.0,3203.107740174224,0.48850079443567956,1.3123948550999875,0.980225389354743,0.28705175558409074,0.6888056585046486
0.06,1.7615099228341458,1.0,3206.162531167239,0.49136989529264086,1.31220429556951,0.9804405146700512,0.28703641675903413,0.6891851971554404
0.0605,1.7611447127137507,1.0,3209.175876344904,0.49422287336122495,1.312014095676227,0.9806508415891256,0.2870210779339775,0.6895637885820991
0.061,1.7607795025933555,1.0,3212.151535119144,0.49705985313470946,1.3118242234137998,0.9808565163394524,0.2870057391089209,0.689941497743561
0.0615,1.7604142924729604,1.0,3215.0918639842257,0.49988093794770694,1.3116346585911582,0.9810576785636085,0.28699040028386436,0.6903183659590952
0.062,1.7600490823525652,1.0,3217.9977481263354,0.5026862124615489,1.3114453933764596,0.981254461878592,0.28697506145880775,0.6906944098998162
0.0625,1.7596838722321702,1.0,3220.870075029349,0.5054757613375666,1.3112564199378618,0.9814469949310876,0.28695972263375114,0.691069646197275
0.063,1.7593186621117751,1.0,3223.709734423564,0.5082496692370915,1.311067730443522,0.9816354016193682,0.2869443838086946,0.6914440914436106
0.0635,1.7589534519913799,1.0,3226.5176182352093,0.5110080208214549,1.3108793170615982,0.9818198013037014,0.28692904498363797,0.691817762191691
0.064,1.7585882418709848,1.0,3229.2946205385033,0.5137509007519883,1.3106911719602476,0.9820003090059347,0.28691370615858136,0.6921906749552545
0.0645,1.7582230317505896,1.0,3232.041637507956,0.5164783936900228,1.3105032873076283,0.9821770355988958,0.28689836733352475,0.6925628462090447
0.065,1.7578578216301946,1.0,3234.759567372573,0.5191905842968901,1.3103156552718973,0.9823500879861914,0.28688302850846814,0.6929342923889446
0.0655,1.7574926115097993,1.0,3237.4493103714194,0.5218875572339214,1.3101282680212125,0.9825195692729635,0.2868676896834116,0.6933050298921013
0.066,1.7571274013894043,1.0,3240.1117687099636,0.5245693971624483,1.3099411177237317,0.9826855789281156,0.286852350858355,0.6936750750770533
0.0665,1.7567621912690092,1.0,3242.747846519081,0.5272361887438018,1.309754196547612,0.9828482129384928,0.28683701203329837,0.6940444442638499
0.067,1.756396981148614,1.0,3245.3584498139053,0.5298880166393136,1.3095674966610114,0.9830075639554708,0.2868216732082418,0.6944131537341669
0.0675,1.756031771028219,1.0,3247.944486454759,0.532524965510315,1.309381010232087,0.9831637214343775,0.2868063343831852,0.6947812197314198
0.068,1.7556665609078237,1.0,3250.5068661098735,0.5351471200181372,1.3091947294289972,0.9833167717671447,0.2867909955581286,0.6951486584608713
0.0685,1.7553013507874287,1.0,3253.046500218683,0.5377545648241119,1.3090086464198987,0.9834667984085639,0.286775656733072,0.6955154860897388
0.069,1.7549361406670334,1.0,3255.564301956652,0.5403473845895702,1.3088227533729495,0.9836138819964958,0.28676031790801537,0.6958817187472908
0.0695,1.7545709305466384,1.0,3258.061186202006,0.5429256639758436,1.3086370424563074,0.9837581004663646,0.2867449790829588,0.6962473725249474
