Time [s],Phi [rad],STIM [ ],Fsee [N],Gamma [ ],Lcerel [ ],q [ ],Lmtc [m],fisomrel [ ]
0.0,1.8,1.0,20.139741855844868,0.0015065153690525842,1.379103288360638,0.0055807265613934814,0.288653,0.5417114054660426
0.0005,1.79999375,1.0,20.86397977436596,0.00710727431792165,1.3790245050840904,0.017610758654627384,0.2886527375,0.5419018639852053
0.001,1.799975,1.0,25.3297628501378,0.012676617437603867,1.3785742456141468,0.04382531361609892,0.28865195,0.542989606370152
0.0015,1.79994375,1.0,37.41168500950014,0.01821472094600215,1.3775309255766088,0.08157129688529169,0.2886506375,0.5455051027846589
0.002,1.7999,1.0,64.98628513462965,0.023721760072708303,1.3756639663764314,0.1275315811729356,0.2886488,0.5499891083109931
0.0025,1.79984375,1.0,114.40233314039924,0.02919790906411964,1.373136404556319,0.1784022027750211,0.28864643749999996,0.5560243099323439
0.003,1.7997750000000001,1.0,182.2902505399511,0.03464334118972749,1.3704406994002964,0.23147118725746885,0.28864354999999997,0.5624160976652399
0.0035,1.79969375,1.0,261.170648943908,0.04005822874645297,1.367878303616881,0.28467459980881066,0.2886401375,0.568448832040708
0.004,1.7996,1.0,346.10031629730014,0.04544274306435772,1.3655156858106738,0.33649401414927904,0.2886362,0.573974118068727
0.0045000000000000005,1.7994937500000001,1.0,434.53634350275,0.05079705449755029,1.3633385472225126,0.3858979329586486,0.2886317375,0.5790341202239605
0.005,1.799375,1.0,525.0210482316263,0.056121332520991676,1.3613209863202058,0.4322647023564781,0.28862675,0.5836962526932196
0.0055,1.79924375,1.0,616.4968853537398,0.06141574554417335,1.3594419406524023,0.4752883035717804,0.2886212375,0.5880149595026624
0.006,1.7991000000000001,1.0,708.1278068382009,0.06668046104885401,1.3576851853581517,0.5148872398269068,0.2886152,0.5920322327018643
0.006500000000000001,1.79894375,1.0,799.2467749140485,0.0719156457163997,1.3560377387751157,0.5511294342332073,0.2886086375,0.5957816599741789
0.007,1.798775,1.0,889.2711884483041,0.07712146505133063,1.3544896765219137,0.5841758566481673,0.28860155,0.5992891238500926
0.0075,1.79859375,1.0,977.7537063997681,0.08229808401243902,1.3530321752491035,0.614238818912201,0.2885939375,0.6025774337974691
0.008,1.7984,1.0,1064.3049639563965,0.08744566611137891,1.3516580880126232,0.6415545489493388,0.2885858,0.605665143926359
0.0085,1.79819375,1.0,1148.636926056103,0.09256437427903014,1.3503607710375416,0.6663642287692872,0.2885771375,0.6085692924680464
0.009000000000000001,1.797975,1.0,1230.534545399578,0.09765437080025513,1.349134198773753,0.6889027050662432,0.28856795,0.6113052016792395
0.0095,1.79774375,1.0,1309.8147188452203,0.10271581626543373,1.3479732544262637,0.7093920211507111,0.2885582375,0.6138858871300854
0.01,1.7975,1.0,1386.3592629577383,0.1077488707313566,1.3468730569842973,0.7280376095302814,0.288548,0.6163236043953076
0.0105,1.79724375,1.0,1460.1146997042338,0.11275369431754505,1.3458288368310392,0.74502690245987,0.2885372375,0.6186301518370233
0.011,1.796975,1.0,1531.026179639159,0.1177304448232834,1.3448366406230656,0.7605296348445965,0.28852595000000003,0.62081534210395
0.0115,1.79669375,1.0,1599.0703491612646,0.12267927930624847,1.3438927786811774,0.774698277417768,0.2885141375,0.6228882550093711
0.012,1.7964,1.0,1664.262545845128,0.1276003544524138,1.3429936583170492,0.7876691212288222,0.28850180000000003,0.6248576223032121
0.0125,1.79609375,1.0,1726.6470213336079,0.1324938267789592,1.3421358379843689,0.7995636691212692,0.2884889375,0.626731723108207
0.013000000000000001,1.7957750000000001,1.0,1786.2606125557784,0.13735985089117314,1.3413163792518323,0.8104901907745492,0.28847555,0.6285176315510821
0.0135,1.79544375,1.0,1843.1427181472282,0.1421985800568676,1.3405326591075404,0.8205450122486619,0.2884616375,0.6302216456669251
0.014,1.7951000000000001,1.0,1897.3593759826351,0.1470101675438547,1.3397820545395935,0.8298137019210476,0.2884472,0.6318499853726169
0.0145,1.79474375,1.0,1948.98338600803,0.15179476548152568,1.3390621312823234,0.8383723554430996,0.2884322375,0.6334083900838281
0.015,1.794375,1.0,1998.113456570469,0.15655252669627268,1.338370405594952,0.8462886106982658,0.28841675,0.634902642275216
0.0155,1.79399375,1.0,2044.8105500812849,0.16128360056500995,1.3377049956817253,0.8536228484325646,0.2884007375,0.6363371680217025
0.016,1.7936,1.0,2089.148323159999,0.16598813629989856,1.3370640468257002,0.8604288613370934,0.2883842,0.637716289341461
0.0165,1.7931937500000001,1.0,2131.2143342789004,0.17066628311309942,1.3364457043099336,0.8667546268339974,0.2883671375,0.6390442858781656
0.017,1.792775,1.0,2171.090904237361,0.17531818865739915,1.3358482962532263,0.8726430473380608,0.28834955,0.6403250060708072
0.0175,1.7923437500000001,1.0,2208.8852991905214,0.17994400216818462,1.3352700094256686,0.8781324592078181,0.2883314375,0.6415625662618369
0.018000000000000002,1.7919,1.0,2244.665403385808,0.18454386862932387,1.3347095301128569,0.8832573375351119,0.2883128,0.6427599823074954
0.0185,1.79144375,1.0,2278.505199242619,0.1891179328591157,1.3341655634623493,0.8880486177667395,0.2882936375,0.6439202047062839
0.019,1.790975,1.0,2310.4859462762065,0.19366633967585906,1.3336368146217035,0.8925340998699222,0.28827395,0.6450461604881477
0.0195,1.79049375,1.0,2340.6882991075317,0.19818923291648874,1.3331220600431684,0.89673882352381,0.2882537375,0.646140603037614
0.02,1.79,1.0,2369.19952201265,0.20268675712961967,1.3326200692816375,0.9006853629678306,0.288233,0.6472062803286949
0.0205,1.78949375,1.0,2396.096018546801,0.2071590550072254,1.332129769668333,0.9043941382166183,0.2882117375,0.6482455870537631
0.021,1.788975,1.0,2421.440040399501,0.2116062666534652,1.3316502692424228,0.9078836562187155,0.28818995000000003,0.6492605194879735
0.021500000000000002,1.78844375,1.0,2445.297644577479,0.21602853217249826,1.3311806760430753,0.9111706817732665,0.2881676375,0.6502530606366441
0.022,1.7879,1.0,2467.7383770193705,0.22042599166848378,1.3307200981094582,0.9142704255677373,0.2881448,0.6512251808242039
0.0225,1.78734375,1.0,2488.829605602487,0.22479878419823224,1.3302676945808745,0.9171967192553764,0.28812143749999997,0.6521787306002367
0.023,1.786775,1.0,2508.63954217199,0.2291470490925835,1.3298226433675264,0.9199621546818411,0.28809755,0.6531155099555405
0.0235,1.78619375,1.0,2527.2377834419053,0.2334709258046488,1.3293841333352103,0.9225782107857972,0.28807313749999996,0.6540372854177692
0.024,1.7856,1.0,2544.673938616663,0.23777054931564717,1.32895156315522,0.925055401031104,0.2880482,0.654945373398397
0.0245,1.78499375,1.0,2560.999418171612,0.24204605460679765,1.3285243314988493,0.9274033349719424,0.2880227375,0.655841082950364
0.025,1.784375,1.0,2576.2672834058058,0.24629757665931928,1.328101837037392,0.9296308083526844,0.28799675,0.6567257159843387
0.025500000000000002,1.78374375,1.0,2590.5321040123263,0.2505252504544311,1.3276834784421419,0.9317458831304868,0.2879702375,0.6576005674619207
0.026000000000000002,1.7831000000000001,1.0,2603.843387331629,0.25472920939674093,1.3272687142832098,0.9337559676462699,0.2879432,0.6584668005466033
0.0265,1.78244375,1.0,2616.2516292061828,0.25890958776409895,1.326857004966807,0.9356678708217373,0.2879156375,0.6593255685718391
0.027,1.781775,1.0,2627.812172360702,0.2630665203209563,1.3264477759742814,0.9374878528448297,0.28788755,0.6601780917137927
0.0275,1.7810937500000001,1.0,2638.5614841279107,0.2672001365148906,1.326040636596659,0.9392217068837092,0.2878589375,0.6610252018100935
0.028,1.7804,1.0,2648.536788210415,0.2713105657934797,1.3256351961249655,0.9408747765151905,0.2878298,0.6618677265454569
0.0285,1.77969375,1.0,2657.775999369587,0.2753979376043013,1.325231063850226,0.9424519965031086,0.2878001375,0.6627064894988846
0.029,1.778975,1.0,2666.317661499234,0.27946238139493323,1.3248278490634662,0.9439579293869089,0.28776995,0.663542310181129
0.029500000000000002,1.7782437500000001,1.0,2674.200889083408,0.28350402661295315,1.3244251610557118,0.9453967983565648,0.2877392375,0.6643760040624217
0.03,1.7775,1.0,2681.4589159748666,0.2875230001875604,1.3240226677742477,0.9467725237529303,0.287708,0.6652082613790162
0.0305,1.77674375,1.0,2688.1308753892504,0.29151943223163407,1.3236199870875829,0.9480887367673749,0.2876762375,0.666039872313242
0.031,1.775975,1.0,2694.24908069167,0.29549344960919677,1.3232168030544067,0.9493488167604879,0.28764395,0.6668714866814058
0.0315,1.7751937500000001,1.0,2699.839290189222,0.29944517623630956,1.3228128627520483,0.9505559119397674,0.2876111375,0.667703621306847
0.032,1.7744,1.0,2704.927541452811,0.30337473602903364,1.322407913257837,0.9517129516065475,0.2875778,0.6685367903977266
0.0325,1.77359375,1.0,2709.5401246109072,0.30728225290343,1.3220017016491021,0.9528226640520773,0.2875439375,0.669371505532789
0.033,1.772775,1.0,2713.70355706152,0.3111678507755597,1.3215939750031729,0.9538875927849709,0.28750955,0.6702082756430441
0.0335,1.7719437500000002,1.0,2717.4445596029327,0.31503165356148394,1.3211844803973785,0.9549101112634146,0.2874746375,0.6710476069893687
0.034,1.7711000000000001,1.0,2720.7803393922045,0.318873777724144,1.320773053170221,0.9558924441652787,0.2874392,0.6718898225760668
0.0345,1.7702437500000001,1.0,2723.7465282917265,0.3226943554357301,1.320359362272594,0.9568366569758812,0.2874032375,0.6727355835596203
0.035,1.7693750000000001,1.0,2726.363292926592,0.3264935071070064,1.319943218769145,0.9577446945609697,0.28736675,0.673585257537114
0.035500000000000004,1.76849375,1.0,2728.6473346363323,0.3302713503356464,1.3195244662315435,0.9586183808573411,0.2873297375,0.6744391437482373
0.036000000000000004,1.7676,1.0,2730.615447046479,0.3340280027193234,1.319102948231458,0.9594594252317765,0.2872922,0.6752975396364522
0.0365,1.76669375,1.0,2732.2845058100997,0.33776358185571076,1.3186785083405577,0.9602694309765488,0.2872541375,0.6761607408221847
0.037,1.765775,1.0,2733.6714588913187,0.34147820534248186,1.3182509901305113,0.9610499030832096,0.28721555,0.6770290410744555
0.0375,1.76484375,1.0,2734.793317391853,0.3451719907773101,1.3178202371729877,0.961802255363317,0.2871764375,0.6779027322809499
0.038,1.7639,1.0,2735.6671469194675,0.34884505575786884,1.3173860930396557,0.9625278169775708,0.28713679999999997,0.6787821044165274
0.0385,1.76294375,1.0,2736.3100594998023,0.3524975178818314,1.3169484013021842,0.9632278384284562,0.28709663750000003,0.679667445510171
0.039,1.761975,1.0,2736.73469342892,0.3561294883740473,1.3165070464958066,0.9639034996061565,0.28705595,0.6805589589237924
0.0395,1.7609937500000001,1.0,2736.955224317538,0.3597410865149942,1.3160618994837079,0.9645559124722545,0.2870147375,0.681456874026628
0.04,1.76,1.0,2736.9875811119673,0.3633324334362517,1.3156128154518,0.965186124304964,0.286973,0.6823614500082525
0.0405,1.7589937500000001,1.0,2736.8413028990562,0.36690363961999295,1.3151597077793913,0.9657951263173007,0.2869307375,0.6832728271441604
0.041,1.757975,1.0,2736.5259458739497,0.37045481554839077,1.314702489845789,0.9663838543000753,0.28688795,0.6841911444032558
0.0415,1.75694375,1.0,2736.051080308985,0.3739860717036182,1.3142410750303013,0.9669531922929677,0.2868446375,0.6851165394253844
0.042,1.7559,1.0,2735.426287689278,0.3774975185678483,1.313775376712236,0.9675039759758949,0.28680079999999997,0.6860491484983877
0.0425,1.75484375,1.0,2734.6611580145236,0.38098926662325394,1.3133053082709005,0.9680369958046426,0.2867564375,0.6869891065346811
0.043000000000000003,1.753775,1.0,2733.765287266605,0.38446142635200814,1.3128307830856034,0.968552999912447,0.28671155,0.6879365470473474
0.043500000000000004,1.75269375,1.0,2732.748275044931,0.3879141082362839,1.3123517145356518,0.9690526967971872,0.28666613750000003,0.6888916021257612
0.044,1.7516,1.0,2731.6197223661943,0.3913474227582542,1.3118680160003537,0.9695367578120166,0.2866202,0.6898544024107243
0.0445,1.75049375,1.0,2730.389229632391,0.39476148040009207,1.3113796008590173,0.9700058194756257,0.2865737375,0.6908250770691298
0.045,1.7493750000000001,1.0,2729.0651152147148,0.398156389667158,1.3108863941224949,0.9704604862210905,0.28652675,0.6918037307063546
0.0455,1.74824375,1.0,2727.6491838185348,0.40153225669998355,1.3103883800024265,0.9709013358824605,0.2864792375,0.6927903493605525
0.046,1.7471,1.0,2726.1492524319,0.4048891876707924,1.3098854880540773,0.9713289131560658,0.2864312,0.6937850264460661
0.0465,1.7459437500000001,1.0,2724.5735948309652,0.4082272886540257,1.3093776436373095,0.9717437352932424,0.28638263750000004,0.6947878623004654
0.047,1.744775,1.0,2722.904645919619,0.4115466643756519,1.3088650072061812,0.9721463108361771,0.28633355,0.6957984927408344
0.0475,1.74359375,1.0,2721.194160055014,0.4148474221401591,1.3083471083980263,0.9725370788284063,0.28628393750000003,0.6968177957352546
0.048,1.7424,1.0,2719.452114217315,0.41812966650682604,1.3078238567193732,0.9729164835541327,0.2862338,0.6978458967934018
0.0485,1.7411940497979779,1.0,2717.6643928941917,0.4213935000745229,1.3072955164273525,0.9732849724002031,0.28618315009151507,0.6988822244376489
0.049,1.7399842874885092,1.0,2716.2177689983623,0.42463902544211984,1.3067623517790947,0.9736429714602642,0.2861323400745174,0.6999262102390273
0.0495,1.7387745251790407,1.0,2715.2718798257865,0.427866345208487,1.3062246270317301,0.9739908867493637,0.2860815300575197,0.7009772889007582
0.05,1.737564762869572,1.0,2714.797469863242,0.4310755619724944,1.3056826064423892,0.9743291053388762,0.286030720040522,0.7020348983373323
0.0505,1.7363550005601034,1.0,2714.767884825502,0.4342667769279303,1.3051365318183488,0.9746579947765451,0.28597991002352435,0.703098523437085
0.051000000000000004,1.7351452382506347,1.0,2715.1354402524735,0.4374400927976661,1.3045868376701963,0.9749779185417905,0.28592910000652666,0.7041672777999664
0.051500000000000004,1.7339354759411663,1.0,2715.8662265828625,0.440595610095139,1.3040338337296493,0.9752892153432315,0.28587828998952897,0.7052405227922576
0.052000000000000005,1.7327257136316976,1.0,2716.9348831131083,0.44373342744835254,1.303477752383533,0.9755922035692873,0.28582747997253133,0.7063177736232111
0.0525,1.731515951322229,1.0,2718.3160953548268,0.4468536434853102,1.302918826018673,0.9758871874795437,0.28577666995553364,0.7073985486080003
0.053,1.7303061890127605,1.0,2719.984579778083,0.4499563568340158,1.3023572870218942,0.9761744579600045,0.28572585993853594,0.7084823692116067
0.0535,1.7290964267032918,1.0,2721.915069751125,0.4530416661224727,1.301793367780022,0.9764542932318211,0.28567504992153825,0.7095687600892615
0.054,1.727886664393823,1.0,2724.08957902342,0.4561096663993614,1.3012272344749563,0.9767269551291506,0.28562423990454056,0.7106573763092148
0.0545,1.7266769020843546,1.0,2726.4803236591833,0.459160458850487,1.3006591424417668,0.9769927002807718,0.28557342988754286,0.7117477042926702
0.055,1.725467139774886,1.0,2729.064919432048,0.46219414239478995,1.300089297736047,0.977251771290236,0.2855226198705452,0.7128393283937696
0.0555,1.7242573774654173,1.0,2731.8308022617525,0.4652108109404662,1.2995178170008355,0.9775043948408922,0.28547180985354753,0.7139320066934121
0.056,1.7230476151559488,1.0,2734.7654007451397,0.46821055839571163,1.2989448168791717,0.9777507882079968,0.28542099983654984,0.7150254989192554
0.0565,1.7218378528464802,1.0,2737.856132075767,0.4711934786687222,1.2983704140140948,0.9779911597292529,0.28537018981955214,0.7161195664574542
0.057,1.7206280905370115,1.0,2741.090398265305,0.4741596656676938,1.2977947250486443,0.9782257092481632,0.2853193798025545,0.7172139723635278
0.0575,1.7194183282275428,1.0,2744.455582666655,0.47710921330082245,1.2972178666258591,0.978454628531975,0.2852685697855568,0.7183084813723629
0.058,1.7182085659180744,1.0,2747.939046798928,0.480042215476304,1.2966399553887789,0.9786781016658572,0.2852177597685591,0.7194028599073448
0.0585,1.7169988036086057,1.0,2751.5281274736435,0.48295876610233435,1.2960611079804425,0.9788963054248472,0.2851669497515614,0.7204968760886249
0.059000000000000004,1.715789041299137,1.0,2755.216133626876,0.48585895313403626,1.295481386766634,0.9791094061399422,0.28511613973456373,0.7215904020231725
0.059500000000000004,1.7145792789896686,1.0,2758.989092515093,0.48874287508537917,1.2949009198274173,0.9793175681106299,0.2850653297175661,0.7226831871331098
0.06,1.7133695166801999,1.0,2762.837833780017,0.49161062481549717,1.2943197915425253,0.9795209464517576,0.2850145197005684,0.7237750647524377
0.0605,1.7121597543707312,1.0,2766.7570633512264,0.4944622908346722,1.29373805108936,0.9797196880947503,0.2849637096835707,0.724865935402502
0.061,1.7109499920612627,1.0,2770.74147435218,0.49729796165318585,1.2931557476453233,0.9799139343841087,0.284912899666573,0.7259557003268864
0.0615,1.709740229751794,1.0,2774.7857464598187,0.50011772578132,1.2925729303878173,0.9801038213337812,0.2848620896495754,0.7270442614932571
0.062,1.7085304674423254,1.0,2778.884545317029,0.5029216717293562,1.291989648494244,0.9802894798699114,0.2848112796325777,0.7281315215950507
0.0625,1.7073207051328567,1.0,2783.032521999853,0.5057098880075764,1.2914059511420053,0.9804710360607782,0.28476046961558,0.7292173840530077
0.063,1.7061109428233883,1.0,2787.2243125372593,0.5084824631262624,1.2908218875085036,0.9806486113346992,0.2847096595985823,0.7303017530165539
0.0635,1.7049011805139196,1.0,2791.454537485158,0.5112394855956959,1.2902375067711405,0.9808223226866116,0.2846588495815846,0.7313845333650262
0.064,1.703691418204451,1.0,2795.7178015537443,0.5139810439261586,1.2896528581073181,0.9809922828739968,0.2846080395645869,0.7324656307087432
0.0645,1.7024816558949825,1.0,2800.013775802574,0.516707213088645,1.2890679450817082,0.9811585973605986,0.2845572295475893,0.733545035479077
0.065,1.7012718935855138,1.0,2804.334275563014,0.5194180943079332,1.2884828416986247,0.9813213731952675,0.2845064195305916,0.7346226085634128
0.0655,1.700062131276045,1.0,2808.674643048305,0.5221137781624873,1.287897590134315,0.9814807113255601,0.2844556095135939,0.7356982703917536
0.066,1.6988523689665767,1.0,2813.033097620976,0.5247943468834602,1.2873122066753286,0.9816367073197795,0.28440479949659625,0.7367719894622233
0.0665,1.697642606657108,1.0,2817.4078531302694,0.5274598827020046,1.2867267076082158,0.9817894534205284,0.28435398947959856,0.7378437345157931
0.067,1.6964328443476393,1.0,2821.7971178682487,0.5301104678492734,1.2861411092195265,0.9819390386845509,0.28430317946260086,0.7389134745364127
0.0675,1.6952230820381708,1.0,2826.1990945301986,0.5327461845564193,1.2855554277958106,0.9820855491157506,0.28425236944560317,0.7399811787511212
0.068,1.6940133197287022,1.0,2830.6119801821637,0.5353671150545953,1.284969679623618,0.9822290677917601,0.2842015594286055,0.7410468166301418
0.0685,1.6928035574192335,1.0,2835.0339662337733,0.5379733415749541,1.284383880989499,0.9823696749844217,0.2841507494116078,0.7421103578869594
0.069,1.6915937951097648,1.0,2839.4632384170122,0.5405649463486486,1.283798048180003,0.9825074482745101,0.2840999393946101,0.7431717724783822
0.0695,1.6903840328002964,1.0,2843.897976771209,0.5431420116068315,1.2832121974816806,0.9826424626610084,0.28404912937761245,0.7442310306045841
0.07,1.6891742704908277,1.0,2848.3363556330287,0.5457046195806557,1.2826263451810813,0.982774790665236,0.28399831936061476,0.7452881027091336
0.07050000000000001,1.687964508181359,1.0,2852.7765436337636,0.5482528525012741,1.2820405075647554,0.9829045024300969,0.28394750934361707,0.7463429594790024
0.07100000000000001,1.6867547458718906,1.0,2857.21670370112,0.5507867925998394,1.2814547009192527,0.9830316658147167,0.28389669932661943,0.74739557184456
0.07150000000000001,1.6855449835624219,1.0,2861.655606614344,0.5533065162369264,1.2808689360845118,0.9831563458898304,0.28384588930962174,0.748445920735824
0.07200000000000001,1.6843352212529532,1.0,2866.09404945241,0.5558120872520618,1.2802832058928946,0.983278604099671,0.28379507929262404,0.7494940194336775
0.0725,1.6831254589434848,1.0,2870.5279862133248,0.5583036186263796,1.2796975461257876,0.983398504707887,0.28374426927562635,0.7505398045000413
