Time [s],Phi [rad],STIM [ ],Fsee [N],Gamma [ ],Lcerel [ ],q [ ],Lmtc [m],fisomrel [ ]
0.0,1.8,1.0,18.794105648808817,0.0009271960934223527,1.3792481426150707,0.005220977624855971,0.288653,0.5413611171014637
0.0005,1.79999375,1.0,19.37628098791089,0.006531204565386986,1.3791820343427998,0.01568162454286883,0.2886527375,0.5415209975499228
0.001,1.799975,1.0,23.39961608114701,0.012103778981152346,1.378759975800032,0.04054679205503875,0.28865195,0.5425410737626251
0.0015,1.79994375,1.0,34.39652283778153,0.017645095660057963,1.3777699387198603,0.07725661868978283,0.2886506375,0.5449294432384981
0.002,1.7999,1.0,59.94093652334519,0.0231553299342697,1.375967183423149,0.12253202666422283,0.2886488,0.5492623628471435
0.0025,1.79984375,1.0,107.12546459530068,0.028634656150792838,1.3734647956659027,0.1730331004982698,0.28864643749999996,0.5552424948923008
0.003,1.7997750000000001,1.0,173.55476432237498,0.03408324767992818,1.3707517218502987,0.2259783474371704,0.28864354999999997,0.5616809972737206
0.0035,1.79969375,1.0,251.68535230674271,0.03950127691873021,1.3681596064747528,0.2792441653084469,0.2886401375,0.5677885974501122
0.004,1.7996,1.0,336.23074032522317,0.04488891529742411,1.3657694408407028,0.33125917399776994,0.2886362,0.5733823856730855
0.0045000000000000005,1.7994937500000001,1.0,424.467028980913,0.050246333288130586,1.3635692816011762,0.38094479996644454,0.2886317375,0.5784992904209332
0.005,1.799375,1.0,514.8525420515161,0.05557370039243281,1.3615327612028174,0.42764159352664716,0.28862675,0.5832081077074829
0.0055,1.79924375,1.0,606.3184088733864,0.06087118518349594,1.3596374234221205,0.47101517298442647,0.2886212375,0.5875667209001865
0.006,1.7991000000000001,1.0,698.0176909634915,0.06613895527411644,1.3578662552262284,0.5109645800312888,0.2886152,0.5916190796248595
0.006500000000000001,1.79894375,1.0,789.2536922147223,0.07137717733589101,1.3562061264624885,0.5475454228560482,0.2886086375,0.5953992202506048
0.007,1.798775,1.0,879.4516343477939,0.07658601712721104,1.354646483695369,0.5809110371561186,0.28860155,0.5989345395488211
0.0075,1.79859375,1.0,968.1352381341078,0.08176563943990195,1.3531786121716682,0.6112700742364482,0.2885939375,0.6022476655117805
0.008,1.7984,1.0,1054.9123949771326,0.08691620797584289,1.3517951130988863,0.6388572330573672,0.2885858,0.6053577755093806
0.0085,1.79819375,1.0,1139.5122989773124,0.09203788630955335,1.350488879019831,0.6639135679051866,0.2885771375,0.6082829900619331
0.009000000000000001,1.797975,1.0,1221.6796405377772,0.09713083591718444,1.349254289033163,0.686675221241418,0.28856795,0.6110377601783799
0.0095,1.79774375,1.0,1301.238416912604,0.10219521790994647,1.348085972917956,0.7073656585849527,0.2885582375,0.6136356998015308
0.01,1.7975,1.0,1378.0832821262352,0.10723119272231713,1.3469787675883393,0.726191974251391,0.288548,0.6160897156979502
0.0105,1.79724375,1.0,1452.1396226572049,0.11223892008105424,1.3459280851183848,0.743343575507951,0.2885372375,0.6184112242548709
0.011,1.796975,1.0,1523.3439304808392,0.11721855777326996,1.3449299940526,0.7589920426457217,0.28852595000000003,0.6206100102132439
0.0115,1.79669375,1.0,1591.6806819960696,0.12217026323457027,1.3439806366352856,0.7732915026804146,0.2885141375,0.6226955408800499
0.012,1.7964,1.0,1657.1747434796084,0.12709419388028234,1.3430762528294855,0.7863797833469852,0.28850180000000003,0.6246769283943844
0.0125,1.79609375,1.0,1719.8545411447503,0.1319905058348423,1.342213541689435,0.7983799160892696,0.2884889375,0.6265621552435375
0.013000000000000001,1.7957750000000001,1.0,1779.7422749157909,0.13685935300344457,1.3413896867780786,0.8094015348041588,0.28847555,0.6283580413315224
0.0135,1.79544375,1.0,1836.8908729725558,0.1417008892912836,1.3406018716583612,0.8195420627197774,0.2884616375,0.6300713170370575
0.014,1.7951000000000001,1.0,1891.3726383118092,0.1465152679969922,1.3398473744824393,0.8288880799568816,0.2884472,0.6317084249279104
0.0145,1.79474375,1.0,1943.2697471169292,0.15130264252743691,1.339123636894207,0.8375165729563983,0.2884322375,0.6332753791442796
0.015,1.794375,1.0,1992.6526739521007,0.15606316433370074,1.3384284592044469,0.8454961026688563,0.28841675,0.6347773533179338
0.0155,1.79399375,1.0,2039.5866053280638,0.16079698299777534,1.3377598912212156,0.8528877484758595,0.2884007375,0.6362189281958948
0.016,1.7936,1.0,2084.1525204471845,0.16550424810165248,1.33711598275257,0.8597459112542151,0.2883842,0.6376046370305131
0.0165,1.7931937500000001,1.0,2126.441375948125,0.17018510879548424,1.3364948295648578,0.8661191186813046,0.2883671375,0.6389388701406803
0.017,1.792775,1.0,2166.54333554763,0.1748397136689195,1.3358946681904251,0.8720507479637006,0.28834955,0.6402256756417226
0.0175,1.7923437500000001,1.0,2204.551608515612,0.17946821125861076,1.335313819286796,0.8775796162849107,0.2883314375,0.6414688858268558
0.018000000000000002,1.7919,1.0,2240.5336298965103,0.1840707465579898,1.3347509632737824,0.8827405858094599,0.2883128,0.6426715324849324
0.0185,1.79144375,1.0,2274.56493518533,0.1886474645604884,1.3342047805711974,0.8875649293788704,0.2882936375,0.6438366219494828
0.019,1.790975,1.0,2306.7284880504762,0.19319851025953846,1.3336739515988534,0.8920807456500757,0.28827395,0.6449671365574172
0.0195,1.79049375,1.0,2337.1056505485076,0.19772402754250543,1.3331572392523028,0.896313341753968,0.2882537375,0.6460658607582395
0.02,1.79,1.0,2365.784817807887,0.20222416116928954,1.332653396281521,0.900285528694586,0.288233,0.6471355801733716
0.0205,1.78949375,1.0,2392.842571602876,0.20669905391280177,1.3321613434423127,0.904017939290014,0.2882117375,0.6481787051103252
0.021,1.788975,1.0,2418.3407622435443,0.2111488459009392,1.3316801884514,0.9075292713605221,0.28818995000000003,0.6491972340205479
0.021500000000000002,1.78844375,1.0,2442.345081214422,0.21557367726159896,1.3312090390255045,0.9108364598307985,0.2881676375,0.6501931520019192
0.022,1.7879,1.0,2464.9247427257146,0.21997368812267812,1.3307470028813477,0.9139548672581382,0.2881448,0.6511684313935133
0.0225,1.78734375,1.0,2486.146482414195,0.22434901804461976,1.3302932420277909,0.9168984620738736,0.28812143749999997,0.6521249179552653
0.023,1.786775,1.0,2506.072153794122,0.2286998053280281,1.329846991798268,0.9196799681823631,0.28809755,0.653064292097045
0.0235,1.78619375,1.0,2524.796747936648,0.2330261905546578,1.3294071977972632,0.9223109275283148,0.28807313749999996,0.6539888330336565
0.024,1.7856,1.0,2542.3607105750693,0.23732830869377194,1.328973344690482,0.9248019704432913,0.2880482,0.6548996762855784
0.0245,1.78499375,1.0,2558.8061647104655,0.24160629471463357,1.3285449171436297,0.9271628114131806,0.2880227375,0.6557979509537166
0.025,1.784375,1.0,2574.176781176424,0.24586028358650577,1.328121399822412,0.9294023405221647,0.28799675,0.656684779906189
0.025500000000000002,1.783747749839976,1.0,2588.7111881969104,0.2500904102786516,1.327702277392534,0.931528704656437,0.287970405493279,0.6575612799481719
0.026000000000000002,1.783120249639944,1.0,2602.8566552399548,0.25429680922846454,1.3272870430382107,0.9335493808537014,0.28794405048487764,0.6584285441942106
0.0265,1.782492749439912,1.0,2616.6332872178764,0.25847961390178126,1.3268755904604521,0.9354713026114575,0.2879176954764763,0.6592868251311569
0.027,1.78186524923988,1.0,2630.0374982362596,0.2626389578043538,1.3264679230344767,0.9373008644445426,0.28789134046807496,0.6601361455024075
0.0275,1.781237749039848,1.0,2643.078043148228,0.26677497109945736,1.32606393098889,0.9390439366028323,0.28786498545967365,0.6609767630997208
0.028,1.7806102488398161,1.0,2655.763885884355,0.27088778395036694,1.3256635045522978,0.9407059321894585,0.2878386304512723,0.6618089343198837
0.0285,1.7799827486397841,1.0,2668.1041906412106,0.2749775265203577,1.3252665339533063,0.9422918487464141,0.2878122754428709,0.6626329141900595
0.029,1.779355248439752,1.0,2680.1066253255567,0.2790443241296709,1.3248729249046458,0.9438063058915809,0.2877859204344696,0.6634489243109067
0.029500000000000002,1.77872774823972,1.0,2691.7709732132394,0.2830882766944931,1.3244826568324461,0.9452535793832579,0.28775956542606823,0.6642570325732047
0.03,1.778100248039688,1.0,2703.126845983241,0.2871095678763106,1.3240954375728042,0.9466376240088873,0.28773321041766686,0.6650578678076932
0.0305,1.777472747839656,1.0,2714.181875783323,0.29110831898292916,1.3237111783636475,0.947962111962033,0.28770685540926555,0.6658516358495498
0.031,1.776845247639624,1.0,2724.943833629025,0.29508465132215467,1.3233297904429033,0.9492304526788333,0.28768050040086424,0.6666385414928195
0.0315,1.776217747439592,1.0,2735.420623665755,0.29903868620179286,1.322951185048499,0.9504458149162152,0.28765414539246287,0.6674187885069203
0.032,1.77559024723956,1.0,2745.620277605764,0.3029705449296495,1.3225752734183618,0.9516111467186719,0.2876277903840615,0.668192579652644
0.0325,1.774962747039528,1.0,2755.5509493390437,0.3068803488135304,1.322201966790419,0.9527291934982227,0.2876014353756602,0.6689601166976586
0.033,1.774335246839496,1.0,2765.2209097195378,0.31076821916124125,1.321831176402598,0.9538025144260667,0.2875750803672588,0.6697216004315045
0.0335,1.773707746639464,1.0,2774.638541525961,0.31463427728058796,1.3214628134928263,0.9548334973116047,0.28754872535885745,0.6704772306800904
0.034,1.773080246439432,1.0,2783.812334597278,0.31847864447937624,1.321096789299031,0.9558243721244822,0.28752237035045614,0.6712272063196865
0.0345,1.7724527462394,1.0,2792.750881142462,0.3223014420654119,1.3207330150591396,0.9567772232977679,0.2874960153420548,0.6719717252904136
0.035,1.771825246039368,1.0,2801.462871225433,0.3261027913465007,1.3203714020110793,0.9576940009349598,0.28746966033365345,0.672710984609233
0.035500000000000004,1.771197745839336,1.0,2809.9570884246823,0.32988281363044847,1.3200118613927776,0.9585765310299585,0.2874433053252521,0.6734451803824288
0.036000000000000004,1.770570245639304,1.0,2818.242405667378,0.3336416302250609,1.3196543044421616,0.959426524797217,0.28741695031685077,0.6741745078175954
0.0365,1.769942745439272,1.0,2826.327781237823,0.3373793624381438,1.3192986423971587,0.9602455871987429,0.2873905953084494,0.674899161235113
0.037,1.76931524523924,1.0,2834.222254961422,0.34109613157750307,1.3189447864956965,0.9610352247453645,0.2873642403000481,0.6756193340791282
0.0375,1.768687745039208,1.0,2841.9319015720994,0.3447920499094242,1.3185926750826744,0.9617968533605318,0.2873378852916467,0.676335163850974
0.038,1.768060244839176,1.0,2849.45903123858,0.34846722155748217,1.3182422805121319,0.9625318058110246,0.2873115302832454,0.6770467184133852
0.0385,1.767432744639144,1.0,2856.820704400925,0.3521217954545082,1.3178934444073032,0.9632413328034567,0.28728517527484404,0.6777543303662655
0.039,1.7668052444391118,1.0,2864.021566362427,0.3557558822498387,1.3175461195273985,0.9639266144449602,0.28725882026644267,0.6784581057815406
0.0395,1.7661777442390798,1.0,2871.06630472595,0.35936959259280965,1.3172002586316274,0.9645887626661167,0.28723246525804136,0.6791581502679487
0.04,1.7655502440390478,1.0,2877.959647835275,0.36296303713275746,1.3168558144792004,0.9652288258901094,0.28720611024964,0.6798545689755183
0.0405,1.7649227438390158,1.0,2884.7063632674076,0.36653632651901824,1.316512739829327,0.9658477933344669,0.2871797552412387,0.680547466599913
0.041,1.7642952436389838,1.0,2891.311256372375,0.37008957140092824,1.3161709874412175,0.9664465989778738,0.2871534002328373,0.6812369473866247
0.0415,1.7636677434389518,1.0,2897.779168864392,0.37362288242782377,1.3158305100740821,0.9670261252213636,0.287127045224436,0.6819231151350291
0.042,1.7630402432389198,1.0,2904.114977461129,0.37713637024904095,1.3154912604871303,0.9675872062703672,0.2871006902160346,0.6826060732023014
0.0425,1.7624127430388878,1.0,2910.323592573327,0.38063014551391605,1.3151531914395724,0.9681306312615625,0.28707433520763326,0.6832859245071818
0.043000000000000003,1.7617852428388558,1.0,2916.409957043399,0.3841043188717853,1.3148162556906187,0.9686571471561864,0.28704798019923194,0.6839627715336065
0.043500000000000004,1.7611577426388239,1.0,2922.3790449337007,0.38755900097198487,1.3144804059994786,0.9691674614194511,0.28702162519083063,0.6846367163341937
0.044,1.7605302424387919,1.0,2928.2358603641223,0.390994302463851,1.3141455951253624,0.9696622445038668,0.28699527018242926,0.6853078605335838
0.0445,1.7599027422387599,1.0,2933.985436399666,0.39441033399672,1.31381177582748,0.9701421321526367,0.2869689151740279,0.6859763053316434
0.045,1.7592752420387279,1.0,2939.6328339867523,0.39780720621992793,1.3134789008650418,0.9706077275378161,0.2869425601656266,0.686642151506522
0.0455,1.7586477418386959,1.0,2945.1813109189407,0.40118502045324267,1.3131469390107944,0.9710596031412331,0.2869162051572252,0.687305467436766
0.046,1.7580202416386639,1.0,2950.6319058989,0.4045438715288333,1.3128158786048385,0.9714983033124408,0.2868898501488239,0.6879662821833001
0.0465,1.757392741438632,1.0,2955.9941748565434,0.4078838989231074,1.3124856336845987,0.9719243459786225,0.28686349514042253,0.6886247727702003
0.047,1.7567652412386,1.0,2961.27052786262,0.4112052035802266,1.312156181000185,0.9723382229217201,0.2868371401320212,0.6892809906357773
0.0475,1.756137741038568,1.0,2966.463388743375,0.4145078864443527,1.3118274973017081,0.9727404020133709,0.28681078512361985,0.6899349870106927
0.048,1.755510240838536,1.0,2971.5751946791165,0.41779204845964735,1.3114995593392784,0.9731313286005974,0.2867844301152185,0.6905868129191179
0.0485,1.7548827406385037,1.0,2976.608395813254,0.4210577905702723,1.311172343863006,0.9735114267987703,0.28675807510681717,0.6912365191798568
0.049,1.7542552404384717,1.0,2981.565454873812,0.42430521372038926,1.3108458276230017,0.9738811006988561,0.2867317200984158,0.6918841564074334
0.0495,1.7536277402384397,1.0,2986.448846807332,0.42753441885416,1.3105199873693756,0.9742407354953614,0.28670536509001443,0.6925297750131468
0.05,1.7530002400384077,1.0,2991.2610584242466,0.43074550691574615,1.310194799852238,0.9745906985408656,0.2866790100816131,0.6931734252060904
0.0505,1.7523727398383757,1.0,2996.0045880563093,0.4339385788493095,1.3098702418216996,0.9749313403325334,0.2866526550732118,0.6938151569941371
0.051000000000000004,1.7517452396383437,1.0,3000.681945226216,0.43711373559901173,1.3095462900278707,0.9752629954355716,0.28662630006481044,0.6944550201848896
0.051500000000000004,1.7511177394383117,1.0,3005.295650329205,0.4402710781090146,1.3092229212208615,0.9755859833481816,0.28659994505640907,0.6950930643865972
0.052000000000000005,1.7504902392382797,1.0,3009.848234326478,0.44341070732347987,1.3089001121507824,0.9759006093122027,0.28657359004800775,0.6957293390090372
0.0525,1.7498627390382477,1.0,3014.3422384503624,0.4465327241865691,1.308577839567744,0.9762071650732994,0.2865472350396064,0.696363893264361
0.053,1.7492352388382157,1.0,3018.780213922385,0.4496372296424442,1.3082560802218568,0.9765059295942456,0.28652088003120507,0.6969967761679088
0.0535,1.7486077386381838,1.0,3023.164721682128,0.4527243246352668,1.3079348108632307,0.976797169724583,0.2864945250228037,0.6976280365389871
0.054,1.7479802384381518,1.0,3027.49478451311,0.4557940751990031,1.307614038860352,0.9770811392427201,0.2864681700144024,0.6982576629337429
0.0545,1.7473527382381198,1.0,3031.7750067673833,0.4588466113885319,1.3072937234358761,0.9773580845071351,0.286441815006001,0.6988857383192452
0.055,1.7467252380380878,1.0,3036.0083362208834,0.4618820434819287,1.3069738382175884,0.9776282403509328,0.28641545999759965,0.699512317123603
0.0555,1.7460977378380558,1.0,3040.1959209440442,0.4649004627582801,1.3066543724180686,0.977891830877832,0.28638910498919834,0.7001374230767874
0.056,1.7454702376380238,1.0,3044.3389136492083,0.4679019604966728,1.306335315249896,0.9781490709036792,0.286362749980797,0.7007610798174326
0.0565,1.7448427374379918,1.0,3048.438471591632,0.4708866279761933,1.30601665592565,0.9784001664173235,0.28633639497239566,0.7013833108931196
0.057,1.7442152372379598,1.0,3052.4957564733913,0.4738545564759281,1.3056983836579097,0.9786453150150026,0.2863100399639943,0.7020041397606551
0.0575,1.7435877370379278,1.0,3056.511934349103,0.4768058372749639,1.3053804876592547,0.9788847063099559,0.286283684955593,0.7026235897863387
0.058,1.7429602368378958,1.0,3060.4881755346028,0.47974056165238715,1.3050629571422643,0.9791185223188719,0.2862573299471916,0.7032416842462278
0.0585,1.7423327366378638,1.0,3064.425654518698,0.4826588208872845,1.3047457813195176,0.9793469378266507,0.2862309749387903,0.7038584463263928
0.059000000000000004,1.7417052364378316,1.0,3068.325549876554,0.48556070625874254,1.304428949403594,0.9795701207308629,0.2862046199303889,0.7044738991231632
0.059500000000000004,1.7410777362377996,1.0,3072.189044186568,0.48844630904584774,1.3041124506070731,0.9797882323671846,0.2861782649219876,0.7050880656433689
0.06,1.7404502360377676,1.0,3076.0173239489222,0.4913157205276867,1.303796274142534,0.9800014278170011,0.28615190991358624,0.7057009688045739
0.0605,1.7398227358377356,1.0,3079.811579507718,0.49416903198334605,1.303480409222556,0.9802098561982874,0.2861255549051849,0.7063126314352995
0.061,1.7391952356377036,1.0,3083.573004974863,0.49700633469191235,1.3031648450597186,0.9804136609407932,0.28609919989678356,0.7069230762752449
0.0615,1.7385677354376716,1.0,3087.3027981568466,0.4998277199324721,1.302849570866601,0.9806129800464994,0.2860728448883822,0.7075323259754962
0.062,1.7379402352376396,1.0,3091.0021604842705,0.502633278984112,1.3025345758557825,0.9808079463362337,0.2860464898799809,0.7081404030987303
0.0625,1.7373127350376076,1.0,3094.672296943507,0.5054231031259185,1.3022198492398427,0.9809986876832841,0.2860201348715795,0.7087473301194094
0.063,1.7366852348375756,1.0,3098.314416011671,0.5081972836369782,1.3019053802313605,0.9811853272347872,0.2859937798631782,0.7093531294239721
0.0635,1.7360577346375436,1.0,3101.9276892545436,0.5109558721690413,1.3015911754398897,0.9813679816490289,0.28596742485477683,0.7099577898494442
0.064,1.7354302344375117,1.0,3105.514755814187,0.5136990005349388,1.3012772119142155,0.9815467675972761,0.28594106984637546,0.7105613570828981
0.0645,1.7348027342374797,1.0,3109.07647134709,0.5164267577014534,1.300963481949065,0.9817217952406415,0.28591471483797415,0.7111638473631852
0.065,1.7341752340374477,1.0,3112.61337779145,0.519139225780456,1.3006499805303,0.981893170456251,0.2858883598295728,0.7117652717064102
0.0655,1.7335477338374157,1.0,3116.1260187772,0.5218364868838176,1.3003367026437824,0.9820609953685612,0.28586200482117147,0.7123656410875645
0.066,1.7329202336373837,1.0,3119.6149396006294,0.5245186231234089,1.3000236432753745,0.982225368509329,0.2858356498127701,0.7129649664405959
0.0665,1.7322927334373517,1.0,3123.0806872004805,0.5271857166111008,1.2997107974109374,0.9823863849696632,0.2858092948043688,0.7135632586584822
0.067,1.7316652332373197,1.0,3126.523810132953,0.5298378494587641,1.2993981600363333,0.982544136544602,0.2857829397959674,0.7141605285932976
0.0675,1.7310377330372877,1.0,3129.9448585490863,0.5324751037782698,1.2990857261374245,0.982698711870633,0.28575658478756605,0.7147567870562804
0.068,1.7304102328372557,1.0,3133.344384171584,0.5350975616814887,1.298773490700072,0.982850196556547,0.28573022977916473,0.7153520448179016
0.0685,1.7297827326372235,1.0,3136.722940272151,0.5377053052802917,1.2984614487101385,0.9829986733079962,0.28570387477076337,0.7159463126079253
0.069,1.7291552324371915,1.0,3140.081081650311,0.5402984166865495,1.2981495951534854,0.9831442220460959,0.28567751976236205,0.7165396011154744
0.0695,1.7285277322371595,1.0,3143.4193646116123,0.5428769780121332,1.2978379250159746,0.9832869200203972,0.2856511647539607,0.7171319209890902
0.07,1.7279002320371275,1.0,3146.7383469474557,0.5454410713689134,1.2975264332834682,0.9834268419165326,0.28562480974555937,0.717723282836792
0.07050000000000001,1.7272727318370955,1.0,3150.0385879144146,0.5479907788687611,1.2972151149418276,0.9835640599588209,0.285598454737158,0.7183136972261359
