Time [s],Phi [rad],STIM [ ],Fsee [N],Gamma [ ],Lcerel [ ],q [ ],Lmtc [m],fisomrel [ ]
0.0,1.8,1.0,17.96852216589659,2.2795394100909877e-05,1.3793395934091937,0.005000137592969972,0.288653,0.5411399007402667
0.0005,1.79999375,1.0,18.282044968044925,0.005631876838765859,1.3793017990140517,0.01297607290799127,0.2886527375,0.5412313305634693
0.001,1.799975,1.0,21.633132024389898,0.011209495771385405,1.3789367958275398,0.03567527700279228,0.28865195,0.5421138544896602
0.0015,1.79994375,1.0,31.104142044938566,0.016755828672648514,1.3780432306889836,0.07069299004836516,0.2886506375,0.5442707772010076
0.002,1.7999,1.0,53.65748455430782,0.022271051031572807,1.3763632615048953,0.11482593807873001,0.2886488,0.5483121664202736
0.0025,1.79984375,1.0,97.24515259180225,0.02775533735315592,1.3739290872373289,0.1646922776356516,0.28864643749999996,0.5541359621105169
0.003,1.7997750000000001,1.0,161.12257367180158,0.03320886116597643,1.3712081914220116,0.2174015558299157,0.28864354999999997,0.5606010160114772
0.0035,1.79969375,1.0,237.8691798941465,0.03863179502187654,1.368579010730918,0.27073334045757314,0.2886401375,0.5668032935223785
0.004,1.7996,1.0,321.66455216770754,0.04402431050672077,1.3661508547429269,0.3230324345460498,0.2886362,0.5724921925096431
0.0045000000000000005,1.7994937500000001,1.0,409.47260784161443,0.049386578245587294,1.363918005992317,0.3731452248967852,0.2886317375,0.5776903217939282
0.005,1.799375,1.0,499.62254435223196,0.05471876789387671,1.361853900724987,0.42035104710867305,0.28862675,0.5824673294965281
0.0055,1.79924375,1.0,591.001371934605,0.060021048184320955,1.359934713860703,0.4642696042723508,0.2886212375,0.5868845719324423
0.006,1.7991000000000001,1.0,682.729357103066,0.06529358687132603,1.3581425751040417,0.5047681000924482,0.2886152,0.5909881884497636
0.006500000000000001,1.79894375,1.0,774.0934025066274,0.07053655078342759,1.3564636324171386,0.5418813261834725,0.2886086375,0.5948140266708517
0.007,1.798775,1.0,864.4981694618176,0.07575010582111213,1.3548869649407178,0.5757501748826118,0.28860155,0.5983904404182581
0.0075,1.79859375,1.0,953.4529808514783,0.08093441692293274,1.35340355295936,0.6065766597188873,0.2885939375,0.6017408442464951
0.008,1.7984,1.0,1040.5662155267573,0.08608964815500143,1.3520055876361081,0.6345926838033303,0.2885858,0.6048854154112188
0.0085,1.79819375,1.0,1125.523543158616,0.0912159626034827,1.350686278496329,0.6600394578433553,0.2885771375,0.6078416265127399
0.009000000000000001,1.797975,1.0,1208.0845001257417,0.09631352248625089,1.3494395166391784,0.6831543436503463,0.28856795,0.6106250772033717
0.0095,1.79774375,1.0,1288.0616311048013,0.10138248883181328,1.3482598819262341,0.7041631554972364,0.2885582375,0.6132495364819052
0.01,1.7975,1.0,1365.3520865149753,0.10642302288936542,1.3471420071309892,0.7232756783357354,0.288548,0.6157284020569779
0.0105,1.79724375,1.0,1439.8446221143017,0.11143528329501011,1.3460816295064904,0.7406844131113729,0.2885372375,0.6180724034379221
0.011,1.796975,1.0,1511.4886747830828,0.11641942858992729,1.3450745203108534,0.7565636706280265,0.28852595000000003,0.6202920134956456
0.0115,1.79669375,1.0,1580.2724550588114,0.12137561662909904,1.3441166738867405,0.7710702491218048,0.2885141375,0.6223970495954295
0.012,1.7964,1.0,1646.2146175331707,0.12630400504764272,1.3432043202420962,0.7843445149472001,0.28850180000000003,0.6243966663493643
0.0125,1.79609375,1.0,1709.322080826215,0.13120474895628723,1.3423343335838376,0.7965118881945275,0.2884889375,0.6262984823013706
0.013000000000000001,1.7957750000000001,1.0,1769.6320767492907,0.13607800319176677,1.3415036557370061,0.8076839866992905,0.28847555,0.6281098632597589
0.0135,1.79544375,1.0,1827.2004866453003,0.14092392191683312,1.3407093845889873,0.8179600707454581,0.2884616375,0.629837739964903
0.014,1.7951000000000001,1.0,1882.106842506513,0.14574265970350644,1.3399486756456036,0.8274283433701195,0.2884472,0.6314888326747455
0.0145,1.79474375,1.0,1934.410909221271,0.15053436848473445,1.3392191786886656,0.8361673437226054,0.2884322375,0.6330687143169234
0.015,1.794375,1.0,1984.1744374484176,0.15529919909773643,1.3385187492338404,0.8442469516656931,0.28841675,0.6345824503098096
0.0155,1.79399375,1.0,2031.4776868972574,0.16003730237973166,1.3378452427967957,0.8517293305262627,0.2884007375,0.6360350507639482
0.016,1.7936,1.0,2076.404194002061,0.1647488282223942,1.3371966569680285,0.8586698822740733,0.2883842,0.6374311687805667
0.0165,1.7931937500000001,1.0,2119.0542314584754,0.16943392719043518,1.3365709699266415,0.8651179990775165,0.2883671375,0.6387754534522954
0.017,1.792775,1.0,2159.50308491084,0.17409274681877063,1.335966554311921,0.8711178927928022,0.28834955,0.6400716657645887
0.0175,1.7923437500000001,1.0,2197.8243400513416,0.1787254336580503,1.335381911538908,0.8767091276031602,0.2883314375,0.6413232570551914
0.018000000000000002,1.7919,1.0,2234.1012355013636,0.18333213425892386,1.334815543022645,0.8819271304704851,0.2883128,0.6425336484389395
0.0185,1.7914444725546195,1.0,2268.4534168863706,0.18791299438708955,1.3342660015651195,0.8868036870073908,0.28829366784729404,0.6437061230792969
0.019,1.7909862227152615,1.0,2301.3601786261565,0.1924681601901889,1.3337321303223606,0.8913674243674589,0.28827442135404097,0.6448433201227645
0.0195,1.7905279728759036,1.0,2332.9921859663714,0.1969977762082748,1.3332131194805035,0.8956441813006519,0.28825517486078794,0.6459471205550756
0.02,1.7900697230365457,1.0,2363.388469131573,0.201501984440693,1.3327082864714628,0.8996572675139993,0.2882359283675349,0.6470191202590021
0.0205,1.7896114731971877,1.0,2392.591242509689,0.20598092688678923,1.3322169487271533,0.9034277196297822,0.2882166818742819,0.6480609023546555
0.021,1.78915322335783,1.0,2420.6456952556573,0.21043474554590924,1.3317384236794898,0.9069745536805244,0.2881974353810289,0.6490740378018091
0.021500000000000002,1.788694973518472,1.0,2447.592303268093,0.21486358015725746,1.3312721006454782,0.9103150005511601,0.2881781888877758,0.6500599341005491
0.022,1.7882367236791141,1.0,2473.4845496978287,0.21926757405237124,1.3308172679354582,0.9134646672458938,0.2881589423945228,0.651020201644513
0.0225,1.7877784738397562,1.0,2498.366301858159,0.22364686726591257,1.330373328780578,0.9164377500084938,0.28813969590126975,0.6519561978011486
0.023,1.7873202240003982,1.0,2522.2720817667932,0.22800159641982126,1.3299397943811675,0.9192471811156713,0.28812044940801673,0.6528690436342887
0.0235,1.7868619741610403,1.0,2545.2381368324873,0.2323318981360371,1.329516175937557,0.9219047416264929,0.2881012029147637,0.6537598526641866
0.024,1.7864037243216826,1.0,2567.3023297429395,0.23663790903649992,1.329101984650077,0.9244211797660643,0.2880819564215107,0.6546297311842493
0.0245,1.7859454744823247,1.0,2588.5040336501424,0.2409197657431495,1.3286967317190568,0.9268063157125478,0.28806270992825767,0.6554797785625333
0.025,1.7854872246429667,1.0,2608.8840326527197,0.24517760487792567,1.3282999283448267,0.9290691344845243,0.2880434634350046,0.6563110875280027
0.025500000000000002,1.7850289748036088,1.0,2628.469511537035,0.24941155742172008,1.3279112238897781,0.9312178888080862,0.28802421694175157,0.6571244555073592
0.026000000000000002,1.7845707249642508,1.0,2647.3131863336334,0.2536217654391978,1.3275300414336122,0.9332601182980109,0.28800497044849854,0.6579211478268376
0.0265,1.784112475124893,1.0,2665.441598378872,0.2578083597115998,1.3271560566606018,0.9352027847025597,0.28798572395524547,0.6587018960149398
0.027,1.7836542252855352,1.0,2682.8813724640686,0.26197147071317123,1.326788952150872,0.9370522925418617,0.28796647746199244,0.6594674131126756
0.0275,1.7831959754461773,1.0,2699.659908996485,0.266111228918157,1.326428410484548,0.938814540287929,0.2879472309687394,0.6602184082542455
0.028,1.7827377256068193,1.0,2715.8053366956246,0.27022776480080185,1.3260741142417551,0.9404949670592956,0.2879279844754864,0.6609555868031085
0.0285,1.7822794757674614,1.0,2731.3464675227783,0.2743212088353509,1.325725746002618,0.9420985944416501,0.2879087379822334,0.6616796504816264
0.029,1.7818212259281034,1.0,2746.3127538448284,0.278391691496049,1.3253829883472619,0.9436300639963064,0.28788949148898035,0.6623912974942783
0.029500000000000002,1.7813629760887455,1.0,2760.7291144578626,0.28243934014182215,1.3250455702515584,0.9450936761575272,0.28787024499572733,0.663091126466324
0.03,1.7809047262493878,1.0,2774.622666185769,0.286464284625131,1.3247132054713953,0.9464934137333846,0.2878509985024743,0.6637797646444243
0.0305,1.7804464764100298,1.0,2788.023936251408,0.2904666571161754,1.324385581540761,0.9478329678100783,0.28783175200922123,0.6644578905882088
0.031,1.779988226570672,1.0,2800.9508411269867,0.2944465815465428,1.3240625035518316,0.9491157775196137,0.2878125055159682,0.6651259368358391
0.0315,1.779529976731314,1.0,2813.4216394854006,0.2984041818478207,1.3237437765967832,0.9503450390092659,0.2877932590227152,0.6657843339121561
0.032,1.779071726891956,1.0,2825.4549129768984,0.30233958195159677,1.3234292057677919,0.9515237256249145,0.28777401252946216,0.6664335103839776
0.0325,1.7786134770525983,1.0,2837.0695478474618,0.3062529057894586,1.3231185961570338,0.9526546061839878,0.28775476603620914,0.6670738929129711
0.033,1.7781552272132404,1.0,2848.2847173996247,0.3101442772929936,1.322811752856685,0.9537402615393774,0.28773551954295606,0.667705906306105
0.0335,1.7776969773738824,1.0,2859.119865295998,0.31401382039378944,1.3225084809589214,0.9547830996124802,0.28771627304970304,0.6683299735636768
0.034,1.7772387275345245,1.0,2869.594689704106,0.31786165902343366,1.3222085855559194,0.9557853690531704,0.28769702655645,0.6689465159249165
0.0345,1.7767804776951666,1.0,2879.719200500578,0.321687907867651,1.3219119595944024,0.9567491789058987,0.287677780063197,0.6695557725449357
0.035,1.7763222278558086,1.0,2889.5203591756795,0.325492700350839,1.3216183476586139,0.9576764909627549,0.287658533569944,0.6701582858716295
0.035500000000000004,1.775863978016451,1.0,2899.0115603864524,0.32927615571760416,1.3213276162860899,0.9585691514504446,0.28763928707669095,0.6707543463389649
0.036000000000000004,1.775405728177093,1.0,2908.2041136545126,0.33303839095233256,1.3210396517505072,0.959428891958624,0.28762004058343793,0.6713442028186003
0.0365,1.774947478337735,1.0,2917.1094625542637,0.3367795230394102,1.3207543403255417,0.9602573364762536,0.28760079409018485,0.6719281031961943
0.037,1.774489228498377,1.0,2925.739177879641,0.34049966896322337,1.32047156828487,0.96105600929731,0.28758154759693183,0.6725062943910584
0.0375,1.7740309786590192,1.0,2934.1049510975104,0.3441989457081581,1.320191221902168,0.9618263422607244,0.2875623011036788,0.673079022374989
0.038,1.7735727288196612,1.0,2942.218588088098,0.34787747025860044,1.3199131874511125,0.9625696813873814,0.2875430546104258,0.6736465321902722
0.0385,1.7731144789803035,1.0,2950.0920031723163,0.3515353595989365,1.3196373512053796,0.9632872929704739,0.28752380811717276,0.6742090679668649
0.039,1.7726562291409456,1.0,2957.73721342544,0.3551727307135524,1.3193635994386457,0.963980369169721,0.2875045616239197,0.6747668729387509
0.0395,1.7721979793015876,1.0,2965.165452485253,0.35878969905447256,1.3190918261059195,0.9646500335583131,0.28748531513066666,0.6753201738277732
0.04,1.7717397294622297,1.0,2972.3810270813424,0.36238636959017645,1.3188219862640067,0.9652973489267556,0.28746606863741364,0.6758690723044436
0.0405,1.7712814796228717,1.0,2979.4034724148287,0.3659628753041003,1.3185539029185884,0.9659233114932421,0.2874468221441606,0.6764139379315515
0.041,1.770823229783514,1.0,2986.2392466290644,0.3695193257024545,1.3182875137410424,0.9665288674083167,0.2874275756509076,0.6769549062389852
0.0415,1.770364979944156,1.0,2992.8948602906394,0.3730558302914493,1.318022756402746,0.9671149105039534,0.2874083291576546,0.6774921122767847
0.042,1.7699067301047982,1.0,2999.37687409114,0.3765724985772949,1.317759568575077,0.9676822857280665,0.28738908266440155,0.6780256906217506
0.0425,1.7694484802654402,1.0,3005.6918966347675,0.38006944006620175,1.3174978879294128,0.9682317923195846,0.2873698361711485,0.6785557753838075
0.043000000000000003,1.7689902304260823,1.0,3011.84658231343,0.3835467642643801,1.3172376521371307,0.9687641867461425,0.28735058967789545,0.67908250021212
0.043500000000000004,1.7685319805867243,1.0,3017.847629265834,0.38700458067804017,1.3169787988696087,0.9692801854243679,0.28733134318464243,0.6796059983009572
0.044,1.7680737307473666,1.0,3023.7017774246365,0.3904429988133923,1.3167212657982243,0.9697804672408714,0.2873120966913894,0.6801264023953142
0.0445,1.7676154809080087,1.0,3029.4158066487007,0.39386212817664684,1.3164649905943548,0.9702656758903976,0.28729285019813633,0.6806438447962848
0.045,1.7671572310686507,1.0,3034.9965349420313,0.39726207827401405,1.316209910929378,0.9707364220460651,0.2872736037048833,0.6811584573661827
0.0455,1.7666989812292928,1.0,3040.450816758086,0.4006429586117042,1.3159559644746714,0.9711932853752943,0.2872543572116303,0.6816703715334189
0.046,1.7662407313899349,1.0,3045.780102837029,0.4040048617049861,1.3157031356989746,0.9716368175279658,0.28723511071837726,0.6821796240747285
0.0465,1.765782481550577,1.0,3050.9944166170685,0.4073479117301174,1.315451335494568,0.9720675416774204,0.28721586422512424,0.6826863996642012
0.047,1.7653242317112192,1.0,3056.10026837926,0.4106722204795928,1.3152005053010158,0.9724859557268568,0.2871966177318712,0.6831908209757153
0.0475,1.7648659818718613,1.0,3061.101067984288,0.41397788934909757,1.3149506134209017,0.9728925338482401,0.2871773712386182,0.6836929563322632
0.048,1.7644077320325033,1.0,3066.0002433542772,0.4172650197343171,1.3147016281568087,0.9732877273434556,0.2871581247453651,0.6841928738375438
0.0485,1.7639494821931454,1.0,3070.8012398242968,0.42053371303093684,1.3144535178113204,0.9736719659591628,0.2871388782521121,0.6846906413778241
0.049,1.7634912323537875,1.0,3075.5075195164864,0.423784070634642,1.3142062506870202,0.9740456591143546,0.2871196317588591,0.6851863266237417
0.0495,1.7630329825144295,1.0,3080.122560736039,0.4270161939411181,1.3139597950864919,0.9744091970471611,0.28710038526560605,0.685679997032041
0.05,1.7625747326750718,1.0,3084.649857390231,0.4302301843460504,1.3137141193123185,0.9747629518869015,0.28708113877235303,0.6861717198472461
0.0505,1.7621164828357139,1.0,3089.0929184286756,0.4334261432451243,1.313469191667084,0.9751072786568905,0.28706189227909995,0.6866615621032685
0.051000000000000004,1.761658232996356,1.0,3093.45526730698,0.4366041720340252,1.3132249804533713,0.9754425162130489,0.28704264578584693,0.6871495906249527
0.051500000000000004,1.761199983156998,1.0,3097.7404414716552,0.43976437210843833,1.3129814539737643,0.9757689881229681,0.2870233992925939,0.687635872029555
0.052000000000000005,1.76074173331764,1.0,3101.9519918679334,0.4429068448640492,1.3127385805308465,0.9760870034896975,0.2870041527993409,0.6881204727281609
0.0525,1.7602834834782823,1.0,3106.0934824698006,0.44603169169654305,1.3124963284272009,0.9763968577241843,0.28698490630608786,0.6886034589270377
0.053,1.7598252336389244,1.0,3110.167519809996,0.4491390072584435,1.3122546742253538,0.9766988330894459,0.28696565981283484,0.6890848801799049
0.0535,1.7593669837995665,1.0,3114.1728129553694,0.4522288629221828,1.3120136277363783,0.9769931992725085,0.2869464133195818,0.6895647197282677
0.054,1.7589087339602085,1.0,3118.118814311026,0.45530140728156016,1.3117731074016143,0.9772802165183222,0.28692716682632874,0.6900431425419051
0.0545,1.7584504841208506,1.0,3122.007101283886,0.4583567325531407,1.311533098816128,0.9775601323614449,0.2869079203330757,0.6905201796620556
0.055,1.7579922342814926,1.0,3125.8392572787934,0.4613949309534892,1.311293587574985,0.97783318387431,0.2868886738398227,0.6909958620366556
0.0555,1.757533984442135,1.0,3129.6168715377285,0.4644160946991707,1.3110545592732512,0.9780995981961919,0.28686942734656967,0.6914702205208019
0.056,1.757075734602777,1.0,3133.341538983089,0.4674203160067501,1.3108159995059927,0.978359593031205,0.28685018085331665,0.6919432858772027
0.0565,1.756617484763419,1.0,3137.014860065858,0.4704076870927924,1.3105778938682753,0.9786133771173858,0.28683093436006357,0.6924150887766146
0.057,1.7561592349240611,1.0,3140.638440618402,0.47337830017386245,1.3103402279551648,0.9788611506687614,0.28681168786681055,0.6928856597982664
0.0575,1.7557009850847032,1.0,3144.2138917113098,0.47633224746652525,1.3101029873617274,0.9791031057921646,0.2867924413735575,0.693355029430269
0.058,1.7552427352453452,1.0,3147.7428295155373,0.47926962118734573,1.3098661576830288,0.9793394268804332,0.2867731948803045,0.6938232280700138
0.0585,1.7547844854059875,1.0,3151.2268751689394,0.48219051355288883,1.309629724514135,0.9795702909835068,0.2867539483870515,0.6942902860245562
0.059000000000000004,1.7543262355666296,1.0,3154.6676546471554,0.48509501677971945,1.309393673450112,0.9797958681588292,0.28673470189379846,0.6947562335109869
0.059500000000000004,1.7538679857272717,1.0,3158.066798639414,0.48798322308440256,1.3091579900860253,0.9800163218023673,0.28671545540054544,0.6952211006567892
0.06,1.7534097358879137,1.0,3161.42594242848,0.49085522468350307,1.3089226600169415,0.980231808961458,0.28669620890729236,0.6956849175001825
0.0605,1.7529514860485558,1.0,3164.7467257762255,0.493711113793586,1.3086876688379259,0.9804424806306191,0.28667696241403934,0.696147713990456
0.061,1.752493236209198,1.0,3168.0307928122816,0.4965509826312162,1.3084530021440446,0.9806484820313693,0.2866577159207863,0.6966095199882845
0.0615,1.7520349863698401,1.0,3171.279791928494,0.49937492341295875,1.3082186455303635,0.9808499528770467,0.2866384694275333,0.6970703652660337
0.062,1.7515767365304822,1.0,3174.495375677554,0.5021830283553784,1.3079845845919487,0.9810470276235296,0.2866192229342802,0.6975302795080511
0.0625,1.7511184866911242,1.0,3177.6766329282664,0.5049753509261115,1.3077508265552784,0.9812398339554386,0.2865999764410272,0.6979892498550477
0.063,1.7506602368517663,1.0,3180.8264108139183,0.5077520134906859,1.3075173469924377,0.9814284982800113,0.28658072994777417,0.6984473255699384
0.0635,1.7502019870124084,1.0,3183.9467377226956,0.510513120811602,1.3072841284190253,0.9816131414006358,0.28656148345452115,0.6989045421612244
0.064,1.7497437371730507,1.0,3187.0383003495363,0.5132587555332808,1.3070511646750669,0.9817938786995244,0.2865422369612681,0.6993609128561382
0.0645,1.7492854873336927,1.0,3190.1017872493794,0.5159890003001435,1.3068184496005881,0.9819708213972529,0.2865229904680151,0.6998164508440414
0.065,1.7488272374943348,1.0,3193.1378888028826,0.5187039377566112,1.3065859770356147,0.9821440767331123,0.2865037439747621,0.7002711692765227
0.0655,1.7483689876549768,1.0,3196.1472971827075,0.5214036505471047,1.3063537408201726,0.9823137481363843,0.286484497481509,0.7007250812674952
0.066,1.747910737815619,1.0,3199.1307063211366,0.5240882213160453,1.306121734794287,0.982479935389063,0.286465250988256,0.7011781998932914
0.0665,1.747452487976261,1.0,3202.088811877755,0.526757732707854,1.3058899527979841,0.9826427347805073,0.28644600449500296,0.7016305381927521
0.067,1.7469942381369032,1.0,3205.0223112088916,0.5294122673669519,1.3056583886712891,0.9828022392544772,0.28642675800174994,0.7020821091673187
0.0675,1.7465359882975453,1.0,3207.9319033370534,0.5320519079377601,1.3054270362542282,0.98295853854898,0.2864075115084969,0.7025329257811173
0.068,1.7460777384581874,1.0,3210.818288921768,0.5346767370646996,1.3051958893868267,0.9831117193293286,0.28638826501524384,0.7029830009610454
0.0685,1.7456194886188294,1.0,3213.682170231374,0.5372868373921916,1.3049649419091105,0.9832618653147823,0.2863690185219908,0.7034323475968522
0.069,1.7451612387794715,1.0,3216.5242511146944,0.5398822915646571,1.3047341876611054,0.9834090573991241,0.2863497720287378,0.7038809785412188
0.0695,1.7447029889401136,1.0,3219.3452369748616,0.542463182226517,1.3045036204828369,0.9835533737655039,0.28633052553548477,0.7043289066098357
