Time [s],Phi [rad],STIM [ ],Fsee [N],Gamma [ ],Lcerel [ ],q [ ],Lmtc [m],fisomrel [ ]
0.0,1.8,1.0,17.96753661481814,1.0188070012340209e-05,1.3793397038211974,0.0050000276596091405,0.288653,0.5411396336251475
0.0005,1.79999375,1.0,18.276896880339105,0.005619340231791011,1.379302370823735,0.012941035879796073,0.2886527375,0.5412299473453246
0.001,1.799975,1.0,21.618635583771066,0.011197029484863702,1.3789382761687607,0.035609555844161554,0.28865195,0.5421102769586991
0.0015,1.79994375,1.0,31.069693505364594,0.01674343231213209,1.3780461647515967,0.07060304537699202,0.2886506375,0.5442637031779611
0.002,1.7999,1.0,53.58317706349227,0.022258724204847882,1.3763680804863625,0.11471942387330367,0.2886488,0.5483005994611319
0.0025,1.79984375,1.0,97.12010616732812,0.02774307967017465,1.3739351109515001,0.16457640103211296,0.28864643749999996,0.5541215969314073
0.003,1.7997750000000001,1.0,160.95974752641385,0.03319667223890625,1.371214284589104,0.2172820095795106,0.28864354999999997,0.5605865909343104
0.0035,1.79969375,1.0,237.68514632792787,0.03861967446505743,1.3685846783330837,0.2706144353422939,0.2886401375,0.5667899709760753
0.004,1.7996,1.0,321.46873793904103,0.044012257936646294,1.3661560403085191,0.32291729927058993,0.2886362,0.5724800833724047
0.0045000000000000005,1.7994937500000001,1.0,409.2698333892957,0.049374593280878745,1.3639227652800798,0.3730359293546533,0.2886317375,0.5776792758638392
0.005,1.799375,1.0,499.4156556323608,0.05470685015523721,1.3618582966284185,0.42024879144268557,0.28862675,0.5824571848251897
0.0055,1.79924375,1.0,590.7926164535945,0.0600091972949542,1.3599387920687414,0.4641749309181423,0.2886212375,0.5868752103446919
0.006,1.7991000000000001,1.0,682.5203304880359,0.06528180245615128,1.3581463743544773,0.5046810957662882,0.2886152,0.5909795106401232
0.006500000000000001,1.79894375,1.0,773.883593620509,0.0705248324714163,1.3564672137443594,0.541801796738131,0.2886086375,0.5948058849659859
0.007,1.798775,1.0,864.2879770467774,0.07573845323358555,1.3548903600110844,0.5756777282994014,0.28860155,0.5983827562857236
0.0075,1.79859375,1.0,953.2453635241416,0.08092282970521894,1.353406746150958,0.606510778706126,0.2885939375,0.6017336472416848
0.008,1.7984,1.0,1040.3530004297716,0.08607812571076946,1.3520087266462466,0.6345329097276055,0.2885858,0.6048783685104848
0.0085,1.79819375,1.0,1125.3197004514625,0.09120450498168373,1.3506891640219152,0.659985124058786,0.2885771375,0.6078351729515634
0.009000000000000001,1.797975,1.0,1207.8888296596108,0.0963021293225374,1.349442190147794,0.6831049480077065,0.28856795,0.6106191190839063
0.0095,1.79774375,1.0,1287.8711762916482,0.10137115970584325,1.3482624020801377,0.704118235804351,0.2885582375,0.6132439390860093
0.01,1.7975,1.0,1365.1481009868724,0.10641175672674685,1.3471446288167062,0.7232349077303577,0.288548,0.6157225978434673
0.0105,1.79724375,1.0,1439.6490013313912,0.11142408044556765,1.3460840777764753,0.7406472318157292,0.2885372375,0.6180669997117557
0.011,1.796975,1.0,1511.3089106082657,0.11640828887447187,1.3450767161523514,0.7565296681626209,0.28852595000000003,0.6202871810252217
0.0115,1.79669375,1.0,1580.1032290678788,0.12136453959277008,1.34411869550935,0.7710391297955692,0.2885141375,0.622392612885661
0.012,1.7964,1.0,1646.0421245813482,0.12629298951662146,1.3432063391982267,0.7843160537849134,0.28850180000000003,0.6243922472390042
0.0125,1.79609375,1.0,1709.1627864243028,0.13119379535569328,1.342336163309835,0.7964857370136027,0.2884889375,0.6262944875328509
0.013000000000000001,1.7957750000000001,1.0,1769.4877079988264,0.1360671113490378,1.341505285513098,0.8076599063535532,0.28847555,0.6281063136690607
0.0135,1.79544375,1.0,1827.0676378862204,0.14091309156905835,1.3407108604983007,0.8179378708087844,0.2884616375,0.6298345329671795
0.014,1.7951000000000001,1.0,1881.9632587968365,0.14573188919572835,1.339950247378323,0.8274079277994558,0.2884472,0.6314854250874269
0.0145,1.79474375,1.0,1934.268806240963,0.15052365822709943,1.339220713037735,0.8361484935020156,0.2884322375,0.6330653949176361
0.015,1.794375,1.0,1984.0458808656535,0.15528854942112577,1.338520119796222,0.8442294743252821,0.28841675,0.6345794913684679
0.0155,1.79399375,1.0,2031.3612792380711,0.16002671281571929,1.337846469301244,0.8517131019303869,0.2884007375,0.6360324081016697
0.016,1.7936,1.0,2076.2980466099334,0.1647382984487919,1.3371977632002614,0.8586547933810632,0.2883842,0.6374287898365448
0.0165,1.7931937500000001,1.0,2118.9417900196268,0.16942345541975903,1.3365721299012903,0.8651039964635767,0.2883671375,0.638772963564123
0.017,1.792775,1.0,2159.3912736629845,0.17408233340921342,1.3359676969312848,0.8711048593696522,0.28834955,0.6400692175340827
0.0175,1.7923437500000001,1.0,2197.722826546258,0.17871507915408077,1.3353829398386508,0.8766969514779318,0.2883314375,0.6413210576058163
0.018000000000000002,1.7919,1.0,2234.0105714771003,0.18332183837260405,1.3348164539323972,0.8819157360705382,0.2883128,0.6425317033677772
0.0185,1.79144375,1.0,2268.3371497133644,0.18790275678302612,1.3342668345215334,0.8867930176663819,0.2882936375,0.6437043473818681
0.019,1.790975,1.0,2300.7865190316693,0.19245797928950512,1.3337327410587143,0.8913573812620322,0.28827395,0.6448420202341746
0.0195,1.79049375,1.0,2331.4471394872508,0.19698765122525183,1.3332128570115502,0.8956345522425289,0.2882537375,0.6459476783233424
0.02,1.79,1.0,2360.399460151451,0.20149191652270088,1.3327060054784117,0.8996477464144511,0.288233,0.6470239601996145
0.0205,1.78949375,1.0,2387.707712010687,0.20597091629629657,1.3322112194939555,0.9034179651148355,0.2882117375,0.6480730409513359
0.021,1.788975,1.0,2413.440572885075,0.21042479166048322,1.331727532092838,0.9069641946068335,0.28818995000000003,0.6490970805216685
0.021500000000000002,1.78844375,1.0,2437.670798092395,0.21485368372970517,1.3312539763097153,0.9103036270597072,0.2881676375,0.6500982244228398
0.022,1.7879,1.0,2460.456557722867,0.21925773245474445,1.330789760512695,0.9134518904095075,0.2881448,0.651078234502404
0.0225,1.78734375,1.0,2481.8880624114204,0.22363707853824868,1.330333817034978,0.9164231244444652,0.28812143749999997,0.6520394429945843
0.023,1.786775,1.0,2502.057203171783,0.22799186185643228,1.3298850935418811,0.919230196197863,0.28809755,0.652984136029542
0.0235,1.78619375,1.0,2520.9950806147212,0.23232221846266174,1.3294431405927611,0.9218849417494914,0.28807313749999996,0.6539133198864102
0.024,1.7856001475654153,1.0,2538.741632010436,0.23662828441030367,1.3290075087469744,0.9243981588691932,0.28804820619774746,0.6548279948600433
0.0245,1.7850020682776224,1.0,2555.710055275942,0.2409101957527246,1.3285777485638777,0.9267797123654379,0.28802308686766015,0.6557291554486391
0.025,1.7844039889898298,1.0,2572.1558839457875,0.24516808854329103,1.3281534106028272,0.9290386274751261,0.28799796753757284,0.6566177905284831
0.025500000000000002,1.783805909702037,1.0,2588.116151869628,0.24940209812727898,1.3277340972408085,0.931183181151598,0.28797284820748553,0.6574947752096694
0.026000000000000002,1.783207830414244,1.0,2603.5920496922854,0.2536123590666994,1.3273197509851817,0.9332210219410806,0.2879477288773983,0.6583602698182354
0.0265,1.7826097511264511,1.0,2618.5939240914918,0.257799004038311,1.3269102315914811,0.9351591602839919,0.28792260954731097,0.6592146061250133
0.027,1.7820116718386583,1.0,2633.136013882126,0.2619621648402119,1.3265053658627477,0.9370040378873375,0.28789749021722366,0.6600581825983204
0.0275,1.7814135925508656,1.0,2647.2329125691654,0.26610197327049984,1.3261049806020218,0.9387615865782798,0.28787237088713635,0.6608913954928413
0.028,1.7808155132630727,1.0,2660.8810564244864,0.27021853099991094,1.3257090728728027,0.940437288105592,0.28784725155704904,0.6617142852306738
0.0285,1.7802174339752799,1.0,2674.116931692102,0.2743120021814266,1.3253172732028735,0.9420361750855879,0.28782213222696174,0.6625276522826753
0.029,1.779619354687487,1.0,2686.9638491893666,0.2783825310723097,1.3249293375697815,0.9435629081578996,0.2877970128968744,0.6633320331200989
0.029500000000000002,1.7790212753996941,1.0,2699.432109972465,0.2824302408679388,1.3245451441394773,0.9450218084178879,0.2877718935667871,0.6641277085952995
0.03,1.7784231961119015,1.0,2711.532233577253,0.2864552547636923,1.3241645710779113,0.9464168785174709,0.28774677423669986,0.6649149580927098
0.0305,1.7778251168241086,1.0,2723.2749480746847,0.29045769595494886,1.3237874965510337,0.9477518301796918,0.28772165490661256,0.6656940595574438
0.031,1.7772270375363157,1.0,2734.67118045645,0.29443768763708694,1.3234137987247951,0.9490301090120087,0.28769653557652525,0.6664652895229519
0.0315,1.7766289582485228,1.0,2745.7320473488007,0.2983953530054851,1.3230433557651458,0.9502549169127671,0.28767141624643794,0.6672289231377343
0.032,1.77603087896073,1.0,2756.4688460558723,0.3023308152555218,1.3226760458380364,0.9514292323302941,0.2876462969163507,0.6679852341911015
0.0325,1.775432799672937,1.0,2766.893045931948,0.3062441975825756,1.3223117471094172,0.9525558286035495,0.2876211775862634,0.6687344951379945
0.033,1.7748347203851444,1.0,2777.0162800831513,0.31013562318202503,1.3219503377452388,0.9536372905866058,0.28759605825617607,0.6694769771228528
0.0335,1.7742366410973516,1.0,2786.8503373977833,0.31400521524924857,1.3215916959114515,0.954676029735885,0.28757093892608876,0.6702129500025398
0.034,1.7736385618095587,1.0,2796.407154906262,0.31785309697962477,1.3212356997740056,0.9556742978186777,0.28754581959600145,0.6709426823683194
0.0345,1.7730404825217658,1.0,2805.6988104694924,0.32167939156853215,1.3208822274988516,0.9566341993835479,0.28752070026591414,0.6716664415668853
0.035,1.772442403233973,1.0,2814.737515797186,0.32548422221134926,1.3205311572519403,0.9575577031175039,0.28749558093582683,0.6723844937204463
0.035500000000000004,1.7718443239461803,1.0,2823.535609794569,0.32926771210345457,1.3201823671992214,0.9584466522009931,0.2874704616057396,0.673097103745864
0.036000000000000004,1.7712462446583874,1.0,2832.1055522384395,0.33302998444022663,1.319835735506646,0.9593027737596123,0.28744534227565227,0.6738045353728408
0.0365,1.7706481653705946,1.0,2840.4510208923093,0.3367711466641545,1.3194912196143185,0.9601276919677468,0.28742022294556496,0.674506889634424
0.037,1.7700500860828017,1.0,2848.586219956818,0.3404913312300055,1.3191486838207092,0.9609229275333784,0.28739510361547765,0.6752044566821078
0.0375,1.7694520067950088,1.0,2856.5194449506675,0.3441906556720375,1.318808045941508,0.9616899107871255,0.2873699842853904,0.6758974165910632
0.038,1.7688539275072162,1.0,2864.257231593955,0.3478692337363149,1.318469240082539,0.9624299870518417,0.2873448649553031,0.6765859155652107
0.0385,1.7682558482194233,1.0,2871.8061786269186,0.35152717916890214,1.3181322003496272,0.9631444219348224,0.2873197456252158,0.6772700991731655
0.039,1.7676577689316304,1.0,2879.1729451813694,0.3551646057158637,1.3177968608485962,0.963834406922517,0.2872946262951285,0.6779501123557973
0.0395,1.7670596896438375,1.0,2886.3642482484997,0.35878162712326406,1.3174631556852707,0.9645010645244367,0.28726950696504117,0.6786260994335127
0.04,1.7664616103560447,1.0,2893.386860243088,0.3623783571371677,1.3171310189654752,0.9651454530070293,0.28724438763495386,0.6792982041132634
0.0405,1.7658635310682518,1.0,2900.2476066640147,0.36595490950363907,1.3168003847950338,0.9657685707542363,0.28721926830486655,0.6799665694952759
0.041,1.7652654517804591,1.0,2906.953363850738,0.3695113979687426,1.316471187279771,0.9663713602878083,0.2871941489747793,0.680631338079503
0.0415,1.7646673724926663,1.0,2913.511056836311,0.37304793627854277,1.3161433605255108,0.9669547119772225,0.287169029644692,0.6812926517718013
0.042,1.7640692932048734,1.0,2919.927657296707,0.37656463817910407,1.3158168386380782,0.967519467466142,0.2871439103146047,0.6819506518898281
0.0425,1.7634712139170805,1.0,2926.2063609249653,0.3800616047426184,1.315491589264176,0.968066423538655,0.28711879098451737,0.6826054116822845
0.043000000000000003,1.7628731346292876,1.0,2932.3540611918634,0.3835389525131265,1.3151675478573543,0.9685963342257224,0.28709367165443006,0.683257068806066
0.043500000000000004,1.762275055341495,1.0,2938.380472825391,0.38699680777215856,1.314844625513927,0.9691099131530712,0.2870685523243428,0.6839058092633772
0.044,1.761676976053702,1.0,2944.2892100785366,0.3904352757367784,1.314522787161689,0.9696078375167045,0.2870434329942555,0.6845517103190145
0.0445,1.7610788967659092,1.0,2950.083911284349,0.3938544616240496,1.3142019977284347,0.9700907494251257,0.2870183136641682,0.6851948489268518
0.045,1.7604808174781164,1.0,2955.7682380260794,0.39725447065103586,1.3138822221419595,0.9705592580622056,0.2869931943340809,0.6858353017322245
0.0455,1.7598827381903235,1.0,2961.345874335377,0.4006354080348008,1.313563425330058,0.9710139416963567,0.2869680750039936,0.6864731450742382
0.046,1.7592846589025308,1.0,2966.8205259176925,0.4039973789924081,1.3132455722205252,0.9714553495483239,0.28694295567390626,0.6871084549879967
0.0465,1.758686579614738,1.0,2972.1959194046794,0.40734048874092144,1.3129286277411556,0.9718840035288101,0.286917836343819,0.6877413072067515
0.047,1.758088500326945,1.0,2977.4758016336923,0.4106648424974044,1.3126125568197444,0.9723003998561679,0.2868927170137317,0.6883717771639735
0.0475,1.7574904210391522,1.0,2982.663938955524,0.4139705454789207,1.3122973243840865,0.9727050105634996,0.2868675976836444,0.6889999399953464
0.048,1.7568923417513593,1.0,2987.764116568276,0.41725770290253394,1.3119828953619765,0.9730982849036949,0.2868424783535571,0.6896258705406824
0.0485,1.7562942624635665,1.0,2992.780137879159,0.4205264199853078,1.3116692346812093,0.9734806506602108,0.2868173590234698,0.6902496433457566
0.049,1.7556961831757738,1.0,2997.7158238933907,0.423776801944306,1.3113563072695797,0.9738525153707329,0.2867922396933825,0.6908713326640659
0.0495,1.755098103887981,1.0,3002.575012630127,0.4270089539965921,1.3110440780548829,0.9742142674702571,0.2867671203632952,0.6914910124585074
0.05,1.754500024600188,1.0,3007.357821696796,0.4302229578393348,1.310732544324475,0.9745662767962076,0.2867420010332079,0.6921086922756319
0.0505,1.7539019453123952,1.0,3012.0694299402326,0.4334189335148541,1.3104216596085168,0.9749088977210992,0.2867168817031206,0.6927244682585911
0.051000000000000004,1.7533038660246023,1.0,3016.7147591260145,0.43659699803591545,1.3101113798306643,0.9752424682352788,0.2866917623730333,0.6933384314398006
0.051500000000000004,1.7527057867368097,1.0,3021.2955988592416,0.43975724744527517,1.3098016881327836,0.9755673104950573,0.286666643042946,0.6939506187183593
0.052000000000000005,1.7521077074490168,1.0,3025.8137470090587,0.4428997777856898,1.3094925676567415,0.9758837322774742,0.28664152371285867,0.6945610668534352
0.0525,1.751509628161224,1.0,3030.2710094921717,0.44602468509991555,1.309184001544404,0.9761920277471319,0.2866164043827714,0.6951698124648914
0.053,1.750911548873431,1.0,3034.6692000622847,0.44913206543070894,1.3088759729376376,0.9764924781757242,0.2865912850526841,0.6957768920338896
0.0535,1.7503134695856382,1.0,3039.010140106324,0.45222201482082636,1.3085684649783085,0.9767853526175564,0.2865661657225968,0.6963823419034771
0.054,1.7497153902978453,1.0,3043.2956584464387,0.4552946293130241,1.3082614608082834,0.9770709085441049,0.2865410463925095,0.6969861982791554
0.0545,1.7491173110100526,1.0,3047.527591148866,0.4583500049500586,1.3079549435694282,0.9773493924404243,0.28651592706242224,0.6975884972294333
0.055,1.7485192317222598,1.0,3051.7077813382225,0.46138823777468635,1.3076488964036095,0.977621040366003,0.28649080773233493,0.6981892746863557
0.0555,1.7479211524344669,1.0,3055.838079019313,0.46440942382966355,1.3073433024526937,0.9778860784824602,0.2864656884022476,0.6987885664460206
0.056,1.747323073146674,1.0,3059.920340904098,0.4674136591577467,1.307038144858547,0.9781447235503108,0.2864405690721603,0.6993864081690748
0.0565,1.7467249938588811,1.0,3063.9564302457547,0.4704010398016921,1.3067334067630358,0.9783971833968468,0.286415449742073,0.6999828353811927
0.057,1.7461269145710885,1.0,3067.9482166783882,0.47337166180425627,1.3064290713080264,0.9786436573570386,0.2863903304119857,0.7005778834735347
0.0575,1.7455288352832956,1.0,3071.897576063833,0.47632562120819555,1.3061251216353853,0.9788843366892205,0.2863652110818984,0.7011715877031905
0.058,1.7449307559955027,1.0,3075.806390344,0.47926301405626626,1.3058215408869787,0.9791194049671926,0.28634009175181113,0.7017639831936034
0.0585,1.7443326767077099,1.0,3079.674725589561,0.48218391153351975,1.3055183277943816,0.9793490372158948,0.2863149724217238,0.7023550745590714
0.059000000000000004,1.743734597419917,1.0,3083.5040424314934,0.48508841180453743,1.3052154691738527,0.9795734031771202,0.2862898530916365,0.7029448895949777
0.059500000000000004,1.7431365181321243,1.0,3087.2978846321585,0.4879766408218671,1.3049129340778216,0.9797926672391369,0.2862647337615492,0.7035334905358865
0.06,1.7425384388443315,1.0,3091.0570676269294,0.4908486850435006,1.3046107149450834,0.9800069854221816,0.28623961443146195,0.7041208939433838
0.0605,1.7419403595565386,1.0,3094.7824096796653,0.49370463092743,1.304308804214433,0.980216507749421,0.28621449510137464,0.7047071163188197
0.061,1.7413422802687457,1.0,3098.4747318305135,0.4965445649316473,1.3040071943246656,0.9804213785235031,0.28618937577128734,0.7052921741034599
0.0615,1.7407442009809528,1.0,3102.134857844915,0.49936857351414443,1.3037058777145758,0.9806217365883153,0.2861642564412,0.7058760836786324
0.062,1.7401461216931602,1.0,3105.763614163383,0.5021767431329134,1.3034048468229589,0.9808177155768494,0.2861391371111127,0.7064588613658701
0.0625,1.7395480424053673,1.0,3109.3618298535275,0.5049691602459461,1.3031040940886096,0.9810094441460052,0.2861140177810254,0.7070405234270514
0.063,1.7389499631175744,1.0,3112.9303365623073,0.5077459113112346,1.302803611950323,0.9811970461991193,0.2860888984509381,0.7076210860645351
0.0635,1.7383518838297816,1.0,3116.4699684703737,0.5105070827867709,1.302503392846894,0.9813806410969427,0.2860637791208508,0.7082005654212935
0.064,1.7377538045419887,1.0,3119.9815622471397,0.513252761130547,1.3022034292171178,0.981560343857751,0.28603865979076354,0.7087789775810409
0.0645,1.7371557252541958,1.0,3123.465957007238,0.5159830328005547,1.3019037134997893,0.9817362653472201,0.28601354046067623,0.7093563385683583
0.065,1.7365576459664032,1.0,3126.9239942688273,0.5186979842547861,1.3016042381337032,0.9819085124586635,0.2859884211305889,0.7099326643488153
0.0655,1.7359595666786103,1.0,3130.356517912025,0.5213977019512333,1.3013049955576546,0.9820771882841864,0.2859633018005016,0.7105079708290873
0.066,1.7353614873908174,1.0,3133.764374139675,0.524082272347888,1.3010059782104384,0.9822423922772751,0.28593818247041436,0.7110822738570698
0.0665,1.7347634081030245,1.0,3137.148411438601,0.5267517819027424,1.3007071785308497,0.98240422040731,0.28591306314032705,0.7116555892219888
0.067,1.7341653288152317,1.0,3140.5094805429767,0.5294063170737884,1.3004085889576835,0.9825627653064574,0.28588794381023974,0.7122279326545076
0.0675,1.733567249527439,1.0,3143.8484343979735,0.532045964319018,1.3001102019297348,0.9827181164093669,0.28586282448015243,0.7127993198268298
0.068,1.7329691702396461,1.0,3147.1661281255274,0.5346708100964231,1.2998120098857984,0.9828703600860746,0.2858377051500651,0.7133697663527996
0.0685,1.7323710909518533,1.0,3150.4621839844995,0.5372809061275516,1.2995140157135403,0.9830195780866848,0.2858125858199778,0.7139392678289195
0.069,1.7317730116640604,1.0,3153.737951056176,0.5398763650191863,1.2992162076944318,0.9831658525113158,0.2857874664898905,0.7145078477454166
0.0695,1.7311749323762675,1.0,3156.994403487848,0.5424572828231145,1.2989185773051908,0.9833092618188892,0.2857623471598032,0.7150755234114818
0.07,1.7305768530884746,1.0,3160.2319185443102,0.5450237369085804,1.298621121084106,0.9834498809551123,0.28573722782971595,0.715642302431351
