Time [s],Phi [rad],STIM [ ],Fsee [N],Gamma [ ],Lcerel [ ],q [ ],Lmtc [m],fisomrel [ ]
0.0,1.8,1.0,17.96649514970084,1.0000346163078212e-05,1.379339820500582,0.0050000266536155856,0.288653,0.5411393513475327
0.0005,1.79999375,1.0,18.27588849494562,0.005619153560924396,1.3793024828368008,0.012940516815403005,0.2886527375,0.5412296763834135
0.001,1.799975,1.0,21.61754406019981,0.011196843861072758,1.3789383876525798,0.03560858447902857,0.28865195,0.5421100075359157
0.0015,1.79994375,1.0,31.06831166966621,0.01674324772954413,1.3780462824796953,0.07060171800212682,0.2886506375,0.5442634193344466
0.002,1.7999,1.0,53.58118527460672,0.022258540657622106,1.3763682097036107,0.11471785239692618,0.2886488,0.5483002893000604
0.0025,1.79984375,1.0,97.11737458913993,0.027742897152503762,1.3739352425798672,0.1645746900831396,0.28864643749999996,0.5541212830253057
0.003,1.7997750000000001,1.0,160.95651879432847,0.03319649074501511,1.3712144054436315,0.21728024242465205,0.28864354999999997,0.5605863048186581
0.0035,1.79969375,1.0,237.68168596982764,0.03861949398920335,1.3685847849212478,0.27061267587628013,0.2886401375,0.5667897204226962
0.004,1.7996,1.0,321.4651824012969,0.04401207847311897,1.3661561344811057,0.3229155942362469,0.2886362,0.5724798634625461
0.0045000000000000005,1.7994937500000001,1.0,409.2662442519643,0.049374414824000165,1.3639228495307838,0.3730343098094923,0.2886317375,0.5776790803233243
0.005,1.799375,1.0,499.4120700046309,0.054706672699366604,1.3618583728226827,0.42024727541727885,0.28862675,0.5824570089863532
0.0055,1.79924375,1.0,590.7890527924188,0.06000902083446147,1.359938861694014,0.46417352677310514,0.2886212375,0.5868750505179128
0.006,1.7991000000000001,1.0,682.5168147547298,0.06528162698545874,1.358146438261129,0.504679804850969,0.2886152,0.590979364671133
0.006500000000000001,1.79894375,1.0,773.8798443331973,0.07052465798545535,1.356467277747135,0.5418006192417084,0.2886086375,0.5948057394628412
0.007,1.798775,1.0,864.2847821500736,0.07573827972570728,1.3548904116188867,0.5756766501176388,0.28860155,0.5983826394801569
0.0075,1.79859375,1.0,953.2396294327076,0.08092265714273517,1.3534068343472432,0.6065098224948281,0.2885939375,0.601733448458738
0.008,1.7984,1.0,1040.3547313838835,0.08607795437704763,1.3520087011613784,0.6345319775914374,0.2885858,0.6048784257228298
0.0085,1.79819375,1.0,1125.3129430169163,0.09120433439801921,1.3506892596822544,0.6599843456269112,0.2885771375,0.607834959003547
0.009000000000000001,1.797975,1.0,1207.8774686259057,0.09630195951463294,1.3494423453839088,0.6831042763948345,0.28856795,0.6106187731268908
0.0095,1.79774375,1.0,1287.8532337398321,0.10137099041956789,1.348262639510846,0.7041176723912604,0.2885582375,0.6132434117376868
0.01,1.7975,1.0,1365.1487253890302,0.10641158890708792,1.3471446207913957,0.7232342759069619,0.288548,0.6157226156109632
0.0105,1.79724375,1.0,1439.6626480878717,0.11142391391994814,1.346083906976627,0.7406465757351299,0.2885372375,0.6180673766957696
0.011,1.796975,1.0,1511.3228355066763,0.11640812325370746,1.345076546053339,0.7565290655321638,0.28852595000000003,0.6202875553695724
0.0115,1.79669375,1.0,1580.1123949475186,0.1213643747039248,1.3441185860083293,0.7710386024293622,0.2885141375,0.6223928532003445
0.012,1.7964,1.0,1646.047272946217,0.12629282550768328,1.3432062789372894,0.7843155902252722,0.28850180000000003,0.6243923791390928
0.0125,1.79609375,1.0,1709.1615797325867,0.13119363219201147,1.3423361771707554,0.7964853417779475,0.2884889375,0.6262944572707692
0.013000000000000001,1.7957750000000001,1.0,1769.483573389674,0.1360669491508727,1.3415053321896016,0.8076595567945889,0.28847555,0.6281062120091514
0.0135,1.79544375,1.0,1827.0622440616341,0.14091293031556967,1.3407109204231848,0.8179375549804904,0.2884616375,0.6298344027563336
0.014,1.7951000000000001,1.0,1881.9612236445394,0.14573172900300158,1.3399502696564582,0.82740762371757,0.2884472,0.631485376787313
0.0145,1.79474375,1.0,1934.2663155537523,0.1505234988201438,1.339220739931295,0.836148214370717,0.2884322375,0.6330653367361758
0.015,1.794375,1.0,1984.0425725250009,0.15528839077468068,1.3385201550675594,0.8442292190491651,0.28841675,0.6345794152201389
0.0155,1.79399375,1.0,2031.3573051973085,0.16002655498992333,1.3378465111734963,0.851712867828352,0.2884007375,0.6360323178823235
0.016,1.7936,1.0,2076.294097475593,0.1647381415891827,1.3371978043573498,0.8586545764183634,0.2883842,0.6374287013283879
0.0165,1.7931937500000001,1.0,2118.934301271871,0.1694232994988503,1.3365722071582211,0.8651038062644837,0.2883671375,0.6387727977316437
0.017,1.792775,1.0,2159.3852723384744,0.17408217857288055,1.3359677582607419,0.8711046785903425,0.28834955,0.6400690861264404
0.0175,1.7923437500000001,1.0,2197.717217117331,0.17871492507859013,1.3353829966610864,0.8766967820341746,0.2883314375,0.6413209360670591
0.018000000000000002,1.7919,1.0,2234.0054349543743,0.18332168497300988,1.334816505540065,0.8819155766663765,0.2883128,0.6425315931694505
0.0185,1.79144375,1.0,2268.3337842194833,0.18790260421317073,1.334266868078488,0.8867928642128555,0.2882936375,0.6437042758450215
0.019,1.790975,1.0,2300.78337749371,0.19245782750117704,1.333732772160955,0.8913572371013114,0.28827395,0.6448419540362373
0.0195,1.79049375,1.0,2331.4469479665245,0.19698750090710673,1.3332128588951573,0.8956344106941495,0.2882537375,0.645947674320523
0.02,1.79,1.0,2360.3954126703434,0.20149176698606172,1.3327060450405395,0.8996476223822779,0.288233,0.6470238762547275
0.0205,1.78949375,1.0,2387.6966230876087,0.20597076722328542,1.3322113272611735,0.9034178640531492,0.2882117375,0.6480728126255404
0.021,1.788975,1.0,2413.4229731277696,0.2104246431040212,1.331727702221131,0.9069641136778739,0.28818995000000003,0.6490967205965839
0.021500000000000002,1.78844375,1.0,2437.6510156245276,0.21485353611351252,1.3312541665844833,0.9103035561550863,0.2881676375,0.6500978224503171
0.022,1.7879,1.0,2460.4443608643105,0.21925758513557714,1.3307898772818274,0.9134518088895225,0.2881448,0.6510779881628621
0.0225,1.78734375,1.0,2481.890566502534,0.2236369333815482,1.3303337931653145,0.9164230206511476,0.28812143749999997,0.6520394932812985
0.023,1.786775,1.0,2502.0434640480853,0.22799171777345803,1.3298852239781571,0.9192301282212757,0.28809755,0.6529838616099526
0.0235,1.78619375,1.0,2520.9567425934015,0.23232207480505263,1.3294435031968732,0.9218849217323395,0.28807313749999996,0.6539125580400886
0.024,1.7856,1.0,2538.6862267594297,0.23662814097007803,1.3290079642979804,0.9243981582394741,0.2880482,0.6548270389939377
0.0245,1.78499375,1.0,2555.2896969924964,0.2409100527622802,1.328577940757997,0.926779666471034,0.2880227375,0.6557287527016398
0.025,1.784375,1.0,2570.824913207328,0.24516794622865593,1.3281527829730344,0.929038442384648,0.28799675,0.6566191040403463
0.025500000000000002,1.78374375,1.0,2585.3416120896272,0.24940195510036076,1.3277319312683613,0.9311827426132848,0.2879702375,0.6574993023823664
0.026000000000000002,1.7831000000000001,1.0,2598.907564613542,0.2536122175603585,1.327314670625837,0.933220119052964,0.2879432,0.6583708749779971
0.0265,1.78244375,1.0,2611.5625679709015,0.25779886469181773,1.3269005589873828,0.935157550239556,0.2879156375,0.6592347721101297
0.027,1.781775,1.0,2623.34741302624,0.26196202757790704,1.3264891542949193,0.9370014551800441,0.28788755,0.6600919391829987
0.0275,1.7810937500000001,1.0,2634.3038002901676,0.26610183730179493,1.326080014490368,0.9387577456666382,0.2878589375,0.6609433168047241
0.028,1.7804,1.0,2644.4742602261554,0.27021842494665,1.3256726975156494,0.9404318730645611,0.2878298,0.661789840857399
0.0285,1.77969375,1.0,2653.9020778897557,0.2743119215956407,1.325266761312685,0.9420288702171788,0.2878001375,0.6626324425547093
0.029,1.778975,1.0,2662.6254676445847,0.2783824557611811,1.3248618167801387,0.9435533954906842,0.28776995,0.6634719387701136
0.029500000000000002,1.7782437500000001,1.0,2670.6865480655306,0.2824301594795931,1.3244574442885997,0.945009756612993,0.2877392375,0.6643092055029025
0.03,1.7775,1.0,2678.118548856955,0.2864551604801839,1.3240533107770351,0.9464019542521381,0.287708,0.6651449355052369
0.0305,1.77674375,1.0,2684.951133163526,0.2904575844676252,1.3236491199108678,0.9477337025886066,0.2876762375,0.6659797422860994
0.031,1.775975,1.0,2691.2143440209925,0.29443755714658865,1.3232445753555204,0.9490084496297049,0.28764395,0.6668142362985627
0.0315,1.7751937500000001,1.0,2696.9385686165247,0.2983952042217457,1.3228393807764163,0.9502293996047818,0.2876111375,0.6676490249359059
0.032,1.7744,1.0,2702.1545044961836,0.30233065139776805,1.3224332398389782,0.9513995332147759,0.2875778,0.66848471252213
0.0325,1.77359375,1.0,2706.890253153948,0.3062440223254621,1.3220258824462345,0.9525216284963718,0.2875439375,0.6693218464117473
0.033,1.772775,1.0,2711.171187339419,0.31013543948729305,1.32161706557257,0.9535982775570698,0.28750955,0.6701609156010497
0.0335,1.7719437500000002,1.0,2715.0333976588086,0.3140050347041646,1.3212064503834025,0.9546318902100043,0.2874746375,0.6710026027809146
0.034,1.7711000000000001,1.0,2718.495705579706,0.31785292748223076,1.3207938572464082,0.9556247312683124,0.2874392,0.6718472613296272
0.0345,1.7702437500000001,1.0,2721.5770752678513,0.3216792373276458,1.320379106529264,0.9565789173909641,0.2874032375,0.6726952426642554
0.035,1.7693750000000001,1.0,2724.2965993390058,0.3254840837465638,1.3199620185996461,0.9574964285062123,0.28736675,0.6735468962169634
0.035500000000000004,1.76849375,1.0,2726.6734853269368,0.3292675862451388,1.3195424138252312,0.9583791182276681,0.2873297375,0.6744025694092625
0.036000000000000004,1.7676,1.0,2728.7270428661645,0.3330298643295251,1.319120112573696,0.9592287233623076,0.2872922,0.6752626076242079
0.0365,1.76669375,1.0,2730.4766715907676,0.33677103750587667,1.3186949352127169,0.9600468725989598,0.2872541375,0.6761273541765377
0.037,1.765775,1.0,2731.9418497480806,0.34049122528034775,1.3182667021099705,0.9608350944563235,0.28721555,0.6769971502807502
0.0375,1.76484375,1.0,2733.139569662911,0.34419054425612294,1.3178352568313372,0.961594826211172,0.2871764375,0.6778722879941261
0.038,1.7639,1.0,2734.082120171767,0.347869106341708,1.3174004861702695,0.9623274220071978,0.28713679999999997,0.6787529699581523
0.0385,1.76294375,1.0,2734.797683383213,0.35152704350826114,1.316962133010088,0.9630341460803709,0.28709663750000003,0.6796396882579568
0.039,1.761975,1.0,2735.2967568388644,0.35516446793911177,1.3165201012236467,0.9637161994878947,0.28705595,0.6805326068921316
0.0395,1.7609937500000001,1.0,2735.589868525644,0.3587814918175891,1.3160742946837998,0.9643747136118178,0.2870147375,0.6814318885208499
0.04,1.76,1.0,2735.6875727865454,0.36237822732702246,1.3156246172634012,0.9650107549425342,0.286973,0.6823376944430215
0.0405,1.7589937500000001,1.0,2735.600446437027,0.3659547866507411,1.315170972835305,0.9656253294850122,0.2869307375,0.6832501845728556
0.041,1.757975,1.0,2735.3390850856617,0.36951128197207433,1.3147132652723654,0.9662193868211566,0.28688795,0.6841695174158346
0.0415,1.75694375,1.0,2734.914099659948,0.3730478254743514,1.3142513984474367,0.9667938238584602,0.2868446375,0.685095850044102
0.042,1.7559,1.0,2734.3361131374286,0.37656452934090157,1.3137852762333726,0.9673494882921738,0.28680079999999997,0.6860293380712565
0.0425,1.75484375,1.0,2733.615757480895,0.38006150575505415,1.3133148025030275,0.9678871818056097,0.2867564375,0.686970135626559
0.043000000000000003,1.753775,1.0,2732.763670778558,0.38353886690013844,1.3128398811292554,0.9684076630308586,0.28671155,0.6879183953285501
0.043500000000000004,1.75269375,1.0,2731.7896678235534,0.3869967232271584,1.3123604234967565,0.9689116506233635,0.28666613750000003,0.688874253293772
0.044,1.7516,1.0,2730.699615585242,0.3904351765439821,1.3118763768818058,0.9693998269834148,0.2866202,0.6898377727776717
0.0445,1.75049375,1.0,2729.508911481336,0.3938543513995506,1.3113876019602178,0.969872835670131,0.2865737375,0.6908091879638553
0.045,1.7493750000000001,1.0,2728.222846568359,0.3972543526183082,1.3108940512270306,0.9703312912306208,0.28652675,0.6917885488253969
0.0455,1.74824375,1.0,2726.846712192327,0.40063528502469936,1.3103956771772822,0.970775776902051,0.2864792375,0.6927759043037514
0.046,1.7471,1.0,2725.385799098251,0.40399725344316845,1.3098924323060102,0.9712068465056208,0.2864312,0.6937713022942121
0.0465,1.7459437500000001,1.0,2723.8453965895073,0.4073403626981598,1.3093842691082522,0.9716250262084177,0.28638263750000004,0.6947747896312264
0.047,1.744775,1.0,2722.2307917370476,0.4106647176141178,1.3088711400790465,0.9720308161635421,0.28633355,0.6957864120735653
0.0475,1.74359375,1.0,2720.547268639362,0.4139704230154869,1.3083529977134307,0.9724246920379933,0.28628393750000003,0.6968062142893526
0.048,1.7424,1.0,2718.800107731433,0.4172575837267115,1.3078297945064425,0.9728071064369683,0.2862338,0.6978342398409483
0.0485,1.74119375,1.0,2716.9945851448356,0.4205263045722359,1.30730148295312,0.9731784902325087,0.2861831375,0.6988705311696853
0.049,1.739975,1.0,2715.1359721166286,0.42377669037650445,1.3067680155485009,0.973539253803735,0.28613195,0.699915129580468
0.0495,1.73874375,1.0,2713.2293847845153,0.4270088446610527,1.3062293461520953,0.9738897881334293,0.2860802375,0.7009680725614165
0.05,1.7375,1.0,2711.278554463318,0.4302228494403539,1.305685441201082,0.9742304643042877,0.286028,0.7020293719314407
0.0505,1.73624375,1.0,2709.291940217978,0.43341884021964233,1.3051362239616422,0.9745616395581012,0.2859752375,0.7030991225332606
0.051000000000000004,1.734975,1.0,2707.2719383486356,0.4365969139218128,1.304581672929266,0.9748836539615332,0.28592195,0.7041773103176326
0.051500000000000004,1.73369375,1.0,2705.2209423155873,0.43975716746976007,1.3040217665994438,0.9751968321665306,0.2858681375,0.705263920388244
0.052000000000000005,1.7324,1.0,2703.141342595829,0.4428996977863789,1.3034564834676658,0.9755014842415534,0.2858138,0.7063589369943821
0.0525,1.73109375,1.0,2701.0355265502712,0.4460246017945639,1.302885802029422,0.9757979064509732,0.28575893750000003,0.7074623435235771
0.053,1.729775,1.0,2698.905878300555,0.44913197641721,1.3023097007802031,0.9760863819862917,0.28570355000000003,0.7085741224942094
0.0535,1.72844375,1.0,2696.754778616777,0.45222191857721183,1.3017281582154991,0.9763671816525445,0.2856476375,0.7096942555480954
0.054,1.7271,1.0,2694.5846048152043,0.4552945251974642,1.3011411528308003,0.9766405645129989,0.2855912,0.7108227234430375
0.0545,1.7257437500000001,1.0,2692.3977306659476,0.4583498932008619,1.3005486631215968,0.976906778495008,0.2855342375,0.7119595060453474
0.055,1.724375,1.0,2690.1965263112156,0.46138811951029957,1.2999506675833787,0.9771660609596733,0.28547675,0.7131045823223388
0.0555,1.72299375,1.0,2687.983358193984,0.46440930104867206,1.2993471447116367,0.9774186392377537,0.2854187375,0.7142579303347909
0.056,1.7216,1.0,2685.760588996366,0.46741353473887404,1.2987380730018605,0.9776647311340939,0.2853602,0.7154195272293848
0.0565,1.72019375,1.0,2683.530577588787,0.47040091750380025,1.2981234309495409,0.9779045454026557,0.28530113749999997,0.7165893492311044
0.057,1.718775,1.0,2681.295678989316,0.4733715462663455,1.2975031970501676,0.978138282194098,0.28524155,0.7177673716356159
0.0575,1.71734375,1.0,2679.054961693236,0.47632546910264334,1.2968773799167783,0.9783661308670953,0.2851814375,0.718953511778536
0.058,1.7159,1.0,2676.8135400623228,0.4792628367296217,1.2962459326841758,0.9785882790231297,0.2851208,0.7201477913523049
0.0585,1.71444375,1.0,2674.5728331126747,0.4821837479639604,1.2956088423411896,0.9788049040431493,0.2850596375,0.7213501668676714
0.059000000000000004,1.7129750000000001,1.0,2672.3335181278967,0.4850882903188585,1.2949661026686456,0.9790161756504077,0.28499795,0.7225605812387437
0.059500000000000004,1.71149375,1.0,2670.096271257505,0.48797655130751494,1.2943177074473688,0.9792222568703177,0.2849357375,0.7237789766674905
0.06,1.71,1.0,2667.8617675176747,0.4908486184431288,1.2936636504581849,0.979423304345043,0.284873,0.7250052946414955
0.0605,1.7084937500000001,1.0,2665.630680793226,0.4937045792388993,1.2930039254819188,0.9796194686309443,0.2848097375,0.7262394759317161
0.061,1.7069750000000001,1.0,2663.4036838401835,0.4965445212080254,1.292338526299396,0.9798108944799531,0.28474595,0.7274814605902338
0.0615,1.7054437500000001,1.0,2661.1814482894483,0.49936853186370617,1.291667446691442,0.9799977211058418,0.2846816375,0.7287311879480066
0.062,1.7039,1.0,2658.9646446514266,0.5021766987191407,1.2909906804388815,0.9801800824363219,0.2846168,0.7299885966126172
0.0625,1.70234375,1.0,2656.7539423209005,0.504969109287528,1.2903082213225405,0.9803581073518179,0.2845514375,0.7312536244660167
0.063,1.7007750000000001,1.0,2654.5500095834354,0.5077458510820672,1.2896200631232442,0.9805319199117165,0.28448555,0.7325262086622706
0.0635,1.69919375,1.0,2652.353513622547,0.5105070116159574,1.2889261996218175,0.980701639568839,0.28441913750000003,0.7338062856252986
0.064,1.6976,1.0,2650.16512052705,0.5132526784023975,1.288226624599086,0.9808673813728278,0.2843522,0.735093791046612
0.0645,1.69599375,1.0,2647.985495300457,0.5159829389545867,1.287521331835875,0.9810292561631002,0.2842847375,0.7363886598830507
0.065,1.694375,1.0,2645.8153018698795,0.5186978807857241,1.28681031511301,0.981187370751975,0.28421675,0.7376908263545152
0.0655,1.69274375,1.0,2643.655203097045,0.5213975914090087,1.2860935682113157,0.9813418280985386,0.2841482375,0.7390002239417004
0.066,1.6911,1.0,2641.5058607890765,0.5240821583376395,1.2853710849116182,0.9814927274737846,0.2840792,0.7403167853838202
0.0665,1.6894437500000001,1.0,2639.3679357112883,0.5267516690848156,1.2846428589947423,0.981640164617522,0.2840096375,0.741640442676337
0.067,1.687775,1.0,2637.2420875993234,0.5294062111637362,1.2839088842415134,0.9817842318875162,0.28393955,0.742971127068683
0.0675,1.68609375,1.0,2635.1262110473062,0.5320458271475458,1.2831691800035665,0.9819250166455218,0.2838689375,0.7443087228829968
0.068,1.6844000000000001,1.0,2633.021850202454,0.5346706380202925,1.2824237318887712,0.9820626067946123,0.2837978,0.7456531749554192
0.0685,1.68269375,1.0,2630.9302554583332,0.5372807476627729,1.2816725282022015,0.9821970861794062,0.2837261375,0.7470044223730231
0.069,1.680975,1.0,2628.851284222942,0.5398762338153303,1.2809155701328527,0.9823285346782015,0.28365395,0.7483623802835915
0.0695,1.67924375,1.0,2626.7847941871787,0.5424571742183077,1.28015285886972,0.9824570294524599,0.28358123749999997,0.7497269632242436
0.07,1.6775,1.0,2624.7306433221343,0.5450236466120484,1.2793843956017983,0.9825826450562593,0.283508,0.7510980851218683
0.07050000000000001,1.67574375,1.0,2622.688689876004,0.5475757287368954,1.2786101815180828,0.9827054535406108,0.2834342375,0.7524756592935617
0.07100000000000001,1.673975,1.0,2620.6587923713532,0.550113498333192,1.277830217807569,0.982825524552913,0.28335995,0.7538595984470626
0.07150000000000001,1.67219375,1.0,2618.6408096025375,0.5526370331412813,1.2770445056592516,0.9829429254318042,0.2832851375,0.755249814681189
0.07200000000000001,1.6704,1.0,2616.6346006329018,0.5551464109015066,1.276253046262126,0.9830577212976491,0.2832098,0.7566462194862745
0.0725,1.66859375,1.0,2614.640024791784,0.5576417093542109,1.2754558408051875,0.9831699751388936,0.2831339375,0.7580487237446021
0.073,1.6667750000000001,1.0,2612.6569416722896,0.5601230062397375,1.2746528904774308,0.9832797478944979,0.28305755,0.7594572377308431
0.0735,1.66494375,1.0,2610.685211128325,0.5625903792984296,1.2738441964678513,0.9833870985326527,0.2829806375,0.76087167111249
0.074,1.6631,1.0,2608.7246932720186,0.5650439062706303,1.273029759965444,0.9834920841259667,0.2829032,0.7622919329502933
0.0745,1.6612437500000001,1.0,2606.775248471266,0.5674836648966827,1.2722095821592043,0.9835947599233076,0.2828252375,0.7637179316986971
0.075,1.659375,1.0,2604.8367373471488,0.56990973291693,1.2713836642381273,0.9836951794184642,0.28274675,0.7651495752062736
0.0755,1.65749375,1.0,2602.9090207714157,0.5723221880717156,1.2705520073912078,0.9837933944157895,0.2826677375,0.7665867707161602
