Time [s],Phi [rad],STIM [ ],Fsee [N],Gamma [ ],Lcerel [ ],q [ ],Lmtc [m],fisomrel [ ]
0.0,1.8,1.0,18.6413432832103,0.0008364600144396808,1.3792649104940984,0.005180005111120497,0.288653,0.5413205601655087
0.0005,1.79999375,1.0,19.199334555307257,0.006440977444078641,1.3792011675994487,0.01539322492159307,0.2886527375,0.54147472733168
0.001,1.799975,1.0,23.155214606200406,0.0120140579622295,1.3787840319054807,0.04004429754499558,0.28865195,0.5424829629254713
0.0015,1.79994375,1.0,33.989234938161296,0.01755587790550673,1.377803015481013,0.07658845736305936,0.2886506375,0.5448497496602469
0.002,1.7999,1.0,59.221484555306546,0.023066612620589556,1.3760114459803012,0.12175333811388098,0.2886488,0.5491562260580454
0.0025,1.79984375,1.0,106.05134498398245,0.028546436471331864,1.3735142024311822,0.17219393992167453,0.28864643749999996,0.5551248105299678
0.003,1.7997750000000001,1.0,172.23731107003513,0.03399552284340077,1.3707993025538834,0.2251179302239823,0.28864354999999997,0.5615684860508727
0.0035,1.79969375,1.0,250.24350168720483,0.03941404414884266,1.3682028281913208,0.2783920778375287,0.2886401375,0.567687108775232
0.004,1.7996,1.0,334.72203087838375,0.044802171834429916,1.3658085575474848,0.3304367768331156,0.2886362,0.5732911327328716
0.0045000000000000005,1.7994937500000001,1.0,422.92159734901355,0.050160076387283155,1.363604935829253,0.38016597194305196,0.2886317375,0.578416615563153
0.005,1.799375,1.0,513.2886496883307,0.055487927324222946,1.3615655166083622,0.42691417740839477,0.28862675,0.5831325803562759
0.0055,1.79924375,1.0,604.7505613790039,0.06078589323501299,1.3596676801420133,0.4703425072679096,0.2886212375,0.5874973209861684
0.006,1.7991000000000001,1.0,696.4568761462822,0.06605414174668453,1.3578943256212463,0.5103469027822954,0.2886152,0.5915550117605655
0.006500000000000001,1.79894375,1.0,787.7091824408368,0.07129283954910577,1.356232247014715,0.5469809530109969,0.2886086375,0.595339879422344
0.007,1.798775,1.0,877.9276492310537,0.0765021524014627,1.3546708983390945,0.5803968239806181,0.28860155,0.598879317191772
0.0075,1.79859375,1.0,966.6381414268952,0.08168224512045029,1.3532014701181678,0.6108024945179122,0.2885939375,0.6021961782728475
0.008,1.7984,1.0,1053.4604749408466,0.08683328161921057,1.3518163490340418,0.6384323035593822,0.2885858,0.6053101293123638
0.0085,1.79819375,1.0,1138.0888355916497,0.09195542488098725,1.3505089103533778,0.6635276028543315,0.2885771375,0.6082382135296165
0.009000000000000001,1.797975,1.0,1220.2810608920784,0.0970488365928103,1.3492732963258292,0.6863245461606011,0.28856795,0.610995422428857
0.0095,1.79774375,1.0,1299.898264754267,0.10211367898616228,1.348103620081627,0.7070465635593312,0.2885582375,0.6135965232336298
0.01,1.7975,1.0,1376.7976185214347,0.10715011160743143,1.3469952180588314,0.7259013113849684,0.288548,0.6160533120035206
0.0105,1.79724375,1.0,1450.8858323312877,0.11215829338593575,1.345943713063546,0.743078587534027,0.2885372375,0.6183767455095883
0.011,1.796975,1.0,1522.1283930233053,0.1171383830405365,1.3449447866147441,0.7587500623128688,0.28852595000000003,0.62057746870953
0.0115,1.79669375,1.0,1590.5227827367166,0.12209053871197953,1.3439944217119926,0.7730700704421565,0.2885141375,0.6226652992060964
0.012,1.7964,1.0,1656.068854362275,0.1270149168979476,1.3430891557280336,0.78617683325129,0.28850180000000003,0.624648696498167
0.0125,1.79609375,1.0,1718.7812969981699,0.1319116728850686,1.3422258332724073,0.7981936679635789,0.2884889375,0.626535328574638
0.013000000000000001,1.7957750000000001,1.0,1778.7041048724254,0.1367809615339467,1.3414013747903941,0.8092303017895774,0.28847555,0.6283325934031532
0.0135,1.79544375,1.0,1835.9061270867712,0.14162293780930765,1.3406127842547386,0.819384279079644,0.2884616375,0.6300476122520245
0.014,1.7951000000000001,1.0,1890.448279672177,0.146437754988869,1.3398574691588978,0.8287424030746356,0.2884472,0.6316865454620817
0.0145,1.79474375,1.0,1942.3855244610188,0.15122556447249205,1.33913316336155,0.8373819101721351,0.2884322375,0.6332547752180748
0.015,1.794375,1.0,1991.793462870836,0.15598651766003818,1.3384376007213743,0.8453714593038381,0.28841675,0.6347576225062488
0.0155,1.79399375,1.0,2038.7565926819796,0.16072076516378084,1.3377686198334946,0.8527721712099892,0.2884007375,0.6362001258156129
0.016,1.7936,1.0,2083.370119271077,0.16542845813040993,1.337124122161879,0.8596385059567206,0.2883842,0.6375871372977757
0.0165,1.7931937500000001,1.0,2125.712809666265,0.17010974538245482,1.336502333117672,0.8660191264803073,0.2883671375,0.638922767239679
0.017,1.792775,1.0,2165.8552672771752,0.1747647739337047,1.3359016887172808,0.87195754704434,0.28834955,0.6402106362145377
0.0175,1.7923437500000001,1.0,2203.878768520115,0.17939369079794867,1.3353206249771126,0.8774926807357771,0.2883314375,0.6414543318397916
0.018000000000000002,1.7919,1.0,2239.8743609743556,0.18399664298897592,1.3347575779135745,0.8826593800902454,0.2883128,0.642657410808154
0.0185,1.79144375,1.0,2273.9213291223323,0.18857377544023626,1.3342111895533157,0.8874889624814682,0.2882936375,0.6438229616624925
0.019,1.790975,1.0,2306.122191166758,0.193125235694223,1.333679946789727,0.8920095296560879,0.28827395,0.6449543785408324
0.0195,1.79049375,1.0,2336.5411445877726,0.19765116611208075,1.3331627847810985,0.8962464777406336,0.2882537375,0.6460540779237993
0.02,1.79,1.0,2365.247391294787,0.20215170899662782,1.3326586436735601,0.9002226987560513,0.288233,0.6471244476698577
0.0205,1.78949375,1.0,2392.3151836404454,0.20662700665068243,1.3321664636132409,0.9039588602345477,0.2882117375,0.648167858579954
0.021,1.788975,1.0,2417.8233982476913,0.21107720137706282,1.3316851847462707,0.9074736517039957,0.28818995000000003,0.6491866652418121
0.021500000000000002,1.78844375,1.0,2441.8377311009344,0.21550243283157577,1.3312139144696211,0.9107840348848678,0.2881676375,0.6501828535131076
0.022,1.7879,1.0,2464.4478876770254,0.21990284462576176,1.3307515642265069,0.9139053586146133,0.2881448,0.6511588098269098
0.0225,1.78734375,1.0,2485.7086029431484,0.22427857417736524,1.330297412620025,0.9168516383961192,0.28812143749999997,0.6521161327057299
0.023,1.786775,1.0,2505.6764849544725,0.2286297587832138,1.329850745325621,0.919635627947645,0.28809755,0.6530563960718506
0.0235,1.78619375,1.0,2524.4105335568934,0.232956535740135,1.3294108480187392,0.9222689490550464,0.28807313749999996,0.6539811645649717
0.024,1.7856,1.0,2541.971938103634,0.23725904234495654,1.3289770063748254,0.9247622076677997,0.2880482,0.6548919938668945
0.0245,1.78499375,1.0,2558.416670977619,0.24153741436353426,1.3285485738129297,0.927125107876082,0.2880227375,0.6557902890481184
0.025,1.784375,1.0,2573.8056084467507,0.2457917888021438,1.3281248740631684,0.9293665261924854,0.28799675,0.6566775096333861
0.025500000000000002,1.78374375,1.0,2588.1980400415073,0.2500223018491498,1.3277052607304054,0.9314946021330561,0.2879702375,0.6575550449286258
0.026000000000000002,1.7831000000000001,1.0,2601.635666622262,0.25422908546834283,1.3272892644885403,0.9335168320665493,0.2879432,0.6584239073678262
0.0265,1.78244375,1.0,2614.1613008461286,0.2584122716235135,1.3268764160114728,0.9354401038080141,0.2879156375,0.6592851041310415
0.027,1.781775,1.0,2625.8187732291544,0.26257199227845246,1.3264662459731023,0.9372707541750283,0.28788755,0.6601396372456311
0.0275,1.7810937500000001,1.0,2636.652843091718,0.2667083793969503,1.3260582850473288,0.9390146203999978,0.2878589375,0.6609885036734531
0.028,1.7804,1.0,2646.7088159595546,0.27082156479263075,1.3256520666627514,0.9406770864643113,0.2878298,0.6618326896628793
0.0285,1.77969375,1.0,2656.025530427905,0.27491167617608026,1.3252471908703016,0.9422631318636813,0.2878001375,0.6626730383640866
0.029,1.778975,1.0,2664.6535851095414,0.2789788490428523,1.3248431554427216,0.9437773485842694,0.28776995,0.6635106006441831
0.029500000000000002,1.7782437500000001,1.0,2672.622939140048,0.2830232097301552,1.3244396537010839,0.9452240100306932,0.2877392375,0.6643460175584208
0.03,1.7775,1.0,2679.964013459336,0.2870448845751973,1.3240363789664609,0.9466070754833438,0.287708,0.6651799269971435
0.0305,1.77674375,1.0,2686.7076498410634,0.2910439999151868,1.3236330245599253,0.9479302171704508,0.2876762375,0.6660129636932233
0.031,1.775975,1.0,2692.885072007489,0.2950206820873322,1.3232292838025497,0.9491968446875905,0.28764395,0.6668457592235039
0.0315,1.7751937500000001,1.0,2698.5278488289136,0.29897505742884156,1.3228248500154067,0.9504101270532664,0.2876111375,0.6676789420042416
0.032,1.7744,1.0,2703.6678127995942,0.30290725222918374,1.3224194169470769,0.9515730126925489,0.2875778,0.6685131364014891
0.0325,1.77359375,1.0,2708.327705662691,0.3068173825894175,1.322012763833426,0.9526882546596431,0.2875439375,0.6693487880368565
0.033,1.772775,1.0,2712.5488927682936,0.3107055879136171,1.3216045020878626,0.9537584063707855,0.28750955,0.6701866844286287
0.0335,1.7719437500000002,1.0,2716.3507256118605,0.3145719878593783,1.321194445967671,0.9547858679929365,0.2874746375,0.6710271934933703
0.034,1.7711000000000001,1.0,2719.752714651325,0.31841670208429695,1.3207824097301357,0.9557728809822454,0.2874392,0.6718706811470897
0.0345,1.7702437500000001,1.0,2722.7745138315204,0.32223985024596885,1.320368207632541,0.9567215404487212,0.2874032375,0.6727175112828864
0.035,1.7693750000000001,1.0,2725.4359058728805,0.3260415520019898,1.3199516539321712,0.9576338064197412,0.28736675,0.6735680457463908
0.035500000000000004,1.76849375,1.0,2727.756788325916,0.3298219270099557,1.3195325628863106,0.9585115141119642,0.2873297375,0.6744226443090113
0.036000000000000004,1.7676,1.0,2729.7571603897295,0.3335810949274623,1.3191107487522438,0.9593563833092416,0.2872922,0.6752816646389743
0.0365,1.76669375,1.0,2731.4571104962747,0.3373191754121053,1.318686025787255,0.9601700269335685,0.2872541375,0.6761454622701691
0.037,1.765775,1.0,2732.8768046587265,0.3410362881214808,1.3182582082486287,0.9609539588867954,0.28721555,0.6770143905687898
0.0375,1.76484375,1.0,2734.0311149658905,0.3447325472494135,1.3178271590792392,0.9617096048212441,0.2871764375,0.6778887020140943
0.038,1.7639,1.0,2734.931049432934,0.3484080661806762,1.3173927767912808,0.962438308167936,0.28713679999999997,0.6787685753849497
0.0385,1.76294375,1.0,2735.607450022069,0.35206297909831014,1.3169547802141677,0.9631413199923224,0.28709663750000003,0.6796545513373363
0.039,1.761975,1.0,2736.0704372344453,0.3556973977159055,1.3165130767135953,0.9638198310800044,0.28705595,0.680546786573003
0.0395,1.7609937500000001,1.0,2736.33016082815,0.35931143374705243,1.316067573655258,0.9644749632542646,0.2870147375,0.6814454364913203
0.04,1.76,1.0,2736.396795931671,0.3629051989053411,1.3156181784048508,0.9651077741028273,0.286973,0.6823506551671038
0.0405,1.7589937500000001,1.0,2736.2805393490794,0.36647880490436185,1.3151647983280685,0.9657192613324204,0.2869307375,0.683262595327895
0.041,1.757975,1.0,2735.991606054502,0.3700323634577046,1.3147073407906058,0.9663103667840534,0.28688795,0.6841814083306936
0.0415,1.75694375,1.0,2735.5402258771187,0.37356598627895976,1.3142457131581575,0.9668819801387185,0.2868446375,0.685107244138141
0.042,1.7559,1.0,2734.93664037671,0.3770797850817174,1.3137798227964184,0.9674349423403371,0.28680079999999997,0.6860402512941591
0.0425,1.75484375,1.0,2734.1910999092324,0.38057387157956774,1.3133095770710832,0.9679700487602144,0.2867564375,0.6869805768990401
0.043000000000000003,1.753775,1.0,2733.31386088229,0.3840483574861009,1.3128348833478471,0.9684880521249595,0.28671155,0.6879283665839888
0.043500000000000004,1.75269375,1.0,2732.3151832018066,0.3875033545149071,1.3123556489924044,0.9689896652277638,0.28666613750000003,0.6888837644851207
0.044,1.7516,1.0,2731.204644538616,0.3909389733770312,1.3118717875800778,0.9694755637788398,0.2866202,0.6898469008660932
0.0445,1.75049375,1.0,2729.9810391589613,0.39435530931965934,1.3113833106906008,0.9699463937104492,0.2865737375,0.690817709895921
0.045,1.7493750000000001,1.0,2728.667258744028,0.39775249306533755,1.3108900109074217,0.9704027561433048,0.28652675,0.6917965596874465
0.0455,1.74824375,1.0,2727.267962529932,0.4011306283355586,1.3103918464564301,0.9708452302288976,0.2864792375,0.6927834874150762
0.046,1.7471,1.0,2725.7878092398705,0.40448981885181523,1.3098887755635156,0.9712743659558288,0.2864312,0.6937785292721463
0.0465,1.7459437500000001,1.0,2724.2314563802206,0.4078301683356001,1.3093807564545679,0.9716906858938035,0.28638263750000004,0.6947817204579061
0.047,1.744775,1.0,2722.6035595757144,0.41115178050840595,1.3088677473554764,0.9720946868173249,0.28633355,0.6957930951643929
0.0475,1.74359375,1.0,2720.9087719437384,0.4144547590917255,1.308349706492131,0.9724868412184482,0.28628393750000003,0.696812686563191
0.048,1.7424,1.0,2719.1517435059477,0.4177392078070514,1.3078265920904215,0.9728675987171408,0.2862338,0.6978405267920831
0.0485,1.74119375,1.0,2717.3371206406273,0.42100523037587645,1.3072983623762373,0.9732373873770712,0.2861831375,0.6988766469415904
0.049,1.739975,1.0,2715.4695455716587,0.42425293051969326,1.306764975575468,0.97359661493398,0.28613195,0.6999210770413984
0.0495,1.73874375,1.0,2713.5536558975114,0.42748241195999465,1.3062263899140034,0.9739456699431897,0.2860802375,0.7009738460466733
0.05,1.7375,1.0,2711.5940841586034,0.4306937784182733,1.3056825636177332,0.9742849228522645,0.286028,0.7020349818242683
0.0505,1.73624375,1.0,2709.595457443121,0.43388713361602177,1.3051334549125468,0.9746147270043296,0.2859752375,0.7031045111388161
0.051000000000000004,1.734975,1.0,2707.560444749104,0.4370625630781294,1.3045790398415946,0.9749354187146481,0.28592195,0.7041824250292484
0.051500000000000004,1.73369375,1.0,2705.4958979514886,0.4402201894060003,1.3040192562302384,0.9752473206957856,0.2858681375,0.705268787758969
0.052000000000000005,1.7324,1.0,2703.404514116541,0.44336011255192626,1.3034540797618148,0.9755507410865683,0.2858138,0.7063635888900195
0.0525,1.73109375,1.0,2701.28846623113,0.4464824285249805,1.3028834908746554,0.9758459742014143,0.28575893750000003,0.7074668078940771
0.053,1.729775,1.0,2699.1499243096937,0.4495872333342362,1.3023074700070911,0.9761333013879181,0.28570355000000003,0.7085784233989532
0.0535,1.72844375,1.0,2696.9910552979036,0.4526746229887667,1.3017259975974533,0.9764129917066641,0.2856476375,0.7096984131818291
0.054,1.7271,1.0,2694.8140229843752,0.45574469349764507,1.301139054084073,0.9766853025697935,0.2855912,0.7108267541624673
0.0545,1.7257437500000001,1.0,2692.6209879208095,0.45879754086994456,1.3005466199052815,0.9769504803411608,0.2855342375,0.7119634223963974
0.055,1.724375,1.0,2690.4141073507103,0.4618332611147384,1.2999486754994103,0.9772087609006888,0.28547675,0.7131083930680786
0.0555,1.72299375,1.0,2688.19553514688,0.46485195024109977,1.2993452013047901,0.9774603701753377,0.2854187375,0.7142616404840392
0.056,1.7216,1.0,2685.967421756845,0.4678537042581019,1.2987361777597526,0.9777055246389301,0.2853602,0.715423138065987
0.0565,1.72019375,1.0,2683.7319141571916,0.470838619174818,1.2981215853026287,0.9779444317828881,0.28530113749999997,0.7165928583439014
0.057,1.718775,1.0,2681.4911558165136,0.4738067910003213,1.2975014043717494,0.9781772905598092,0.28524155,0.7177707729490971
0.0575,1.71734375,1.0,2679.2472866659655,0.47675831574368494,1.2968756154054464,0.9784042918016476,0.2851814375,0.7189568526072625
0.058,1.7159,1.0,2676.9995508427687,0.4796932470431839,1.2962442253879187,0.9786256164265333,0.2851208,0.7201510169780359
0.0585,1.71444375,1.0,2674.7520129341797,0.4826117234742149,1.2956071970529643,0.9788414429715093,0.2850596375,0.721353268655899
0.059000000000000004,1.7129750000000001,1.0,2672.5064155968626,0.48551384934435315,1.2949645144011064,0.9790519410619942,0.28499795,0.7225635690182383
0.059500000000000004,1.71149375,1.0,2670.2633829457404,0.4883997116151235,1.2943161716852556,0.9792572727268665,0.2849357375,0.7237818593256862
0.06,1.71,1.0,2668.0235380463705,0.4912693972480506,1.293662163158322,0.9794575936594416,0.284873,0.7250080801312979
0.0605,1.7084937500000001,1.0,2665.7875029174675,0.494122993204659,1.2930024830732165,0.9796530535122914,0.2848097375,0.7262421712784741
0.061,1.7069750000000001,1.0,2663.555898533674,0.4969605864464735,1.2923371256828498,0.9798437961761448,0.28474595,0.7274840718988831
0.0615,1.7054437500000001,1.0,2661.329344829355,0.49978226393501873,1.2916660852401318,0.9800299600438471,0.2846816375,0.7287337204103832
0.062,1.7039,1.0,2659.1084607032867,0.5025881126318194,1.2909893559979735,0.9802116782602844,0.2846168,0.7299910545149384
0.0625,1.70234375,1.0,2656.8938640234633,0.5053782194984001,1.290306932209285,0.9803890789591173,0.2845514375,0.7312560111965356
0.063,1.7007750000000001,1.0,2654.6861716331823,0.5081526714962856,1.2896188081269775,0.9805622854871157,0.28448555,0.7325285267190975
0.0635,1.69919375,1.0,2652.4859993580976,0.5109115555870005,1.2889249780039609,0.9807314166168295,0.28441913750000003,0.7338085366243965
0.064,1.6976,1.0,2650.2939620126967,0.5136549587320696,1.2882254360931458,0.9808965867482822,0.2843522,0.7350959757299615
0.0645,1.69599375,1.0,2648.110673409435,0.5163829678930173,1.287520176647443,0.9810579061003327,0.2842847375,0.7363907781269874
0.065,1.694375,1.0,2645.9367463669723,0.5190956700313686,1.2868091939197628,0.9812154808923024,0.28421675,0.7376928771782395
0.0655,1.69274375,1.0,2643.7727927198252,0.521793152108648,1.2860924821630157,0.9813694135164307,0.2841482375,0.7390022055159583
0.066,1.6911,1.0,2641.6194233289502,0.5244755010863801,1.2853700356301123,0.9815198027016856,0.2840792,0.7403186950397591
0.0665,1.6894437500000001,1.0,2639.4772480926636,0.5271428039260898,1.2846418485739632,0.9816667436694189,0.2840096375,0.7416422769145312
0.067,1.687775,1.0,2637.346875958104,0.5297951475893016,1.2839079152474788,0.9818103282813275,0.28393955,0.7429728815683367
0.0675,1.68609375,1.0,2635.228914934333,0.5324326190375402,1.2831682299035696,0.981950645180153,0.2838689375,0.7443104386903034
0.068,1.6844000000000001,1.0,2633.1230305821523,0.5350552541932205,1.2824227955084477,0.982087776996726,0.2837978,0.7456548615344181
0.0685,1.68269375,1.0,2631.0295153076063,0.5376631869733749,1.2816716092303149,0.9822218096201736,0.2837261375,0.7470060731938928
0.069,1.680975,1.0,2628.948472661273,0.5402565126610667,1.2809146699827019,0.9823528235605975,0.28365395,0.7483639929480539
0.0695,1.67924375,1.0,2626.879789081298,0.5428353085307663,1.280151978689777,0.9824808955327685,0.28358123749999997,0.7497285358297281
0.07,1.6775,1.0,2624.8233512394804,0.5453996518569443,1.2793835362757089,0.9826060996621458,0.283508,0.7510996162566316
0.07050000000000001,1.67574375,1.0,2622.7790460388046,0.5479496199140707,1.278609343664666,0.9827285075883238,0.2834342375,0.7524771480317094
0.07100000000000001,1.673975,1.0,2620.746760611373,0.550485289976616,1.2778294017808165,0.982848188563666,0.28335995,0.7538610443434747
0.07150000000000001,1.67219375,1.0,2618.726382316393,0.5530067393190506,1.277043711548329,0.9829652095473767,0.2832851375,0.7552512177663464
0.07200000000000001,1.6704,1.0,2616.717798737925,0.5555140452158448,1.2762522738913724,0.9830796352952528,0.2832098,0.7566475802609891
0.0725,1.66859375,1.0,2614.720897682809,0.5580072849414689,1.2754550897341146,0.9831915284453385,0.2831339375,0.7580500431746521
0.073,1.6667750000000001,1.0,2612.7355671785463,0.5604865357703934,1.2746521600007243,0.9833009495996979,0.28305755,0.7594585172415067
0.0735,1.66494375,1.0,2610.7616954714263,0.5629518749770885,1.27384348561537,0.9834079574025035,0.2829806375,0.7608729125829867
0.074,1.6631,1.0,2608.7991710240594,0.5654033798360246,1.2730290675022198,0.9835126086146293,0.2829032,0.762293138708126
0.0745,1.6612437500000001,1.0,2606.8478825136704,0.567841127621672,1.2722089065854427,0.9836149581849272,0.2828252375,0.7637191045138958
0.075,1.659375,1.0,2604.907718830248,0.5702651956085012,1.2713830037892069,0.9837150593183535,0.28274675,0.7651507182855464
