Time [s],Phi [rad],STIM [ ],Fsee [N],Gamma [ ],Lcerel [ ],q [ ],Lmtc [m],fisomrel [ ]
0.0,1.8,1.0,17.967271349350096,1.497118970450131e-05,1.3793397335395978,0.005000059546427841,0.288653,0.5411395617286574
0.0005,1.79999375,1.0,18.278268178651096,0.0056240965219661754,1.3793022185026786,0.012954321131833448,0.2886527375,0.5412303158129663
0.001,1.799975,1.0,21.62358673131375,0.011201759096011297,1.3789377705138348,0.035634486719443186,0.28865195,0.5421114989732279
0.0015,1.79994375,1.0,31.08221412333826,0.016748135393902994,1.3780450981532373,0.07063717133746569,0.2886506375,0.5442662747522615
0.002,1.7999,1.0,53.610803939337714,0.022263400906044454,1.3763662884411794,0.11475983990536641,0.2886488,0.5483049009088361
0.0025,1.79984375,1.0,97.16699336628432,0.027747730138778313,1.3739328518555065,0.1646203708090036,0.28864643749999996,0.554126984385229
0.003,1.7997750000000001,1.0,161.02101377380305,0.03320129662205748,1.3712119915645955,0.2173273719699301,0.28864354999999997,0.5605920195109907
0.0035,1.79969375,1.0,237.75451450339276,0.038624272909072464,1.3685825417738133,0.27065955435047667,0.2886401375,0.566794993302153
0.004,1.7996,1.0,321.54262738545935,0.04401683058702455,1.3661540833777361,0.3229609876832585,0.2886362,0.5724846531435264
0.0045000000000000005,1.7994937500000001,1.0,409.3464080647202,0.0493791402823128,1.3639209678692148,0.37307740175458926,0.2886317375,0.5776834475291261
0.005,1.799375,1.0,499.49383213704084,0.054711371651633624,1.36185663545277,0.42028759239856467,0.28862675,0.5824610184272998
0.0055,1.79924375,1.0,590.8715331724381,0.06001369342925387,1.359937250281788,0.46421085465329553,0.2886212375,0.5868787495522498
0.006,1.7991000000000001,1.0,682.5993836616125,0.0652862733706618,1.3581449374221477,0.5047141093121902,0.2886152,0.5909827927260394
0.006500000000000001,1.79894375,1.0,773.9645504863233,0.07052927830860715,1.3564658317957696,0.5418319566092222,0.2886086375,0.5948090266650194
0.007,1.798775,1.0,864.3690114337477,0.07574287413133499,1.3548890510783953,0.5757052025408764,0.28860155,0.5983857188286867
0.0075,1.79859375,1.0,953.3243677033839,0.08092722580958693,1.3534055310115805,0.6065357728093672,0.2885939375,0.6017363860026239
0.008,1.7984,1.0,1040.4362859180671,0.08608249736155164,1.352007500456555,0.6345555685406801,0.2885858,0.6048811212446696
0.0085,1.79819375,1.0,1125.397179599055,0.09120885193017812,1.3506880672235966,0.6600057380809653,0.2885771375,0.6078376259788847
0.009000000000000001,1.797975,1.0,1207.9616773190955,0.0963064516771942,1.349441194781453,0.6831236995892307,0.28856795,0.6106213373396383
0.0095,1.79774375,1.0,1287.9505211386531,0.10137545799388253,1.3482613521432252,0.7041352288377611,0.2885582375,0.6132462710566726
0.01,1.7975,1.0,1365.2248770614576,0.1064160307637273,1.3471436420436307,0.7232503798668034,0.288548,0.6157247824894247
0.0105,1.79724375,1.0,1439.7176035039151,0.11142833011462458,1.3460832191747367,0.7406613719363738,0.2885372375,0.6180688947884284
0.011,1.796975,1.0,1511.3872596758845,0.11641251524517987,1.3450757590928026,0.7565425100225276,0.28852595000000003,0.620289287265708
0.0115,1.79669375,1.0,1580.186934671934,0.12136874271946642,1.3441176955244756,0.7710508316433258,0.2885141375,0.6223948074838148
0.012,1.7964,1.0,1646.1170516139848,0.1262971691015574,1.3432054621964025,0.7843268044788495,0.28850180000000003,0.624394166832123
0.0125,1.79609375,1.0,1709.217369102176,0.13119795074289872,1.3423355363394387,0.7964956867047326,0.2884889375,0.6262958563749645
0.013000000000000001,1.7957750000000001,1.0,1769.5393174250278,0.1360712432353701,1.341504702887627,0.807669056309004,0.28847555,0.62810758260725
0.0135,1.79544375,1.0,1827.1307574956784,0.14091720086461973,1.3407101592519441,0.8179462396066893,0.2884616375,0.6298360567044479
0.014,1.7951000000000001,1.0,1882.0378726669787,0.14573597616219786,1.3399494306134148,0.8274155929787659,0.2884472,0.6314871958724972
0.0145,1.79474375,1.0,1934.330939250887,0.15052772165965464,1.3392200421530633,0.8361556138301375,0.2884322375,0.6330668463063582
0.015,1.794375,1.0,1984.0808227273365,0.1552925887281004,1.338519747271027,0.844236154222956,0.28841675,0.6345802956235969
0.0155,1.79399375,1.0,2031.3965946044034,0.1600307299132107,1.3378460972047128,0.8517192892184298,0.2884007375,0.6360332098327288
0.016,1.7936,1.0,2076.3439590703683,0.1647422940021985,1.3371972847126512,0.8586605005464985,0.2883842,0.6374298188214772
0.0165,1.7931937500000001,1.0,2118.9953778155746,0.16942742936556743,1.3365715770720394,0.865109276203181,0.2883671375,0.638774150214414
0.017,1.792775,1.0,2159.4358337575873,0.17408628437382115,1.3359672415600738,0.871109798203587,0.28834955,0.6400701932350605
0.0175,1.7923437500000001,1.0,2197.7526381816983,0.1787190064778019,1.335382637853737,0.8767015948383382,0.2883314375,0.6413217035276438
0.018000000000000002,1.7919,1.0,2234.0398981572894,0.18332574368607724,1.334816159282534,0.88192007212152,0.2883128,0.6425323325360102
0.0185,1.79144375,1.0,2268.3742390192674,0.18790664127814022,1.3342664647099536,0.8867970520097885,0.2882936375,0.6437051357471599
0.019,1.790975,1.0,2300.8282188256044,0.19246184321707255,1.3337323282192963,0.8913611470977385,0.28827395,0.6448428989200506
0.0195,1.79049375,1.0,2331.481010226646,0.1969914934659559,1.3332125238938637,0.8956381003831585,0.2882537375,0.645948386225387
0.02,1.79,1.0,2360.415258522306,0.20149573557324146,1.3327058510574679,0.8996511167218157,0.288233,0.6470242878575447
0.0205,1.78949375,1.0,2387.706874891452,0.2059747119840718,1.3322112276294538,0.9034211683698062,0.2882117375,0.6480730237147043
0.021,1.788975,1.0,2413.442017944714,0.21042856694923273,1.3317275181241768,0.9069672057156782,0.28818995000000003,0.6490971100738966
0.021500000000000002,1.78844375,1.0,2437.6801842208047,0.2148574396095808,1.331253886030885,0.9103064496648782,0.2881676375,0.6500984151448901
0.022,1.7879,1.0,2460.48430820522,0.2192614691059725,1.3307894948388268,0.9134545179124619,0.2881448,0.6510787949753629
0.0225,1.78734375,1.0,2481.9204784858416,0.2236407945792644,1.3303335080372505,0.9164255963588377,0.28812143749999997,0.652040093966211
0.023,1.786775,1.0,2502.0576694224674,0.22799555517031295,1.329885089115404,0.919232590204651,0.28809755,0.6529841453422258
0.0235,1.78619375,1.0,2520.9572738429597,0.23232588760517023,1.329443498172253,0.9218872741156703,0.28807313749999996,0.6539125685970306
0.024,1.7856,1.0,2538.6870331063515,0.2366319323049617,1.329007956698135,0.9244003865218363,0.2880482,0.6548270549404278
0.0245,1.78499375,1.0,2555.3004480282707,0.24091382516109638,1.3285778397589778,0.926781764376065,0.2880227375,0.6557289643473326
0.025,1.784375,1.0,2570.8455592104124,0.24517169997505808,1.3281525896043047,0.9290404188357092,0.28799675,0.656619508724454
0.025500000000000002,1.78374375,1.0,2585.3718902024984,0.24940569054833073,1.3277316484836392,0.9311846061663859,0.2879702375,0.6574998934381261
0.026000000000000002,1.7831000000000001,1.0,2598.9303209585237,0.2536159306823982,1.3273144586465047,0.9332219012363253,0.2879432,0.6583713174775051
0.0265,1.78244375,1.0,2611.5729681896582,0.25780255417874437,1.3269004623424245,0.9351592629586915,0.2879156375,0.6592349735979244
0.027,1.781775,1.0,2623.3440599109804,0.26196569249125706,1.326489185384015,0.9370031045914734,0.28788755,0.6600918744492419
0.0275,1.7810937500000001,1.0,2634.2905660740344,0.2661054793535256,1.3260801369387967,0.9387593312051831,0.2878589375,0.6609430621619121
0.028,1.7804,1.0,2644.4652143994604,0.27022204880343553,1.3256727810502384,0.9404333815119011,0.2878298,0.6617896673565161
0.0285,1.77969375,1.0,2653.9011387636615,0.2743155287480746,1.325266769969714,0.9420303015644859,0.2878001375,0.6626324245965215
0.029,1.778975,1.0,2662.6320775729273,0.2783860470945303,1.3248617559485973,0.9435547552820275,0.28776995,0.6634720648022767
0.029500000000000002,1.7782437500000001,1.0,2670.692321210643,0.28243373174989017,1.3244573912382613,0.9450110583217803,0.2877392375,0.6643093152769828
0.03,1.7775,1.0,2678.1166621653865,0.28645871062124184,1.3240533280900801,0.9464032085442091,0.287708,0.6651448997249454
0.0305,1.77674375,1.0,2684.940347840732,0.2904611116156729,1.323649218755427,0.9477349134508846,0.2876762375,0.665979538262123
0.031,1.775975,1.0,2691.19903604574,0.29444106264027087,1.3232447154856755,0.9490096149289315,0.28764395,0.6668139474189565
0.0315,1.7751937500000001,1.0,2696.921303850368,0.29839868673578146,1.3228395386513736,0.950230518568146,0.2876111375,0.6676486998831896
0.032,1.7744,1.0,2702.1439262313625,0.302334115376364,1.3224333364768037,0.9514006001130182,0.2875778,0.6684845138024116
0.0325,1.77359375,1.0,2706.89083984141,0.30624747155061915,1.3220258770912425,0.9525226422861904,0.2875439375,0.6693218574094897
0.033,1.772775,1.0,2711.184727972465,0.3101388771891158,1.3216169420781503,0.9535992399373007,0.28750955,0.670161168904017
0.0335,1.7719437500000002,1.0,2715.048469584058,0.31400845422242296,1.321206313020987,0.9546328138091399,0.2874746375,0.6710028841692083
0.034,1.7711000000000001,1.0,2718.5051196402696,0.3178563245811095,1.3207937715032128,0.9556256242938627,0.2874392,0.6718474367498232
0.0345,1.7702437500000001,1.0,2721.5778905051084,0.3216826101957445,1.3203790991082875,0.9565797839474142,0.2874032375,0.6726952578270474
0.035,1.7693750000000001,1.0,2724.2901343950334,0.3254874329968968,1.3199620774196714,0.9574972688873353,0.28736675,0.6735467761903322
0.035500000000000004,1.76849375,1.0,2726.659168074914,0.32927090915234936,1.3195425440312472,0.9583799337087001,0.2873297375,0.6744023040626227
0.036000000000000004,1.7676,1.0,2728.707166103661,0.3330331606866445,1.3191202932718726,0.9592295130512504,0.2872922,0.6752622398663075
0.0365,1.76669375,1.0,2730.462951153979,0.3367743171464808,1.3186950599041527,0.9600476292284705,0.2872541375,0.6761271007419914
0.037,1.765775,1.0,2731.9398650192356,0.34049449343532695,1.3182667201423448,0.9608358156381471,0.28721555,0.6769971136793188
0.0375,1.76484375,1.0,2733.1513085242245,0.3441938044566515,1.3178351502007062,0.9615955124780156,0.2871764375,0.6778725041355056
0.038,1.7639,1.0,2734.110734727303,0.34787236511392294,1.3174002262934943,0.9623280734401062,0.28713679999999997,0.6787534960103272
0.0385,1.76294375,1.0,2734.831642462438,0.35153029031060995,1.316961824634966,0.9630347718535719,0.28709663750000003,0.679640311620131
0.039,1.761975,1.0,2735.327570220383,0.35516769495018097,1.316519821439379,0.9637168063269418,0.28705595,0.6805331716708662
0.0395,1.7609937500000001,1.0,2735.6120903706474,0.35878469393610474,1.3160740929209904,0.964375305935561,0.2870147375,0.6814322952301439
0.04,1.76,1.0,2735.6988037222673,0.3623814021718497,1.3156245152940576,0.9650113349953608,0.286973,0.6823378996983138
0.0405,1.7589937500000001,1.0,2735.601334424714,0.3659579345608845,1.315170964772838,0.9656258974599974,0.2869307375,0.6832502007785667
0.041,1.757975,1.0,2735.333325208525,0.36951440600667773,1.3147133175715886,0.9662199409747307,0.28688795,0.68416941244606
0.0415,1.75694375,1.0,2734.903617721646,0.3730509243925108,1.3142514936300334,0.9667943631427542,0.2868446375,0.6850956592834602
0.042,1.7559,1.0,2734.3239402157083,0.3765676049035161,1.3137853867828622,0.9673500113687261,0.28680079999999997,0.6860291168416123
0.0425,1.75484375,1.0,2733.609320987829,0.38006456762028346,1.313314860964292,0.9678876853717331,0.2867564375,0.686970018810352
0.043000000000000003,1.753775,1.0,2732.7666053871326,0.38354191985963154,1.3128398544707127,0.9684081459145409,0.28671155,0.6879184485164008
0.043500000000000004,1.75269375,1.0,2731.8026439209584,0.38699976893837906,1.3123603055985145,0.9689121133511288,0.28666613750000003,0.6888744881581718
0.044,1.7516,1.0,2730.7242907029954,0.3904382221733447,1.3118761526440872,0.9694002701727001,0.2866202,0.6898382187880168
0.0445,1.75049375,1.0,2729.538401987696,0.39385738688134714,1.3113873339038205,0.9698732633689123,0.2865737375,0.6908097202942303
0.045,1.7493750000000001,1.0,2728.251834787701,0.3972573703792051,1.3108937876741047,0.9703317066194234,0.28652675,0.6917890713828084
0.0455,1.74824375,1.0,2726.8714455761647,0.4006382799837373,1.3103954522513297,0.9707761823294934,0.2864792375,0.6927763495589685
0.046,1.7471,1.0,2725.4040890739593,0.4040002230117623,1.3098922659318855,0.9712072435221436,0.2864312,0.6937716311084234
0.0465,1.7459437500000001,1.0,2723.856617120437,0.40734330678009895,1.309384167012162,0.9716254155982638,0.28638263750000004,0.6947749910784141
0.047,1.744775,1.0,2722.2358776291953,0.4106676386055658,1.3088710937885488,0.9720311979750605,0.28633355,0.6957865032584997
0.0475,1.74359375,1.0,2720.5473891325255,0.4139733225554567,1.308352996616393,0.9724250660554142,0.28628393750000003,0.696806216446718
0.048,1.7424,1.0,2718.792089875727,0.4172604524269041,1.3078298675290432,0.9728074738422106,0.2862338,0.6978340964829456
0.0485,1.74119375,1.0,2716.984392838351,0.42052915568714444,1.3073015758103816,0.9731788491899829,0.2861831375,0.6988703491851285
0.049,1.739975,1.0,2715.127498778316,0.42377953190253664,1.3067680927714658,0.9735396031628496,0.28613195,0.6999149784992262
0.0495,1.73874375,1.0,2713.224605578224,0.42701168063943973,1.3062293897233528,0.9738901274772506,0.2860802375,0.7009679874670374
0.05,1.7375,1.0,2711.2789079656764,0.4302257014642126,1.3056854379771,0.9742307955847083,0.286028,0.7020293782166729
0.0505,1.73624375,1.0,2709.2935972519713,0.4334216939432143,1.3051362088437641,0.9745619636845807,0.2859752375,0.7030991519529808
0.051000000000000004,1.734975,1.0,2707.2718610891416,0.4365997576428037,1.3045816736344027,0.9748839716719118,0.28592195,0.7041773089479152
0.051500000000000004,1.73369375,1.0,2705.2168832449174,0.43975999212933986,1.3040218036600728,0.9751971440250813,0.2858681375,0.7052638485308551
0.052000000000000005,1.7324,1.0,2703.1318433962006,0.44290249696918177,1.303456570231832,0.9755017906375741,0.2858138,0.7063587690788689
0.0525,1.73109375,1.0,2701.019916941111,0.4460273717286883,1.302885944660737,0.9757982075978436,0.28575893750000003,0.707462068006929
0.053,1.729775,1.0,2698.8842748284674,0.4491347159742185,1.3023098982578454,0.9760866779209284,0.28570355000000003,0.7085737417580713
0.0535,1.72844375,1.0,2696.728083406231,0.45222462927213136,1.3017284023342142,0.9763674722352036,0.2856476375,0.7096937857935032
0.054,1.7271,1.0,2694.5545042878744,0.45529721118878586,1.3011414282009006,0.976640849427368,0.2855912,0.7108221945826589
0.0545,1.7257437500000001,1.0,2692.366466082997,0.45835255793108926,1.3005489492570492,0.9769070570454661,0.2855342375,0.7119589575908281
0.055,1.724375,1.0,2690.1656606920506,0.46139074684214565,1.2999509501830246,0.9771663309474572,0.28547675,0.7131040417228975
0.0555,1.72299375,1.0,2687.9563582929363,0.46441190882277383,1.2993473920191745,0.9774189007453875,0.2854187375,0.714257458199358
0.056,1.7216,1.0,2685.7396495613375,0.467416135239807,1.2987382648773658,0.977664984367999,0.2853602,0.7154191616647348
0.0565,1.72019375,1.0,2683.5166234343114,0.4704035174600783,1.2981235588694657,0.9779047907031916,0.28530113749999997,0.7165891060172328
0.057,1.718775,1.0,2681.288367094702,0.4733741468504208,1.297503264107341,0.9781385200445264,0.28524155,0.7177672444052223
0.0575,1.71734375,1.0,2679.0559659572036,0.4763281147776676,1.2968773707028587,0.9783663645121813,0.2851814375,0.7189535292237164
0.058,1.7159,1.0,2676.8205036575982,0.47926551260865197,1.296245868767886,0.9785885084500109,0.2851208,0.7201479121108434
0.0585,1.71444375,1.0,2674.5830620435095,0.482186431710207,1.2956087484142895,0.9788051288002498,0.2850596375,0.7213503439443154
0.059000000000000004,1.7129750000000001,1.0,2672.3447211671,0.4850909634491657,1.294965999753937,0.9790163954572838,0.28499795,0.7225607748378843
0.059500000000000004,1.71149375,1.0,2670.106559280909,0.4879791991923613,1.2943176128986946,0.9792224716018099,0.2849357375,0.7237791541378003
0.06,1.71,1.0,2667.869652834754,0.4908512303066269,1.29366357796043,0.9794235140166241,0.284873,0.7250054304192554
0.0605,1.7084937500000001,1.0,2665.635076475515,0.4937071481587957,1.2930038850510097,0.979619673385173,0.2848097375,0.7262395514828275
0.061,1.7069750000000001,1.0,2663.403903048727,0.4965470441157007,1.2923385242823011,0.9798110945739432,0.28474595,0.7274814643509134
0.0615,1.7054437500000001,1.0,2661.177203602444,0.49937100954417524,1.2916674857661712,0.9799979168996731,0.2846816375,0.7287311152641592
0.062,1.7039,1.0,2658.9560473937495,0.5021791358110522,1.2909907596144867,0.9801802743823156,0.2846168,0.7299884496778827
0.0625,1.70234375,1.0,2656.74150189624,0.504971514283165,1.290308335939115,0.9803582959846143,0.2845514375,0.7312534122584884
0.063,1.7007752484173833,1.0,2654.548054960344,0.5077482323566335,1.2896201933276017,0.9805321049478314,0.2844855604335301,0.7325259681660798
0.0635,1.6992027404917365,1.0,2652.7621730706924,0.5105093758646698,1.2889264917953325,0.9807018290927142,0.28441951510065294,0.7338057472539594
0.064,1.6976302325660895,1.0,2651.5368847591394,0.5132550314670413,1.2882276255786234,0.9808676035107172,0.28435346976777576,0.7350919510628473
0.0645,1.6960577246404427,1.0,2650.828918454527,0.5159852857957836,1.2875239902119204,0.9810295585221881,0.2842874244348986,0.7363837852443096
0.065,1.6944852167147957,1.0,2650.5952787251385,0.5187002254641443,1.2868159803696542,0.9811878197866647,0.2842213791020214,0.7376804636626089
0.0655,1.692912708789149,1.0,2650.7970876738377,0.5213999363612218,1.2861039540652384,0.9813425066899976,0.28415533376914426,0.738981273814528
0.066,1.6913402008635021,1.0,2651.3954765956637,0.5240845046049075,1.2853882702238149,0.9814937345265957,0.2840892884362671,0.7402855077125601
0.0665,1.6897676929378551,1.0,2652.3610548505385,0.5267540144484809,1.2846692010894123,0.9816416102628948,0.2840232431033899,0.7415926210175885
0.067,1.6881951850122083,1.0,2653.6644907776135,0.5294085501452215,1.2839470189060602,0.9817862371996703,0.28395719777051276,0.7429020741529384
0.0675,1.6866226770865613,1.0,2655.2767130204097,0.5320481958856988,1.2832219938816778,0.9819277150287814,0.2838911524376356,0.7442133360385423
0.068,1.6850501691609145,1.0,2657.1713853084757,0.5346730352823766,1.2824943712272256,0.9820661388572189,0.2838251071047584,0.7455259254621633
0.0685,1.6834776612352675,1.0,2659.3232336238193,0.5372831519349058,1.2817643864625539,0.9822016001569448,0.28375906177188126,0.7468393830401168
0.069,1.6819051533096208,1.0,2661.7127417705124,0.539878627783126,1.2810322220931905,0.9823341847685786,0.2836930164390041,0.7481533486778178
0.0695,1.6803326453839738,1.0,2664.320391381876,0.5424595447668766,1.2802980606246641,0.9824639757049358,0.2836269711061269,0.7494674655932785
0.07,1.678760137458327,1.0,2667.1284403150594,0.5450259839071194,1.2795620681319395,0.982591052447005,0.28356092577324976,0.750781409635819
0.07050000000000001,1.67718762953268,1.0,2670.123598554543,0.5475780241319198,1.2788243696426294,0.9827154898745795,0.2834948804403725,0.7520949326957602
0.07100000000000001,1.6756151216070332,1.0,2673.276047587571,0.5501157536842886,1.2780852418999782,0.9828373679808637,0.2834288351074954,0.7534075198897661
0.07150000000000001,1.6740426136813862,1.0,2676.5757362084487,0.5526392508347638,1.2773447796917334,0.9829567553396612,0.2833627897746182,0.7547189833473975
0.07200000000000001,1.6724701057557394,1.0,2680.012600168455,0.5551485938538836,1.276603077805642,0.9830737183412286,0.283296744441741,0.7560291369529526
0.0725,1.6708975978300926,1.0,2683.576559470755,0.557643861012186,1.2758602310294513,0.9831883212786088,0.2832306991088639,0.7573377963532453
0.073,1.6693250899044456,1.0,2687.2575158643854,0.560125130580209,1.2751163341509082,0.9833006264300341,0.2831646537759867,0.7586447789648145
0.0735,1.6677525819787988,1.0,2691.0453505382256,0.5625924808284907,1.2743714819577598,0.9834106941375977,0.2830986084431095,0.7599499039805571
0.074,1.6661800740531518,1.0,2694.9299220135226,0.565045990027569,1.2736257692377535,0.9835185828823886,0.2830325631102324,0.7612529923757898
