Time [s],Phi [rad],STIM [ ],Fsee [N],Gamma [ ],Lcerel [ ],q [ ],Lmtc [m],fisomrel [ ]
0.0,1.8,1.0,17.96830038034999,1.0004527831461445e-05,1.3793396182557256,0.005000026675809066,0.288653,0.5411398406301033
0.0005,1.79999375,1.0,18.277528198756922,0.005619157719136268,1.3793023006974463,0.012940524779218816,0.2886527375,0.5412301169822196
0.001,1.799975,1.0,21.619088502915716,0.011196847995960886,1.3789382299102504,0.03560859440071024,0.28865195,0.5421103887515505
0.0015,1.79994375,1.0,31.069851281748175,0.016743251841238163,1.3780461513097066,0.07060172752211137,0.2886506375,0.5442637355864746
0.002,1.7999,1.0,53.58276763404633,0.02225854474625339,1.3763681070478901,0.11471786258358113,0.2886488,0.5483005357053187
0.0025,1.79984375,1.0,97.11894609856388,0.027742901218200722,1.3739351668522757,0.16457470330164253,0.28864643749999996,0.5541214636197729
0.003,1.7997750000000001,1.0,160.95798735744037,0.03319649478790688,1.3712143504737606,0.21728025946574264,0.28864354999999997,0.5605864349564542
0.0035,1.79969375,1.0,237.68301324993794,0.0386194980094182,1.368584744037425,0.2706126958614454,0.2886401375,0.5667898165269958
0.004,1.7996,1.0,321.46637235384554,0.044012082470783864,1.3661561029637592,0.32291561588570705,0.2886362,0.5724799370612021
0.0045000000000000005,1.7994937500000001,1.0,409.267313297761,0.04937441879924028,1.3639228244361745,0.37303433204881226,0.2886317375,0.5776791385663179
0.005,1.799375,1.0,499.41302649380157,0.054706676652295484,1.3618583524973478,0.4202472975886803,0.28862675,0.5824570558925549
0.0055,1.79924375,1.0,590.7899223087421,0.06000902476523858,1.3599388447057603,0.4641735482149225,0.2886212375,0.5868750895149317
0.006,1.7991000000000001,1.0,682.5175928501864,0.06528163089419566,1.3581464241174153,0.5046798254437598,0.2886152,0.5909793969767492
0.006500000000000001,1.79894375,1.0,773.8808070406534,0.07052466187182665,1.356467261313077,0.5418006358855338,0.2886086375,0.5948057768238344
0.007,1.798775,1.0,864.2853139778052,0.0757382835908873,1.3548904030281608,0.5756766694534795,0.28860155,0.598382658923819
0.0075,1.79859375,1.0,953.2428127908638,0.08092266101397755,1.3534067853838538,0.6065098150178565,0.2885939375,0.6017335588158503
0.008,1.7984,1.0,1040.3426386127703,0.08607795769609722,1.3520088792039056,0.6345321020109443,0.2885858,0.6048780260255429
0.0085,1.79819375,1.0,1125.3121159672787,0.09120433787354482,1.3506892713902452,0.6599843694133389,0.2885771375,0.6078349328181727
0.009000000000000001,1.797975,1.0,1207.9002583448232,0.09630196355376201,1.3494420339880315,0.6831041199052673,0.28856795,0.6106194670991946
0.0095,1.79774375,1.0,1287.894542895372,0.10137099512951561,1.348262092876361,0.7041173964668996,0.2885582375,0.6132446258462276
0.01,1.7975,1.0,1365.1679319538412,0.1064115929935725,1.34714437393433,0.7232341630011961,0.288548,0.615723162135657
0.0105,1.79724375,1.0,1439.6551663020273,0.11142391719726451,1.346084000616938,0.7406466336755164,0.2885372375,0.6180671700158653
0.011,1.796975,1.0,1511.315371234899,0.11640812659672026,1.3450766372327403,0.7565291196965049,0.28852595000000003,0.6202873547070911
0.0115,1.79669375,1.0,1580.1156428904708,0.12136437839146401,1.3441185472065573,0.7710385952843116,0.2885141375,0.6223929383560216
0.012,1.7964,1.0,1646.0553979724102,0.1262928292874172,1.343206183835112,0.7843155584271222,0.28850180000000003,0.6243925873001893
0.0125,1.79609375,1.0,1709.1708143678716,0.1311936357003641,1.3423360710952823,0.7964853056218826,0.2884889375,0.6262946888617533
0.013000000000000001,1.7957750000000001,1.0,1769.5000183494942,0.13606695271825253,1.3415051465391894,0.8076594897407087,0.28847555,0.6281066163496389
0.0135,1.79544375,1.0,1827.08321923276,0.1409129339623558,1.3407106873915013,0.8179374721595047,0.2884616375,0.6298349091110034
0.014,1.7951000000000001,1.0,1881.983083576024,0.1457317326336324,1.3399500303636878,0.8274075416381165,0.2884472,0.6314858955858667
0.0145,1.79474375,1.0,1934.2823008331807,0.1505235020007104,1.3392205673282,0.8361481583987563,0.2884322375,0.633065710145198
0.015,1.794375,1.0,1984.058335400557,0.15528839415289677,1.3385199870144822,0.8442291670188111,0.28841675,0.634579778034805
0.0155,1.79399375,1.0,2031.3736422796078,0.1600265587231236,1.3378463390390283,0.8517128168796261,0.2884007375,0.6360326887688965
0.016,1.7936,1.0,2076.306699823945,0.16473814534432282,1.337197673018332,0.8586545402489005,0.2883842,0.6374289837723919
0.0165,1.7931937500000001,1.0,2118.9484002122567,0.16942330342821924,1.3365720617080008,0.8651037672527264,0.2883671375,0.6387731099414085
0.017,1.792775,1.0,2159.3860187661835,0.17408218120640379,1.3359677506327534,0.8711046797302944,0.28834955,0.6400691024705614
0.0175,1.7923437500000001,1.0,2197.7192383724005,0.17871492789766755,1.335382976186153,0.8766967796341382,0.2883314375,0.6413209798613466
0.018000000000000002,1.7919,1.0,2234.0146063441343,0.18332168855939532,1.334816413393326,0.8819155555888402,0.2883128,0.6425317899312163
0.0185,1.79144375,1.0,2268.3469023351095,0.18790260824897181,1.3342667372793977,0.886792834100212,0.2882936375,0.6437045546829915
0.019,1.790975,1.0,2300.7984569667524,0.19245783202378192,1.3337326228694946,0.8913572037370565,0.28827395,0.6448422717877798
0.0195,1.79049375,1.0,2331.451616831634,0.19698750402393633,1.3332128129768661,0.8956344023841547,0.2882537375,0.6459477719006508
0.02,1.79,1.0,2360.3930724043225,0.20149176877886524,1.332706067915499,0.8996476293988086,0.288233,0.6470238277174981
0.0205,1.78949375,1.0,2387.702795291827,0.2059707696224369,1.3322112672768436,0.9034178523429606,0.2882117375,0.6480729397140103
0.021,1.788975,1.0,2413.4423708420295,0.21042464675162603,1.3317275147128975,0.9069640750588104,0.28818995000000003,0.6490971172908302
0.021500000000000002,1.78844375,1.0,2437.6772892475346,0.2148535403634074,1.3312539138756592,0.9103035051903775,0.2881676375,0.6500983563203361
0.022,1.7879,1.0,2460.4766227016876,0.21925759065475567,1.3307895684171258,0.9134517487139137,0.2881448,0.6510786397525882
0.0225,1.78734375,1.0,2481.9109676818753,0.22363693753578462,1.3303335986962859,0.9164229843480787,0.28812143749999997,0.6520399029730904
0.023,1.786775,1.0,2502.0400151457875,0.2279917187651755,1.3298852567213473,0.9192301352539802,0.28809755,0.6529837927228661
0.0235,1.78619375,1.0,2520.9479546615653,0.23232207569445917,1.3294435863142329,0.9218849380181939,0.28807313749999996,0.6539123834069407
0.024,1.7856,1.0,2538.6830649223198,0.2366281433657933,1.3290079940984079,0.9243981651256609,0.2880482,0.6548269764647385
0.0245,1.78499375,1.0,2555.2954515810834,0.2409100568213356,1.3285778866973372,0.9267796590969037,0.2880227375,0.6557288659869638
0.025,1.784375,1.0,2570.8368969208523,0.24516795110324374,1.3281526707344862,0.929038425523088,0.28799675,0.6566193389343875
0.025500000000000002,1.78374375,1.0,2585.3607173314667,0.24940196125367542,1.3277317528333195,0.9311827156631108,0.2879702375,0.6574996753341837
0.026000000000000002,1.7831000000000001,1.0,2598.9186419433427,0.25361222165706193,1.327314567438457,0.9332201041253789,0.2879432,0.6583710903781116
0.0265,1.78244375,1.0,2611.5563692737815,0.25779886512194317,1.3269006165894186,0.9351575596405632,0.2879156375,0.6592346520199552
0.027,1.781775,1.0,2623.3371791175205,0.26196202763348475,1.3264892491807656,0.9370014699613457,0.28788755,0.6600917416115433
0.0275,1.7810937500000001,1.0,2634.297511818369,0.26610183887186506,1.3260800726738655,0.9387577551574088,0.2878589375,0.6609431958067812
0.028,1.7804,1.0,2644.47458352838,0.2702184285172626,1.3256726945300854,0.9404318740978396,0.2878298,0.6617898470583983
0.0285,1.77969375,1.0,2653.9063197173305,0.2743119262498557,1.3252667222107932,0.9420288664319469,0.2878001375,0.6626325236678785
0.029,1.778975,1.0,2662.6312920987316,0.27838246174982273,1.3248617631773565,0.9435533902426456,0.28776995,0.6634720498255713
0.029500000000000002,1.7782437500000001,1.0,2670.688658971913,0.2824301646973422,1.3244574248911425,0.9450097558655837,0.2877392375,0.6643092456409714
0.03,1.7775,1.0,2678.114620465741,0.2864551619181882,1.324053346825549,0.9464019595847913,0.287708,0.6651448610049757
0.0305,1.77674375,1.0,2684.9453271355046,0.2904575844479486,1.3236491731215154,0.9477337095395152,0.2876762375,0.6659796324545898
0.031,1.775975,1.0,2691.2098406816176,0.2944375579692256,1.3232446165793272,0.9490084551662726,0.28764395,0.6668141513153181
0.0315,1.7751937500000001,1.0,2696.9362638597095,0.29839520688361476,1.3228394018518757,0.9502294030775152,0.2876111375,0.6676489815431224
0.032,1.7744,1.0,2702.1529990424947,0.3023306555927118,1.3224332535920513,0.9513995361725545,0.2875778,0.6684846842412115
0.0325,1.77359375,1.0,2706.8887186152274,0.30624402849811244,1.3220258964527456,0.9525216319857086,0.2875439375,0.6693218176460638
0.033,1.772775,1.0,2711.1723370524046,0.3101354500014124,1.3216170550868491,0.9535982793182588,0.28750955,0.6701609371086181
0.0335,1.7719437500000002,1.0,2715.023647355459,0.3140050369555164,1.3212065392458574,0.9546319010044475,0.2874746375,0.6710024207452152
0.034,1.7711000000000001,1.0,2718.468979304807,0.3178529152899788,1.3207941006699353,0.9556247553299989,0.2874392,0.6718467633143095
0.0345,1.7702437500000001,1.0,2721.5450300258603,0.3216792200020436,1.3203793982329337,0.9565789449890915,0.2874032375,0.6726946466450998
0.035,1.7693750000000001,1.0,2724.267878307927,0.32548406827957427,1.3199622799128503,0.9574964527968471,0.28736675,0.6735463629877896
0.035500000000000004,1.76849375,1.0,2726.653707939946,0.32926757731043443,1.3195425936876832,0.9583791350629413,0.2873297375,0.6744022028678195
0.036000000000000004,1.7676,1.0,2728.7187970818595,0.3330298642824877,1.3191201875354308,0.9592287311137538,0.2872922,0.6752624550617075
0.0365,1.76669375,1.0,2730.4795081492684,0.3367710463835975,1.3186949094340905,0.9600468719939891,0.2872541375,0.6761274065714186
0.037,1.765775,1.0,2731.952278209342,0.3404912408016276,1.318266607361661,0.960835088426883,0.28721555,0.6769973425972524
0.0375,1.76484375,1.0,2733.153609890365,0.34419056472444143,1.3178351292961397,0.9615948181037302,0.2871764375,0.6778725465092672
0.038,1.7639,1.0,2734.100062802646,0.3478691353399026,1.3174003232155247,0.9623274123660347,0.28713679999999997,0.6787532998172209
0.0385,1.76294375,1.0,2734.808245472371,0.3515270698358747,1.3169620370978143,0.9630341423370059,0.28709663750000003,0.6796398821390426
0.039,1.761975,1.0,2735.294807787663,0.35516448540022116,1.3165201189210065,0.9637162045532873,0.28705595,0.6805325711678314
0.0395,1.7609937500000001,1.0,2735.576433957309,0.3587814992208057,1.316074416663099,0.9643747261426162,0.2870147375,0.6814316426373777
0.04,1.76,1.0,2735.6631728696484,0.3623782198798108,1.3156248387989602,0.9650107734126739,0.286973,0.6823372485112577
0.0405,1.7589937500000001,1.0,2735.568502545885,0.3659547681146672,1.3151712628701184,0.9656253516943779,0.2869307375,0.6832496015971132
0.041,1.757975,1.0,2735.3061332728653,0.369511261655062,1.314713564472932,0.9662194091806153,0.28688795,0.6841689168901202
0.0415,1.75694375,1.0,2734.88471817598,0.3730478098937355,1.3142516652502632,0.9667938439408883,0.2868446375,0.685095315329836
0.042,1.7559,1.0,2734.312922112556,0.37656452222342784,1.3137854868449745,0.967349504779237,0.28680079999999997,0.6860289165990507
0.0425,1.75484375,1.0,2733.599419230806,0.38006150803687927,1.3133149508999282,0.9678871944374176,0.2867564375,0.6869698391026007
0.043000000000000003,1.753775,1.0,2732.7528906643956,0.38353887672683,1.312839979057987,0.9684076725583879,0.28671155,0.6879181999457853
0.043500000000000004,1.75269375,1.0,2731.7820223640506,0.38699673768602033,1.3123604929620132,0.968911658430271,0.28666613750000003,0.6888741149123984
0.044,1.7516,1.0,2730.695503064315,0.39043520030719037,1.3118764142548691,0.9693998335291044,0.2866202,0.6898376984423638
0.0445,1.75049375,1.0,2729.5020223872193,0.39385437398308043,1.3113876645794174,0.9698728438769816,0.2865737375,0.6908090636089805
0.045,1.7493750000000001,1.0,2728.2102690816264,0.3972543681064307,1.3108941655785202,0.9703313022306849,0.28652675,0.691788322095777
0.0455,1.74824375,1.0,2726.8289293987023,0.40063529206998144,1.31039583889504,0.9707757901145302,0.2864792375,0.692775584172973
0.046,1.7471,1.0,2725.3605100031477,0.4039972397032101,1.3098926623482994,0.9712068617493325,0.2864312,0.6937708476488613
0.0465,1.7459437500000001,1.0,2723.816154455976,0.40734033487507587,1.3093845351846627,0.9716250420072112,0.28638263750000004,0.6947742646319204
0.047,1.744775,1.0,2722.2026267245674,0.4106646872316765,1.3088713964306145,0.9720308307370563,0.28633355,0.6957859071014101
0.0475,1.74359375,1.0,2720.5239094774333,0.41397039840456723,1.3083532103889146,0.9724247040712561,0.28628393750000003,0.6968057960550056
0.048,1.7424,1.0,2718.7839830197872,0.4172575700253034,1.3078299413623224,0.9728071150705544,0.2862338,0.6978339515333838
0.0485,1.74119375,1.0,2716.986824835258,0.4205263037254402,1.3073015536535975,0.9731784950526812,0.2861831375,0.6988703926086899
0.049,1.739975,1.0,2715.1364091543287,0.42377670113653304,1.3067680115654994,0.9735392548326443,0.28613195,0.6999151373729262
0.0495,1.73874375,1.0,2713.2367065523244,0.4270088638901371,1.3062292794007875,0.9738897858813029,0.2860802375,0.7009682029262578
0.05,1.7375,1.0,2711.2916835748492,0.43022289361780774,1.3056853214622215,0.9742304614083072,0.286028,0.702029605365237
0.0505,1.73624375,1.0,2709.305302391854,0.4334188919511002,1.3051361020525607,0.974561637374974,0.2859752375,0.703099359770948
0.051000000000000004,1.734975,1.0,2707.2815204797103,0.4365969605215698,1.3045815854745648,0.9748836534422245,0.28592195,0.7041774801970675
0.051500000000000004,1.73369375,1.0,2705.22429033185,0.43975720096077187,1.3040217360309931,0.9751968338582799,0.2858681375,0.7052639796578479
0.052000000000000005,1.7324,1.0,2703.13755919705,0.4428997149002616,1.3034565180246054,0.975501488290448,0.2858138,0.7063588701160152
0.0525,1.73109375,1.0,2701.0252688470046,0.44602460397159427,1.302885895758161,0.9757979126049753,0.28575893750000003,0.707462162470588
0.053,1.729777379190213,1.0,2699.0081063127955,0.44913196711868114,1.3023098407962224,0.9760863897742481,0.28570364992598896,0.7085738525438862
0.0535,1.728460091502144,1.0,2697.505778863506,0.4522219015583988,1.3017286710993154,0.9763672116211823,0.28564832384309,0.7096932686117383
0.054,1.727142803814075,1.0,2696.523681689416,0.45529450418044287,1.3011427474751927,0.9766406598954477,0.28559299776019115,0.7108196608516976
0.0545,1.7258255161260059,1.0,2696.023531089352,0.4583498715581559,1.3005524174636611,0.9769070034086809,0.28553767167729227,0.7119523098110625
0.055,1.724508228437937,1.0,2695.9671936652444,0.4613881002648804,1.2999580286045282,0.9771664995362367,0.28548234559439334,0.7130905008790976
0.0555,1.723190940749868,1.0,2696.316653707704,0.46440928687395905,1.2993599284376012,0.9774193948091251,0.28542701951149446,0.7142335243808493
0.056,1.721873653061799,1.0,2697.039820298269,0.46741352662195085,1.2987584111278572,0.9776659222185667,0.2853716934285956,0.7153807773608363
0.0565,1.7205563653737301,1.0,2698.1015586215985,0.4704009160834413,1.2981537992635037,0.9779063068980842,0.28531636734569665,0.7165316070941912
0.057,1.7192390776856612,1.0,2699.47781573545,0.47337154874971815,1.2975463145149309,0.9781407586903157,0.2852610412627978,0.7176855571383349
0.0575,1.717921789997592,1.0,2701.144640354963,0.47632551809316864,1.2969361779260846,0.9783694788898831,0.28520571517989884,0.7188421755058948
0.058,1.716604502309523,1.0,2703.0781008169997,0.4792629175861801,1.2963236105409102,0.9785926607017323,0.28515038909699997,0.7200010135076499
0.0585,1.7152872146214542,1.0,2705.2549731661225,0.48218384041777324,1.295708827007226,0.9788104892557474,0.2850950630141011,0.721161637850799
0.059000000000000004,1.7139699269333852,1.0,2707.6541707745373,0.4850883793009234,1.2950920224400815,0.9790231412567689,0.28503973693120216,0.7223236552685666
0.059500000000000004,1.7126526392453163,1.0,2710.2556070812498,0.48797662688238697,1.294473382750941,0.9792307859887387,0.2849844108483033,0.723486692765363
0.06,1.7113353515572474,1.0,2713.0443340241827,0.49084867363316703,1.2938530468647158,0.9794335834461967,0.2849290847654044,0.7246504682663366
0.0605,1.7100180638691782,1.0,2716.005392432236,0.49370461002426697,1.293231153706317,0.9796316874734672,0.2848737586825055,0.7258147018369333
0.061,1.7087007761811093,1.0,2719.123807014464,0.49654452652669,1.2926078422006557,0.9798252460520379,0.2848184325996066,0.7269791156973092
0.0615,1.7073834884930403,1.0,2722.389282834589,0.4993685099477692,1.2919832084860206,0.9800143990272222,0.28476310651670766,0.7281435139101055
0.062,1.7060662008049714,1.0,2725.785592119376,0.5021766523716794,1.2913574025451737,0.9801992842300703,0.2847077804338088,0.7293076019838316
0.0625,1.7047489131169025,1.0,2729.294586991486,0.5049690482825697,1.2907305915315388,0.980380035444506,0.2846524543509099,0.7304710559557448
0.063,1.7034316254288335,1.0,2732.90900293031,0.5077457837076308,1.2901028433732606,0.9805567757881425,0.284597128268011,0.731633738095502
0.0635,1.7021143377407644,1.0,2736.621561763521,0.510506944674053,1.2894742259984833,0.9807296238784108,0.2845418021851121,0.7327955117429179
0.064,1.7007970500526954,1.0,2740.4249703060655,0.5132526172090269,1.2888448073353516,0.9808986940320367,0.2844864761022132,0.7339562413118739
0.0645,1.6994797623646265,1.0,2744.3119191026753,0.5159828873397431,1.2882146553120097,0.9810640964542844,0.2844311500193143,0.7351157922939395
0.065,1.6981624746765576,1.0,2748.2750812724576,0.518697841093392,1.2875838378566022,0.9812259374185603,0.2843758239364154,0.7362740312616949
0.0655,1.6968451869884886,1.0,2752.307111454891,0.5213975644971642,1.2869524228972735,0.9813843194369389,0.28432049785351654,0.7374308258717612
0.066,1.6955278993004197,1.0,2756.4006448592922,0.5240821435782503,1.286320478362168,0.9815393414221254,0.2842651717706176,0.7385860448675361
0.0665,1.6942106116123505,1.0,2760.5482964160788,0.5267516643638408,1.2856880721794302,0.9816910988413456,0.28420984568771873,0.7397395580816349
0.067,1.6928933239242816,1.0,2764.745383711318,0.5294062076952358,1.2850552476782755,0.9818396823270549,0.28415451960481986,0.740891281157771
0.0675,1.6915760362362127,1.0,2768.9876071094527,0.5320458570342805,1.28442204461327,0.9819851794070733,0.2840991935219209,0.7420411369196656
0.068,1.6902587485481437,1.0,2773.2648369878693,0.5346707079452465,1.2837885551989991,0.9821276779148246,0.28404386743902205,0.7431889538841346
0.0685,1.6889414608600748,1.0,2777.5744782696074,0.5372808406124391,1.2831548034809008,0.9822672585015773,0.28398854135612317,0.744334685158458
0.069,1.6876241731720056,1.0,2781.913928080303,0.5398763352201631,1.2825208135044128,0.9824039991136232,0.28393321527322424,0.7454782842372603
0.0695,1.6863068854839367,1.0,2786.2805756149883,0.5424572719527238,1.2818866093149728,0.9825379751023046,0.2838778891903253,0.7466197050028951
0.07,1.6849895977958678,1.0,2790.6718020172825,0.5450237309944262,1.2812522149580186,0.9826692593288482,0.28382256310742643,0.7477589017257925
0.07050000000000001,1.6836723101077988,1.0,2795.084980271567,0.5475757925295756,1.2806176544789876,0.9827979222642872,0.28376723702452755,0.748895829064769
0.07100000000000001,1.68235502241973,1.0,2799.517475108042,0.5501135367424769,1.279982951923318,0.9829240320847313,0.2837119109416286,0.7500304420672993
0.07150000000000001,1.681037734731661,1.0,2803.9666429207778,0.5526370438174354,1.2793481313364472,0.9830476547622312,0.28365658485872974,0.7511626961697546
0.07200000000000001,1.679720447043592,1.0,2808.429831698039,0.5551463939387561,1.2787132167638129,0.983168854151469,0.28360125877583087,0.7522925471976016
0.0725,1.6784031593555229,1.0,2812.904380965944,0.557641667290744,1.278078232250853,0.9832876920724954,0.28354593269293193,0.7534199513655633
0.073,1.677085871667454,1.0,2817.3876217449947,0.5601229440577046,1.2774432018430053,0.9834042283897134,0.28349060661003306,0.7545448652777469
