Time [s],Phi [rad],STIM [ ],Fsee [N],Gamma [ ],Lcerel [ ],q [ ],Lmtc [m],fisomrel [ ]
0.0,1.8,1.0,17.967458962959235,1.3912601942171228e-05,1.3793397125207203,0.005000051453047781,0.288653,0.5411396125787541
0.0005,1.79999375,1.0,18.278081501862605,0.00562304387204358,1.3793022392380245,0.012951379684303772,0.2886527375,0.5412302656537641
0.001,1.799975,1.0,21.622600582516203,0.01120071235062258,1.3789378712234444,0.0356289674515941,0.28865195,0.5421112555887893
0.0015,1.79994375,1.0,31.079551463328702,0.01674709451992773,1.37804532496022,0.0706296166330468,0.2886506375,0.5442657279200307
0.002,1.7999,1.0,53.60479953391817,0.02226236587055017,1.3763666778837176,0.11475089296560885,0.2886488,0.5483039661312946
0.0025,1.79984375,1.0,97.15672438474564,0.027746700909014075,1.3739333465839085,0.16461063753755117,0.28864643749999996,0.5541258045681077
0.003,1.7997750000000001,1.0,161.0075547074539,0.03320027316545857,1.3712124952624596,0.21731733081201998,0.28864354999999997,0.5605908270440638
0.0035,1.79969375,1.0,237.7392521066362,0.03862325519325658,1.368583011833169,0.27064956738565726,0.2886401375,0.56679388835456
0.004,1.7996,1.0,321.5263544516264,0.044015818579790096,1.366154514340208,0.3229513176143218,0.2886362,0.5724836467738723
0.0045000000000000005,1.7994937500000001,1.0,409.3295321446692,0.04937813395163672,1.3639213639774044,0.3730682223536788,0.2886317375,0.5776825281914081
0.005,1.799375,1.0,499.4765936162437,0.05471037096566597,1.3618570017436091,0.42027900442131993,0.28862675,0.5824601731158343
0.0055,1.79924375,1.0,590.854124718319,0.06001269835636178,1.3599375903799231,0.4642029035906391,0.2886212375,0.5868779688504295
0.006,1.7991000000000001,1.0,682.5819386216609,0.06528528387934926,1.3581452545096866,0.5047068024437894,0.2886152,0.5909820684699995
0.006500000000000001,1.79894375,1.0,773.9472462617346,0.07052829436795212,1.3564661271759926,0.5418252752175995,0.2886086375,0.5948083551535366
0.007,1.798775,1.0,864.3511571275621,0.07574189570915034,1.3548893394702597,0.5756991213745086,0.28860155,0.5983850661044732
0.0075,1.79859375,1.0,953.3062995121871,0.08092625287462808,1.3534058089085215,0.6065302468638796,0.2885939375,0.6017357596610766
0.008,1.7984,1.0,1040.4209885383566,0.08608152988945456,1.3520077256720548,0.6345505265204022,0.2885858,0.604880615647919
0.0085,1.79819375,1.0,1125.3797742905983,0.09120788981127953,1.3506883136106422,0.6600011777838996,0.2885771375,0.6078370749264154
0.009000000000000001,1.797975,1.0,1207.945886456485,0.09630549499145782,1.3494414105400325,0.6831195467947067,0.28856795,0.6106208565044402
0.0095,1.79774375,1.0,1287.9370786632428,0.10137450677613542,1.3482615300195602,0.7041314389511903,0.2885582375,0.61324587598353
0.01,1.7975,1.0,1365.2155654970993,0.1064150851735652,1.3471437617200734,0.7232469056846257,0.288548,0.6157245175345564
0.0105,1.79724375,1.0,1439.6948105013814,0.11142738953503845,1.3460835044420278,0.7406582898911624,0.2885372375,0.6180682651566483
0.011,1.796975,1.0,1511.3576294602417,0.11641157966725063,1.3450761210326845,0.7565397391772914,0.28852595000000003,0.6202884907303448
0.0115,1.79669375,1.0,1580.16339445181,0.12136781243624412,1.3441179767438787,0.7710482692279317,0.2885141375,0.6223941903115414
0.012,1.7964,1.0,1646.1026204960265,0.12629624417608348,1.3432056311074092,0.7843244143790213,0.28850180000000003,0.624393797117873
0.0125,1.79609375,1.0,1709.2063172285375,0.13119703110689335,1.3423356632872865,0.7964934797955372,0.2884889375,0.6262955792144567
0.013000000000000001,1.7957750000000001,1.0,1769.5270302541567,0.13607032867101948,1.3415048415983137,0.8076670350302432,0.28847555,0.6281072805003529
0.0135,1.79544375,1.0,1827.118377763798,0.14091629141072595,1.3407102967873579,0.817944380644998,0.2884616375,0.6298357578541789
0.014,1.7951000000000001,1.0,1882.0260636873013,0.14573507182324666,1.3399495598799938,0.8274138777431885,0.2884472,0.6314869156167046
0.0145,1.79474375,1.0,1934.3198488226271,0.1505268224058154,1.3392201619017965,0.8361540278396792,0.2884322375,0.6330665872427264
0.015,1.794375,1.0,1984.0701494037633,0.15529169443805263,1.3385198610620386,0.8442346861057277,0.28841675,0.6345800499570731
0.0155,1.79399375,1.0,2031.386682470282,0.16002984064829637,1.3378462016425139,0.8517179268533661,0.2884007375,0.6360329848077992
0.016,1.7936,1.0,2076.3350499377593,0.1647414098039955,1.3371973775608788,0.8586592334676123,0.2883842,0.6374296191519968
0.0165,1.7931937500000001,1.0,2118.987081920057,0.16942655019884514,1.3365716626547568,0.8651080969692104,0.2883671375,0.638773966510882
0.017,1.792775,1.0,2159.4271049391655,0.17408541012654052,1.335967330761772,0.8711087019932697,0.28834955,0.6400700021071748
0.0175,1.7923437500000001,1.0,2197.7439997437955,0.1787181371476946,1.3353827253588875,0.8767005728789182,0.2883314375,0.6413215163611131
0.018000000000000002,1.7919,1.0,2234.0309117179495,0.1833248789992101,1.334816249570527,0.8819191189157499,0.2883128,0.6425321397433885
0.0185,1.79144375,1.0,2268.368210661426,0.18790578147761858,1.3342665248175467,0.8867961533395596,0.2882936375,0.6437050076096953
0.019,1.790975,1.0,2300.826203543638,0.19246098838407957,1.3337323481710557,0.8913602958639437,0.28827395,0.6448428564548254
0.0195,1.79049375,1.0,2331.481741467021,0.19699064351975257,1.3332125167021636,0.8956372956869889,0.2882537375,0.6459484015083239
0.02,1.79,1.0,2360.4176704686206,0.20149489068579712,1.3327058274819796,0.8996503574509164,0.288233,0.6470243378811582
0.0205,1.78949375,1.0,2387.683059815157,0.20597387141276058,1.3322114590755887,0.9034205124106452,0.2882117375,0.6480725333509836
0.021,1.788975,1.0,2413.4282679122934,0.21042773079346086,1.331727651038959,0.9069665675771504,0.28818995000000003,0.6490968288781078
0.021500000000000002,1.7884445206854793,1.0,2437.7198505122687,0.21485660819944652,1.331253852561041,0.9103058133974724,0.2881676698687901,0.650098485852896
0.022,1.7879114101201792,1.0,2461.011504532672,0.21926064258067732,1.330789600878976,0.9134539465511234,0.2881452792250475,0.6510785712701781
0.0225,1.787378299554879,1.0,2483.460532044947,0.2236399728871131,1.3303344332299054,0.9164252222144604,0.2881228885813049,0.6520381448427206
0.023,1.786845188989579,1.0,2505.102751342277,0.2279947380687136,1.3298878868509705,0.9192326063234371,0.2881004979375623,0.6529782592761522
0.0235,1.7863120784242787,1.0,2525.973913951867,0.2323250766681931,1.3294495124330683,0.9218879122635802,0.2880781072938197,0.6538999322627984
0.024,1.7857789678589786,1.0,2546.0998786580417,0.23663112611585427,1.32901896551929,0.9244019357280138,0.2880557166500771,0.654803955129516
0.0245,1.7852458572936785,1.0,2565.505696990641,0.2409130222418569,1.3285959185924305,0.9267845413049703,0.28803332600633447,0.6556910787129999
0.025,1.7847127467283785,1.0,2584.2173007589,0.24517089996621413,1.3281800444572838,0.929044753203384,0.2880109353625919,0.656562048533212
0.025500000000000002,1.7841796361630784,1.0,2602.2613204806867,0.24940489409901406,1.3277710174294006,0.9311908389458603,0.28798854471884927,0.657417602465866
0.026000000000000002,1.7836465255977783,1.0,2619.6505296651894,0.2536151293478339,1.3273686478894666,0.9332304002958487,0.2879661540751067,0.6582581899841277
0.0265,1.783113415032478,1.0,2636.4369378880215,0.2578017570311442,1.3269723886285336,0.9351703753776759,0.2879437634313641,0.6590850034265026
0.027,1.782580304467178,1.0,2652.6392582373255,0.26196490593682636,1.3265820088331148,0.9370171850030783,0.2879213727876215,0.6598985698549977
0.0275,1.7820471939018778,1.0,2668.2767461368294,0.26610470485276194,1.326197277689723,0.9387767422557652,0.2878989821438789,0.6606994133539978
0.028,1.7815140833365777,1.0,2683.369169847989,0.2702212825668324,1.3258179643848718,0.9404544993596747,0.2878765915001362,0.6614880551151099
0.0285,1.7809809727712775,1.0,2697.936782154247,0.2743147678669193,1.3254438381050737,0.942055489654808,0.2878542008563937,0.6622650135186179
0.029,1.7804478622059774,1.0,2712.000293225113,0.278385289540904,1.3250746680368426,0.943584365244477,0.28783181021265103,0.6630308042115325
0.029500000000000002,1.7799147516406773,1.0,2725.5808446632864,0.28243297637666814,1.324710223366691,0.9450454308074759,0.28780941956890843,0.6637859401822501
0.03,1.779381641075377,1.0,2738.6999847309717,0.28645795716209316,1.3243502732811325,0.946442674007642,0.28778702892516583,0.6645309318318069
0.0305,1.778848530510077,1.0,2751.3796447588466,0.29046036068506054,1.32399458696668,0.9477797928803167,0.28776463828142324,0.6652662870417424
0.031,1.7783154199447768,1.0,2763.640375784218,0.29444031408895055,1.3236429493363866,0.9490602219983935,0.28774224763768064,0.665992478778205
0.0315,1.7777823093794767,1.0,2775.494342677226,0.2983979378526905,1.323295223821096,0.9502871608917758,0.287719856993938,0.66670981586246
0.032,1.7772491988141765,1.0,2786.9713963950394,0.3023333701077843,1.322951116860542,0.9514635721733209,0.28769746635019544,0.6674189289493897
0.0325,1.7767160882488764,1.0,2798.084252643539,0.3062467319850459,1.3226104919678854,0.9525922282973701,0.2876750757064528,0.6681201226793334
0.033,1.7761829776835762,1.0,2808.845830806748,0.31013814461528905,1.3222732126562875,0.9536757134109335,0.2876526850627102,0.66881370026848
0.0335,1.775649867118276,1.0,2819.2692436158577,0.3140077291293277,1.3219391424389093,0.9547164384180588,0.2876302944189676,0.6694999635385832
0.034,1.775116756552976,1.0,2829.367787231785,0.31785560665797563,1.3216081448289119,0.9557166546683018,0.287607903775225,0.67017921294549
0.0345,1.7745836459876758,1.0,2839.1549317405747,0.32168189833204675,1.3212800833394562,0.9566784664095421,0.2875855131314824,0.6708517476064798
0.035,1.7740505354223757,1.0,2848.6443120617473,0.3254867252823549,1.3209548214837032,0.9576038421297148,0.28756312248773974,0.6715178653264164
0.035500000000000004,1.7735174248570755,1.0,2857.849719270018,0.3292702086397139,1.3206322227748144,0.9584946248982483,0.2875407318439972,0.6721778626227098
0.036000000000000004,1.7729843142917754,1.0,2866.7850923291885,0.3330324695349377,1.3203121507259503,0.9593525418058575,0.28751834120025455,0.6728320347490947
0.0365,1.7724512037264752,1.0,2875.461989436839,0.33677362527548627,1.3199944911742967,0.9601792139848617,0.28749595055651195,0.6734806301597671
0.037,1.771918093161175,1.0,2883.889149042748,0.34049379073076874,1.3196791559338599,0.9609761650814171,0.28747355991276935,0.6741238433080833
0.0375,1.771384982595875,1.0,2892.0859415508853,0.3441930978777947,1.3193659637743724,0.9617448208903637,0.28745116926902675,0.674762057342048
0.038,1.7708518720305748,1.0,2900.0600513136346,0.34787166018753973,1.3190548378281568,0.9624865278091773,0.28742877862528415,0.67539544151291
0.0385,1.7703187614652747,1.0,2907.8192397667867,0.3515295911309797,1.3187457012275356,0.9632025524788177,0.2874063879815415,0.6760241643780822
0.039,1.7697856508999745,1.0,2915.3713419738133,0.3551670041790903,1.3184384771048312,0.9638940873797147,0.28738399733779896,0.6766483938110839
0.0395,1.7692525403346744,1.0,2922.72426330031,0.3587840128028473,1.318133088592366,0.9645622559769614,0.2873616066940563,0.6772682970111025
0.04,1.7687194297693742,1.0,2929.885976221061,0.3623807304732264,1.317829458822463,0.9652081174554772,0.2873392160503137,0.677884040512182
0.0405,1.768186319204074,1.0,2936.8645172564816,0.3659572706612033,1.317527510927444,0.9658326710818427,0.2873168254065711,0.6784957901920342
0.041,1.767653208638774,1.0,2943.6679840408815,0.3695137468377539,1.3172271680396321,0.9664368602258773,0.2872944347628285,0.6791037112804688
0.0415,1.7671200980734738,1.0,2950.304532521798,0.3730502724738538,1.3169283532913494,0.9670215760717954,0.2872720441190859,0.6797079683674542
0.042,1.7665869875081737,1.0,2956.782374289853,0.3765669610404788,1.3166309898149187,0.9675876610458846,0.28724965347534326,0.6803087254107936
0.0425,1.7660538769428735,1.0,2963.1086409780805,0.38006392292612273,1.3163350106274487,0.9681359122956531,0.2872272628316007,0.680906125801441
0.043000000000000003,1.7655207663775734,1.0,2969.285429532117,0.3835412570533501,1.3160403930233446,0.9686670860675537,0.28720487218785806,0.6815002231430162
0.043500000000000004,1.7649876558122732,1.0,2975.327389124304,0.38699909817836886,1.3157470052198557,0.9691818954787627,0.28718248154411546,0.6820912904805244
0.044,1.764454545246973,1.0,2981.2387268705756,0.39043755165902183,1.3154548068818361,0.9696810188950653,0.28716009090037287,0.6826794158646157
0.0445,1.763921434681673,1.0,2987.02367791429,0.3938567228531521,1.315163757674141,0.9701650995347862,0.28713770025663027,0.683264687017587
0.045,1.7633883241163728,1.0,2992.6865043807434,0.39725671711860266,1.314873817261625,0.9706347476351813,0.28711530961288767,0.6838471913363928
0.0455,1.7628552135510727,1.0,2998.2314943672372,0.4006376398132165,1.3145849453091427,0.9710905424648933,0.287092918969145,0.6844270158955474
0.046,1.7623221029857725,1.0,3003.6629609699417,0.40399959629483645,1.314297101481549,0.9715330341948065,0.2870705283254025,0.6850042474499264
0.0465,1.7617889924204724,1.0,3008.985241345868,0.4073426919213057,1.3140102454436984,0.9719627456385331,0.2870481376816598,0.6855789724374627
0.047,1.7612558818551722,1.0,3014.2026958120778,0.410667032050467,1.3137243368604457,0.9723801738727784,0.2870257470379172,0.6861512769817399
0.0475,1.760722771289872,1.0,3019.319706979905,0.4139727220401635,1.3134393353966454,0.9727857917469376,0.2870033563941746,0.6867212468944811
0.048,1.760189660724572,1.0,3024.3406789256846,0.41725986724823816,1.3131552007171525,0.9731800492904708,0.286980965750432,0.6872889676779335
0.0485,1.7596565501592718,1.0,3029.270036397979,0.4205285730325339,1.3128718924868217,0.9735633750258674,0.28695857510668943,0.6878545245271515
0.049,1.7591234395939717,1.0,3034.1122240598997,0.4237789447508936,1.3125893703705074,0.9739361771943578,0.2869361844629468,0.688418002332174
0.0495,1.7585903290286715,1.0,3038.8703552667284,0.42701108056173626,1.312307605666995,0.9742988448348736,0.28691379381920423,0.6889794625081276
0.05,1.7580572184633714,1.0,3043.5451190193967,0.4302250693574387,1.3120265906672108,0.9746517492691684,0.2868914031754616,0.689538924478944
0.0505,1.7575241078980712,1.0,3048.145512905456,0.43342104607338583,1.3117462462525462,0.9749952453210005,0.286869012531719,0.6900965495773177
0.051000000000000004,1.756990997332771,1.0,3052.673630083175,0.4365991073390923,1.3114665529146872,0.9753296711548448,0.2868466218879764,0.6906523801512832
0.051500000000000004,1.756457886767471,1.0,3057.131573323389,0.43975934978407283,1.3111874911453207,0.9756553496970989,0.2868242312442338,0.691206458401406
0.052000000000000005,1.7559247762021708,1.0,3061.5214547323512,0.44290187003784204,1.310909041436133,0.9759725894561816,0.2868018406004912,0.6917588263815845
0.0525,1.7553916656368707,1.0,3065.84539548254,0.4460267647299146,1.3106311842788112,0.9762816852915854,0.28677944995674853,0.6923095259998191
0.053,1.7548585550715705,1.0,3070.1055255526285,0.44913413048980516,1.3103539001650413,0.9765829191354735,0.286757059313006,0.6928585990189655
0.0535,1.7543254445062704,1.0,3074.3039834745045,0.4522240639470284,1.3100771695865099,0.9768765606701375,0.28673466866926334,0.6934060870574579
0.054,1.7537923339409702,1.0,3078.4429160907803,0.455296661731099,1.3098009730349038,0.9771628679643667,0.28671227802552074,0.693952031590009
0.0545,1.75325922337567,1.0,3082.5244783185462,0.4583520204715316,1.3095252910019095,0.9774420880715529,0.28668988738177814,0.6944964739482884
0.055,1.75272611281037,1.0,3086.5508329233407,0.4613902367978409,1.3092501039792137,0.97771445759213,0.28666749673803554,0.6950394553215737
0.0555,1.7521930022450698,1.0,3090.52415030037,0.4644114073395415,1.3089753924585028,0.9779802032027632,0.28664510609429295,0.6955810167573794
0.056,1.7516598916797697,1.0,3094.4466082648314,0.4674156287261481,1.3087011369314634,0.9782395421545054,0.2866227154505503,0.6961211991620596
0.0565,1.7511267811144695,1.0,3098.320391850709,0.4704029975871754,1.3084273178897818,0.9784926827419885,0.28660032480680775,0.6966600433013886
0.057,1.7505936705491694,1.0,3102.147693116852,0.473373610552138,1.3081539158251452,0.9787398247455533,0.2865779341630651,0.697197589801114
0.0575,1.7500605599838692,1.0,3105.930710963732,0.47632756425055056,1.3078809112292396,0.978981159848088,0.2865555435193225,0.6977338791474909
0.058,1.749527449418569,1.0,3109.6671727615144,0.4792649040975345,1.3076083227295845,0.9792168697672039,0.2865331528755799,0.6982688768733795
0.0585,1.748994338853269,1.0,3113.36312202646,0.4821857816523315,1.307336098141018,0.979447134113237,0.2865107622318373,0.6988026874344851
0.059000000000000004,1.7484612282879688,1.0,3117.020486480193,0.48509029606498366,1.3070642204188094,0.9796721228563878,0.2864883715880947,0.699335346105194
0.059500000000000004,1.7479281177226687,1.0,3120.6401918074757,0.48797853425226884,1.306792681083472,0.9798919987640455,0.28646598094435205,0.6998668712806602
0.06,1.7473950071573685,1.0,3124.223166782711,0.4908505831309647,1.3065214716555191,0.9801069182934856,0.2864435903006095,0.7003972812950727
0.0605,1.7468618965920684,1.0,3127.7703432061053,0.4937065296178492,1.3062505836554639,0.9803170318852399,0.28642119965686685,0.7009265944218359
0.061,1.7463287860267682,1.0,3131.2826558434226,0.4965464606297001,1.3059800086038194,0.9805224842406499,0.28639880901312426,0.7014548288737457
0.0615,1.745795675461468,1.0,3134.761042365791,0.49937046308329514,1.3057097380210991,0.9807234145845679,0.28637641836938166,0.7019820028031599
0.062,1.745262564896168,1.0,3138.206443291737,0.5021786238954121,1.305439763427816,0.9809199569141088,0.28635402772563906,0.7025081343021675
0.0625,1.7447294543308678,1.0,3141.6198019309477,0.5049710299828287,1.3051700763444836,0.981112240234295,0.28633163708189646,0.7030332414027489
0.063,1.7441963437655676,1.0,3145.002064329075,0.5077477682623229,1.3049006682916147,0.9813003887813723,0.2863092464381538,0.7035573420769349
0.0635,1.7436632332002675,1.0,3148.3541792150386,0.5105089256506724,1.3046315307897227,0.9814845222345343,0.28628685579441127,0.7040804542369586
0.064,1.7431301226349674,1.0,3151.6770979485573,0.5132545890646549,1.304362655359321,0.9816647559167372,0.2862644651506686,0.7046025957354055
0.0645,1.7425970120696672,1.0,3154.9717744709596,0.5159848454210484,1.3040940335209228,0.9818412009852403,0.286242074506926,0.7051237843653568
0.065,1.742063901504367,1.0,3158.239165256009,0.5186997816366304,1.303825656795041,0.9820139646124708,0.2862196838631834,0.7056440378605291
0.0655,1.7415307909390672,1.0,3161.4802292634818,0.521399484628179,1.3035575167021891,0.9821831501577715,0.2861972932194408,0.7061633738954087
0.066,1.7409976803737668,1.0,3164.695927893564,0.5240840413124718,1.3032896047628804,0.9823488573305523,0.2861749025756982,0.7066818100853821
0.0665,1.7404645698084669,1.0,3167.8872249434085,0.5267535386062866,1.3030219124976277,0.9825111823453341,0.2861525119319556,0.7071993639868626
0.067,1.7399314592431667,1.0,3171.055086564898,0.5294080634264011,1.3027544314269444,0.9826702180691419,0.286130121288213,0.7077160530974096
0.0675,1.7393983486778666,1.0,3174.2004812240707,0.5320477026895933,1.302487153071344,0.9828260541616798,0.28610773064447037,0.708231894855846
0.068,1.7388652381125664,1.0,3177.32361536575,0.5346725222641815,1.3022200753903428,0.9829787761851373,0.2860853400007278,0.7087468942316821
0.0685,1.7383321275472663,1.0,3180.424448736732,0.5372825919537627,1.3019531984270925,0.9831284671500662,0.2860629493569852,0.7092610521672479
0.069,1.7377990169819661,1.0,3183.505232605021,0.5398780443515212,1.3016865029401856,0.983275210242213,0.2860405587132426,0.7097744067082952
0.0695,1.737265906416666,1.0,3186.566363871932,0.5424589566452602,1.301419985327316,0.9834190831677772,0.2860181680695,0.7102869657056141
0.07,1.7367327958513659,1.0,3189.6082404749627,0.5450254060227828,1.3011536419861771,0.9835601610559584,0.2859957774257574,0.7107987369848898
