Time [s],Phi [rad],STIM [ ],Fsee [N],Gamma [ ],Lcerel [ ],q [ ],Lmtc [m],fisomrel [ ]
0.0,1.8,1.0,17.978693890295233,0.0001112898378676401,1.3793384540403646,0.005003238743006205,0.288653,0.5411426571628386
0.0005,1.79999375,1.0,18.321544695879595,0.005719874898709374,1.3792974143663612,0.013224106988178039,0.2886527375,0.5412419370376049
0.001,1.799975,1.0,21.738472796675982,0.011297000231793947,1.3789260535480365,0.03613834316932286,0.28865195,0.5421398148676995
0.0015,1.79994375,1.0,31.350533478683907,0.016842842302255325,1.378022292151328,0.07132562136015759,0.2886506375,0.544321258407704
0.002,1.7999,1.0,54.185010670328914,0.022357576583445882,1.3763291459314342,0.11557438664346148,0.2886488,0.5483940494978231
0.0025,1.79984375,1.0,98.12863277060143,0.02784137756515249,1.3738866382679087,0.16550603805588782,0.28864643749999996,0.5542371866222003
0.003,1.7997750000000001,1.0,162.26988381153575,0.03329441876040037,1.3711653445672187,0.21824076873651996,0.28864354999999997,0.5607024457662557
0.0035,1.79969375,1.0,239.16426128845578,0.03871687270579236,1.368539188514561,0.27156782553437586,0.2886401375,0.5668968958196074
0.004,1.7996,1.0,323.0416531393779,0.044108910972070495,1.366114430755856,0.3238403001056937,0.2886362,0.5725772435979452
0.0045000000000000005,1.7994937500000001,1.0,410.89811751887834,0.0494707041693672,1.3638845812834985,0.3739120015576237,0.2886317375,0.5777678938269546
0.005,1.799375,1.0,501.0767366321036,0.05480242193884159,1.3618230281729469,0.4210683557142404,0.28862675,0.5825385723334149
0.0055,1.79924375,1.0,592.4679151330863,0.060104232994595774,1.3599060840271295,0.4649336791043362,0.2886212375,0.5869502891589821
0.006,1.7991000000000001,1.0,684.1969066883325,0.06537630508001625,1.3581159174039017,0.5053783568356948,0.2886152,0.5910490743047254
0.006500000000000001,1.79894375,1.0,775.5498039484839,0.07061880499890714,1.3564387857772455,0.5424393129786766,0.2886086375,0.5948705101838103
0.007,1.798775,1.0,865.937912045256,0.07583189866818321,1.3548637210148067,0.5762586552239308,0.28860155,0.598443046898997
0.0075,1.79859375,1.0,954.8698816955334,0.08101575098809267,1.3533817700473019,0.6070391053758046,0.2885939375,0.6017899381321297
0.008,1.7984,1.0,1041.9441171744502,0.08617052584425443,1.351985309546555,0.6350129497986886,0.2885858,0.6049309370644638
0.0085,1.79819375,1.0,1126.8750487512057,0.09129638683125695,1.350667153664761,0.6604211814145459,0.2885771375,0.6078843984077007
0.009000000000000001,1.797975,1.0,1209.400530366831,0.09639349562001293,1.3494215409162966,0.683501229301975,0.28856795,0.6106651363000026
0.0095,1.79774375,1.0,1289.3394562635576,0.10146201343240888,1.3482429781856111,0.7044786366271838,0.2885582375,0.6132870795421428
0.01,1.7975,1.0,1366.580693223573,0.10650210112040683,1.3471262208341561,0.7235629788325565,0.288548,0.61576335079527
0.0105,1.79724375,1.0,1441.0335671667083,0.11151391806243598,1.3460667529737869,0.7409463398765804,0.2885372375,0.6181052375197067
0.011,1.796975,1.0,1512.6381306069954,0.11649762238070774,1.345060482652451,0.7568028198493143,0.28852595000000003,0.6203229059682958
0.0115,1.79669375,1.0,1581.3766051870543,0.12145337166980692,1.3441034860464594,0.7712889849876736,0.2885141375,0.6224259913605681
0.012,1.7964,1.0,1647.277243591951,0.1263813238260885,1.3431918849913698,0.7845449010700536,0.28850180000000003,0.6244238841711429
0.0125,1.79609375,1.0,1710.3534865470333,0.13128163429352052,1.3423224884638585,0.7966957356820092,0.2884889375,0.6263243427675749
0.013000000000000001,1.7957750000000001,1.0,1770.6292172357453,0.13615445744115653,1.3414924008517473,0.8078529710747885,0.28847555,0.6281343755118289
0.0135,1.79544375,1.0,1828.1599763542251,0.1409999476380501,1.3406987265428572,0.8181156836539593,0.2884616375,0.6298608983803426
0.014,1.7951000000000001,1.0,1883.0111230083705,0.1458182582289355,1.3399387783566028,0.8275719660270283,0.2884472,0.6315102900810602
0.0145,1.79474375,1.0,1935.2728653709144,0.15060954286643094,1.339209872972267,0.8363000871316668,0.2884322375,0.6330888459124314
0.015,1.794375,1.0,1985.0023621653547,0.15537395210854527,1.3385099236589528,0.8443698231630579,0.28841675,0.6346015037768173
0.0155,1.79399375,1.0,2032.27064400098,0.1601116362730521,1.3378368889083805,0.8518432599549469,0.2884007375,0.6360530500405185
0.016,1.7936,1.0,2077.163686508014,0.16482274553255052,1.3371887426187192,0.8587756910989872,0.2883842,0.6374481883010432
0.0165,1.7931937500000001,1.0,2119.770186869534,0.1695074290017152,1.3365635846691906,0.8652164553968901,0.2883671375,0.6387913057226551
0.017,1.792775,1.0,2160.1872965468965,0.17416583632144042,1.3359595628737178,0.8712096195119886,0.28834955,0.6400866457707286
0.0175,1.7923437500000001,1.0,2198.482926822588,0.17879811354813344,1.3353752408396584,0.876794699100372,0.2883314375,0.6413375249736644
0.018000000000000002,1.7919,1.0,2234.7343902228276,0.18340440673820146,1.3348091821743702,0.8820070779343854,0.2883128,0.6425472306496474
0.0185,1.79144375,1.0,2269.027616230529,0.18798486194805178,1.3342599504852106,0.886878490424465,0.2882936375,0.6437190226454865
0.019,1.790975,1.0,2301.4415192382758,0.19253962351743495,1.3337262568087698,0.8914374799110223,0.28827395,0.6448558211620123
0.0195,1.79049375,1.0,2332.0753265505277,0.19706883820159837,1.3332066792046608,0.8957096980576837,0.2882537375,0.6459608065478388
0.02,1.79,1.0,2360.9978336592794,0.20157264827592816,1.3327001570461943,0.89971834538947,0.288233,0.6470363695836661
0.0205,1.78949375,1.0,2388.275298341362,0.20605119506833197,1.3322057037649861,0.9034843797277136,0.2882117375,0.6480847269962062
0.021,1.788975,1.0,2413.9784709916935,0.21050461990671746,1.3317223327926524,0.9070267486780783,0.28818995000000003,0.6491080801230893
0.021500000000000002,1.78844375,1.0,2438.1822179409205,0.21493306411899224,1.3312490575608087,0.9103626100242097,0.2881676375,0.6501086156411864
0.022,1.7879,1.0,2460.9558560967603,0.2193366673119873,1.3307849806254946,0.9135075427644321,0.2881448,0.6510883182161709
0.0225,1.78734375,1.0,2482.3758017188693,0.22371557123501767,1.3303291680011637,0.9164756925023947,0.28812143749999997,0.6520492371417697
0.023,1.786775,1.0,2502.5041662297995,0.228069914398531,1.3298808503663653,0.9192799585476746,0.28809755,0.6529930630151906
0.0235,1.78619375,1.0,2521.3944667004935,0.23239983303090028,1.3294393633307602,0.9219321117911352,0.28807313749999996,0.6539212560211205
0.024,1.7856,1.0,2539.1023478282277,0.2367054633604986,1.3290040425040095,0.9244428920217593,0.2880482,0.6548352679082268
0.0245,1.78499375,1.0,2555.6854030554096,0.24098694161569903,1.3285742234957743,0.926822112449772,0.2880227375,0.6557365422645057
0.025,1.784375,1.0,2571.2030054749894,0.24524440402487463,1.3281492419157153,0.9290787523677768,0.28799675,0.6566265147644814
0.025500000000000002,1.78374375,1.0,2585.7041737922223,0.24947798339651417,1.3277285452047527,0.931221056522752,0.2879702375,0.6575063796491594
0.026000000000000002,1.7831000000000001,1.0,2599.253763890423,0.2536878186123835,1.3273114458193738,0.9332565702407817,0.2879432,0.6583776066187218
0.0265,1.78244375,1.0,2611.89470131918,0.25787404174367645,1.326897472703743,0.9351922571368706,0.2879156375,0.6592412064410255
0.027,1.781775,1.0,2623.666531790734,0.262036783495556,1.3264861956107445,0.9370345284465074,0.28788755,0.6600980997309396
0.0275,1.7810937500000001,1.0,2634.609697024472,0.26617617457318493,1.3260771842932628,0.9387892889076844,0.2878589375,0.6609492024342396
0.028,1.7804,1.0,2644.7654572308425,0.2702923456817261,1.3256700085041822,0.9404619834723038,0.2878298,0.6617954258956822
0.0285,1.77969375,1.0,2654.175817699116,0.27438542752634243,1.325264237996387,0.9420576391440914,0.2878001375,0.6626376769152733
0.029,1.778975,1.0,2662.8831756295044,0.2784555506413837,1.3248594451350182,0.9435809028062094,0.28776995,0.6634768523806381
0.029500000000000002,1.7782437500000001,1.0,2670.92193922922,0.28250284013032984,1.3244552812886705,0.9450360834372401,0.2877392375,0.6643136812624034
0.03,1.7775,1.0,2678.34072498936,0.28652743231855704,1.3240512720415842,0.9464271599920405,0.287708,0.6651491488782881
0.0305,1.77674375,1.0,2685.16640371549,0.2905294518859551,1.32364714705615,0.9477578453430464,0.2876762375,0.6659838144209658
0.031,1.775975,1.0,2691.4262064357445,0.2945090235124137,1.3232426359947584,0.9490315863059409,0.28764395,0.6668182342957911
0.0315,1.7751937500000001,1.0,2697.14769206882,0.2984662718778226,1.3228374685198,0.9502515860216227,0.2876111375,0.6676529621164766
0.032,1.7744,1.0,2702.3587167121486,0.30240132166207145,1.3224313742936655,0.9514208241943767,0.2875778,0.6684885486961039
0.0325,1.77359375,1.0,2707.087404550716,0.3063142975450501,1.3220240829787455,0.9525420754146681,0.2875439375,0.6693255420334758
0.033,1.772775,1.0,2711.362120386001,0.3102053242066481,1.3216153242374304,0.9536179257683912,0.28750955,0.6701644872948103
0.0335,1.7719437500000002,1.0,2715.2079797228625,0.31407452319586115,1.3212048593018795,0.9546507906653647,0.2874746375,0.6710058621200887
0.034,1.7711000000000001,1.0,2718.647412150579,0.3179220144878552,1.3207924755221405,0.9556429281076303,0.2874392,0.6718500881644671
0.0345,1.7702437500000001,1.0,2721.7156418414897,0.3217479322361126,1.3203778451955344,0.956596439477004,0.2874032375,0.6726978198592672
0.035,1.7693750000000001,1.0,2724.429262158459,0.3255523940885767,1.3199608116084012,0.9575133047512849,0.28736675,0.6735493591673891
0.035500000000000004,1.76849375,1.0,2726.8049729995705,0.3293355176931908,1.3195412180470818,0.9583953776118239,0.2873297375,0.6744050062786586
0.036000000000000004,1.7676,1.0,2728.859569806179,0.33309742069789805,1.3191189077979164,0.9592443949480569,0.2872922,0.6752650595850285
0.0365,1.76669375,1.0,2730.6099331155406,0.33683822075064185,1.3186937241472456,0.9600619855431464,0.2872541375,0.676129815654207
0.037,1.765775,1.0,2732.073018657565,0.3405580354993654,1.31826551038141,0.960849678019682,0.28721555,0.6769995692017239
0.0375,1.76484375,1.0,2733.265847996737,0.34425698259201204,1.31783410978675,0.9616089081160282,0.2871764375,0.6778746130614288
0.038,1.7639,1.0,2734.2054997179284,0.347935179676525,1.3173993656496064,0.9623410253564831,0.28713679999999997,0.6787552381544244
0.0385,1.76294375,1.0,2734.909101157281,0.3515927444008476,1.3169611212563193,0.9630472991718584,0.28709663750000003,0.6796417334564314
0.039,1.761975,1.0,2735.3938206767516,0.355229794412923,1.3165192198932292,0.9637289245212552,0.28705595,0.6805343859635894
0.0395,1.7609937500000001,1.0,2735.6654961685754,0.3588464364093415,1.3160736080274378,0.9643870343751787,0.2870147375,0.681433272667467
0.04,1.76,1.0,2735.7484578498807,0.36244279842496396,1.3156240644704775,0.9650226856856285,0.286973,0.6823388071656118
0.0405,1.7589937500000001,1.0,2735.653593251794,0.36601899289530904,1.3151704902921306,0.9656368833890457,0.2869307375,0.6832511544930422
0.041,1.757975,1.0,2735.389899702327,0.3695751301986188,1.3147128038820979,0.9662305772094916,0.28688795,0.6841704434715186
0.0415,1.75694375,1.0,2734.966388996197,0.37311132071313535,1.31425092363008,0.9668046642031424,0.2868446375,0.6850968016506431
0.042,1.7559,1.0,2734.3920846950095,0.3766276748171008,1.3137847679257775,0.9673599922191749,0.28680079999999997,0.6860303552862436
0.0425,1.75484375,1.0,2733.676019575039,0.3801243028887573,1.3133142551588912,0.9678973630989994,0.2867564375,0.686971229318333
0.043000000000000003,1.753775,1.0,2732.827233222417,0.383601315306347,1.3128393037191217,0.9684175356360846,0.28671155,0.6879195473486452
0.043500000000000004,1.75269375,1.0,2731.8547697767117,0.38705882244811196,1.31235983199617,0.9689212283165373,0.28666613750000003,0.6888754316177439
0.044,1.7516,1.0,2730.767675821085,0.3904969346922943,1.3118757583797362,0.9694091218587116,0.2866202,0.6898390029817104
0.0445,1.75049375,1.0,2729.574998421505,0.3939157624171362,1.3113870012595215,0.9698818615684396,0.2865737375,0.6908103808884019
0.045,1.7493750000000001,1.0,2728.2805781959314,0.39731540453266906,1.3108935263483161,0.9703400614963672,0.28652675,0.6917895895239441
0.0455,1.74824375,1.0,2726.8953083938177,0.4006959781087985,1.3103952352432928,0.9707843021593615,0.2864792375,0.6927767791398627
0.046,1.7471,1.0,2725.4294084241383,0.40405759898054916,1.309892035616223,0.9712151350342321,0.2864312,0.6937720862934746
0.0465,1.7459437500000001,1.0,2723.8873511203974,0.40740036990132233,1.3093838873632602,0.9716330860970995,0.28638263750000004,0.694775542857135
0.047,1.744775,1.0,2722.2736076808114,0.4107243936245191,1.3088707503805583,0.9720386553332353,0.28633355,0.6957871797173176
0.0475,1.74359375,1.0,2720.592647067099,0.41402977290354065,1.3083525845642714,0.9724323182628538,0.28628393750000003,0.6968070267619064
0.048,1.7424,1.0,2718.848935438012,0.41731661049178814,1.307829349810553,0.9728145273635346,0.2862338,0.6978351128673856
0.0485,1.74119375,1.0,2717.0469356200047,0.4205850091426628,1.3073010060155574,0.9731857133971697,0.2861831375,0.6988714658859259
0.049,1.739975,1.0,2715.1911066118823,0.42383507160956574,1.3067675130754381,0.9735462866486716,0.28613195,0.699916112632369
0.0495,1.73874375,1.0,2713.2859031263965,0.42706690064589814,1.3062288308863492,0.9738966380830619,0.2860802375,0.7009690788711089
0.05,1.7375,1.0,2711.3357751670637,0.4302805990050612,1.3056849193444442,0.9742371404270159,0.286028,0.702030389302872
0.0505,1.73624375,1.0,2709.345167640224,0.43347626944045614,1.3051357383458775,0.9745681491804267,0.2859752375,0.703100067551391
0.051000000000000004,1.734975,1.0,2707.318520003772,0.43665401470548404,1.3045812477868024,0.9748900035631095,0.28592195,0.7041781361499824
0.051500000000000004,1.73369375,1.0,2705.2602659502977,0.43981393755354603,1.304021407563373,0.9752030274013396,0.2858681375,0.705264616528015
0.052000000000000005,1.7324,1.0,2703.175154811293,0.4429561382271141,1.3034561746335491,0.9755075295009562,0.2858138,0.7063595346835871
0.0525,1.73109375,1.0,2701.0646707528263,0.44608071404522764,1.3028855357281537,0.975803806485783,0.28575893750000003,0.7074628579294303
0.053,1.729775,1.0,2698.931037608188,0.4491877633271584,1.3023094707996141,0.9760921415708951,0.28570355000000003,0.7085745658955908
0.0535,1.72844375,1.0,2696.7766300164412,0.45227738434375114,1.3017279583927037,0.9763728054895077,0.2856476375,0.7096946400643204
0.054,1.7271,1.0,2694.6056119642712,0.45534967513261526,1.3011409606510005,0.9766460562085016,0.2855912,0.7108230925325019
0.0545,1.7257437500000001,1.0,2692.417532736526,0.45840473279908533,1.300548481892646,0.9769121430632232,0.2855342375,0.7119598534184497
0.055,1.724375,1.0,2690.214339443474,0.4614426540203914,1.299950504490519,0.977171303410372,0.28547675,0.7131048943108518
0.0555,1.72299375,1.0,2688.002947135865,0.4644635348943479,1.2993469652860907,0.9774237618290654,0.2854187375,0.7142582728763011
0.056,1.721602537910799,1.0,2685.9027077126775,0.46746747102154873,1.2987379168904476,0.9776697402262632,0.28536030659225353,0.715419824655472
0.0565,1.720210503321647,1.0,2684.3364725941756,0.4704545574026858,1.29812360976392,0.9779094627170114,0.2853018411395092,0.71658900925169
0.057,1.7188184687324952,1.0,2683.3005652830952,0.4734248887094289,1.2975044447849289,0.9781431528171209,0.2852433756867648,0.7177650042513113
0.0575,1.7174264341433432,1.0,2682.7537815624396,0.47637855869026197,1.2968807969186344,0.9783710234037187,0.28518491023402043,0.7189470421586623
0.058,1.7160343995541911,1.0,2682.6658943104735,0.4793156582912687,1.2962529419348583,0.9785932729567317,0.285126444781276,0.7201345484532573
0.0585,1.714642364965039,1.0,2682.981611818645,0.482236285337688,1.2956213865432258,0.9788101055110245,0.2850679793285316,0.721326517277617
0.059000000000000004,1.713250330375887,1.0,2683.669411494894,0.4851405319384901,1.2949864203606838,0.9790217045753635,0.28500951387578727,0.7225223590650189
0.059500000000000004,1.711858295786735,1.0,2684.704586648951,0.4880284884660043,1.2943482711380534,0.9792282429470293,0.28495104842304286,0.7237216048406856
0.06,1.7104662611975832,1.0,2686.0624821462443,0.49090024529255977,1.2937071666261555,0.9794298867199237,0.2848925829702985,0.7249237891340425
0.0605,1.7090742266084311,1.0,2687.7184789092566,0.4937558927904857,1.293063334575811,0.9796267956027581,0.2848341175175541,0.7261284500232983
0.061,1.707682192019279,1.0,2689.6479795701,0.4965955213321114,1.2924170027378405,0.9798191232198431,0.2847756520648097,0.7273351291767147
0.0615,1.706290157430127,1.0,2691.8263952725233,0.49941922128976596,1.2917683988630655,0.9800070173955532,0.28471718661206535,0.7285433718905712
0.062,1.704898122840975,1.0,2694.2297232046617,0.5022270827553029,1.2911177453082736,0.9801906201193787,0.28465872115932095,0.7297527371384793
0.0625,1.703506088251823,1.0,2696.8429469381595,0.5050191925450486,1.2904651821327056,0.980370063593454,0.28460025570657654,0.7309629399509381
0.063,1.702114053662671,1.0,2699.6396691043656,0.5077956439108354,1.2898109533760471,0.9805454809877926,0.2845417902538322,0.732173505431335
0.0635,1.700722019073519,1.0,2702.6077787917316,0.5105565229229336,1.2891551722555783,0.9807169934093185,0.2844833248010878,0.7333842039472157
0.064,1.699329984484367,1.0,2705.7351546946293,0.5133019156516131,1.2884979519885786,0.9808847175780147,0.2844248593483434,0.7345948077117213
0.0645,1.697937949895215,1.0,2709.0096613584187,0.5160319081671437,1.2878394057923277,0.9810487660209133,0.28436639389559903,0.7358050907943869
0.065,1.696545915306063,1.0,2712.4191457089387,0.5187465865397956,1.2871796468841052,0.9812092472561751,0.28430792844285463,0.7370148291311245
0.0655,1.6951538807169109,1.0,2715.951433866521,0.5214460368398385,1.2865187884811906,0.981366265967838,0.2842494629901102,0.7382238005333889
0.066,1.6937618461277588,1.0,2719.59432824391,0.5241303451375426,1.2858569438008636,0.9815199231717634,0.2841909975373659,0.739431784696524
0.0665,1.692369811538607,1.0,2723.3398348872893,0.5267995932564852,1.285194187568197,0.9816703142090822,0.2841325320846215,0.7406386332184824
0.067,1.690977776949455,1.0,2727.176802385025,0.5294538680296668,1.2845306230682243,0.9818175328484723,0.2840740666318771,0.7418441471186482
0.0675,1.689585742360303,1.0,2731.0911813948464,0.5320932599187871,1.283866379671933,0.981961671142284,0.2840156011791327,0.743048081925861
0.068,1.6881937077711509,1.0,2735.077841761836,0.5347178500451965,1.283201505421913,0.9821028135334338,0.28395713572638837,0.7442503422409508
0.0685,1.6868016731819988,1.0,2739.131640688145,0.5373277195302453,1.2825360483607544,0.9822410416146917,0.28389867027364396,0.7454508334715862
0.069,1.685409638592847,1.0,2743.2474220868094,0.5399229494952839,1.2818700565310468,0.9823764342458503,0.28384020482089956,0.7466494618341342
0.0695,1.684017604003695,1.0,2747.4200159863735,0.5425036210616625,1.28120357797538,0.9825090676653132,0.2837817393681552,0.747846134355371
0.07,1.6826255694145429,1.0,2751.6442379868236,0.5450698153507317,1.280536660736344,0.9826390155964081,0.2837232739154108,0.749040758874048
0.07050000000000001,1.6812335348253908,1.0,2755.9148887667557,0.5476216134838416,1.2798693528565286,0.9827663493487073,0.2836648084626664,0.7502332440423084
0.07100000000000001,1.6798415002362388,1.0,2760.2267536420513,0.5501590965823427,1.2792017023785234,0.9828911379146215,0.28360634300992205,0.7514234993269594
0.07150000000000001,1.6784494656470867,1.0,2764.5746021744394,0.5526823457675853,1.2785337573449187,0.983013448061517,0.28354787755717764,0.752611435010593
0.07200000000000001,1.6770574310579347,1.0,2768.9531878333437,0.5551914421609199,1.2778655657983038,0.9831333444195933,0.28348941210443324,0.7537969621925654
0.0725,1.6756653964687829,1.0,2773.361705405934,0.5576864552224491,1.2771971355841385,0.9832508870781711,0.2834309466516889,0.7549800638518773
0.073,1.6742733618796308,1.0,2777.793582431278,0.5601674749702326,1.2765285264908268,0.9833661377386961,0.2833724811989445,0.7561606314949365
0.0735,1.6728813272904788,1.0,2782.243735252078,0.5626345864108405,1.2758597847147033,0.9834791552776662,0.2833140157462001,0.7573385815598136
