Time [s],Phi [rad],STIM [ ],Fsee [N],Gamma [ ],Lcerel [ ],q [ ],Lmtc [m],fisomrel [ ]
0.0,1.8,1.0,17.96783579027497,1.000391419801425e-05,1.3793396703040335,0.005000026672553256,0.288653,0.5411397147118213
0.0005,1.79999375,1.0,18.277106365486752,0.005619157108944989,1.3793023475541768,0.01294052401378653,0.2886527375,0.5412300036348549
0.001,1.799975,1.0,21.618691531981764,0.011196847389192155,1.3789382704545117,0.035608594257523205,0.28865195,0.5421102907683144
0.0015,1.79994375,1.0,31.069456289422376,0.01674325123787309,1.3780461849614702,0.07060172837144012,0.2886506375,0.5442636544517788
0.002,1.7999,1.0,53.58236310084454,0.02225854414627256,1.3763681332918762,0.11471786386967756,0.2886488,0.548300472711698
0.0025,1.79984375,1.0,97.11854621682956,0.0277429006215854,1.3739351861216411,0.16457470415130615,0.28864643749999996,0.55412141766637
0.003,1.7997750000000001,1.0,160.9576153599709,0.033196494194638056,1.3712143643979957,0.21728025946642077,0.28864354999999997,0.5605864019916839
0.0035,1.79969375,1.0,237.6826783966051,0.03861949741947701,1.368584754351804,0.2706126950809869,0.2886401375,0.566789792281315
0.004,1.7996,1.0,321.46607327825524,0.044012081884151705,1.366156110885136,0.32291561453867407,0.2886362,0.5724799185633671
0.0045000000000000005,1.7994937500000001,1.0,409.267045594327,0.04937441821589894,1.3639228307201987,0.37303433033577305,0.2886317375,0.5776791239814975
0.005,1.799375,1.0,499.4127879134151,0.054706676072229656,1.3618583575671643,0.4202472956347986,0.28862675,0.5824570441925837
0.0055,1.79924375,1.0,590.7897061823096,0.060009024188421016,1.359938848928349,0.4641735461705944,0.2886212375,0.5868750798218596
0.006,1.7991000000000001,1.0,682.5174002775029,0.06528163032061143,1.3581464276178756,0.5046798233363714,0.2886152,0.5909793889813577
0.006500000000000001,1.79894375,1.0,773.8806375916827,0.07052466130145968,1.356467264205683,0.5418006337498165,0.2886086375,0.5948057702478183
0.007,1.798775,1.0,864.2851515781585,0.07573828302372446,1.3548904056514364,0.5756766674737251,0.28860155,0.5983826529864762
0.0075,1.79859375,1.0,953.2426573167048,0.08092266045000485,1.3534067877752076,0.6065098131876216,0.2885939375,0.6017335534260503
0.008,1.7984,1.0,1040.3435765619536,0.08607795718396302,1.3520088653943916,0.6345320909976077,0.2885858,0.604878057027274
0.0085,1.79819375,1.0,1125.3134837767984,0.0912043373801134,1.3506892520270792,0.6599843557628576,0.2885771375,0.607834976124642
0.009000000000000001,1.797975,1.0,1207.9001068462337,0.09630196299737284,1.3494420360580799,0.6831041185798225,0.28856795,0.6106194624859171
0.0095,1.79774375,1.0,1287.8929837258513,0.10137099451178176,1.348262113508331,0.7041174050838188,0.2885582375,0.6132445800213978
0.01,1.7975,1.0,1365.1674289902408,0.10641159239938058,1.3471443803987704,0.723234164135775,0.288548,0.6157231478238323
0.0105,1.79724375,1.0,1439.6581129062658,0.11142391665621124,1.3460839637378879,0.7406466134265093,0.2885372375,0.6180672514141337
0.011,1.796975,1.0,1511.320548775265,0.11640812607755273,1.345076573986757,0.7565290877894356,0.28852595000000003,0.6202874938952878
0.0115,1.79669375,1.0,1580.1199988489848,0.12136437784225888,1.3441184951678649,0.7710385698032428,0.2885141375,0.6223930525618756
0.012,1.7964,1.0,1646.057332963885,0.12629282862597954,1.34320616118637,0.7843155466932221,0.28850180000000003,0.6243926368740926
0.0125,1.79609375,1.0,1709.1737421070552,0.1311936351051776,1.342336037465284,0.7964852899617331,0.2884889375,0.6262947622849735
0.013000000000000001,1.7957750000000001,1.0,1769.5059360713376,0.13606695223802084,1.3415050797330652,0.8076594616043686,0.28847555,0.6281067618511249
0.0135,1.79544375,1.0,1827.0902576761844,0.14091293353432635,1.3407106091955228,0.8179374408946953,0.2884616375,0.6298350790230094
0.014,1.7951000000000001,1.0,1881.9906937247886,0.14573173250391133,1.3399499470584657,0.8274075103460143,0.2884472,0.6314860761956198
0.0145,1.79474375,1.0,1934.2807175202818,0.1505235014752904,1.3392205844241911,0.836148163561564,0.2884322375,0.6330656731597903
0.015,1.794375,1.0,1984.0555105180886,0.15528839349430504,1.338520017131412,0.8442291762535842,0.28841675,0.6345797130145042
0.0155,1.79399375,1.0,2031.374285377601,0.16002655811594388,1.3378463322630876,0.8517128136894287,0.2884007375,0.6360327033685569
0.016,1.7936,1.0,2076.311177400238,0.16473814483220117,1.3371976263540717,0.8586545246905501,0.2883842,0.6374290841236603
0.0165,1.7931937500000001,1.0,2118.954611496842,0.1694233031185399,1.3365719976300967,0.8651037472680704,0.2883671375,0.6387732474849688
0.017,1.792775,1.0,2159.3888257987683,0.17408218074393078,1.335967721946783,0.8711046707077478,0.28834955,0.6400691639345956
0.0175,1.7923437500000001,1.0,2197.7201216599474,0.17871492736080868,1.3353829672386195,0.8766967764554876,0.2883314375,0.6413209989994231
0.018000000000000002,1.7919,1.0,2234.0146860816512,0.1833216880046018,1.3348164125921882,0.881915554742907,0.2883128,0.6425317916418929
0.0185,1.79144375,1.0,2268.346920921847,0.18790260771073844,1.3342667370940717,0.8867928334789733,0.2882936375,0.64370455507807
0.019,1.790975,1.0,2300.7987638912673,0.19245783151464688,1.333732619830852,0.8913572024557221,0.28827395,0.6448422782552171
0.0195,1.79049375,1.0,2331.4519060851935,0.19698750350209285,1.3332128101320586,0.8956344011938913,0.2882537375,0.6459477779460991
0.02,1.79,1.0,2360.393501176454,0.2014917682756308,1.3327060637244597,0.8996476279573662,0.288233,0.6470238366102545
0.0205,1.78949375,1.0,2387.703333109515,0.20597076913572912,1.3322112620500866,0.9034178507357509,0.2882117375,0.6480729507879105
0.021,1.788975,1.0,2413.442960366889,0.21042464627755786,1.3317275090142604,0.9069640734181058,0.28818995000000003,0.649097129346919
0.021500000000000002,1.78844375,1.0,2437.6778458267117,0.21485353989628703,1.3312539085223023,0.9103035036891578,0.2881676375,0.6500983676297774
0.022,1.7879,1.0,2460.4770339963393,0.21925759018708663,1.3307895644795331,0.913451747560478,0.2881448,0.6510786480594414
0.0225,1.78734375,1.0,2481.9113951616396,0.22363693710213284,1.3303335946214525,0.9164229832323065,0.28812143749999997,0.6520399115576208
0.023,1.786775,1.0,2502.0404730372984,0.22799171829437662,1.3298852523742153,0.919230134100376,0.28809755,0.6529838018686234
0.0235,1.78619375,1.0,2520.948498399518,0.23232207520976456,1.329443581171487,0.9218849367453313,0.28807313749999996,0.6539123942120721
0.024,1.7856,1.0,2538.6837132848896,0.23662814288316997,1.329007987987566,0.9243981637186683,0.2880482,0.6548269892869056
0.0245,1.78499375,1.0,2555.296186127449,0.24091005634946625,1.3285778797967507,0.9267796576003354,0.2880227375,0.6557288804472962
0.025,1.784375,1.0,2570.837661517685,0.24516795064352678,1.3281526635733394,0.929038424034564,0.28799675,0.6566193539213098
0.025500000000000002,1.78374375,1.0,2585.3614177588447,0.24940196080022495,1.3277317462916307,0.9311827143276383,0.2879702375,0.6574996890071372
0.026000000000000002,1.7831000000000001,1.0,2598.9194250460264,0.2536122212242582,1.3273145601437188,0.9332201027165752,0.2879432,0.6583711056056245
0.0265,1.78244375,1.0,2611.5573966147304,0.25779886461251195,1.3269006070427416,0.935157557877256,0.2879156375,0.6592346719231093
0.027,1.781775,1.0,2623.3382311494634,0.2619620271140602,1.3264892394266206,0.9370014682113219,0.28788755,0.6600917619216418
0.0275,1.7810937500000001,1.0,2634.2984444001386,0.266101838384893,1.3260800640452355,0.9387577536405837,0.2878589375,0.6609432137508136
0.028,1.7804,1.0,2644.4753287284975,0.2702184280810001,1.3256726876484672,0.9404318729015162,0.2878298,0.6617898613514792
0.0285,1.77969375,1.0,2653.906886489203,0.2743119258583716,1.3252667169861958,0.942028865524418,0.2878001375,0.66263253450581
0.029,1.778975,1.0,2662.6317668385605,0.2783824613729973,1.3248617588083016,0.9435533894853283,0.28776995,0.6634720588774774
0.029500000000000002,1.7782437500000001,1.0,2670.689205972778,0.2824301642808672,1.324457419864665,0.9450097550238471,0.2877392375,0.6643092560419785
0.03,1.7775,1.0,2678.114632636282,0.2864551615047582,1.3240533467138673,0.9464019594240407,0.287708,0.6651448612357848
0.0305,1.77674375,1.0,2684.9454870145805,0.29045758389927584,1.3236491716562673,0.947733709161575,0.2876762375,0.6659796354789924
0.031,1.775975,1.0,2691.2112182710366,0.29443755741346933,1.323244603968797,0.949008453373074,0.28764395,0.6668141773120394
0.0315,1.7751937500000001,1.0,2696.9393905656593,0.2983952063970173,1.3228393732602435,0.9502293993525742,0.2876111375,0.667649040411139
0.032,1.7744,1.0,2702.1578649687904,0.30233065519959823,1.3224332091393924,0.9513995306226563,0.2875778,0.6684847756507424
0.0325,1.77359375,1.0,2706.8947704041566,0.3062440281708908,1.3220258412150305,0.9525216252880457,0.2875439375,0.6693219310897702
0.033,1.772775,1.0,2711.178476211962,0.31013544966057355,1.3216169990959439,0.9535982726725046,0.28750955,0.6701610519531876
0.0335,1.7719437500000002,1.0,2715.0317189755583,0.31400503943989966,1.3212064656825986,0.954631893262885,0.2874746375,0.6710025714403496
0.034,1.7711000000000001,1.0,2718.4779773306927,0.31785291983234726,1.3207940187155747,0.9556247473453219,0.2874392,0.6718469309831363
0.0345,1.7702437500000001,1.0,2721.554228019468,0.32167922508370106,1.3203793145046185,0.9565789370954874,0.2874032375,0.6726948177217816
0.035,1.7693750000000001,1.0,2724.2767685151994,0.3254840727124552,1.31996219902673,0.9574964451896608,0.28736675,0.6735465280420254
0.035500000000000004,1.76849375,1.0,2726.662001958299,0.32926758023710406,1.3195425182589096,0.9583791278048338,0.2873297375,0.6744023565840385
0.036000000000000004,1.7676,1.0,2728.7264263755396,0.3330298651761418,1.3191201181781567,0.9592287241406778,0.2872922,0.6752625962179826
0.0365,1.76669375,1.0,2730.4866244257514,0.3367710450480627,1.3186948447614715,0.960046865120953,0.2872541375,0.6761275380180536
0.037,1.765775,1.0,2731.959253670969,0.3404912373713611,1.318266543985854,0.9608350813534933,0.28721555,0.6769974712350142
0.0375,1.76484375,1.0,2733.1610373741773,0.34419055966453127,1.3178350618283041,0.9615948104194991,0.2871764375,0.6778726832672133
0.038,1.7639,1.0,2734.108755822419,0.34786912944606746,1.317400244265822,0.9623274035554481,0.28713679999999997,0.6787534596300911
0.0385,1.76294375,1.0,2734.819238176457,0.35152706423446384,1.3169619372754073,0.9630341317843489,0.28709663750000003,0.6796400839241733
0.039,1.761975,1.0,2735.3093548456677,0.3551644815482148,1.31651998683406,0.9637161915472273,0.28705595,0.6805328378015513
0.0395,1.7609937500000001,1.0,2735.591136293367,0.3587814920055684,1.3160742831731054,0.9643747125984313,0.2870147375,0.6814319117238763
0.04,1.76,1.0,2735.678584127209,0.36237821449531515,1.3156246988745344,0.9650107598745138,0.286973,0.6823375301669627
0.0405,1.7589937500000001,1.0,2735.5870547645104,0.3659547692573743,1.315171094424896,0.9656253370573258,0.2869307375,0.6832499401754251
0.041,1.757975,1.0,2735.325666826932,0.36951126629691433,1.314713387109166,0.9662193946238488,0.28688795,0.6841692728771562
0.0415,1.75694375,1.0,2734.9035535975395,0.3730478156191036,1.3142514942123211,0.9667938303360764,0.2868446375,0.6850956581164653
0.042,1.7559,1.0,2734.3298602684367,0.3765645272291106,1.313785333019337,0.9673494927052837,0.28680079999999997,0.6860292244322188
0.0425,1.75484375,1.0,2733.613741339864,0.38006151113210374,1.31331482081519,0.9678871841943666,0.2867564375,0.6869700990355403
0.043000000000000003,1.753775,1.0,2732.764358170364,0.38353887733325137,1.3128398748848562,0.9684076641805176,0.28671155,0.6879184077870776
0.043500000000000004,1.75269375,1.0,2731.7908766803826,0.386996735837722,1.3123604125133117,0.9689116516984277,0.28666613750000003,0.6888742751738322
0.044,1.7516,1.0,2730.7024652053565,0.390435196650684,1.3118763509855327,0.9693998279823052,0.2866202,0.6898378242855512
0.0445,1.75049375,1.0,2729.508292502174,0.3938543697773058,1.3113876075864954,0.9698728388233282,0.2865737375,0.6908091767906848
0.045,1.7493750000000001,1.0,2728.2175259068017,0.3972543652227559,1.310894099601176,0.9703312967576192,0.28652675,0.6917884529119072
0.0455,1.74824375,1.0,2726.8327986588497,0.40063527235007507,1.3103958037077186,0.9707757846745035,0.2864792375,0.6927756538285696
0.046,1.7471,1.0,2725.366410112184,0.4039972227867534,1.3098926086778537,0.9712068554186329,0.2864312,0.6937709537207737
0.0465,1.7459437500000001,1.0,2723.82486311773,0.4073403264370546,1.3093844559437335,0.9716250350475373,0.28638263750000004,0.6947744209834184
0.047,1.744775,1.0,2722.212433451055,0.4106646851766453,1.3088713071718594,0.9720308239967854,0.28633355,0.6957860829271265
0.0475,1.74359375,1.0,2720.533394815675,0.41397040088119225,1.3083531240287327,0.9724246982151155,0.28628393750000003,0.6968059658855899
0.048,1.7424,1.0,2718.7920183071255,0.417257575426362,1.3078298681808547,0.9728071105880963,0.2862338,0.6978340952033089
0.0485,1.74119375,1.0,2716.992571910589,0.42052631068782126,1.3073015012947267,0.9731784922662413,0.2861831375,0.698870495223237
0.049,1.739975,1.0,2715.1393200302896,0.42377670854123667,1.3067679850368505,0.9735392539048066,0.28613195,0.6999151892743324
0.0495,1.73874375,1.0,2713.236523052054,0.4270088708622749,1.306229281073727,0.9738897868219063,0.2860802375,0.7009681996590188
0.05,1.7375,1.0,2711.2884369381604,0.43022289952660253,1.3056853510718582,0.974230464081019,0.286028,0.7020295476405446
0.0505,1.73624375,1.0,2709.2993128548624,0.43341889640988623,1.3051361566977449,0.9745616415034556,0.2859752375,0.7030992534302593
0.051000000000000004,1.734975,1.0,2707.273396832429,0.4365969633877927,1.304581659617889,0.9748836586159141,0.28592195,0.7041773361747845
0.051500000000000004,1.73369375,1.0,2705.2149294577675,0.43975720233598853,1.3040218214987915,0.9751968395378159,0.2858681375,0.7052638139431024
0.052000000000000005,1.7324,1.0,2703.12814559962,0.44289971513014037,1.3034566040069542,0.9755014938127506,0.2858138,0.7063587037135415
0.0525,1.73109375,1.0,2701.017274166577,0.4460246036459149,1.302885968808878,0.9757979171880102,0.28575893750000003,0.7074620213606739
0.053,1.729775,1.0,2698.8774906717445,0.44913193839085785,1.3023099602720805,0.9760863942672153,0.28570355000000003,0.7085736221948122
0.0535,1.72844375,1.0,2696.7194615120347,0.452221853049392,1.3017284811787926,0.9763671949531798,0.2856476375,0.7096936340737852
0.054,1.7271,1.0,2694.5471343887693,0.4552944504638886,1.3011414956235372,0.9766405780088456,0.2855912,0.7108220650944488
0.0545,1.7257437500000001,1.0,2692.3618884155103,0.4583498235336309,1.300548991152293,0.9769067915018946,0.2855342375,0.7119588772874328
0.055,1.724375,1.0,2690.1651006105153,0.4613880651579023,1.299950955311038,0.9771660729398528,0.28547675,0.7131040319132516
0.0555,1.72299375,1.0,2687.958145863855,0.46440926823598605,1.2993473756457512,0.9774186498052027,0.2854187375,0.714257489457913
0.056,1.7216,1.0,2685.742396907518,0.46741352566716543,1.298738239702411,0.9776647400590986,0.2853602,0.7154192096285231
0.0565,1.72019375,1.0,2683.5192242890844,0.4704009303507238,1.2981235350269962,0.9779045526157666,0.28530113749999997,0.7165891513488756
0.057,1.718775,1.0,2681.289996349422,0.47337157518594436,1.2975032491654852,0.9781382877895216,0.28524155,0.7177672727550358
0.0575,1.71734375,1.0,2679.0560792024535,0.47632555307211044,1.2968773696638567,0.9783661377161923,0.2851814375,0.7189535311909113
0.058,1.7159,1.0,2676.8188367198672,0.4792629569085054,1.2962458840680893,0.9785882867506102,0.2851208,0.7201478832038144
0.0585,1.71444375,1.0,2674.5796305184745,0.48218387959441256,1.2956087799241616,0.9788049118417032,0.2850596375,0.7213502845400148
0.059000000000000004,1.7129750000000001,1.0,2672.3398199510475,0.48508841402911507,1.294966044778052,0.9790161828866223,0.28499795,0.7225606901402813
0.059500000000000004,1.71149375,1.0,2670.1007621006233,0.48797665311189636,1.2943176661757392,0.9792222630652323,0.2849357375,0.723779054135415
0.06,1.71,1.0,2667.863811778478,0.49084868974203966,1.2936636316632018,0.9794233091561929,0.284873,0.7250053298417709
0.0605,1.7084937500000001,1.0,2665.630321525406,0.4937046168188283,1.2930039287864183,0.9796194718357857,0.2848097375,0.7262394697567713
0.061,1.7069750000000001,1.0,2663.4016416161476,0.49654452724154563,1.2923385450913676,0.9798108959605496,0.28474595,0.7274814255544083
0.0615,1.7054437500000001,1.0,2661.177699485909,0.49936849530485294,1.2916674812012836,0.979997720071162,0.2846816375,0.7287311237554174
0.062,1.7039,1.0,2658.9592941359224,0.502176614279281,1.290990729713917,0.9801800785116024,0.2846168,0.7299885051676089
0.0625,1.70234375,1.0,2656.748860219921,0.5049689984758393,1.2903082681451066,0.9803581013678536,0.2845514375,0.7312535377761126
0.063,1.7007750000000001,1.0,2654.5466796108285,0.5077457319218543,1.289620093815776,0.9805319125698858,0.28448555,0.7325261519711133
0.0635,1.69919375,1.0,2652.3530337292054,0.5105068986446524,1.2889262040468494,0.9807016314525815,0.28441913750000003,0.7338062774715508
0.064,1.6976,1.0,2650.1682035467616,0.5132525826715596,1.28822659615925,0.9808673729583222,0.2843522,0.7350938433241473
0.0645,1.69599375,1.0,2647.9924695913232,0.5159828680299025,1.2875212674739018,0.981029247829203,0.2842847375,0.7363887779024267
0.065,1.694375,1.0,2645.826111950792,0.518697838747007,1.2868102153117285,0.9811873627894726,0.28421675,0.7376910089057397
0.0655,1.69274375,1.0,2643.669410277782,0.5213975788501998,1.2860934369936539,0.9813418207187655,0.2841482375,0.7390004633582852
0.066,1.6911,1.0,2641.5226437945453,0.5240821723668069,1.2853709298406015,0.9814927208166497,0.2840792,0.740317067608133
0.0665,1.6894437500000001,1.0,2639.386091297701,0.5267517033241547,1.2846426911734952,0.9816401587589887,0.2840096375,0.7416407473262445
0.067,1.687775,1.0,2637.2600311631904,0.5294062557495693,1.2839087183132587,0.9817842268465757,0.28393955,0.7429714275054934
0.0675,1.68609375,1.0,2635.144741351803,0.5320459136703773,1.2831690085808156,0.9819250141464749,0.2838689375,0.7443090324596875
0.068,1.6844000000000001,1.0,2633.0404994142923,0.5346707611139048,1.2824235592970898,0.9820626066264783,0.2837978,0.7456534858225867
0.0685,1.68269375,1.0,2630.947582496867,0.5372808821074782,1.281672367783005,0.9821970872830534,0.2837261375,0.7470047105469245
0.069,1.680975,1.0,2628.8662673470735,0.5398763606784235,1.280915431359485,0.9823285362631442,0.28365395,0.7483626289034262
0.0695,1.67924375,1.0,2626.7968303195084,0.5424572808540673,1.2801527473474534,0.9824570309801597,0.28358123749999997,0.7497271624798276
0.07,1.6775,1.0,2624.739547381923,0.5450237266617357,1.2793843130678337,0.982582646224462,0.283508,0.7510982321798938
0.07050000000000001,1.67574375,1.0,2622.6935335613066,0.5475757646382527,1.2786101366032563,0.9827054536846221,0.2834342375,0.7524757391004939
0.07100000000000001,1.673975,1.0,2620.6570723786267,0.5501134557246169,1.2778302337630103,0.982825522681346,0.28335995,0.7538595701759919
0.07150000000000001,1.67219375,1.0,2618.633688174324,0.5526369356263876,1.2770445717463692,0.9829429225545923,0.2832851375,0.7552496979141291
0.07200000000000001,1.6704,1.0,2616.6231814647454,0.5551462793140224,1.276253152273089,0.9830577182419957,0.2832098,0.7566460327142266
0.0725,1.66859375,1.0,2614.6253531355615,0.5576415617579787,1.2754559770629261,0.9831699725579464,0.2831339375,0.7580484843759845
0.073,1.6667750000000001,1.0,2612.6400044375823,0.5601228579287142,1.2746530478356362,0.9832797462755172,0.28305755,0.759456962100114
0.0735,1.66494375,1.0,2610.666936982479,0.5625902427966862,1.2738443663109758,0.983387098204706,0.2829806375,0.7608713744889672
0.074,1.6631,1.0,2608.705952738728,0.5650437913323525,1.2730299342087006,0.9834920852671772,0.2829032,0.7622916295471704
0.0745,1.6612437500000001,1.0,2606.756854027527,0.5674835785061703,1.272209753248567,0.9835947625676799,0.2828252375,0.7637176346822522
0.075,1.659375,1.0,2604.819443519067,0.5699096792885974,1.2713838251503309,0.9836951834623141,0.28274675,0.7651492967052763
0.0755,1.65749375,1.0,2602.8935242281286,0.5723221686500911,1.2705521516337486,0.9837933996237996,0.2826677375,0.7665865218314705
