Time [s],Phi [rad],STIM [ ],Fsee [N],Gamma [ ],Lcerel [ ],q [ ],Lmtc [m],fisomrel [ ]
0.0,1.8,1.0,17.966259227796836,1.699871588587652e-05,1.3793398469322997,0.0050000766902506275,0.288653,0.541139287402358
0.0005,1.79999375,1.0,18.27803351328656,0.005626112675330192,1.3793022445684298,0.01295995771882398,0.2886527375,0.5412302527594104
0.001,1.799975,1.0,21.62491909569255,0.011203763940348674,1.3789376344508997,0.0356450633805781,0.28865195,0.5421118277957792
0.0015,1.79994375,1.0,31.08676232580651,0.01675012899265008,1.3780447107570812,0.07065164923192896,0.2886506375,0.5442672087646518
0.002,1.7999,1.0,53.62174286694262,0.022265383322276774,1.3763655790042133,0.11477698577428024,0.2886488,0.5483066037653803
0.0025,1.79984375,1.0,97.18611027617337,0.02774970143522449,1.3739319309303653,0.16463902248960258,0.28864643749999996,0.5541291805825528
0.003,1.7997750000000001,1.0,161.04628170527573,0.033203256861088916,1.3712110459835598,0.21734661218906826,0.28864354999999997,0.5605942580988248
0.0035,1.79969375,1.0,237.78328946164467,0.03862622215271128,1.3685816555884875,0.27067868946804013,0.2886401375,0.5667970764146988
0.004,1.7996,1.0,321.57338862353555,0.0440187688969469,1.3661532687456266,0.3229795146780829,0.2886362,0.5724865554428985
0.0045000000000000005,1.7994937500000001,1.0,409.3783686070706,0.04938106771985335,1.363920217720189,0.3730949879813338,0.2886317375,0.5776851885666143
0.005,1.799375,1.0,499.52652833301335,0.054713288277799484,1.361855940728559,0.42030404500489466,0.28862675,0.5824626216819182
0.0055,1.79924375,1.0,590.9045861385281,0.060015599304619416,1.3599366045603443,0.4642260867128839,0.2886212375,0.5868802318162321
0.006,1.7991000000000001,1.0,682.6325393885936,0.06528816855555625,1.358144334782482,0.5047281069313643,0.2886152,0.5909841692066757
0.006500000000000001,1.79894375,1.0,773.9972359427242,0.07053116286030126,1.356465273869498,0.5418447582320729,0.2886086375,0.5948102950419126
0.007,1.798775,1.0,864.4030809304778,0.07574474811896637,1.354888500778763,0.5757168509050163,0.28860155,0.5983869643335522
0.0075,1.79859375,1.0,953.3600172098346,0.08092908927839966,1.353404982713794,0.6065463465478825,0.2885939375,0.601737621789104
0.008,1.7984,1.0,1040.4736313863966,0.08608435038545227,1.3520069506452745,0.6345651544501655,0.2885858,0.6048823555402273
0.0085,1.79819375,1.0,1125.432664346448,0.09121069456082147,1.3506875649125125,0.66001445398516,0.2885771375,0.6078387494124118
0.009000000000000001,1.797975,1.0,1207.98824665014,0.09630828373859517,1.3494408317543654,0.6831316801356571,0.28856795,0.6106221463737798
0.0095,1.79774375,1.0,1287.9716526596103,0.10137727949433348,1.34826107252417,0.7041425189018089,0.2885582375,0.6132468921055958
0.01,1.7975,1.0,1365.2698108438258,0.10641784302599548,1.3471430645400446,0.7232568573417228,0.288548,0.6157260610387323
0.0105,1.79724375,1.0,1439.766263047675,0.11143013268244163,1.3460826101806387,0.7406672472906144,0.2885372375,0.6180702389367223
0.011,1.796975,1.0,1511.4075024591398,0.11641430681253233,1.345075511824601,0.7565480292603128,0.28852595000000003,0.6202898314381049
0.0115,1.79669375,1.0,1580.1909314125353,0.12137052348664842,1.3441176477782735,0.7710559617760899,0.2885141375,0.6223949122689673
0.012,1.7964,1.0,1646.1344793788608,0.12629894014968215,1.3432052582117169,0.7843314335252103,0.28850180000000003,0.6243946133157805
0.0125,1.79609375,1.0,1709.2555919162573,0.131199712665968,1.3423350972945156,0.7964998321452079,0.2884889375,0.6262968149246
0.013000000000000001,1.7957750000000001,1.0,1769.5766664561122,0.13607299535586878,1.3415042812548958,0.8076728654797829,0.28847555,0.6281085009074522
0.0135,1.79544375,1.0,1827.1517239847904,0.14091894253974732,1.3407099263210838,0.8179498114152556,0.2884616375,0.6298365628389084
0.014,1.7951000000000001,1.0,1882.0445916481635,0.14573770744415182,1.3399493570645058,0.8274189413858801,0.2884472,0.6314873553298124
0.0145,1.79474375,1.0,1934.3491794347628,0.15052944395542417,1.3392198452056974,0.8361586629246172,0.2884322375,0.6330672723808123
0.015,1.794375,1.0,1984.1205634266514,0.1552943025467116,1.3385193235880366,0.8442388970467101,0.28841675,0.6345812103236549
0.0155,1.79399375,1.0,2031.428625540519,0.16003243350333854,1.3378457597170221,0.8517218537384335,0.2884007375,0.6360339369937122
0.016,1.7936,1.0,2076.35965853633,0.16474398711062946,1.337197121098152,0.8586629312668701,0.2883842,0.6374301706732088
0.0165,1.7931937500000001,1.0,2118.9975369841263,0.1694291121549284,1.3365715547974961,0.8651115765041943,0.2883671375,0.6387741980267732
0.017,1.792775,1.0,2159.4476412664667,0.17408795871875485,1.3359671208968529,0.871111912352828,0.28834955,0.6400704517738502
0.0175,1.7923437500000001,1.0,2197.7774754473753,0.17872067285417112,1.3353823862595928,0.8767035300160508,0.2883314375,0.6413222416671598
0.018000000000000002,1.7919,1.0,2234.062788291737,0.18332740051519525,1.3348159293030226,0.8819218829901014,0.2883128,0.6425328236127339
0.0185,1.79144375,1.0,2268.3879054956483,0.18790828765584536,1.3342663284444498,0.8867987672195081,0.2882936375,0.643705426238097
0.019,1.790975,1.0,2300.833938204235,0.19246347890687254,1.3337322715961681,0.8913627711916837,0.28827395,0.6448430194364205
0.0195,1.79049375,1.0,2331.4954626445674,0.19699312046371645,1.333212381755512,0.8956396025261396,0.2882537375,0.6459486882806729
0.02,1.79,1.0,2360.4453820882186,0.2014973551686513,1.3327055566165478,0.899652491745183,0.288233,0.6470249126163046
0.0205,1.78949375,1.0,2387.749552898037,0.20597632430802948,1.3322108128673595,0.9034224332456162,0.2882117375,0.6480739024681386
0.021,1.788975,1.0,2413.478321644878,0.21043016916820342,1.331727167196031,0.9069684071654835,0.28818995000000003,0.6490978525003079
0.021500000000000002,1.78844375,1.0,2437.7061493605474,0.2148590310355255,1.3312536362906464,0.9103076002674707,0.2881676375,0.6500989427430617
0.022,1.7879,1.0,2460.502321050577,0.21926304949365605,1.3307893223906513,0.9134556166827076,0.2881448,0.6510791587765745
0.0225,1.78734375,1.0,2481.943414449466,0.22364236631931134,1.3303332894074116,0.9164266241532792,0.28812143749999997,0.6520405545576508
0.023,1.786775,1.0,2502.091872855735,0.22799712011075204,1.3298847643969747,0.9192335415698354,0.28809755,0.6529848285036752
0.0235,1.78619375,1.0,2521.001303697357,0.23232744708952052,1.3294430817346015,0.9218881577875269,0.28807313749999996,0.6539134435497727
0.024,1.7856,1.0,2538.7274472004665,0.23663348347715896,1.3290075757955537,0.9244012287302672,0.2880482,0.6548278541745312
0.0245,1.78499375,1.0,2555.327997011183,0.24091536549520967,1.3285775809550926,0.9267825821225604,0.2880227375,0.655729506676338
0.025,1.784375,1.0,2570.862430641135,0.24517322936521488,1.3281524315884792,0.9290412103333893,0.28799675,0.6566198394214557
0.025500000000000002,1.78374375,1.0,2585.3796214515673,0.24940720796020352,1.3277315762773203,0.9311853703532558,0.2879702375,0.6575000443583641
0.026000000000000002,1.7831000000000001,1.0,2598.944265641733,0.25361744004382786,1.327314328749801,0.9332226184874919,0.2879432,0.6583715886322294
0.0265,1.78244375,1.0,2611.6001654702154,0.2578040579361636,1.3269002096101845,0.9351599269365621,0.2879156375,0.6592355005000556
0.027,1.781775,1.0,2623.386686586201,0.2619671923080383,1.3264887901635296,0.9370037161328252,0.28788755,0.6600926973774067
0.0275,1.7810937500000001,1.0,2634.3440900372925,0.26610697383027926,1.326079641714895,0.938759899156617,0.2878589375,0.6609440920251457
0.028,1.7804,1.0,2644.5134549904265,0.270223533173714,1.3256723355693394,0.9404339285372082,0.2878298,0.6617905926173839
0.0285,1.77969375,1.0,2653.936605527972,0.27431700100917,1.3252664430319216,0.942030838169934,0.2878001375,0.6626331027977095
0.029,1.778975,1.0,2662.6560415180493,0.27838750800747464,1.3248615354077,0.9435552809122338,0.28776995,0.663472521723698
0.029500000000000002,1.7782437500000001,1.0,2670.7059328626774,0.2824351792512386,1.3244572661588774,0.9450115715668402,0.2877392375,0.6643095740966436
0.03,1.7775,1.0,2678.1345670865576,0.2864601507157007,1.3240531637875244,0.9464036943950489,0.287708,0.6651452392834691
0.0305,1.77674375,1.0,2684.9696323239828,0.29046254754647016,1.32364895037154,0.9477353660379162,0.2876762375,0.6659800922302308
0.031,1.775975,1.0,2691.2383754508733,0.29444249440810794,1.3232443553711244,0.9490100375428127,0.28764395,0.6668146897981704
0.0315,1.7751937500000001,1.0,2696.9683718624988,0.29840011596517513,1.3228391082464777,0.9502309159292762,0.2876111375,0.66764958605427
0.032,1.7744,1.0,2702.1874947124425,0.3023355368822327,1.3224329384578,0.9514009844607498,0.2875778,0.6684853322623361
0.0325,1.77359375,1.0,2706.9238857747687,0.30624888182384175,1.3220255754652914,0.9525230209973938,0.2875439375,0.669322476869413
0.033,1.772775,1.0,2711.205927928111,0.3101402754545633,1.3216167487291521,0.9535996146322052,0.28750955,0.6701615654875301
0.0335,1.7719437500000002,1.0,2715.0616232338575,0.31400984219673667,1.3212061931416497,0.9546331813448722,0.2874746375,0.6710031297431418
0.034,1.7711000000000001,1.0,2718.5170916554557,0.31785770449019024,1.3207936624623997,0.95562597871212,0.2874392,0.671847659834056
0.0345,1.7702437500000001,1.0,2721.5935981641605,0.3216839838008979,1.3203789561241588,0.9565801214671565,0.2874032375,0.6726955499770229
0.035,1.7693750000000001,1.0,2724.3072141228017,0.3254888004476309,1.319961922023268,0.9574975926744232,0.28736675,0.6735470932881895
0.035500000000000004,1.7684941486422325,1.0,2726.6939157976317,0.32927227474916076,1.319542408056069,0.9583802488291222,0.28732975424297375,0.6744025811662269
0.036000000000000004,1.7676098055482827,1.0,2729.199813333878,0.3330345243760556,1.3191202431584697,0.9592298268058522,0.2872926118330279,0.6752623418573955
0.0365,1.7667254624543332,1.0,2731.964268465036,0.3367756722613977,1.3186957395322214,0.9600480056616478,0.287255469423082,0.6761257194005437
0.037,1.7658411193603836,1.0,2734.957134148444,0.340495837950018,1.3182691744770243,0.9608363562662566,0.2872183270131361,0.6769921319442394
0.0375,1.764956776266434,1.0,2738.160277855291,0.3441951371794669,1.31784071593226,0.9615963419614069,0.2871811846031902,0.6778612222438405
0.038,1.7640724331724844,1.0,2741.555549068733,0.34787368568729515,1.3174105318373113,0.9623293378827023,0.28714404219324435,0.6787326348174592
0.0385,1.7631880900785346,1.0,2745.124772546031,0.3515315992110533,1.31697879013156,0.9630366372500335,0.28710689978329845,0.6796060159653459
0.039,1.762303746984585,1.0,2748.849742206607,0.355168993488292,1.3165456587543882,0.9637194571441057,0.28706975737335255,0.6804810137874694
0.0395,1.7614194038906354,1.0,2752.7122156446567,0.358785984256562,1.316111305645178,0.9643789438161312,0.2870326149634067,0.6813572781993011
0.04,1.7605350607966859,1.0,2756.6940943661434,0.36238268714910754,1.315675897069152,0.9650161774036253,0.2869954725534608,0.6822344643162824
0.0405,1.759650717702736,1.0,2760.781769703159,0.3659592160457053,1.315239558306981,0.9656321726830636,0.2869583301435149,0.6831123114745523
0.041,1.7587663746087865,1.0,2764.9640233483965,0.3695156837757662,1.3148023927377597,0.9662278853309016,0.286921187733569,0.6839906043577211
0.0415,1.757882031514837,1.0,2769.230402927378,0.37305220230257913,1.3143644965607149,0.966804217190045,0.28688404532362316,0.6848691431828071
0.042,1.7569976884208873,1.0,2773.5704270886577,0.376568883589433,1.3139259659750724,0.9673620205841927,0.28684690291367726,0.685747729230286
0.0425,1.7561133453269375,1.0,2777.981815794087,0.38006582961663393,1.313486823012336,0.9679020937984142,0.28680976050373136,0.6866263131302052
0.043000000000000003,1.755229002232988,1.0,2782.442309180502,0.3835431677287734,1.3130472695297448,0.968425211002257,0.2867726180937855,0.6875044867346023
0.043500000000000004,1.7543446591390384,1.0,2786.9462169903336,0.38700100589644976,1.3126073577004655,0.9689320900575902,0.2867354756838396,0.688382142575042
0.044,1.7534603160450888,1.0,2791.4889018362924,0.39043945079828735,1.3121671300742443,0.9694234101831631,0.2866983332738937,0.6892591929247762
0.0445,1.752575972951139,1.0,2796.0657116439424,0.3938586091129108,1.3117266292008274,0.9698998153264234,0.2866611908639478,0.6901355505328122
0.045,1.7516916298571894,1.0,2800.671979374249,0.39725858751894466,1.3112858976299613,0.9703619163434074,0.28662404845400197,0.6910111286247107
0.0455,1.7508072867632398,1.0,2805.3030227854733,0.40063949269501337,1.3108449779113918,0.9708102930234318,0.28658690604405607,0.6918858409032729
0.046,1.7499229436692902,1.0,2809.9541442360987,0.4040014313197415,1.3104039125948652,0.9712454959710394,0.2865497636341102,0.6927596015491049
0.0465,1.7490386005753407,1.0,2814.6206305269116,0.4073445100717535,1.3099627442301278,0.9716680483565372,0.2865126212241643,0.6936323252210727
0.047,1.7481542574813909,1.0,2819.297752784111,0.4106688356296739,1.309521515366926,0.9720784475454772,0.2864754788142184,0.6945039270566384
0.0475,1.7472699143874413,1.0,2823.9807663818974,0.4139745146721272,1.3090802685550058,0.9724771666165177,0.2864383364042725,0.6953743226720839
0.048,1.7463855712934917,1.0,2828.667487572041,0.4172616448840073,1.3086390233373926,0.9728646530235121,0.2864011939943266,0.696243473448152
0.0485,1.7455012281995421,1.0,2833.355116684784,0.4205303322289587,1.3081978046873162,0.9732413342479472,0.2863640515843808,0.6971113303122415
0.049,1.7446168851055923,1.0,2838.037324194147,0.42378069583110584,1.3077566689609743,0.9736076212544021,0.2863269091744349,0.6979777828764199
0.0495,1.7437325420116427,1.0,2842.7130200695474,0.42701283475667534,1.3073156256619043,0.9739639001111816,0.286289766764489,0.6988428132143887
0.05,1.7428481989176932,1.0,2847.3811108220816,0.4302268480718939,1.3068746842936436,0.9743105389769077,0.28625262435454313,0.6997064035066216
0.0505,1.7419638558237436,1.0,2852.040499524865,0.4334228348429879,1.30643385435973,0.9746478890928227,0.2862154819445972,0.7005685360403053
0.051000000000000004,1.7410795127297938,1.0,2856.690085835783,0.436600894136184,1.3059931453637006,0.9749762857115639,0.2861783395346513,0.7014291932092769
0.051500000000000004,1.7401951696358442,1.0,2861.3287660218007,0.43976112501770886,1.3055525668090935,0.9752960489669941,0.2861411971247054,0.7022883575139491
0.052000000000000005,1.7393108265418946,1.0,2865.9554329855837,0.442903626553789,1.3051121281994456,0.9756074846893277,0.2861040547147596,0.7031460115612408
0.0525,1.738426483447945,1.0,2870.5689762935453,0.4460284978106509,1.304671839038295,0.9759108851694331,0.2860669123048137,0.7040021380644874
0.053,1.7375421403539952,1.0,2875.1682822070443,0.4491358378545213,1.3042317088291788,0.9762065298759055,0.2860297698948678,0.7048567198433602
0.0535,1.7366577972600457,1.0,2879.752233714401,0.4522257457516267,1.3037917470756346,0.9764946861282003,0.28599262748492194,0.7057097398237681
0.054,1.735773454166096,1.0,2884.3197105653276,0.4552983205681937,1.3033519632812003,0.9767756097288832,0.28595548507497603,0.7065611810377592
0.0545,1.7348891110721465,1.0,2888.869589307725,0.45835366137044886,1.302912366949413,0.9770495455578014,0.28591834266503013,0.707411026623419
0.055,1.7340047679781967,1.0,2893.401050411126,0.4613918621296707,1.3024729648727342,0.97731672748226,0.28588120025508423,0.7082592650545207
0.0555,1.7331204248842471,1.0,2897.915242949804,0.4644129949158625,1.3020337464583878,0.9775773764930589,0.2858440578451384,0.7091059183683366
0.056,1.7322360817902975,1.0,2902.4095531138387,0.46741719955469413,1.3015947343173622,0.9778317126505185,0.2858069154351925,0.7099509446174737
0.0565,1.731351738696348,1.0,2906.884016629375,0.4704045664547277,1.3011559276560554,0.9780799410031926,0.28576977302524664,0.7107943470587397
0.057,1.7304673956023984,1.0,2911.3386697813,0.4733751860245258,1.300717325680865,0.9783222582412054,0.28573263061530074,0.7116361289392492
0.0575,1.7295830525084486,1.0,2915.773549410211,0.47632914867265047,1.300278927598189,0.9785588531046783,0.28569548820535484,0.7124762934964337
0.058,1.728698709414499,1.0,2920.1886929083457,0.4792665448076643,1.299840732614425,0.9787899067690252,0.28565834579540894,0.7133148439580513
0.0585,1.7278143663205494,1.0,2924.5841382163394,0.4821874648381294,1.299402739935971,0.9790155932086102,0.28562120338546304,0.7141517835421979
0.059000000000000004,1.7269300232265998,1.0,2928.9599238195583,0.48509199917260826,1.2989649487692247,0.9792360795401359,0.2855840609755172,0.7149871154573177
0.059500000000000004,1.72604568013265,1.0,2933.3160887443096,0.48798023821966313,1.2985273583205839,0.9794515263470489,0.2855469185655713,0.7158208429022122
0.06,1.7251613370387004,1.0,2937.6526725546746,0.49085227238785634,1.2980899677964466,0.9796620879861518,0.28550977615562545,0.7166529690660506
0.0605,1.7242769939447509,1.0,2941.9697153486795,0.4937081920857503,1.2976527764032102,0.9798679128775255,0.28547263374567955,0.7174834971283819
0.061,1.7233926508508013,1.0,2946.267257755124,0.4965480877219073,1.2972157833472728,0.9800691437787964,0.28543549133573365,0.7183124302591422
0.0615,1.7225083077568515,1.0,2950.545340929676,0.4993720497048896,1.2967789878350322,0.9802659180447029,0.28539834892578775,0.7191397716186665
0.062,1.721623964662902,1.0,2954.8040065516966,0.5021801684432595,1.2963423890728862,0.9804583678728596,0.28536120651584185,0.7199655243576981
0.0625,1.7207396215689523,1.0,2959.0432968207365,0.5049725343455795,1.2959059862672326,0.9806466205365496,0.285324064105896,0.720789691617399
0.063,1.7198552784750027,1.0,2963.263254452806,0.5077492378204118,1.295469778624469,0.9808307986053211,0.2852869216959501,0.7216122765293598
0.0635,1.718970935381053,1.0,2967.4639226773143,0.5105103692763189,1.2950337653509936,0.981011020154116,0.2852497792860042,0.7224332822156087
0.064,1.7180865922871034,1.0,2971.645362162901,0.5132559772692162,1.2945979455057246,0.9811873959560775,0.28521263687605836,0.7232527120657083
0.0645,1.7172022491931538,1.0,2975.807975046505,0.5159861664723472,1.2941623151798076,0.9813600366640342,0.28517549446611246,0.7240705750256873
0.065,1.7163179060992042,1.0,2979.952043198121,0.5187010687137464,1.2937268715236636,0.9815290508856173,0.28513835205616656,0.7248868780131417
0.0655,1.7154335630052544,1.0,2984.077771274985,0.5214007643962456,1.2932916123689011,0.9816945398096754,0.28510120964622065,0.7257016266391909
0.066,1.7145492199113048,1.0,2988.185364852432,0.524085333922676,1.292856535547129,0.9818566010682905,0.2850640672362748,0.7265148264902204
0.0665,1.7136648768173552,1.0,2992.2750304152164,0.5267548576958692,1.292421638889956,0.9820153288872783,0.2850269248263289,0.7273264831279086
0.067,1.7127805337234057,1.0,2996.3469753486597,0.5294094161186566,1.2919869202289909,0.9821708142292948,0.28498978241638306,0.7281366020892504
0.0675,1.711896190629456,1.0,3000.4014079301787,0.5320490895938698,1.2915523773958422,0.9823231449299547,0.28495264000643716,0.728945188886583
0.068,1.7110118475355063,1.0,3004.4385373206446,0.5346739585243403,1.2911180082221188,0.9824724058273574,0.28491549759649126,0.7297522490076097
0.0685,1.7101275044415567,1.0,3008.4585735561163,0.5372841033128996,1.2906838105394292,0.9826186788853778,0.28487835518654536,0.730557787915425
0.069,1.7092431613476071,1.0,3012.461727539476,0.5398796043623791,1.2902497821793824,0.9827620433110639,0.28484121277659946,0.7313618110485367
0.0695,1.7083588182536573,1.0,3016.4482110322733,0.5424605420756105,1.2898159209735869,0.9829025756664647,0.2848040703666536,0.7321643238208917
0.07,1.7074744751597077,1.0,3020.418236646392,0.545026996855425,1.2893822247536515,0.9830403499751836,0.2847669279567077,0.7329653316218978
0.07050000000000001,1.7065901320657582,1.0,3024.3720178365515,0.5475790491046543,1.288948691351185,0.983175437823946,0.28472978554676187,0.7337648398164467
0.07100000000000001,1.7057057889718086,1.0,3028.309768891874,0.5501167792261298,1.288515318597796,0.9833079084594414,0.28469264313681597,0.7345628537449371
0.07150000000000001,1.704821445877859,1.0,3032.2317049286257,0.552640267622683,1.2880821043250934,0.9834378288806919,0.28465550072687007,0.7353593787232973
