Time [s],Phi [rad],STIM [ ],Fsee [N],Gamma [ ],Lcerel [ ],q [ ],Lmtc [m],fisomrel [ ]
0.0,1.8,1.0,17.973434650733928,8.76614025915526e-05,1.3793390431051034,0.005002013267049287,0.288653,0.54114123206666
0.0005,1.79999375,1.0,18.308618235027875,0.005696379000264739,1.379298848740983,0.013157525456568682,0.2886527375,0.5412384672951689
0.001,1.799975,1.0,21.70803456631424,0.011273636126759964,1.3789291548522364,0.0360144160138603,0.28865195,0.5421323201625313
0.0015,1.79994375,1.0,31.282273022059282,0.016819609251369244,1.3780280847133608,0.07115650878975327,0.2886506375,0.5443072932651407
0.002,1.7999,1.0,54.04142238086644,0.022334473851623418,1.3763384153996743,0.11537443931556839,0.2886488,0.5483718019593822
0.0025,1.79984375,1.0,97.89007089362822,0.027818404421374097,1.3738980816590611,0.16528872154881497,0.28864643749999996,0.5542098996545729
0.003,1.7997750000000001,1.0,161.96123917316842,0.03327157447779813,1.3711768561174218,0.2180167057261103,0.28864354999999997,0.5606751960548046
0.0035,1.79969375,1.0,238.81651114087668,0.03869415656156592,1.3685498708082586,0.2713450603167964,0.2886401375,0.5668717880332139
0.004,1.7996,1.0,322.67227342283326,0.044086322247458926,1.3661241931280377,0.32362466622803204,0.2886362,0.5725544489998196
0.0045000000000000005,1.7994937500000001,1.0,410.51602390124265,0.04944824214960295,1.3638935347473262,0.3737073526084433,0.2886317375,0.5777471153351291
0.005,1.799375,1.0,500.68716803423666,0.05478008591299286,1.3618312943297015,0.42087692122484793,0.28862675,0.5825194975883065
0.0055,1.79924375,1.0,592.0751884007434,0.06008202225663103,1.3599137473550829,0.4647564593260265,0.2886212375,0.5869326991862933
0.006,1.7991000000000001,1.0,683.8041535364156,0.06535421892700895,1.358123048870335,0.5052155027252403,0.2886152,0.5910327865682896
0.006500000000000001,1.79894375,1.0,775.1596220102077,0.07059684274456934,1.3564454401071422,0.5422904161008284,0.2886086375,0.5948553833763576
0.007,1.798775,1.0,865.5359146650251,0.0758100593738047,1.3548702091163183,0.5761231351264429,0.28860155,0.5984283631433053
0.0075,1.79859375,1.0,954.4868763218323,0.08099403444832994,1.3533876566361596,0.6069157390292874,0.2885939375,0.6017766713558794
0.008,1.7984,1.0,1041.5821388661216,0.08614893136644197,1.3519906353536852,0.6349007447242643,0.2885858,0.6049189815794291
0.0085,1.79819375,1.0,1126.5046038627058,0.09127491314434417,1.3506723946000785,0.660319391356457,0.2885771375,0.6078726775046137
0.009000000000000001,1.797975,1.0,1209.0375778804655,0.09637214229361779,1.3494264975253314,0.6834087454301878,0.28856795,0.6106540906478941
0.0095,1.79774375,1.0,1288.9971689099104,0.10144078021843733,1.3482475053203637,0.7043944539617909,0.2885582375,0.6132770249940791
0.01,1.7975,1.0,1366.2437554099304,0.10648098690040211,1.3471305494222743,0.7234863667837618,0.288548,0.6157537680414222
0.0105,1.79724375,1.0,1440.6874816048219,0.11149292158105392,1.3460710826945568,0.7408766156870371,0.2885372375,0.618095681513448
0.011,1.796975,1.0,1512.3158912872332,0.11647674415708797,1.3450644174420943,0.7567390865369762,0.28852595000000003,0.6203142468601662
0.0115,1.79669375,1.0,1581.0869666323715,0.12143261142677891,1.344106945009983,0.7712305834343968,0.2885141375,0.6224184004971192
0.012,1.7964,1.0,1646.9909214162378,0.1263606796997003,1.3431952352465482,0.7844914366781165,0.28850180000000003,0.6244165513522528
0.0125,1.79609375,1.0,1710.0591340687245,0.1312611052194735,1.3423258685737731,0.796646761370664,0.2884889375,0.626316963345701
0.013000000000000001,1.7957750000000001,1.0,1770.3443115148348,0.13613404332992984,1.341495616305045,0.8078079560927716,0.28847555,0.6281273725906805
0.0135,1.79544375,1.0,1827.901480662587,0.14097964867229482,1.3407015976469716,0.818074163200774,0.2884616375,0.629854659951534
0.014,1.7951000000000001,1.0,1882.7762084238248,0.14579807371010672,1.3399413492523249,0.8275336093682688,0.2884472,0.631504716417439
0.0145,1.79474375,1.0,1935.0380564860902,0.15058947090690378,1.339212407773877,0.8362646769565845,0.2884322375,0.6330833622839573
0.015,1.794375,1.0,1984.757448309224,0.1553539914735062,1.3385125342185784,0.8443371147110341,0.28841675,0.6345958679110835
0.0155,1.79399375,1.0,2032.0440188467846,0.16009178824294765,1.3378392762624085,0.8518129035329097,0.2884007375,0.6360479062962119
0.016,1.7936,1.0,2076.9635713828457,0.1648030099779445,1.3371908277931583,0.8587474430404061,0.2883842,0.6374437042479739
0.0165,1.7931937500000001,1.0,2119.5874624049293,0.16948780490301624,1.3365654693987659,0.8651901523946849,0.2883671375,0.6387872602308304
0.017,1.792775,1.0,2159.9995045350825,0.17414632124268226,1.3359614816671697,0.8711851528313914,0.28834955,0.6400825345535716
0.0175,1.7923437500000001,1.0,2198.2896696515286,0.178778706647308,1.3353771982009333,0.8767719081974351,0.2883314375,0.641333338414834
0.018000000000000002,1.7919,1.0,2234.5497298295436,0.1833851085391669,1.3348110372309059,0.8819857807839995,0.2883128,0.6425432696057556
0.0185,1.79144375,1.0,2268.8641433434427,0.18796567318350163,1.3342615802354083,0.8868585285649127,0.2882936375,0.6437155484009174
0.019,1.790975,1.0,2301.3018662090103,0.19252054425084955,1.3337276392426067,0.8914187358664628,0.28827395,0.6448528788442491
0.0195,1.79049375,1.0,2331.9383426172526,0.19704986541174793,1.3332080262806676,0.8956921204761664,0.2882537375,0.6459579439481566
0.02,1.79,1.0,2360.8549632131085,0.20155378033673405,1.3327015533777569,0.8997018591084581,0.288233,0.6470334068240676
0.0205,1.78949375,1.0,2388.124708504421,0.206032430789615,1.3322071671132407,0.9034689019007429,0.2882117375,0.6480816266536842
0.021,1.788975,1.0,2413.8395618804398,0.2104859614018975,1.331723675426719,0.9070121614645421,0.28818995000000003,0.6491052396727959
0.021500000000000002,1.78844375,1.0,2438.063732016563,0.2149145121745437,1.331250197092311,0.9103488281170747,0.2881676375,0.650106208310922
0.022,1.7879,1.0,2460.8567952384487,0.21931822190724534,1.330785928917138,0.9134945077033421,0.2881448,0.651086317699063
0.0225,1.78734375,1.0,2482.2814079268137,0.22369722939969422,1.330330067708321,0.9164633754478553,0.28812143749999997,0.6520473417341075
0.023,1.786775,1.0,2502.40304912552,0.22805167345158203,1.3298818102729808,0.9192683269084607,0.28809755,0.6529910435300418
0.0235,1.78619375,1.0,2521.2750385506615,0.23238169202264572,1.3294404928114945,0.921921137081796,0.28807313749999996,0.6539188829595652
0.024,1.7856,1.0,2538.962626517704,0.23668742242826124,1.3290053592921298,0.9244325320057086,0.2880482,0.6548325049651039
0.0245,1.78499375,1.0,2555.5731944997033,0.24096900353445322,1.328575277553562,0.9268122464466131,0.2880227375,0.6557343334840553
0.025,1.7843776514964655,1.0,2571.243047006548,0.24522656887826103,1.3281500643683937,0.9290693517585009,0.2879968613628515,0.6566247935427905
0.025500000000000002,1.783760793204618,1.0,2586.4222516877135,0.2494602519967241,1.327729536509228,0.9312121577311221,0.28797095331459394,0.6575043077150718
0.026000000000000002,1.7831439349127702,1.0,2601.162590387347,0.25367018642688194,1.3273135107486684,0.9332482868267877,0.28794504526633635,0.6583732961778741
0.0265,1.7825270766209227,1.0,2615.47967956708,0.2578565057057738,1.3269018038593179,0.9351847402824477,0.28791913721807877,0.659232176765064
0.027,1.781910218329075,1.0,2629.389436737191,0.2620193432734034,1.326494233011332,0.9370279570724853,0.28789322916982113,0.6600813641911416
0.0275,1.7812933600372274,1.0,2642.9029287207513,0.26615883105922716,1.3260906631969938,0.9387838731223858,0.28786732112156355,0.660921171478778
0.028,1.7806765017453796,1.0,2656.0292656172605,0.2702751001545333,1.3256909798213332,0.9404579638278092,0.2878414130733059,0.6617518675478952
0.0285,1.780059643453532,1.0,2668.779709693449,0.2743682799901258,1.325295050579021,0.9420552801554648,0.2878155050250483,0.6625737565969136
0.029,1.7794427851616845,1.0,2681.165756891459,0.27843849999680853,1.3249027431647282,0.9435804900908554,0.28778959697679074,0.6633871412118453
0.029500000000000002,1.7788259268698368,1.0,2693.1822739264635,0.28248585260286135,1.3245140794813177,0.9450379202068223,0.28776368892853316,0.6641920032474267
0.03,1.7782090685779892,1.0,2704.8576078854835,0.2865105005661561,1.3241287763315466,0.9464315626551715,0.2877377808802756,0.6649889552098669
0.0305,1.7775922102861414,1.0,2716.215129750828,0.2905125974825179,1.323746599026377,0.947765122012919,0.28771187283201793,0.6657785064376731
0.031,1.776975351994294,1.0,2727.2628925333765,0.2944922637121588,1.3233674547506302,0.949042044048885,0.28768596478376035,0.6665608711992956
0.0315,1.7763584937024461,1.0,2738.0090944773333,0.29844961961529104,1.3229912506891268,0.9502655308536193,0.28766005673550277,0.6673362626858216
0.032,1.7757416354105986,1.0,2748.462072914426,0.30238478555212694,1.3226178940266877,0.951438561089184,0.28763414868724513,0.6681048930286508
0.0325,1.7751247771187508,1.0,2758.630298309046,0.30629788188287865,1.3222472919481332,0.9525639083223295,0.28760824063898754,0.6688669733166284
0.033,1.7745079188269033,1.0,2768.522368493826,0.3101890289677584,1.3218793516382843,0.9536441576430007,0.28758233259072996,0.6696227136126204
0.0335,1.7738910605350555,1.0,2778.147003096775,0.31405834716697845,1.3215139802819615,0.9546817207468568,0.2875564245424723,0.6703723229695486
0.034,1.773274202243208,1.0,2787.5130381595163,0.31790595684075096,1.3211510850639858,0.955678849640098,0.28753051649421474,0.6711160094458691
0.0345,1.7726573439513604,1.0,2796.62942094583,0.3217319783492882,1.3207905731691776,0.9566376491070222,0.28750460844595715,0.6718539801205056
0.035,1.7720404856595127,1.0,2805.5052049417577,0.32553653205280236,1.320432351782358,0.9575600880650461,0.2874787003976995,0.6725864411072296
0.035500000000000004,1.7714236273676651,1.0,2814.149545047005,0.32931973831150574,1.3200763280883474,0.958448009918114,0.28745279234944193,0.6733135975684967
0.036000000000000004,1.7708067690758174,1.0,2822.5716929560854,0.3330817174856105,1.3197224092719668,0.9593031420072897,0.28742688430118435,0.6740356537287275
0.0365,1.7701899107839698,1.0,2830.7809927320222,0.33682258993532876,1.3193705025180367,0.9601271042466017,0.2874009762529267,0.6747528128870433
0.037,1.769573052492122,1.0,2838.7868765701555,0.340542476020873,1.3190205150113778,0.9609214170227749,0.2873750682046691,0.6754652774294492
0.0375,1.7689561942002745,1.0,2846.598860752746,0.34424149610245525,1.3186723539368108,0.9616875084291265,0.28734916015641154,0.6761732488404719
0.038,1.7683393359084267,1.0,2854.2265417953176,0.3479197705402878,1.3183259264791567,0.9624267208965198,0.2873232521081539,0.6768769277142428
0.0385,1.7677224776165792,1.0,2861.6795927836574,0.35157741969458284,1.317981139823236,0.963140317277719,0.2872973440598963,0.6775765137650372
0.039,1.7671056193247314,1.0,2868.9580376154045,0.3552145414798951,1.3176379873510988,0.9638294900127473,0.28727143601163874,0.6782720312230331
0.0395,1.7664887610328839,1.0,2876.0751616259354,0.3588312729263698,1.317296345206258,0.9644953594083432,0.2872455279633811,0.6789637414500993
0.04,1.7658719027410363,1.0,2883.0360942746797,0.36242772518680505,1.316956162419458,0.9651389832104813,0.2872196199151235,0.6796517573479919
0.0405,1.7652550444491886,1.0,2889.8457205861787,0.3660040086284247,1.3166173905548284,0.9657613594143424,0.28719371186686593,0.6803361862189135
0.041,1.764638186157341,1.0,2896.508964989629,0.36956023361845247,1.3162799811764998,0.966363430198764,0.2871678038186083,0.681017134907503
0.0415,1.7640213278654933,1.0,2903.030789830177,0.3730965105241123,1.3159438858486017,0.9669460856312544,0.2871418957703507,0.6816947098051205
0.042,1.7634044695736457,1.0,2909.416193930884,0.3766129497126279,1.3156090561352645,0.9675101670901156,0.2871159877220931,0.682369016853978
0.0425,1.762787611281798,1.0,2915.67021120825,0.38010966155122305,1.3152754436006178,0.9680564704279704,0.2870900796738355,0.6830401615511279
0.043000000000000003,1.7621707529899504,1.0,2921.7979093390186,0.3835867564071217,1.314942999808792,0.9685857488986801,0.2870641716255779,0.6837082489522934
0.043500000000000004,1.7615538946981026,1.0,2927.80438847862,0.3870443446475476,1.3146116763239173,0.9690987158675749,0.2870382635773203,0.6843733836755571
0.044,1.760937036406255,1.0,2933.694780032576,0.3904825366397245,1.314281424710123,0.9695960473230594,0.2870123555290627,0.6850356699048955
0.0445,1.7603201781144076,1.0,2939.4742454792836,0.3939014427508763,1.3139521965315402,0.9700783842059858,0.2869864474808051,0.6856952113935625
0.045,1.7597033198225598,1.0,2945.1479752447,0.3973011733482268,1.3136239433522978,0.9705463345716995,0.2869605394325475,0.68635211146733
0.0455,1.7590864615307122,1.0,2950.7155717254013,0.40068181332915026,1.3132966658321952,0.9710004757078836,0.28693463138428993,0.6870063749312176
0.046,1.7584696032388645,1.0,2956.186640611669,0.40404349825156355,1.3129702773133145,0.9714413564932587,0.2869087233360323,0.687658180862331
0.0465,1.757852744947017,1.0,2961.5659973265774,0.4073863401945009,1.312644733308311,0.9718694983012137,0.2868828152877747,0.6883076235158643
0.047,1.7572358866551692,1.0,2966.856248173452,0.41071044063684103,1.3123200087943196,0.9722853968231253,0.2868569072395171,0.6889547579933549
0.0475,1.7566190283633216,1.0,2972.0600142549247,0.41401590105746283,1.311996078748475,0.9726895236115325,0.28683099919125954,0.6895996391759419
0.048,1.7560021700714739,1.0,2977.1799310250894,0.417302822935245,1.3116729181479123,0.9730823274812321,0.2868050911430019,0.6902423217256529
0.0485,1.7553853117796263,1.0,2982.2186478558815,0.4205713077490663,1.3113505019697664,0.9734642358164781,0.2867791830947443,0.6908828600866533
0.049,1.7547684534877788,1.0,2987.1788276169295,0.4238214569778055,1.3110288051911718,0.9738356557913858,0.28675327504648673,0.6915213084864544
0.0495,1.754151595195931,1.0,2992.063146269462,0.4270533721003414,1.3107078027892638,0.9741969755100511,0.2867273669982291,0.692157720937079
0.05,1.7535347369040835,1.0,2996.8742924745047,0.43026715459555276,1.3103874697411768,0.9745485650723562,0.2867014589499715,0.6927921512361928
0.0505,1.7529178786122357,1.0,3001.61496721397,0.43346290594231834,1.310067781024046,0.9748907775709235,0.2866755509017139,0.6934246529681898
0.051000000000000004,1.7523010203203881,1.0,3006.287883426791,0.43664072761951683,1.3097487116150062,0.9752239500242554,0.2866496428534563,0.6940552795052416
0.051500000000000004,1.7516841620285404,1.0,3010.8957656581533,0.43980072110602714,1.3094302364911923,0.9755484042506715,0.2866237348051987,0.6946840840083062
0.052000000000000005,1.7510673037366928,1.0,3015.4413497228807,0.44294298788072795,1.3091123306297392,0.9758644476872897,0.2865978267569411,0.6953111194280956
0.0525,1.750450445444845,1.0,3019.927382382636,0.446067629422498,1.3087949690077814,0.9761723741579648,0.2865719187086835,0.6959364385060056
0.053,1.7498335871529975,1.0,3024.356621037142,0.4491747472102161,1.3084781266024543,0.9764724645937748,0.2865460106604259,0.6965600937750005
0.0535,1.7492167288611498,1.0,3028.728274489704,0.4522644105908754,1.3081618091007416,0.9767649863566173,0.2865201026121683,0.6971820772058612
0.054,1.7485998705693022,1.0,3033.0470025953223,0.45533674656366735,1.3078459751856093,0.9770501982226084,0.2864941945639107,0.69780247309318
0.0545,1.7479830122774547,1.0,3037.3160951292634,0.45839186686707417,1.3075305954774483,0.9773283470732396,0.2864682865156531,0.6984213419811418
0.055,1.747366153985607,1.0,3041.536794367547,0.46142986345922954,1.3072156583220456,0.9775996684728269,0.2864423784673955,0.6990387094443629
0.0555,1.7467492956937594,1.0,3045.7103476697716,0.4644508282982671,1.306901152065188,0.9778643881227761,0.28641647041913787,0.6996546009600138
0.056,1.7461324374019116,1.0,3049.838007366302,0.4674548533423205,1.3065870650526628,0.9781227223558627,0.2863905623708803,0.7002690419081452
0.0565,1.745515579110064,1.0,3053.921030648229,0.4704420305495235,1.3062733856302569,0.9783748786018183,0.2863646543226227,0.7008820575720025
0.057,1.7448987208182163,1.0,3057.9606794605434,0.4734124518780096,1.3059601021437572,0.978621055826112,0.28633874627436506,0.7014936731383343
0.0575,1.7442818625263687,1.0,3061.9582203987757,0.4763662092859126,1.3056472029389508,0.9788614449436788,0.2863128382261075,0.7021039136976909
0.058,1.743665004234521,1.0,3065.9149246074335,0.47930339473136613,1.3053346763616247,0.979096229209206,0.2862869301778499,0.7027128042447127
0.0585,1.7430481459426734,1.0,3069.8320676828675,0.48222410017250383,1.3050225107575657,0.9793255845854952,0.28626102212959226,0.7033203696784143
0.059000000000000004,1.7424312876508257,1.0,3073.7109295782893,0.4851284175674594,1.3047106944725608,0.9795496800912846,0.2862351140813347,0.7039266348024544
0.059500000000000004,1.7418144293589781,1.0,3077.55279451183,0.48801643887436646,1.3043992158523974,0.9797686781298385,0.2862092060330771,0.7045316243254005
0.06,1.7411975710671306,1.0,3081.3589508778527,0.49088825605135866,1.3040880632428622,0.9799827347995037,0.28618329798481945,0.7051353628609855
0.0605,1.7405807127752828,1.0,3085.1306911616257,0.4937439610565698,1.303777224989742,0.9801920001873592,0.28615738993656187,0.7057378749283538
0.061,1.7399638544834353,1.0,3088.8693118558967,0.4965836458481334,1.303466689438824,0.9803966186469998,0.2861314818883043,0.706339184952297
0.0615,1.7393469961915875,1.0,3092.576113381586,0.49940740238418324,1.3031564449358954,0.9805967290614286,0.28610557384004665,0.7069393172634866
0.062,1.73873013789974,1.0,3096.252400011149,0.502215322622853,1.302846479826743,0.9807924650919629,0.28607966579178906,0.7075382960986931
0.0625,1.7381132796078922,1.0,3099.8988175932764,0.5050074844405362,1.302536788105271,0.9809839546599436,0.2860537577435315,0.7081361347032729
0.063,1.7374964213160446,1.0,3103.5143656649516,0.5077839377948808,1.3022273778175186,0.9811713196478746,0.28602784969527384,0.708732819188606
0.0635,1.7368795630241969,1.0,3107.1031999201923,0.5105448447847845,1.301918213067754,0.9813546833827952,0.28600194164701626,0.7093284203379282
0.064,1.7362627047323493,1.0,3110.665858927528,0.51329028724415,1.3016092888450288,0.981534160436551,0.28597603359875867,0.7099229492423342
0.0645,1.7356458464405018,1.0,3114.2028829944247,0.5160203470068808,1.301300600138394,0.9817098612539923,0.2859501255505011,0.7105164169523075
0.065,1.735028988148654,1.0,3117.7148141402477,0.5187351059068798,1.3009921419369013,0.9818818923316571,0.28592421750224345,0.7111088344777943
0.0655,1.7344121298568065,1.0,3121.202196070967,0.5214346457780501,1.300683909229602,0.9820503563874715,0.28589830945398587,0.7117002127882794
0.066,1.7337952715649587,1.0,3124.6655741534787,0.5241190484542951,1.3003758970055477,0.9822153525219814,0.2858724014057283,0.7122905628128591
0.0665,1.7331784132731112,1.0,3128.105495390722,0.5267883957695177,1.3000681002537895,0.9823769763715962,0.2858464933574707,0.7128798954403117
0.067,1.7325615549812634,1.0,3131.5225083978175,0.5294427695576212,1.299760513963379,0.98253532025429,0.28582058530921306,0.7134682215191673
0.0675,1.7319446966894159,1.0,3134.9171633782266,0.5320822516525084,1.2994531331233676,0.982690473308187,0.2857946772609555,0.7140555518577764
0.068,1.731327838397568,1.0,3138.2900121005796,0.5347069238880828,1.2991459527228066,0.9828425216234232,0.28576876921269784,0.7146418972243761
0.0685,1.7307109801057206,1.0,3141.641607876304,0.5373168680982475,1.2988389677507475,0.9829915483676538,0.28574286116444025,0.7152272683471548
0.069,1.730094121813873,1.0,3144.9725055373874,0.5399121661169054,1.2985321731962416,0.9831376339055586,0.28571695311618267,0.7158116759143152
0.0695,1.7294772635220252,1.0,3148.2832614151544,0.5424928997779599,1.2982255640483402,0.983280855912667,0.2856910450679251,0.716395130574137
0.07,1.7288604052301777,1.0,3151.5744333192497,0.5450591509153139,1.297919135296095,0.9834212894838118,0.28566513701966745,0.7169776429350352
0.07050000000000001,1.72824354693833,1.0,3154.8465805175283,0.5476110013628707,1.2976128819285575,0.9835590072365008,0.28563922897140986,0.7175592235656202
