Time [s],Phi [rad],STIM [ ],Fsee [N],Gamma [ ],Lcerel [ ],q [ ],Lmtc [m],fisomrel [ ]
0.0,1.8,1.0,17.96792962998658,1.0000466376270064e-05,1.3793396597910592,0.005000026654242969,0.288653,0.5411397401454192
0.0005,1.79999375,1.0,18.277190366123072,0.0056191536804627625,1.3793023382234444,0.0129405142524479,0.2886527375,0.5412300262060836
0.001,1.799975,1.0,21.618767849242953,0.011196843979941034,1.3789382626598894,0.03560857567441861,0.28865195,0.5421103096055635
0.0015,1.79994375,1.0,31.069526558142467,0.016743247847745137,1.378046178974841,0.07060170272148224,0.2886506375,0.5442636688855945
0.002,1.7999,1.0,53.58242401555934,0.022258540775160582,1.3763681293400436,0.11471783343396645,0.2886488,0.5483004821973094
0.0025,1.79984375,1.0,97.11859181208628,0.02774289726938267,1.3739351839245102,0.16457467114918548,0.28864643749999996,0.5541214229060674
0.003,1.7997750000000001,1.0,160.95764459600218,0.03319649086123855,1.3712143633036613,0.21728022559492827,0.28864354999999997,0.5605864045824533
0.0035,1.79969375,1.0,237.68269409481,0.03861949410477527,1.368584753868257,0.27061266154818614,0.2886401375,0.5667897934179734
0.004,1.7996,1.0,321.46607838833467,0.04401207858804283,1.3661561107497893,0.32291558218794447,0.2886362,0.5724799188794263
0.0045000000000000005,1.7994937500000001,1.0,409.2670423754901,0.04937441493827857,1.3639228307957574,0.37303429971327845,0.2886317375,0.5776791238061306
0.005,1.799375,1.0,499.4127776284898,0.05470667281299342,1.3618583577857182,0.42024726705546794,0.28862675,0.5824570436882117
0.0055,1.79924375,1.0,590.7896908182091,0.06000902094746768,1.3599388492285265,0.46417351975784804,0.2886212375,0.5868750791327937
0.006,1.7991000000000001,1.0,682.5173800643372,0.06528162709783772,1.3581464279852975,0.5046797991093428,0.2886152,0.5909793881421306
0.006500000000000001,1.79894375,1.0,773.880613003818,0.07052465809676321,1.3564672646254143,0.5418006116407359,0.2886086375,0.594805769293606
0.007,1.798775,1.0,864.2851263595361,0.07573827983700279,1.3548904060587983,0.5756766473312195,0.28860155,0.5983826520644812
0.0075,1.79859375,1.0,953.2426317446622,0.0809226572811563,1.3534067881685323,0.6065097948732117,0.2885939375,0.6017335525395476
0.008,1.7984,1.0,1040.3433404919444,0.08607795402345317,1.3520088688700718,0.6345320761666807,0.2885858,0.60487804922453
0.0085,1.79819375,1.0,1125.3131728142164,0.09120433423451066,1.3506892564291677,0.6599843429394895,0.2885771375,0.6078349662792011
0.009000000000000001,1.797975,1.0,1207.9001102110606,0.09630195988238358,1.3494420360121033,0.6831041046377345,0.28856795,0.6106194625883798
0.0095,1.79774375,1.0,1287.8932889538278,0.10137099142647578,1.3482621094693499,0.7041173902978487,0.2885582375,0.6132445889922149
0.01,1.7975,1.0,1365.1675649454955,0.10641158932619113,1.3471443786513781,0.7232341517344382,0.288548,0.6157231516924382
0.0105,1.79724375,1.0,1439.6575880259563,0.11142391359070229,1.3460839703071714,0.7406466061937301,0.2885372375,0.6180672369146203
0.011,1.796975,1.0,1511.3197291960173,0.11640812302668865,1.3450765839982788,0.7565290829804067,0.28852595000000003,0.6202874718624963
0.0115,1.79669375,1.0,1580.1194033104352,0.12136437481510418,1.344118502282494,0.7710385643108746,0.2885141375,0.6223930369478737
0.012,1.7964,1.0,1646.0571735132846,0.12629282563920466,1.3432061630527115,0.7843155395561318,0.28850180000000003,0.6243926327890168
0.0125,1.79609375,1.0,1709.1733739444905,0.13119363211986323,1.3423360416942474,0.7964852844085331,0.2884889375,0.6262947530520234
0.013000000000000001,1.7957750000000001,1.0,1769.5053338307837,0.13606694924980778,1.3415050865318516,0.8076594575686081,0.28847555,0.6281067470435986
0.0135,1.79544375,1.0,1827.089445951691,0.14091293055415793,1.3407106182136441,0.817937438129601,0.2884616375,0.6298350594275397
0.014,1.7951000000000001,1.0,1881.9895563430728,0.14573172954220864,1.3399499595089126,0.8274075092095374,0.2884472,0.6314860492024512
0.0145,1.79474375,1.0,1934.2811581558776,0.15052349855685018,1.3392205796663803,0.8361481565734088,0.2884322375,0.6330656834528219
0.015,1.794375,1.0,1984.056120189802,0.1552883906088704,1.3385200106315152,0.8442291691576727,0.28841675,0.6345797270473179
0.0155,1.79399375,1.0,2031.3739510348933,0.16002655522660794,1.3378463357858579,0.8517128103133763,0.2884007375,0.6360326957782825
0.016,1.7936,1.0,2076.310010910754,0.16473814193840147,1.3371976385109492,0.8586545243045947,0.2883842,0.6374290579803548
0.0165,1.7931937500000001,1.0,2118.952898029164,0.16942330014638726,1.3365720153068523,0.8651037485888727,0.2883671375,0.6387732095417218
0.017,1.792775,1.0,2159.387817748701,0.17408217779652335,1.3359677322483692,0.8711046699503686,0.28834955,0.6400691418618882
0.0175,1.7923437500000001,1.0,2197.719953582777,0.17871492449188012,1.335382968941209,0.8766967734828031,0.2883314375,0.6413209953577172
0.018000000000000002,1.7919,1.0,2234.0151383518087,0.1833216852279279,1.3348164080481468,0.8819155503633431,0.2883128,0.6425318013448242
0.0185,1.79144375,1.0,2268.3474085541798,0.18790260500013695,1.3342667322319581,0.8867928293169213,0.2882936375,0.643704565443139
0.019,1.790975,1.0,2300.7983270794007,0.19245782880397766,1.3337326241554175,0.8913572008379893,0.28827395,0.6448422690508254
0.0195,1.79049375,1.0,2331.4514854566137,0.1969875009641948,1.333212814268939,0.8956343998102089,0.2882537375,0.6459477691548903
0.02,1.79,1.0,2360.39028599018,0.2014917654788869,1.3327060951513536,0.8996476329048148,0.288233,0.6470237699270995
0.0205,1.78949375,1.0,2387.6986279983894,0.20597076627712185,1.3322113077765165,0.9034178587939838,0.2882117375,0.6480728539075785
0.021,1.788975,1.0,2413.4376422203245,0.21042464347693562,1.3317275604221053,0.9069640825684037,0.28818995000000003,0.6490970205880054
0.021500000000000002,1.78844375,1.0,2437.6723517835817,0.21485353719636413,1.3312539613657972,0.9103035129757604,0.2881676375,0.6500982559931981
0.022,1.7879,1.0,2460.4713511393443,0.21925758755344327,1.3307896188852701,0.913451756967419,0.2881448,0.6510785332836024
0.0225,1.78734375,1.0,2481.9065026281332,0.22363693466620904,1.3303336412582012,0.9164229909565723,0.28812143749999997,0.6520398133070728
0.023,1.786775,1.0,2502.0365771156985,0.2279917155953085,1.3298852893613418,0.9192301395679717,0.28809755,0.6529837240528821
0.0235,1.78619375,1.0,2520.9458653702486,0.23232207238267855,1.329443606075033,0.9218849397154303,0.28807313749999996,0.6539123418886432
0.024,1.7856,1.0,2538.6827392649866,0.2366281401055706,1.3290079971677409,0.9243981637724222,0.2880482,0.6548269700244638
0.0245,1.78499375,1.0,2555.296699660779,0.24091005370956003,1.3285778749724388,0.9267796552583479,0.2880227375,0.6557288905567487
0.025,1.784375,1.0,2570.838916199779,0.2451679481402223,1.3281526518220994,0.9290384206554338,0.28799675,0.6566193785144261
0.025500000000000002,1.78374375,1.0,2585.3620860912233,0.2494019583431328,1.3277317400496957,0.9311827120175379,0.2879702375,0.6574997020535671
0.026000000000000002,1.7831000000000001,1.0,2598.9203005550385,0.253612219263867,1.3273145519882008,0.9332201004190035,0.2879432,0.6583711226299853
0.0265,1.78244375,1.0,2611.5613575776047,0.2577988617552357,1.3269005702350827,0.9351575506603886,0.2879156375,0.6592347486606435
0.027,1.781775,1.0,2623.342824669235,0.26196202398792645,1.3264891968368173,0.93700146018505,0.28788755,0.6600918506022002
0.0275,1.7810937500000001,1.0,2634.3018019820443,0.2661018354235242,1.3260800329795195,0.9387577476597461,0.2878589375,0.6609432783548326
0.028,1.7804,1.0,2644.4761420167515,0.2702184255082552,1.3256726801380845,0.9404318707302782,0.2878298,0.6617898769505004
0.0285,1.77969375,1.0,2653.904412981419,0.2743119236883456,1.3252667397874072,0.9420288679473349,0.2878001375,0.6626324872068596
0.029,1.778975,1.0,2662.62583466987,0.27838245941002177,1.3248618134023824,0.9435533964064684,0.28776995,0.6634719457682261
0.029500000000000002,1.7782437500000001,1.0,2670.6802178615576,0.2824301621195099,1.3244575024579055,0.945009765555312,0.2877392375,0.6643090851364103
0.03,1.7775,1.0,2678.0998555470464,0.28645515735118054,1.32405348231468,0.9464019761110247,0.287708,0.6651445809940353
0.0305,1.77674375,1.0,2684.9197967030823,0.2904575738963891,1.323649407101581,0.9477337365499897,0.2876762375,0.6659791494987088
0.031,1.775975,1.0,2691.1867946316743,0.29443754659865806,1.3232448275446262,0.9490084784002054,0.28764395,0.6668137164083063
0.0315,1.7751937500000001,1.0,2696.9243565976794,0.2983951982081139,1.3228395107359658,0.9502294139396537,0.2876111375,0.6676487573589356
0.032,1.7744,1.0,2702.156263702708,0.30233065147488297,1.3224332237677507,0.9513995312750682,0.2875778,0.6684847455699476
0.0325,1.77359375,1.0,2706.9065461426358,0.3062440291490918,1.3220257337321313,0.9525216127305267,0.2875439375,0.669322151831258
0.033,1.772775,1.0,2711.199459667369,0.31013545398086684,1.3216168077212582,0.9535982515162394,0.28750955,0.6701614444872042
0.0335,1.7719437500000002,1.0,2715.059463243827,0.3140050487203345,1.321206212827282,0.9546318668567361,0.2874746375,0.6710030894169481
0.034,1.7711000000000001,1.0,2718.5111979211742,0.31785293611762133,1.320793716142353,0.9556247177372226,0.2874392,0.6718475500114139
0.0345,1.7702437500000001,1.0,2721.5794668993653,0.3216792389228536,1.320379084758622,0.9565789154089422,0.2874032375,0.6726952871467718
0.035,1.7693750000000001,1.0,2724.289216799552,0.32548407988615785,1.3199620857682397,0.9574964347786439,0.28736675,0.6735467591544568
0.035500000000000004,1.7684942995182553,1.0,2726.7017058533243,0.32926757491296665,1.31954240534859,0.9583791145984449,0.2873297605797667,0.6744025866837927
0.036000000000000004,1.7676105059931824,1.0,2729.233917963702,0.3330298511932131,1.3191202494741472,0.9592287344661754,0.28729264125171367,0.6752623290036928
0.0365,1.7667267124681092,1.0,2732.013522229763,0.3367710285516201,1.3186958565604394,0.9600469641670744,0.28725552192366055,0.6761254815408413
0.037,1.7658429189430362,1.0,2735.022282265766,0.34049122276388427,1.3182693956146083,0.9608353624326992,0.2872184025956075,0.6769916830839029
0.0375,1.7649591254179633,1.0,2738.241950784107,0.34419054960570217,1.3178410356437955,0.9615953929077704,0.28718128326755443,0.6778605741737229
0.038,1.7640753318928901,1.0,2741.654262163278,0.3478691248527703,1.3174109456551422,0.9623284310088515,0.2871441639395014,0.678731797124708
0.0385,1.7631915383678172,1.0,2745.2409256483998,0.3515270642807852,1.31697929465579,0.9630357702165921,0.2871070446114483,0.6796049960443812
0.039,1.762307744842744,1.0,2748.9836191850477,0.3551644836654435,1.3165462516528803,0.9637186278539248,0.28706992528339526,0.6804798168511205
0.0395,1.761423951317671,1.0,2752.8639838870245,0.3587814987824417,1.316111985653555,0.9643781503972692,0.2870328059553422,0.6813559072900721
0.04,1.7605401577925979,1.0,2756.8636191365467,0.36237822540747633,1.3156766656649552,0.9650154183630584,0.28699568662728914,0.6822329169472452
0.0405,1.759656364267525,1.0,2760.9695448591956,0.3659547749811176,1.3152404112893956,0.9656314456719919,0.2869585672992361,0.6831105965883058
0.041,1.7587725707424517,1.0,2765.167506739264,0.3695112637474603,1.3148033533382337,0.9662271911168542,0.28692144797118296,0.6839886757876377
0.0415,1.7578887772173788,1.0,2769.442545529816,0.3730478083274122,1.3143656286302898,0.9668035607684944,0.2868843286431299,0.6848668735200341
0.042,1.7570049836923056,1.0,2773.787680320796,0.3765645180150111,1.3139273016539907,0.9673614035870879,0.28684720931507685,0.6857450550900648
0.0425,1.7561211901672327,1.0,2778.1959103801614,0.3800615021042951,1.313488436897763,0.9679015224723413,0.2868100899870238,0.6866230865159351
0.043000000000000003,1.7552373966421595,1.0,2782.6602143387613,0.38353886988930214,1.3130490988500334,0.9684246772330292,0.28677297065897067,0.6875008345318304
0.043500000000000004,1.7543536031170865,1.0,2787.1735494677496,0.3869967306640701,1.3126093519992286,0.9689315873363102,0.2867358513309176,0.688378166589995
0.044,1.7534698095920136,1.0,2791.7288510476105,0.39043519372263685,1.3121692608337747,0.9694229344551955,0.28669873200286455,0.689254950862547
0.0445,1.7525860160669404,1.0,2796.3190318298493,0.39385436835904053,1.311728889842099,0.9698993648308475,0.2866616126748115,0.6901310562430247
0.045,1.7517022225418675,1.0,2800.9369815910923,0.397254363867319,1.3112883035126275,0.970361491464871,0.28662449334675844,0.6910063523476733
0.0455,1.7508184290167943,1.0,2805.577321579448,0.40063528561307293,1.3108475506010542,0.970809894414901,0.2865873740187054,0.6918807407057559
0.046,1.7499346354917213,1.0,2810.237579680691,0.40399723584432023,1.3104066536659298,0.9712451221671854,0.2865502546906523,0.6927541752548454
0.0465,1.7490508419666482,1.0,2814.9068329764914,0.4073403377405473,1.3099657108326606,0.9716677042721691,0.2865131353625992,0.6936264608035825
0.047,1.7481670484415752,1.0,2819.5829956671373,0.4106646935435383,1.3095247408692072,0.9720781355534555,0.28647601603454614,0.6944975599166139
0.0475,1.747283254916502,1.0,2824.2639749971,0.4139704054950775,1.3090837625435299,0.9724768867067833,0.2864388967064931,0.6953674353696901
0.048,1.746399461391429,1.0,2828.9476712477817,0.4172575758369492,1.308642794623589,0.9728644057030491,0.28640177737844,0.6962360501496845
0.0485,1.745515667866356,1.0,2833.631977737843,0.42052630681093756,1.308201855877345,0.9732411190971708,0.28636465805038697,0.6971033674545928
0.049,1.744631874341283,1.0,2838.314780831534,0.4237767006588268,1.3077609650727582,0.973607433249924,0.28632753872233385,0.6979693506935094
0.0495,1.7437480808162098,1.0,2842.9939599549434,0.42700885962240115,1.3073201409777886,0.9739637354692888,0.2862904193942808,0.6988339634865821
0.05,1.7428642872911368,1.0,2847.6673876192485,0.4302228859434449,1.3068794023603971,0.9743103950772876,0.28625330006622773,0.699697169664941
0.0505,1.741980493766064,1.0,2852.3329294529467,0.4334188818637421,1.3064387679885436,0.9746477644078191,0.2862161807381747,0.7005589332706108
0.051000000000000004,1.7410967002409907,1.0,2856.988444241097,0.4365969496250772,1.3059982566301886,0.9749761797405218,0.2861790614101216,0.7014192185563942
0.051500000000000004,1.7402129067159178,1.0,2861.6317839726003,0.43975719146923437,1.3055578870532927,0.9752959621753087,0.28614194208206856,0.7022779899857374
0.052000000000000005,1.7393291131908446,1.0,2866.261792827001,0.44289970162426073,1.305117669165173,0.9756074170306211,0.2861048227540155,0.7031352294745283
0.0525,1.7384453196657716,1.0,2870.8785354105703,0.4460245726426904,1.3046776020258264,0.97591083526739,0.28606770342596244,0.7039909401268882
0.053,1.7375615261406985,1.0,2875.4783194948204,0.4491319294453635,1.3042377179697306,0.9762065005067726,0.2860305840979093,0.7048450604737584
0.0535,1.7366777326156255,1.0,2880.060897672988,0.45222186621098315,1.303798018747018,0.9764946789676114,0.28599346476985626,0.7056975886651357
0.054,1.7357939390905524,1.0,2884.626022134475,0.45529447711825255,1.3033585061078201,0.9767756254174493,0.2859563454418032,0.706548522869999
0.0545,1.7349101455654794,1.0,2889.1734446719174,0.4583498563458749,1.3029191818022692,0.9770495837621131,0.28591922611375015,0.7073978612762877
0.055,1.7340263520404062,1.0,2893.702916688765,0.4613880980725533,1.3024800475804967,0.9773167876001603,0.28588210678569703,0.7082456020908815
0.0555,1.7331425585153333,1.0,2898.214189206487,0.4644092964769911,1.3020411051926348,0.977577460744552,0.285844987457644,0.7090917435395782
0.056,1.73225876499026,1.0,2902.707012871746,0.4674135457378913,1.3016023563888155,0.9778318177137552,0.2858078681295909,0.7099362838670724
0.0565,1.7313749714651872,1.0,2907.1811379642127,0.4704009400339572,1.3011638029191706,0.9780800641942977,0.28577074880153785,0.7107792213369356
0.057,1.730491177940114,1.0,2911.6363144039433,0.47337157354389203,1.300725446533832,0.9783223974766546,0.2857336294734848,0.7116205542315923
0.0575,1.729607384415041,1.0,2916.0722917590956,0.4763255404463989,1.3002872889829316,0.9785590068662132,0.28569651014543174,0.7124602808523002
0.058,1.728723590889968,1.0,2920.488819253472,0.479262934920181,1.2998493320166011,0.9787900740709253,0.2856593908173787,0.7132983995191267
0.0585,1.727839797364895,1.0,2924.885645774237,0.4821838511439416,1.2994115773849728,0.9790157735671512,0.28562227148932556,0.7141349085709261
0.059000000000000004,1.726956003839822,1.0,2929.2625198801084,0.4850883832963837,1.2989740268381782,0.97923627294508,0.2855851521612725,0.7149698063653198
0.059500000000000004,1.7260722103147488,1.0,2933.619189808662,0.4879766255562107,1.2985366821263498,0.9794517332350254,0.28554803283321945,0.7158030912786697
0.06,1.7251884167896758,1.0,2937.955966754576,0.49084863320680483,1.298099540064687,0.9796623058069848,0.2855109135051664,0.7166347710880805
0.0605,1.7243046232646027,1.0,2942.272909992283,0.493704519315162,1.297662599685714,0.9798681409943077,0.2854737941771133,0.7174648493250713
0.061,1.7234208297395297,1.0,2946.5697319420938,0.4965444110187792,1.297225863061588,0.9800693846124049,0.2854366748490602,0.7182933237477491
0.0615,1.7225370362144565,1.0,2950.846627407177,0.4993683928019119,1.2967893280438016,0.9802661733801813,0.28539955552100715,0.7191202001253466
0.062,1.7216532426893836,1.0,2955.1037921754532,0.5021765491488157,1.2963529924838477,0.9804586388954405,0.2853624361929541,0.7199454842023868
0.0625,1.7207694491643104,1.0,2959.341423010383,0.5049689645437461,1.295916854233219,0.9806469078653668,0.28532531686490104,0.7207691816987114
0.063,1.7198856556392375,1.0,2963.5597176412443,0.5077457234709587,1.295480911143408,0.9808311023249717,0.285288197536848,0.7215912983095071
0.0635,1.7190018621141645,1.0,2967.758874754091,0.510506910414709,1.2950451610659075,0.9810113398442137,0.2852510782087949,0.7224118397053338
0.064,1.7181180685890913,1.0,2971.9390939822,0.5132526098592525,1.2946096018522102,0.9811877337244612,0.28521395888074186,0.7232308115321499
0.0645,1.7172342750640184,1.0,2976.1005758970678,0.5159829062888449,1.294174231353809,0.9813603931849201,0.2851768395526888,0.7240482194113383
0.065,1.7163504815389452,1.0,2980.243521999433,0.5186978841877417,1.2937390474221961,0.9815294235396076,0.2851397202246357,0.7248640689397348
0.0655,1.7154666880138723,1.0,2984.368134710343,0.5213976280401984,1.2933040479088649,0.9816949263654181,0.2851026008965826,0.7256783656896502
0.066,1.714582894488799,1.0,2988.474617362143,0.5240822223304705,1.2928692306653073,0.9818569996617887,0.28506548156852957,0.7264911152089
0.0665,1.7136991009637261,1.0,2992.5631741897446,0.5267517515428137,1.2924345935430168,0.9820157380024436,0.2850283622404765,0.7273023230208244
0.067,1.712815307438653,1.0,2996.6340103223015,0.5294063001614835,1.2920001343934855,0.9821712326796589,0.2849912429124234,0.7281119946243189
0.0675,1.71193151391358,1.0,3000.687331774407,0.5320459526707353,1.2915658510682064,0.9823235718414751,0.28495412358437033,0.7289201354938536
0.068,1.7110477203885068,1.0,3004.7233454376333,0.5346707935548248,1.2911317414186723,0.9824728406222405,0.2849170042563173,0.7297267510795005
0.0685,1.7101639268634339,1.0,3008.742259072515,0.5372809072980076,1.2906978032963754,0.9826191212668577,0.2848798849282642,0.7305318468069575
0.069,1.7092801333383607,1.0,3012.744281299845,0.5398763783845392,1.290264034552809,0.9827624932490806,0.28484276560021116,0.7313354280775695
0.0695,1.7083963398132878,1.0,3016.7296215931106,0.542457291298675,1.2898304330394654,0.982903033384181,0.2848056462721581,0.7321375002683544
0.07,1.7075125462882146,1.0,3020.6984902699865,0.5450237305246708,1.2893969966078374,0.9830408159362928,0.28476852694410504,0.7329380687320262
0.07050000000000001,1.7066287527631416,1.0,3024.6510984847714,0.547575780546782,1.2889637231094178,0.983175912720719,0.284731407616052,0.7337371387970145
0.07100000000000001,1.7057449592380687,1.0,3028.5872989443405,0.5501134724299044,1.2885306134959402,0.9833083901641874,0.28469428828799886,0.7345347100626798
0.07150000000000001,1.7048611657129955,1.0,3032.5077822873545,0.5526369373417758,1.2880976614922492,0.9834383181444324,0.2846571689599458,0.7353307954167645
